seq,time,data[0],data[1],data[2],data[3],data[4],data[5],data[6]
201,1713925716277582681,2041,2041,2050,2064,2075,2067,1194
202,1713925716287604683,2069,2082,2095,2060,2045,2033,1195
203,1713925716297582810,2042,2040,2048,2049,2058,2067,1195
204,1713925716307583451,2074,2082,2090,2046,1973,2010,1195
205,1713925716317584993,2046,2021,2015,2084,2066,2066,1197
206,1713925716327581897,2067,2080,2097,2039,2054,2047,1196
207,1713925716337579771,2047,2029,2052,2050,2037,2061,1195
208,1713925716347580543,2068,2062,2052,2081,2070,2046,1194
209,1713925716357584169,2043,2032,2030,2035,2028,2062,1197
210,1713925716367586282,2069,2067,2029,2030,2058,2047,1195
211,1713925716377582825,2044,2036,2040,2082,2073,2065,1196
212,1713925716387582674,2067,2068,2048,2077,2072,2039,1194
213,1713925716397583295,2046,2033,2043,2072,2057,2066,1195
214,1713925716407584246,2070,2087,2092,2065,2048,2044,1193
215,1713925716417584947,2046,2030,2034,2070,2084,2073,1196
216,1713925716427582882,2065,2073,2084,2036,2036,2040,1193
217,1713925716437583352,2056,2065,2137,2093,2074,2073,1198
218,1713925716447584804,2073,2072,2043,2063,2050,2042,1192
219,1713925716457588050,2050,2060,2142,2061,2056,2069,1195
220,1713925716467585114,2061,2066,2052,2076,2056,2038,1194
221,1713925716477583029,2043,2038,2053,2050,2025,2057,1196
222,1713925716487585794,2060,2066,2052,2048,2051,2043,1195
223,1713925716497563580,2042,2021,2024,2050,2085,2065,1196
224,1713925716507581505,2067,2069,2048,2025,2044,2044,1194
225,1713925716517586132,2045,2036,2057,2059,2064,2071,1196
226,1713925716527586032,2076,2098,2150,2051,2049,2041,1194
227,1713925716537583686,2046,2034,2049,2061,2062,2065,1196
228,1713925716547585359,2065,2064,2049,2045,2042,2046,1195
229,1713925716557587914,2046,2029,2032,2056,2046,2058,1197
230,1713925716567615155,2067,2075,2078,2068,2064,2046,1195
231,1713925716577581170,2043,2040,2066,2097,2056,2064,1197
232,1713925716587582040,2068,2075,2059,2079,2044,2036,1194
233,1713925716597577541,2038,2025,2040,2066,2044,2057,1198
234,1713925716607582139,2076,2092,2088,2072,2049,2042,1193
235,1713925716617577229,2044,2034,2056,2052,2073,2066,1194
236,1713925716627575515,2060,2068,2056,2012,2030,2044,1192
237,1713925716637571918,2050,2026,2035,2041,2088,2067,1196
238,1713925716647582217,2067,2077,2112,2042,2044,2041,1193
239,1713925716657584951,2046,2035,2045,2064,2051,2063,1196
240,1713925716667578950,2066,2068,2092,2053,2049,2042,1196
241,1713925716677579109,2060,2077,2127,2081,2068,2072,1195
242,1713925716687577856,2072,2080,2078,2059,2045,2045,1192
243,1713925716697578206,2048,2047,2080,2073,2059,2064,1196
244,1713925716707576813,2064,2068,2052,2027,2004,2030,1192
245,1713925716717579747,2045,2029,1960,2074,2065,2066,1199
246,1713925716727580929,2074,2082,2057,2049,2057,2045,1196
247,1713925716737577493,2041,2044,2136,2058,2054,2065,1197
248,1713925716747578393,2068,2071,2036,2049,2038,2041,1194
249,1713925716757581379,2049,2056,2065,2076,2046,2053,1197
250,1713925716767581327,2069,2073,2031,2036,2040,2040,1194
251,1713925716777582379,2043,2042,2083,2072,2057,2062,1197
252,1713925716787584642,2073,2088,2084,2068,2053,2044,1192
253,1713925716797584362,2044,2037,2105,2101,2085,2077,1195
254,1713925716807583890,2069,2069,2054,2034,2047,2040,1194
255,1713925716817594600,2049,2042,2058,2065,2066,2062,1195
256,1713925716827586174,2069,2084,2093,2076,2085,2042,1192
257,1713925716837585271,2054,2064,2096,2068,2064,2064,1199
258,1713925716847586303,2066,2064,2047,2050,2056,2047,1193
259,1713925716857586692,2040,2031,2044,2063,2075,2067,1195
260,1713925716867588135,2070,2075,2060,2073,2033,2031,1193
261,1713925716877587653,2042,2040,2052,2052,2062,2068,1194
262,1713925716887588945,2067,2083,2077,2046,2044,2045,1194
263,1713925716897587522,2050,2044,2092,2064,2072,2069,1194
264,1713925716907588903,2064,2074,2052,2042,2040,2039,1193
265,1713925716917592410,2041,2027,2028,2057,2050,2053,1196
266,1713925716927592479,2067,2072,2048,2061,2063,2043,1196
267,1713925716937592288,2046,2061,2126,2045,2070,2068,1199
268,1713925716947592498,2061,2064,2056,2033,2020,2029,1195
269,1713925716957557179,2042,2042,2063,2037,2042,2058,1196
270,1713925716967593859,2080,2104,2147,2052,2040,2047,1196
271,1713925716977577597,2040,2030,2029,2029,2018,2068,1198
272,1713925716987576495,2070,2070,2056,2084,2070,2049,1195
273,1713925716997594529,2044,2038,2077,2066,2065,2072,1197
274,1713925717007594709,2066,2084,2073,2049,2012,2027,1194
275,1713925717017578697,2041,2034,2068,2033,2031,2001,1193
276,1713925717027597112,2066,2073,2053,2069,2114,2099,1195
277,1713925717037578816,2053,2053,2107,2090,2057,2056,1195
278,1713925717047608082,2065,2073,2051,2053,2069,2052,1195
279,1713925717057581891,2041,2039,2018,2050,2089,2094,1196
280,1713925717067583563,2067,2069,2044,2041,2022,2023,1195
281,1713925717077581108,2044,2033,2056,2057,2025,2049,1196
282,1713925717087583613,2075,2112,2125,2057,2096,2149,1197
283,1713925717097585465,2047,2045,2072,2066,2067,2041,1193
284,1713925717107584824,2067,2090,2103,2037,2044,2045,1195
285,1713925717117580935,2040,2013,1985,2052,2042,2005,1195
286,1713925717127583700,2064,2064,2039,2046,2010,2025,1194
287,1713925717137581896,2062,2071,2087,2059,2100,2124,1196
288,1713925717147591654,2065,2067,2058,2045,2008,2052,1197
289,1713925717157579190,2049,2062,2128,2027,2003,2060,1196
290,1713925717167584289,2067,2076,2065,2165,2126,2196,1196
291,1713925717177581153,2039,2031,2017,2052,1967,2034,1192
292,1713925717187583156,2068,2061,2017,2085,2085,2067,1197
293,1713925717197585600,2054,2063,2087,2053,2056,2051,1195
294,1713925717207581111,2077,2121,2271,2032,1999,2053,1197
295,1713925717217582903,2052,2063,2236,2015,1961,1977,1192
296,1713925717227581060,2068,2058,2024,2044,2056,2067,1196
297,1713925717237579145,2036,2015,2042,2049,2045,2064,1197
298,1713925717247619362,2057,2069,2080,2058,2037,2037,1193
299,1713925717257588683,2034,2024,2018,2020,2048,2025,1195
300,1713925717267586607,2105,2152,2219,2044,2068,1961,1194
301,1713925717277588250,2047,2025,2036,2029,1921,2027,1192
302,1713925717287591386,2057,2028,1964,2073,2061,2040,1193
303,1713925717297594922,2068,2057,2010,2052,2040,2033,1194
304,1713925717307591976,2042,2061,2056,2045,2056,2104,1196
305,1713925717317590342,2047,2068,2130,2075,2148,2089,1197
306,1713925717327591394,2070,2088,2125,2059,2022,2033,1195
307,1713925717337587375,2057,2046,2025,2079,2122,2228,1196
308,1713925717347626470,2071,2059,1992,2054,1977,2050,1197
309,1713925717357589569,2052,2092,2273,2016,1772,2052,1197
310,1713925717367590419,2095,2108,2080,2053,2001,2116,1196
311,1713925717377591581,2046,2017,1929,2082,2092,2218,1196
312,1713925717387591009,2043,2029,1916,2089,2136,2082,1197
313,1713925717397593854,2036,2008,2046,2053,2003,2033,1195
314,1713925717407589445,2072,2059,2104,2037,2098,2122,1196
315,1713925717417588232,2027,2032,1915,2026,1964,1752,1193
316,1713925717427592420,2075,2081,2052,2052,1924,1996,1193
317,1713925717437591367,2029,2021,1956,2017,1758,2156,1197
318,1713925717447612176,2082,2093,1925,2070,2199,2025,1194
319,1713925717457592508,2034,1999,1936,2047,1997,1990,1192
320,1713925717467594331,2072,2090,1965,2045,2131,2096,1194
321,1713925717477589722,2021,1987,1989,2042,1884,2059,1196
322,1713925717487590492,2072,2093,2166,2012,2081,2160,1197
323,1713925717497594179,2070,2096,2080,2069,1875,1883,1192
324,1713925717507592295,2069,2037,2019,2034,2038,2186,1197
325,1713925717517587635,2034,2001,1994,2053,2100,2250,1197
326,1713925717527588246,2075,2069,2124,2045,2080,2177,1197
327,1713925717537587243,2035,2006,2008,2058,2014,1925,1195
328,1713925717547605137,2056,2068,2096,1997,1936,2045,1194
329,1713925717557587673,2046,2047,2100,2116,2404,2448,1198
330,1713925717567588874,2088,2097,2146,2072,2141,2308,1197
331,1713925717577589315,2061,2135,2178,2018,1524,1948,1192
332,1713925717587586899,2053,2080,2072,2022,1957,1808,1193
333,1713925717597601247,2051,1971,1864,2056,2016,1729,1195
334,1713925717607588452,2071,2109,2188,2018,2058,2079,1196
335,1713925717617588060,2056,2067,2165,2077,2150,1992,1191
336,1713925717627590124,2053,2039,2064,2058,1945,2034,1194
337,1713925717637589942,2037,2050,2090,2036,2148,2153,1197
338,1713925717647604109,2072,2085,2060,2042,1982,1996,1192
339,1713925717657591655,2045,2041,2051,2116,2321,2255,1198
340,1713925717667592015,2044,2030,1871,2008,1856,1918,1194
341,1713925717677593387,2014,2021,2085,2024,2020,1997,1192
342,1713925717687593827,2088,2112,2205,2028,1918,2146,1198
343,1713925717697600379,2018,1996,1968,2085,2041,1987,1194
344,1713925717707596812,2080,2091,1936,2042,2044,2072,1196
345,1713925717717596791,2003,1983,1902,2032,2302,2030,1195
346,1713925717727595829,2076,2069,2032,2076,1988,1974,1196
347,1713925717737595848,2053,2073,2060,2044,2194,2181,1201
348,1713925717747614533,2086,2121,2111,2086,2104,2116,1195
349,1713925717757597911,2082,2131,2221,2093,2212,1988,1193
350,1713925717767601176,2040,1992,1805,2054,2048,2051,1195
351,1713925717777574796,2054,2084,2085,2058,1988,2012,1194
352,1713925717787601766,2073,2069,1996,2056,2056,1961,1195
353,1713925717797616033,1974,2014,2091,2098,2396,2180,1200
354,1713925717807587598,2068,2073,2025,2068,1958,2030,1193
355,1713925717817604109,2023,2005,1931,2096,2328,2146,1196
356,1713925717827602566,2053,2047,1908,2074,2084,2126,1193
357,1713925717837601954,2008,2011,1997,2089,2132,1995,1192
358,1713925717847620780,2057,1996,1900,2044,2009,1983,1194
359,1713925717857588046,2045,2153,2392,2112,2128,2073,1197
360,1713925717867590710,2076,2047,1970,2091,2084,2004,1194
361,1713925717877587244,2120,2237,2410,2124,2058,1949,1196
362,1713925717887589898,2057,2016,1987,1995,1906,2008,1195
363,1713925717897598885,2032,2038,2016,2062,2109,2137,1198
364,1713925717907615346,2069,2080,2057,2062,2090,2080,1197
365,1713925717917589565,2047,2059,2143,2057,2184,2089,1197
366,1713925717927590567,2032,2053,2157,2008,1963,1993,1194
367,1713925717937587931,2092,2146,2239,2094,2290,2070,1198
368,1713925717947626365,2082,2115,2149,2072,1942,1956,1195
369,1713925717957589964,2033,2014,2053,2034,2077,2081,1197
370,1713925717967592809,2074,2099,2152,2018,1953,1860,1194
371,1713925717977588110,2063,2083,2071,2119,2360,2317,1198
372,1713925717987591264,2060,2050,1989,1964,1976,2057,1196
373,1713925717997601283,2051,2036,1972,2062,2418,2278,1200
374,1713925718007590282,2068,2024,1962,2036,1948,1941,1193
375,1713925718017588147,2036,1987,2040,2080,2188,1845,1193
376,1713925718027588828,2089,2097,2028,2031,2174,2137,1196
377,1713925718037587494,2052,2053,2104,2095,2146,2085,1196
378,1713925718047610318,2077,2080,2088,2048,2043,2001,1195
379,1713925718057590991,2107,2248,2397,2101,2149,2017,1193
380,1713925718067588775,2056,2042,1996,2039,2004,2025,1195
381,1713925718077587202,2026,2023,2016,2075,2028,1949,1194
382,1713925718087590327,2080,2084,1982,1989,1768,1955,1194
383,1713925718097588683,2012,2024,2069,2038,2060,2184,1196
384,1713925718107586990,2069,2087,2044,2101,2335,2017,1192
385,1713925718117589915,1988,1958,1953,2039,2047,2065,1197
386,1713925718127585556,2055,2041,1986,2058,2016,2033,1194
387,1713925718137589293,2049,2047,2044,2064,2141,2156,1197
388,1713925718147608649,2061,2036,1974,2056,1992,2028,1195
389,1713925718157587007,2057,2097,2105,2056,2170,2064,1198
390,1713925718167588310,2062,2036,1985,2008,1980,2029,1194
391,1713925718177588379,2049,2026,2039,2040,1792,1878,1193
392,1713925718187587537,2081,2076,2138,2031,1850,1944,1196
393,1713925718197596524,2036,2028,2038,2073,2076,2064,1197
394,1713925718207592976,2109,2240,2312,2078,1942,2088,1198
395,1713925718217574290,2064,2070,2086,2081,2042,2062,1196
396,1713925718227588366,2050,2033,1958,2036,2005,1988,1195
397,1713925718237587143,2121,2256,2572,2145,2258,2204,1195
398,1713925718247597182,2048,2015,1965,2069,2026,2121,1196
399,1713925718257588805,2024,1965,1701,1987,2070,2125,1197
400,1713925718267585709,2043,1964,1901,2020,1947,1976,1192
401,1713925718277584015,2056,2034,2053,2073,2065,1989,1194
402,1713925718287584134,2108,2237,2466,2096,2020,2006,1193
403,1713925718297595797,2008,1928,1849,2013,2041,2047,1196
404,1713925718307582280,2048,2026,1997,2020,2004,2068,1195
405,1713925718317584313,2064,2046,2058,2124,2328,2380,1202
406,1713925718327587549,2059,2082,2161,2057,1994,2071,1195
407,1713925718337585324,2049,2027,2094,2014,2136,2206,1198
408,1713925718347604510,2078,2176,2181,2019,2124,2229,1197
409,1713925718357586486,2037,2010,2008,2043,2149,1965,1195
410,1713925718367587106,2065,2015,1967,2084,2278,2197,1197
411,1713925718377585242,2054,2058,2152,2070,2055,2053,1195
412,1713925718387587035,2056,2047,1922,2064,2176,1967,1194
413,1713925718397594509,2000,1981,2208,2066,2201,2112,1198
414,1713925718407592504,2039,2045,2073,2052,1994,1898,1194
415,1713925718417628744,2052,2032,2024,2109,2309,2254,1197
416,1713925718427590369,2040,2060,2042,2052,1912,1953,1192
417,1713925718437588245,2012,2016,2036,2054,2094,2056,1196
418,1713925718447610256,2030,1932,1669,2027,1950,2152,1196
419,1713925718457606448,2109,2200,2418,2163,2222,2194,1197
420,1713925718467586810,2044,2021,2032,2109,1972,1968,1192
421,1713925718477588723,2056,2067,2156,2112,2270,2086,1198
422,1713925718487588172,2061,2057,2009,2060,2152,1976,1194
423,1713925718497598912,2033,2061,2111,2056,2047,2012,1194
424,1713925718507587008,2043,2028,2014,2050,2024,1994,1195
425,1713925718517587529,2026,2009,1974,2079,2224,2145,1199
426,1713925718527586156,2050,2049,2014,2050,2094,2052,1196
427,1713925718537588990,2050,2034,1995,2055,2029,2049,1195
428,1713925718547605332,2040,2015,1925,2044,2036,2078,1197
429,1713925718557588147,2017,1971,1901,2029,2088,2045,1194
430,1713925718567585983,2079,2132,2162,2085,1964,1967,1196
431,1713925718577592085,2094,2085,2211,2084,1972,2129,1196
432,1713925718587586984,2071,2043,2000,2053,2000,1879,1194
433,1713925718597595690,2000,2022,2041,2129,2340,1942,1195
434,1713925718607589939,2060,2070,2064,2024,2016,1956,1194
435,1713925718617589357,2026,2015,1962,2045,2064,2036,1193
436,1713925718627585168,2099,2173,2401,2072,1987,2006,1194
437,1713925718637587342,2033,2029,1993,2069,2060,2124,1198
438,1713925718647609905,2078,2062,1923,2037,1889,1818,1195
439,1713925718657596409,2015,1965,1896,2000,1922,1941,1194
440,1713925718667589575,2066,2060,2053,2045,1941,2022,1194
441,1713925718677586518,2029,2026,2010,2081,2222,2057,1196
442,1713925718687586748,2065,2050,1996,2036,1874,1883,1195
443,1713925718697614541,2029,2012,1900,2044,2068,2105,1197
444,1713925718707594171,2104,2078,2018,1974,1819,1934,1193
445,1713925718717587579,2022,2016,2047,2009,1974,2061,1197
446,1713925718727591705,2113,2133,2135,2192,2157,2205,1198
447,1713925718737587848,2019,1994,1984,2044,2060,2042,1195
448,1713925718747606583,2056,2008,1877,2042,2005,2029,1194
449,1713925718757593718,2024,1999,1948,2021,2068,2076,1197
450,1713925718767589339,2053,2040,2008,2048,1990,2014,1195
451,1713925718777589498,2065,2080,2014,2096,2090,1978,1196
452,1713925718787586953,2048,2037,1996,2008,2029,2096,1196
453,1713925718797602032,2029,2026,1993,2062,2072,2072,1198
454,1713925718807592102,2061,2094,2070,2067,2048,2068,1197
455,1713925718817586420,2044,2040,2078,2049,2053,2047,1192
456,1713925718827587252,2054,2055,2062,2105,2184,2219,1197
457,1713925718837587622,2014,1960,1996,2039,2085,2088,1195
458,1713925718847607469,2086,2080,1960,2081,2056,2052,1197
459,1713925718857590196,2028,2024,1969,2051,2116,2114,1197
460,1713925718867567782,2087,2140,2200,2093,2007,2092,1197
461,1713925718877591006,2025,1989,1928,2030,1842,1907,1194
462,1713925718887590996,2077,2088,2173,2054,1965,1996,1195
463,1713925718897602106,2018,1978,1930,2032,2097,2095,1196
464,1713925718907591856,2064,2056,2049,2038,1964,2018,1194
465,1713925718917593138,2068,2119,2426,2064,2144,2085,1198
466,1713925718927593799,2069,2037,2050,2069,1996,1995,1196
467,1713925718937594490,2089,2168,2251,2042,2056,2145,1198
468,1713925718947611091,2054,2052,2041,2053,1929,2007,1193
469,1713925718957594809,2024,2001,2017,2058,2161,2287,1197
470,1713925718967596211,2047,2018,1850,2010,1977,2041,1193
471,1713925718977595900,2035,2038,2017,2046,2052,2047,1194
472,1713925718987596471,2172,2336,2520,2124,2167,2153,1197
473,1713925718997600277,2037,2012,1976,2040,2079,2051,1196
474,1713925719007598353,2079,2091,2090,2064,1969,2005,1193
475,1713925719017599675,2028,2047,2106,2050,1869,1973,1193
476,1713925719027600637,2062,2064,2157,2100,2232,2118,1196
477,1713925719037600556,2020,1965,1828,2049,2038,2085,1194
478,1713925719047646744,2028,1984,2008,2035,2122,2173,1198
479,1713925719057600625,2069,2093,2004,2073,2074,2088,1197
480,1713925719067584033,2064,2068,2127,2050,2080,2128,1198
481,1713925719077642906,2077,2057,2064,2060,2107,2206,1195
482,1713925719087587108,2100,2076,2068,2070,2024,2049,1195
483,1713925719097653204,2038,2056,2141,2044,2194,2138,1199
484,1713925719107643034,2054,2006,1930,2069,2028,2000,1194
485,1713925719117583348,2022,1958,1849,2050,2070,2050,1195
486,1713925719127588728,2035,2010,2090,2043,2062,1978,1194
487,1713925719137591935,2126,2252,2602,2132,2153,2106,1198
488,1713925719147650316,2056,2082,2183,2052,2059,1958,1195
489,1713925719157590811,2041,2040,2041,2044,2040,2042,1193
490,1713925719167588466,2071,2072,2046,2029,2024,1904,1193
491,1713925719177592955,2062,2045,2034,2104,2160,2109,1197
492,1713925719187587854,2046,2072,2065,2028,1834,2064,1196
493,1713925719197656766,2006,1975,1898,2013,1973,1962,1193
494,1713925719207593233,2059,2063,2029,2062,2242,2136,1197
495,1713925719217589876,2037,2012,1980,2056,2057,2043,1191
496,1713925719227590187,2083,2117,2182,2069,2005,2035,1194
497,1713925719237588493,2053,2058,2073,2070,2094,2068,1194
498,1713925719247640522,2060,2047,1990,2040,2042,1978,1193
499,1713925719257590526,2029,1978,1677,2038,2016,1992,1193
500,1713925719267595014,2019,1954,1877,2019,1984,1919,1194
501,1713925719277589272,2040,2068,2130,2123,2233,2220,1197
502,1713925719287590083,2076,2078,2120,2084,2114,2188,1198
503,1713925719297602066,2008,1922,1712,2004,1741,1844,1194
504,1713925719307585313,2037,1962,1818,1996,1570,1978,1195
505,1713925719317585463,2024,2005,2015,2045,2069,2036,1195
506,1713925719327585974,2066,2092,2256,2074,1978,1964,1196
507,1713925719337588658,2040,2041,2110,2080,2090,2062,1199
508,1713925719347636279,2061,2047,2002,2037,1933,2048,1197
509,1713925719357589379,2124,2268,2729,2144,2428,2669,1200
510,1713925719367590199,2061,2036,1987,2037,1993,2025,1192
511,1713925719377590349,2099,2181,2334,2097,2082,2066,1196
512,1713925719387588856,2052,2027,1972,2040,1971,2051,1194
513,1713925719397632629,2033,2004,1976,2049,2069,2049,1198
514,1713925719407588104,2154,2324,2324,2169,2164,2297,1197
515,1713925719417587372,2021,1986,1977,2080,2182,2188,1197
516,1713925719427591950,2068,2086,2105,2040,1846,2042,1193
517,1713925719437589445,2041,1996,1977,2095,2160,2072,1196
518,1713925719447590296,2028,1980,1864,2013,1934,2010,1191
519,1713925719457589634,2043,2054,2083,2051,1973,2065,1196
520,1713925719467627426,2109,2168,2274,2082,2184,2089,1195
521,1713925719477589713,2030,1982,1887,2067,2053,1986,1192
522,1713925719487588491,2042,2014,1976,2105,2100,2059,1197
523,1713925719497589672,2055,2068,2046,2048,2051,2061,1197
524,1713925719507627034,2052,2093,2124,2069,2024,2021,1195
525,1713925719517628666,2012,1996,1995,2032,2116,2026,1195
526,1713925719527626211,2034,1956,2033,1997,2092,2199,1198
527,1713925719537627393,2044,2082,2203,2084,2054,2041,1194
528,1713925719547625649,2049,2027,1825,2058,2063,2074,1196
529,1713925719557627652,2018,2006,1981,2077,2016,2027,1194
530,1713925719567626970,2074,2073,2045,2033,1978,1910,1192
531,1713925719577631168,2055,2072,2092,2056,2028,1993,1195
532,1713925719587633041,2061,2042,2030,2050,2041,2032,1195
533,1713925719597624845,2072,2107,2301,2098,2080,2092,1197
534,1713925719607626668,2052,2029,1935,2092,2296,2140,1197
535,1713925719617623872,2035,2009,1990,2061,2077,2048,1194
536,1713925719627622519,2056,2097,2312,2026,1950,2016,1192
537,1713925719637625835,2040,1985,1962,2019,2029,1950,1194
538,1713925719647623339,2067,2070,2062,2091,2053,2034,1193
539,1713925719657622507,2045,2058,2229,2049,2064,2077,1197
540,1713925719667622487,2083,2054,2000,2037,2034,2133,1196
541,1713925719677621334,2034,2016,1978,2072,2042,1970,1195
542,1713925719687621073,2114,2193,2309,2094,2062,2008,1193
543,1713925719697622075,2056,2028,1928,2050,2030,2052,1197
544,1713925719707624378,2059,1969,1666,2037,2002,2022,1193
545,1713925719717623015,2018,1966,1953,2072,2026,2129,1197
546,1713925719727620720,2058,2031,1977,2066,2143,2054,1197
547,1713925719737620119,2041,2033,2045,2064,2028,1993,1194
548,1713925719747621391,2060,2061,2057,2053,2064,2088,1197
549,1713925719757618846,2060,2047,2107,2045,1986,1968,1192
550,1713925719767619055,2046,2030,2037,2026,1997,2029,1195
551,1713925719777620016,2022,1992,1960,2056,2069,2061,1197
552,1713925719787618133,2028,2026,1788,2041,2140,2152,1197
553,1713925719797617861,2025,1968,1865,2044,2042,2126,1197
554,1713925719807617290,2056,2032,2012,2042,2040,2063,1197
555,1713925719817614805,2032,2029,1990,2048,1968,2053,1195
556,1713925719827617550,2056,2044,2011,2040,2002,1988,1194
557,1713925719837617769,2002,1982,1951,2046,2030,2043,1193
558,1713925719847620474,2042,2052,1945,2040,1964,2045,1193
559,1713925719857617257,2029,2008,1983,2024,2053,2056,1196
560,1713925719867618349,2100,2152,2276,2112,2281,2036,1193
561,1713925719877616525,2053,2032,1926,2042,2165,2082,1199
562,1713925719887617116,2068,2087,2073,2052,2014,2043,1194
563,1713925719897614520,2051,2033,2020,2116,2158,2149,1199
564,1713925719907615502,2049,2024,2011,2030,2056,2006,1196
565,1713925719917615200,2044,1992,1832,2021,2052,1988,1194
566,1713925719927613797,2068,2028,1971,2030,2019,2043,1195
567,1713925719937616001,2040,2025,1989,2046,2091,2064,1196
568,1713925719947613886,2065,2017,1890,2032,1994,1957,1195
569,1713925719957612854,2033,2026,1966,2056,2029,2068,1197
570,1713925719967614617,2075,2061,2054,2053,2022,2042,1193
571,1713925719977612171,2007,2009,1982,2054,2054,2104,1197
572,1713925719987612261,2068,2064,2033,2118,2008,2037,1193
573,1713925719997617451,2022,1996,1971,2062,2031,2058,1198
574,1713925720007610317,2168,2326,2621,2118,2190,2036,1195
575,1713925720017614434,2034,2004,1986,2046,2056,2047,1193
576,1713925720027610105,2008,1910,1797,2033,2020,2040,1193
577,1713925720037609334,2011,1896,1808,2022,2045,2025,1194
578,1713925720047611186,2072,1992,2032,2059,2096,2122,1198
579,1713925720057608691,2023,1932,2081,2104,2370,2251,1198
580,1713925720067610324,2048,1996,1973,2056,1828,1994,1192
581,1713925720077607878,2024,1909,2036,2072,2084,2065,1195
582,1713925720087607457,2126,2084,2100,2066,2032,2074,1196
583,1713925720097609431,2037,1919,1960,2020,2012,2060,1197
584,1713925720107606394,2018,1912,1949,2040,2011,2038,1196
585,1713925720117608237,2064,1965,2140,2084,2098,2128,1197
586,1713925720127607536,2088,2082,2001,2081,2061,2043,1194
587,1713925720137606053,2011,2072,2036,2047,1913,1893,1192
588,1713925720147609138,2093,2269,2651,2157,2143,2068,1197
589,1713925720157604127,2010,1957,2026,2036,2080,2044,1192
590,1713925720167606492,2059,2205,2061,2067,2030,2048,1197
591,1713925720177606382,2046,2219,2005,2098,2140,2072,1194
592,1713925720187605739,2068,2243,2072,2053,2024,1999,1193
593,1713925720197605599,2034,2065,2041,2056,2131,2081,1198
594,1713925720207603224,2067,2110,2061,2050,2046,2060,1197
595,1713925720217603323,2074,2034,2063,2037,2045,2042,1194
596,1713925720227604014,2092,2168,2039,2064,2004,1953,1193
597,1713925720237603283,2046,2003,2034,2084,2072,2093,1197
598,1713925720247608071,2060,2045,2011,2048,1997,2036,1194
599,1713925720257603953,2091,2106,1965,2100,2090,2065,1196
600,1713925720267602369,2096,2096,1952,2078,2027,2045,1192
601,1713925720277603431,2041,2011,2067,2062,2147,2045,1192
602,1713925720287601226,2128,2243,2385,2138,2188,2161,1195
603,1713925720297632355,2048,1985,1992,2067,2113,2089,1195
604,1713925720307604402,2067,2096,2055,2064,2073,2036,1194
605,1713925720317601696,2034,2009,2046,2062,2040,2128,1196
606,1713925720327602677,2091,2152,2143,2114,2051,2071,1197
607,1713925720337600533,2037,1970,1878,2132,2368,2162,1198
608,1713925720347607746,2031,2004,1864,1989,2017,2008,1192
609,1713925720357601593,2052,2009,2113,2062,2146,2037,1194
610,1713925720367600661,2067,2080,2052,2026,1978,2043,1193
611,1713925720377601673,2089,2120,2328,2076,2029,2029,1193
612,1713925720387602594,2053,2052,1949,2037,1956,2004,1195
613,1713925720397601111,2065,2030,2019,2064,2063,2018,1194
614,1713925720407600479,2139,2326,2577,2157,2154,2129,1197
615,1713925720417601331,2042,1968,1926,2012,2004,2013,1192
616,1713925720427601380,2044,2092,2085,2040,1976,2033,1192
617,1713925720437602031,2010,1945,1838,2024,2082,2186,1198
618,1713925720447603153,2063,2068,2002,2043,1966,2030,1191
619,1713925720457603063,2036,1998,2020,2060,2058,2075,1197
620,1713925720467603532,2051,2061,1968,2027,1974,2052,1197
621,1713925720477604304,2058,2009,1955,2040,2080,2017,1195
622,1713925720487613060,2081,2061,2062,2053,2022,2080,1199
623,1713925720497605434,2030,1951,1932,2028,1993,1977,1193
624,1713925720507606025,2074,2076,2020,2056,1987,2037,1194
625,1713925720517607167,2079,1998,2011,2088,2106,2035,1195
626,1713925720527607097,2077,2087,2028,2021,1894,1945,1195
627,1713925720537607547,2048,2029,2025,2064,2089,2059,1197
628,1713925720547596255,2072,2176,2214,2092,2074,2120,1198
629,1713925720557608809,2037,2012,2027,2047,2137,2070,1198
630,1713925720567594280,2064,2107,2140,2056,1975,2027,1194
631,1713925720577594209,2053,2050,2074,2069,2121,2097,1199
632,1713925720587593007,2025,2022,2041,2012,1957,2078,1197
633,1713925720597594610,2036,1983,1966,2042,2061,2053,1198
634,1713925720607608335,2061,2129,2116,2105,2056,2065,1196
635,1713925720617592314,2040,2000,1995,2024,2005,2038,1193
636,1713925720627592705,2080,2144,2161,2074,2058,2067,1196
637,1713925720637589868,2057,2002,1945,2040,1997,2000,1194
638,1713925720647590810,2070,2088,1985,2049,1988,2022,1192
639,1713925720657592202,2092,2088,2072,2119,2184,2133,1196
640,1713925720667590569,2056,2052,1958,2033,1962,2026,1193
641,1713925720677590718,2026,2008,2048,2080,2034,2034,1194
642,1713925720687591269,2048,2032,1962,2026,1913,1974,1194
643,1713925720697588934,2005,1939,1850,2005,2114,2024,1193
644,1713925720707605045,2063,2070,1881,2068,2030,2112,1197
645,1713925720717588993,2025,1959,1929,2034,2102,2072,1196
646,1713925720727592630,2073,2275,2768,2161,2059,2124,1197
647,1713925720737590275,2027,2011,2029,2063,2029,2026,1196
648,1713925720747590244,2063,2093,2060,2058,2044,2038,1194
649,1713925720757593119,2065,2086,2424,2080,2092,2096,1195
650,1713925720767592047,2053,2040,1976,2045,2020,2044,1194
651,1713925720777589912,2072,2084,2244,2025,2083,2090,1195
652,1713925720787590763,2076,2104,2112,2065,2030,2088,1195
653,1713925720797590463,2021,1997,2187,2056,2164,2144,1198
654,1713925720807591073,2049,2034,1902,2030,1924,2000,1192
655,1713925720817607695,2039,2026,1994,2080,2130,2100,1194
656,1713925720827597304,2165,2204,2323,2114,1978,1965,1193
657,1713925720837590110,2052,2021,2040,2058,2140,2089,1198
658,1713925720847590611,2062,2098,2095,2088,2145,2123,1197
659,1713925720857596822,2068,2112,2297,2081,2093,2116,1197
660,1713925720867600298,2079,2077,2001,2024,1992,1986,1194
661,1713925720877611009,2013,1973,1908,2034,2067,1972,1193
662,1713925720887601369,2081,2065,1861,2058,1956,2058,1197
663,1713925720897592342,2015,1974,2030,2056,2082,2026,1194
664,1713925720907593494,2070,2057,1944,2051,1992,2016,1197
665,1713925720917593873,2064,1950,1871,2056,2088,2126,1196
666,1713925720927594043,2064,2050,2098,2076,2074,2047,1195
667,1713925720937612779,2056,2047,2134,2064,2122,2041,1195
668,1713925720947600515,2069,2064,1896,2033,1976,2074,1197
669,1713925720957598861,2084,2169,2354,2110,2128,2059,1197
670,1713925720967595484,2055,2078,1966,2044,1981,2036,1194
671,1713925720977603830,2045,2074,2216,2094,2177,2164,1196
672,1713925720987600954,2031,2057,2060,2022,1969,2008,1193
673,1713925720997607997,2045,2013,2045,2066,2071,1998,1194
674,1713925721007600292,2056,2112,2125,2045,1946,2071,1196
675,1713925721017600132,2058,2040,2206,2077,2049,2021,1191
676,1713925721027600812,2060,2102,2216,2044,1976,2012,1195
677,1713925721037587776,2073,2129,2269,2074,1972,2112,1197
678,1713925721047604528,2076,2156,2243,2066,1953,2017,1192
679,1713925721057602044,2052,2068,2270,2058,2073,2024,1192
680,1713925721067603425,2093,2183,2314,2079,2088,2058,1197
681,1713925721077604166,2044,2015,2001,2049,2053,1986,1192
682,1713925721087606260,2004,2046,2008,2040,1892,1997,1194
683,1713925721097612893,2056,2011,2155,2068,2096,2021,1193
684,1713925721107605036,2037,2044,2012,2045,1956,2006,1193
685,1713925721117590528,2017,1938,1841,2041,2164,2078,1197
686,1713925721127590528,2073,2095,2050,2029,2012,2060,1198
687,1713925721137591370,2042,2000,2004,2104,2122,2067,1197
688,1713925721147610525,2068,2100,2223,2090,2018,2061,1198
689,1713925721157596438,2036,1970,1947,2044,2073,2078,1198
690,1713925721167593633,2058,2085,2064,2046,1940,1963,1195
691,1713925721177578904,2056,2052,2072,2052,2035,1986,1195
692,1713925721187593621,2077,2102,2124,2056,2013,2061,1197
693,1713925721197593300,2032,1962,1749,2042,2048,2005,1194
694,1713925721207594322,2046,1978,1818,2043,2026,2033,1196
695,1713925721217591777,2034,2000,2092,2034,2085,2049,1198
696,1713925721227593990,2064,2037,2002,2032,1968,1982,1193
697,1713925721237590614,2059,1971,1999,2067,2188,2126,1198
698,1713925721247599380,2087,2081,2074,2078,2036,2074,1198
699,1713925721257592216,2038,1958,1805,2044,2155,2035,1194
700,1713925721267590041,2004,2020,1869,2047,2112,2152,1200
701,1713925721277594259,2097,2139,2597,2136,2084,2040,1194
702,1713925721287591924,2056,2063,2061,2091,2165,2090,1196
703,1713925721297592906,2032,1992,1987,2016,1922,2035,1193
704,1713925721307590190,2056,2100,2015,2044,1979,2051,1195
705,1713925721317598225,2032,2064,2414,2053,2091,2118,1198
706,1713925721327591131,2064,2107,1964,2042,2008,2020,1193
707,1713925721337590861,2037,2000,2086,2050,2052,2077,1197
708,1713925721347592462,2078,2161,2083,2065,1974,2056,1198
709,1713925721357591490,2034,1957,1914,2058,2189,2073,1196
710,1713925721367593955,2069,2024,1756,2037,2048,2091,1196
711,1713925721377590318,2034,1963,1950,2044,2126,2069,1197
712,1713925721387592000,2112,2206,2360,2120,2126,2225,1198
713,1713925721397591869,2035,1985,2026,2041,2068,2030,1194
714,1713925721407596178,2065,2062,2036,2052,2032,2042,1194
715,1713925721417589815,2100,2078,2256,2095,2273,1999,1194
716,1713925721427593020,2080,2081,2056,2041,2101,2106,1197
717,1713925721437591437,2040,2002,1904,2057,2113,2056,1196
718,1713925721447592148,2115,2154,2148,2066,2073,2089,1198
719,1713925721457590956,2072,2040,2104,2074,2057,2080,1197
720,1713925721467597938,2066,2161,2440,2148,2245,2100,1198
721,1713925721477591525,2028,1961,1949,2017,2049,2000,1193
722,1713925721487592888,2056,2131,2428,2089,2065,2153,1197
723,1713925721497590874,2035,2001,2009,2058,2164,2053,1199
724,1713925721507590672,2059,2064,2018,2021,1979,2020,1194
725,1713925721517593437,2057,2000,2008,2040,2082,2029,1194
726,1713925721527592145,2077,2064,1829,2029,1953,1970,1196
727,1713925721537590472,2054,2064,2117,2047,2056,2040,1195
728,1713925721547593626,2056,2086,2037,2025,1953,1982,1194
729,1713925721557594217,2028,2009,2108,2064,2092,2070,1197
730,1713925721567593846,2108,2226,2392,2116,2038,2052,1195
731,1713925721577592885,2076,2113,2108,2104,2276,2379,1197
732,1713925721587592983,2069,2048,1966,2026,1957,2024,1192
733,1713925721597593184,2082,2116,2262,2065,2142,2064,1198
734,1713925721607594296,2096,2121,2093,2074,2018,2077,1196
735,1713925721617594065,2033,1990,1967,2021,2037,2027,1193
736,1713925721627593894,2066,2076,2053,2052,2005,2056,1196
737,1713925721637595957,2038,2030,2066,2081,2216,2192,1197
738,1713925721647596538,2057,2064,2041,2056,1947,2036,1194
739,1713925721657600085,2056,2035,1947,2021,2045,2044,1192
740,1713925721667596807,2040,2010,1841,2040,2004,2059,1195
741,1713925721677598631,2045,2016,1994,2044,2051,2033,1194
742,1713925721687598541,2095,2145,2312,2060,2002,2036,1194
743,1713925721697600865,2033,1965,1934,2021,2045,2021,1194
744,1713925721707600032,2078,2081,2011,2033,1956,2056,1201
745,1713925721717643596,2070,2112,2405,2138,2154,2043,1196
746,1713925721727644347,2086,2104,2068,2059,1944,1982,1193
747,1713925721737650078,2076,2193,2483,2128,2144,1925,1194
748,1713925721747646541,2062,2059,2125,2046,1996,2024,1194
749,1713925721757650096,2001,1946,1817,2023,2050,2045,1195
750,1713925721767647311,2016,2052,2111,2050,2048,2018,1194
751,1713925721777648423,2052,2011,1972,2056,2103,2042,1194
752,1713925721787648282,2077,2064,2030,2070,2000,2044,1194
753,1713925721797591713,2048,2094,2184,2071,2178,2020,1194
754,1713925721807590711,2072,2064,2021,2041,2021,2046,1194
755,1713925721817590169,2029,1966,1972,2016,2056,2021,1194
756,1713925721827592944,2014,2138,2282,2071,2090,2204,1196
757,1713925721837593815,2084,2105,2456,2145,2101,2034,1194
758,1713925721847592943,2061,2057,2021,1973,1953,2012,1195
759,1713925721857595408,2052,2056,2096,2080,2117,2089,1200
760,1713925721867595397,2064,2065,2047,2064,1966,1997,1194
761,1713925721877594054,1958,1985,2052,2035,2065,2048,1197
762,1713925721887592360,2047,2067,1921,2041,2041,2049,1197
763,1713925721897591088,2034,2031,2061,2068,2093,2035,1195
764,1713925721907590146,2088,2204,2472,2120,2128,2192,1199
765,1713925721917591307,2058,2036,2103,2032,2099,1955,1195
766,1713925721927590275,2053,2036,1900,2064,2088,2125,1200
767,1713925721937593451,2052,2021,2008,2040,2004,1734,1192
768,1713925721947591436,2072,2053,1963,2068,1860,2011,1195
769,1713925721957591065,2098,2128,2252,2113,2098,2076,1198
770,1713925721967626372,2073,2020,1807,2036,2020,2084,1197
771,1713925721977591105,2089,2076,2193,2070,2083,1998,1193
772,1713925721987590713,2067,2059,2052,2068,1994,2028,1195
773,1713925721997591885,2023,1946,1926,2044,2111,2050,1198
774,1713925722007591534,2046,1999,1826,2043,2017,2040,1195
775,1713925722017590061,2034,1964,1784,2069,2088,2113,1196
776,1713925722027622453,2018,2002,1900,1994,1961,1936,1193
777,1713925722037621170,2049,2008,2037,2039,2067,2058,1197
778,1713925722047622872,2051,2070,2041,2054,2028,2029,1196
779,1713925722057620227,1972,2020,2139,2076,2106,2093,1195
780,1713925722067621098,2128,2173,2270,2068,2237,2172,1197
781,1713925722077620547,2068,2030,2108,2062,2077,2073,1197
782,1713925722087620095,2092,2162,2310,2073,2040,2017,1193
783,1713925722097621137,2101,2172,2408,2085,2068,2085,1197
784,1713925722107631647,2061,2033,1971,2043,2036,2065,1196
785,1713925722117619835,2077,2032,2026,2065,2021,2008,1198
786,1713925722127621436,2034,2013,1989,2049,2003,2021,1198
787,1713925722137618260,2042,2008,1993,2028,2077,2037,1195
788,1713925722147619863,2064,2052,2130,2033,1984,1966,1194
789,1713925722157627508,2020,1988,1960,2021,2149,2073,1198
790,1713925722167617468,2065,2036,1934,2053,2022,2037,1194
791,1713925722177618529,2060,2040,2109,2058,2166,2103,1198
792,1713925722187617327,2073,2082,2152,2066,2007,2011,1192
793,1713925722197617898,2040,2020,2044,2027,2001,2009,1193
794,1713925722207618458,2040,2040,2026,2045,2033,2096,1196
795,1713925722217615602,2047,2050,2064,2042,2057,2037,1192
796,1713925722227619860,2088,2009,1930,1984,1956,1989,1192
797,1713925722237617515,2041,1966,1808,2011,2013,1960,1194
798,1713925722247616433,2080,2101,2312,2072,2166,2168,1197
799,1713925722257616854,2057,2046,2096,2067,2154,2142,1196
800,1713925722267613256,2064,2121,2296,2077,2104,2129,1197
801,1713925722277615540,2038,1996,1948,2042,2008,2009,1193
802,1713925722287614217,2089,2065,1993,2039,2066,2032,1196
803,1713925722297615079,2014,1990,2028,2034,1780,1969,1194
804,1713925722307614798,2076,2184,2228,2079,2036,2157,1198
805,1713925722317615178,2040,2068,2160,2105,2134,2088,1195
806,1713925722327612993,2077,2096,2109,2067,2004,2019,1195
807,1713925722337611650,2024,2046,2185,2069,2098,2185,1198
808,1713925722347613584,2036,1986,1789,2009,1970,2001,1193
809,1713925722357614394,2040,2015,1944,2017,2009,1974,1193
810,1713925722367614474,2075,2077,1940,2016,2025,2024,1194
811,1713925722377613943,2061,2036,2035,2072,2104,2071,1197
812,1713925722387614554,2059,2036,1991,2041,2011,1960,1193
813,1713925722397612590,2002,2034,2222,2053,2019,2003,1194
814,1713925722407611618,2048,2011,1936,2052,2061,2088,1198
815,1713925722417610014,1993,1904,1780,1996,1933,2038,1193
816,1713925722427610505,2033,2074,2138,2036,2081,2112,1197
817,1713925722437611476,2049,2036,2053,2053,2060,2049,1197
818,1713925722447609071,2041,2028,2012,2038,1955,2051,1196
819,1713925722457609922,2045,2053,2131,2074,2112,2080,1198
820,1713925722467608469,2022,2019,1991,2060,2056,2021,1196
821,1713925722477627506,2026,2005,1891,2048,2075,2040,1195
822,1713925722487609641,2032,2012,1964,2034,2014,2083,1196
823,1713925722497607848,2056,2056,2035,2047,1963,2041,1194
824,1713925722507608417,2097,2140,2147,2077,2013,1962,1195
825,1713925722517617405,2043,2012,1874,2056,2135,1974,1195
826,1713925722527606814,2060,2054,2064,2062,1981,2006,1197
827,1713925722537608718,2048,2039,2024,2055,2053,2047,1195
828,1713925722547606332,2069,2084,2050,2063,2066,2179,1198
829,1713925722557605390,1998,1938,1819,2025,2002,2097,1199
830,1713925722567604428,2020,1969,1889,2024,2019,2007,1193
831,1713925722577604087,2066,2068,2125,2049,2088,2080,1196
832,1713925722587605519,2063,2067,2136,2066,2069,2064,1198
833,1713925722597610989,2052,2020,2001,2044,2103,2032,1195
834,1713925722607606690,1968,2006,2048,2049,2010,2076,1198
835,1713925722617608534,2048,2016,2007,2060,2101,2117,1195
836,1713925722627606820,2064,2038,2036,2027,1977,2028,1194
837,1713925722637605217,2068,2077,2164,2065,1978,2052,1196
838,1713925722647609585,2032,1993,1932,2015,2032,2021,1193
839,1713925722657604394,2058,2000,1918,2056,1972,1951,1194
840,1713925722667605617,2045,1971,1736,2022,2093,2062,1197
841,1713925722677604905,2031,2024,2025,2044,2042,2038,1193
842,1713925722687605446,2037,1993,1761,2018,2049,2197,1197
843,1713925722697605054,2066,2045,1983,2026,1945,2037,1193
844,1713925722707602529,2082,2072,2053,2065,2055,2069,1197
845,1713925722717605254,2050,2098,2168,2088,2136,2057,1195
846,1713925722727603491,2100,2204,2646,2076,2103,2077,1196
847,1713925722737603950,2023,2004,1983,2035,1992,2005,1196
848,1713925722747604721,2061,2033,1985,2078,2120,2095,1200
849,1713925722757607607,1983,1973,1969,2057,2138,2087,1197
850,1713925722767604511,2065,2059,2021,2058,2064,2003,1194
851,1713925722777602086,2000,1989,1994,2074,2094,2142,1197
852,1713925722787603869,2092,2132,2130,2066,2015,2018,1195
853,1713925722797605782,2090,2142,2352,2087,2043,2070,1197
854,1713925722807601513,2047,1995,1796,2038,2150,2052,1197
855,1713925722817600872,2077,2096,2236,2096,2059,2078,1197
856,1713925722827603737,2059,2072,2099,2058,2071,2056,1196
857,1713925722837599488,2045,2008,1931,2048,2038,2032,1195
858,1713925722847600971,2062,2075,2149,2059,2034,2043,1195
859,1713925722857600099,2057,2065,2072,2104,2089,2096,1196
860,1713925722867600299,2098,2163,2274,2080,2054,2050,1196
861,1713925722877598516,2066,2104,2008,2093,2092,2073,1196
862,1713925722887600819,2043,2018,1928,2021,2030,2036,1194
863,1713925722897599496,2075,2061,2040,2096,2176,2088,1196
864,1713925722907596901,1974,1940,1833,2041,2111,1970,1198
865,1713925722917597873,2073,2050,2009,2019,2035,2094,1197
866,1713925722927596239,2026,2040,2051,2049,2096,2098,1200
867,1713925722937596048,2072,2015,1914,2069,2037,2076,1198
868,1713925722947596869,2003,1940,1600,2014,2040,2012,1194
869,1713925722957597150,2011,1967,1712,2021,2022,1991,1196
870,1713925722967597380,2137,2302,2635,2104,2018,2051,1198
871,1713925722977597960,2058,2020,1990,2032,2066,2031,1193
872,1713925722987599112,2069,2056,1992,2052,2110,2041,1195
873,1713925722997598420,2052,2024,1984,2054,2023,2081,1201
874,1713925723007598981,2104,2073,2037,2061,2046,2040,1195
875,1713925723017600033,2057,2025,2064,2063,2177,2045,1194
876,1713925723027600524,2056,2022,1893,2038,2073,2061,1195
877,1713925723037601906,2050,2039,2128,2066,2069,2073,1198
878,1713925723047602827,2047,2008,2056,2042,2143,2125,1198
879,1713925723057602376,2006,1980,1974,2044,2028,2039,1194
880,1713925723067604099,2049,2028,1953,2038,2013,2014,1195
881,1713925723077604199,1980,1992,2020,2060,2059,2060,1196
882,1713925723087612345,2038,2057,1948,2031,2149,2018,1196
883,1713925723097605751,2052,2017,2073,2060,2000,1992,1195
884,1713925723107606091,2103,2091,1849,2053,2144,2093,1197
885,1713925723117607254,2061,2202,2368,2072,2136,2068,1198
886,1713925723127607825,2047,2008,1944,2044,2024,2010,1196
887,1713925723137620088,2165,2229,2573,2086,2018,2005,1194
888,1713925723147608876,2093,2105,2212,2052,1942,1994,1195
889,1713925723157609296,2018,2005,1986,2040,1988,2048,1198
890,1713925723167610368,2075,1965,1717,2034,2039,2024,1195
891,1713925723177612512,2070,2182,2788,2076,2161,2084,1197
892,1713925723187616399,2040,1979,1866,2018,2024,2068,1199
893,1713925723197587943,2160,2276,2466,2137,2066,2067,1195
894,1713925723207589696,2074,2088,2000,2092,2164,2135,1197
895,1713925723217591089,2044,2029,1994,2045,2003,2034,1192
896,1713925723227586640,2088,2070,2073,2052,2002,1930,1196
897,1713925723237599234,2086,2116,2172,2069,2084,2140,1198
898,1713925723247589275,2084,2058,2050,2034,2011,2007,1193
899,1713925723257588943,2035,2010,1982,2048,1944,2014,1196
900,1713925723267590456,2057,2019,1989,2072,2256,2158,1197
901,1713925723277586939,2075,2142,2500,2061,1930,2015,1193
902,1713925723287594373,2052,2056,2086,2048,2048,2042,1194
903,1713925723297586819,2009,2023,1996,2062,2129,2166,1197
904,1713925723307586297,2096,2152,2293,2076,2050,2047,1194
905,1713925723317581998,2059,2130,2411,2069,2114,2140,1199
906,1713925723327622436,1981,1944,1836,2053,2160,2161,1199
907,1713925723337586526,2046,2040,2084,2014,1979,2040,1196
908,1713925723347621203,2152,2423,2825,2195,2157,2135,1198
909,1713925723357584202,2024,1994,1985,2052,2009,2030,1195
910,1713925723367624148,2070,2059,2036,2049,2048,2032,1193
911,1713925723377584541,2022,2005,2023,2038,2095,2001,1194
912,1713925723387630800,2025,1992,1951,2061,2173,2105,1196
913,1713925723397585673,2004,1951,1555,2028,2076,2024,1195
914,1713925723407624758,2073,2088,2151,2056,2090,1974,1195
915,1713925723417626621,2046,1981,1746,2036,2014,2012,1193
916,1713925723427625819,2068,2010,1792,2049,2155,2029,1196
917,1713925723437637842,2067,2060,2067,2070,2142,2085,1197
918,1713925723447602774,2028,2049,2052,2055,2062,2058,1196
919,1713925723457587044,2074,2088,2188,2033,1942,1976,1194
920,1713925723467590540,2081,2072,2112,2082,2212,2065,1197
921,1713925723477585851,2025,1994,1949,2053,2068,2015,1193
922,1713925723487590970,2044,2161,2498,2052,2089,2134,1196
923,1713925723497584227,2026,2001,1932,2031,1974,1984,1193
924,1713925723507613813,2070,2102,2096,2035,2024,2056,1198
925,1713925723517582242,2045,2040,2027,2031,2046,2048,1198
926,1713925723527614073,2052,2045,2012,2052,2094,2076,1198
927,1713925723537583044,2166,2188,2498,2098,2281,2134,1196
928,1713925723547615986,2070,2038,1917,2052,2008,1993,1195
929,1713925723557616366,1996,2002,2013,2033,1952,2082,1197
930,1713925723567615745,2041,2047,2153,2056,2054,2135,1195
931,1713925723577614903,2038,1968,1776,2020,1950,2011,1194
932,1713925723587587180,2040,2000,1889,2042,2032,2173,1196
933,1713925723597614101,2031,2043,2223,2076,2140,2081,1199
934,1713925723607587440,2108,2163,2302,2115,2280,2125,1200
935,1713925723617588120,2115,2219,2465,2132,2108,2084,1195
936,1713925723627613859,2055,1925,1852,2012,1983,2051,1197
937,1713925723637628407,2056,1970,1808,2009,1941,1998,1194
938,1713925723647616174,2081,2033,1924,2053,1976,1977,1192
939,1713925723657614701,2060,2048,2041,2068,2042,2002,1192
940,1713925723667615953,2097,2140,2075,2047,1999,2058,1200
941,1713925723677596374,2053,2057,2060,2036,2062,2048,1196
942,1713925723687603127,2069,2061,2058,2070,2052,1996,1192
943,1713925723697615290,2041,2017,1952,2042,1972,2004,1193
944,1713925723707614318,2069,2048,2020,2056,2066,2021,1193
945,1713925723717614859,2046,2058,2065,2058,2052,2076,1197
946,1713925723727612804,2057,2059,2057,2060,2093,2029,1196
947,1713925723737615228,2040,1974,1751,2050,2063,2024,1195
948,1713925723747612683,2095,2176,2281,2071,2097,2050,1199
949,1713925723757585160,2016,2084,2272,2037,2115,2106,1195
950,1713925723767610919,2041,2007,1938,2054,2094,2053,1197
951,1713925723777611149,2064,2146,2428,2085,1946,2054,1198
952,1713925723787623302,1953,1980,1987,2041,2093,2068,1195
953,1713925723797609215,2146,2081,2033,2046,2008,2096,1198
954,1713925723807610487,2109,2180,2288,2098,2260,2096,1197
955,1713925723817611098,2041,2030,2000,2059,2040,2102,1194
956,1713925723827609004,2088,2219,2540,2081,2210,2074,1196
957,1713925723837627639,2053,2027,1984,2075,2002,2068,1197
958,1713925723847607179,2135,2413,3058,2082,2168,2016,1196
959,1713925723857608572,2045,2014,1936,2065,2090,2058,1197
960,1713925723867609794,2030,2063,1949,2011,2088,1961,1194
961,1713925723877607840,2045,2056,2021,2093,2005,2032,1193
962,1713925723887623069,2100,2068,2048,2052,2136,2056,1195
963,1713925723897607308,2128,2338,2996,2172,2087,2047,1194
964,1713925723907606576,2033,1981,1852,2039,2109,2046,1193
965,1713925723917606957,2047,1987,1804,2054,1994,2008,1193
966,1713925723927605514,2043,2006,1940,2038,2122,2089,1199
967,1713925723937613068,2049,2040,2019,2058,1962,1957,1193
968,1713925723947609922,2045,2114,2396,2099,2186,2166,1199
969,1713925723957604200,2053,2045,2033,2061,1981,2036,1194
970,1713925723967605692,2033,1951,1714,2022,1971,1977,1194
971,1713925723977604059,2031,1975,1818,2032,2115,2025,1196
972,1713925723987614399,2047,2059,2103,2070,2085,2050,1199
973,1713925723997599300,2065,2133,2032,2071,1986,2033,1195
974,1713925724007604389,2062,2016,1953,2036,1997,2044,1194
975,1713925724017603166,2061,2047,2136,2021,1941,2032,1192
976,1713925724027598687,2084,2119,2242,2071,1979,2103,1197
977,1713925724037602484,2034,2044,1968,2052,2021,2033,1193
978,1713925724047633003,2205,2076,1920,2013,2021,2018,1196
979,1713925724057597524,2114,2174,2212,2094,2005,1999,1193
980,1713925724067602855,2046,2026,2017,2062,2098,2044,1194
981,1713925724077603626,2049,2025,2036,2058,2010,2024,1193
982,1713925724087589769,2056,2050,2176,2046,2084,2150,1195
983,1713925724097611189,2038,2020,2026,2034,1998,2009,1193
984,1713925724107601751,2046,2050,2080,2060,2168,2126,1197
985,1713925724117599997,2075,2067,2049,2028,2018,2078,1199
986,1713925724127588465,2026,2021,2096,2086,2396,2166,1200
987,1713925724137586661,2056,2031,1939,2040,1990,2081,1198
988,1713925724147599105,2053,2040,2093,2057,2112,2074,1198
989,1713925724157620315,2041,2017,2105,2065,2096,2140,1196
990,1713925724167599515,2047,2011,1936,2056,2104,2050,1196
991,1713925724177588123,2048,2046,2044,2045,1979,2041,1194
992,1713925724187597110,2049,2028,1965,2058,2177,2067,1199
993,1713925724197597911,2076,2076,2024,2049,2020,2078,1197
994,1713925724207587441,2029,2069,2060,2056,2164,2081,1199
995,1713925724217600987,2062,2091,2120,2061,1983,1975,1192
996,1713925724227586689,2040,2025,2005,1999,2077,2048,1197
997,1713925724237596497,2115,2288,2816,2130,2080,2095,1197
998,1713925724247596296,2072,2068,2152,2076,2143,2078,1196
999,1713925724257620523,2065,2038,1949,2066,2011,2060,1196
1000,1713925724267593661,2037,2040,2104,2017,2022,2056,1196
1001,1713925724277588982,2072,2040,2028,2037,1974,2040,1195
1002,1713925724287595324,2019,1977,1730,2058,2169,2093,1197
1003,1713925724297594883,2056,2041,2006,2047,1980,2004,1193
1004,1713925724307609250,2037,1999,1893,2056,2093,2060,1197
1005,1713925724317582828,2034,2008,1696,2020,2018,2045,1194
1006,1713925724327588559,2050,2022,1967,2037,2052,2011,1197
1007,1713925724337586796,2074,2124,2190,2077,2078,2105,1199
1008,1713925724347592346,2048,2194,2626,2107,2058,2036,1193
1009,1713925724357635279,2056,2033,1983,2039,2022,2052,1195
1010,1713925724367593528,2108,2085,2109,2049,1982,2009,1194
1011,1713925724377592114,2068,2074,1993,2032,1993,2055,1198
1012,1713925724387592997,2028,1988,1757,2033,2136,2044,1193
1013,1713925724397585842,2026,1973,1815,2031,1926,1989,1195
1014,1713925724407586623,2049,2052,2141,2074,2157,2089,1196
1015,1713925724417594659,2046,2035,2009,2035,2005,2021,1193
1016,1713925724427595931,1989,2026,2072,2064,2239,2117,1197
1017,1713925724437589048,2036,2050,2056,2047,1950,2028,1193
1018,1713925724447595980,2056,2008,1899,2044,2090,2040,1194
1019,1713925724457598394,2069,2085,1979,2069,2016,2044,1194
1020,1713925724467587293,2109,2148,2385,2103,2125,2065,1198
1021,1713925724477597522,2075,2034,2090,2029,2024,2132,1199
1022,1713925724487590008,2056,2020,1987,2042,2119,2028,1194
1023,1713925724497587763,2061,2056,2042,2043,2009,2038,1193
1024,1713925724507591370,2068,2057,2049,2016,2090,2059,1198
1025,1713925724517599515,2065,2068,2098,2057,2024,2059,1197
1026,1713925724527586500,2065,2036,1978,2064,2069,2024,1196
1027,1713925724537584646,2034,2000,1865,2032,1997,2004,1194
1028,1713925724547585597,2037,2016,1918,2046,2086,2035,1194
1029,1713925724557584786,2066,2093,2027,2081,1998,2034,1195
1030,1713925724567582872,2051,2036,2024,2053,2110,2061,1198
1031,1713925724577586258,2054,2136,2324,2049,1978,1993,1194
1032,1713925724587585025,2054,2034,2001,2053,2133,2083,1196
1033,1713925724597585386,2048,2060,2060,2061,2006,2049,1197
1034,1713925724607586498,2056,2051,2088,2043,2080,2017,1195
1035,1713925724617600213,2052,2064,2150,2060,2017,2037,1191
1036,1713925724627587899,2056,2042,2060,2057,2124,2068,1197
1037,1713925724637581878,2059,2066,2137,2066,2029,2050,1195
1038,1713925724647586236,2061,2047,2056,2062,2091,2064,1198
1039,1713925724657584923,2056,2046,2038,2053,1995,2050,1197
1040,1713925724667603328,2065,2040,2088,2058,2096,2062,1196
1041,1713925724677582117,2061,2058,1992,2040,2030,2035,1197
1042,1713925724687585673,2060,2057,2042,2052,2049,2052,1197
1043,1713925724697583880,2052,2050,2045,2068,2027,2044,1195
1044,1713925724707588278,2056,2046,2040,2061,2093,2060,1196
1045,1713925724717598838,2065,2057,2044,2054,2024,2047,1195
1046,1713925724727583899,2049,2046,2043,2058,2081,2056,1198
1047,1713925724737586484,2044,2049,2043,2047,2036,2045,1195
1048,1713925724747584309,2061,2055,2047,2056,2074,2053,1198
1049,1713925724757589809,2053,2058,2044,2060,2052,2050,1195
1050,1713925724767585330,2052,2050,2049,2067,2068,2076,1195
1051,1713925724777603896,2051,2053,2049,2047,2024,2037,1194
1052,1713925724787587354,2058,2047,2054,2053,2087,2058,1197
1053,1713925724797587705,2057,2068,2054,2056,2038,2062,1197
1054,1713925724807589448,2047,2041,2061,2056,2078,2015,1196
1055,1713925724817596662,2049,2060,2062,2068,2032,2050,1195
1056,1713925724827589597,2065,2061,2056,2056,2080,2064,1195
1057,1713925724837589687,2053,2056,2036,2045,2046,2042,1194
1058,1713925724847590588,2056,2041,2050,2058,2081,2057,1196
1059,1713925724857593434,2054,2055,2056,2044,2025,2047,1194
1060,1713925724867593754,2057,2045,2056,2045,2036,2061,1196
1061,1713925724877597351,2056,2057,2069,2056,2037,1965,1193
1062,1713925724887594335,2050,2047,2054,2031,2068,1983,1195
1063,1713925724897595386,2056,2052,2049,2070,2047,2064,1197
1064,1713925724907596288,2056,2041,2050,2044,2044,1896,1194
1065,1713925724917603381,2056,2063,2052,2045,2064,2037,1196
1066,1713925724927597760,2059,2052,2061,2050,2062,1989,1194
1067,1713925724937595906,2042,2045,2032,2059,2045,2048,1194
1068,1713925724947598060,2057,2060,2062,2074,2096,2064,1197
1069,1713925724957600004,2052,2056,2057,2098,2042,2024,1196
1070,1713925724967608289,2056,2050,2053,2069,2072,2036,1193
1071,1713925724977581537,2056,2068,2053,2073,2046,2013,1194
1072,1713925724987581767,2062,2056,2056,2054,2082,2064,1197
1073,1713925724997601525,2055,2057,2064,2068,2056,2041,1193
1074,1713925725007602206,2056,2046,2067,2080,2069,2078,1196
1075,1713925725017587137,2053,2067,2056,1995,2020,2048,1194
1076,1713925725027609660,2051,2044,2035,2013,2046,2068,1194
1077,1713925725037584542,2053,2068,2073,2020,2031,2099,1197
1078,1713925725047586665,2060,2056,2065,2048,2069,2104,1196
1079,1713925725057587908,2050,2046,2049,2072,2043,2072,1197
1080,1713925725067616543,2056,2043,2059,2042,2056,2091,1195
1081,1713925725077584260,2062,2060,2060,2028,2050,2050,1196
1082,1713925725087585762,2053,2045,2052,2076,2061,2009,1192
1083,1713925725097583638,2051,2057,2060,2073,2037,2047,1192
1084,1713925725107586614,2053,2050,2059,2058,2056,2060,1195
1085,1713925725117584009,2054,2060,2054,2073,2040,2043,1193
1086,1713925725127600701,2066,2091,2123,2017,2054,2062,1199
1087,1713925725137583828,2048,2041,2005,1984,2029,2046,1195
1088,1713925725147584168,2058,2052,2053,2037,2053,2063,1196
1089,1713925725157583958,2052,2068,2058,2074,2072,2046,1193
1090,1713925725167595680,2057,2050,2055,2072,2053,2063,1196
1091,1713925725177585420,2056,2068,2057,2064,2038,2047,1193
1092,1713925725187588756,2052,2044,2062,2065,2061,2060,1198
1093,1713925725197584287,2054,2057,2054,2047,2044,2049,1196
1094,1713925725207590749,2058,2054,2051,2042,2056,2057,1197
1095,1713925725217587423,2057,2068,2056,2065,2057,2045,1190
1096,1713925725227592312,2057,2056,2058,2059,2072,2061,1196
1097,1713925725237583415,2058,2062,2054,2048,2043,2048,1197
1098,1713925725247587542,2061,2052,2060,2072,2078,2068,1197
1099,1713925725257587452,2063,2060,2053,2148,2065,2053,1196
1100,1713925725267589185,2052,2044,2052,1985,2050,2058,1196
1101,1713925725277586209,2064,2056,2058,2034,2040,2048,1196
1102,1713925725287587220,2057,2042,2044,2052,2055,2061,1196
1103,1713925725297587782,2053,2060,2049,2037,2038,2045,1193
1104,1713925725307591989,2051,2032,2043,2041,2069,2060,1196
1105,1713925725317583132,2063,2078,2056,2064,2046,2047,1193
1106,1713925725327587170,2052,2053,2052,2067,2076,2066,1197
1107,1713925725337582891,2052,2060,2056,2054,2032,2044,1195
1108,1713925725347582671,2057,2048,2059,2044,2036,2057,1197
1109,1713925725357583663,2050,2057,2060,2073,2056,2050,1197
1110,1713925725367584764,2050,2035,2024,2049,2090,2066,1197
1111,1713925725377582449,2063,2061,2052,2066,2037,2043,1195
1112,1713925725387587579,2064,2072,2126,2068,2066,2060,1197
1113,1713925725397583381,2054,2048,2054,2085,2048,2047,1196
1114,1713925725407586687,2054,2036,2054,2033,2088,2068,1199
1115,1713925725417585374,2057,2057,2054,2032,2045,2049,1195
1116,1713925725427592558,2057,2045,2053,2053,2061,2061,1197
1117,1713925725437583410,2056,2060,2059,2072,2047,2045,1193
1118,1713925725447587367,2045,2044,2045,2055,2038,2056,1197
1119,1713925725457587477,2053,2063,2050,2045,2038,2043,1193
1120,1713925725467585744,2064,2052,2051,2057,2061,2058,1198
1121,1713925725477584671,2066,2060,2045,2052,2040,2042,1195
1122,1713925725487582427,2056,2056,2053,2022,2047,2064,1198
1123,1713925725497585342,2057,2059,2053,2042,2014,2043,1197
1124,1713925725507588518,2056,2065,2080,2090,2072,2064,1197
1125,1713925725517586965,2053,2056,2053,2044,2040,2043,1195
1126,1713925725527585612,2056,2040,2042,1978,2047,2060,1197
1127,1713925725537585101,2043,2052,2030,2074,2048,2046,1195
1128,1713925725547587465,2056,2057,2062,2063,2069,2068,1198
1129,1713925725557588206,2058,2061,2062,2036,2038,2049,1196
1130,1713925725567589538,2057,2047,2069,2068,2072,2061,1199
1131,1713925725577586843,2058,2059,2053,2037,2030,2044,1194
1132,1713925725587590179,2050,2045,2054,2054,2062,2062,1198
1133,1713925725597590018,2068,2078,2061,2036,2039,2045,1193
1134,1713925725607591832,2057,2045,2061,2088,2065,2066,1197
1135,1713925725617590048,2050,2068,2058,2049,2040,2042,1193
1136,1713925725627598775,2056,2056,2058,2056,2070,2060,1197
1137,1713925725637592072,2056,2063,2057,2057,2052,2048,1197
1138,1713925725647596630,2056,2046,2059,2112,2073,2067,1196
1139,1713925725657596189,2056,2071,2049,2049,2041,2049,1196
1140,1713925725667598894,2057,2051,2067,2060,2068,2066,1197
1141,1713925725677594476,2056,2064,2047,2060,2042,2045,1194
1142,1713925725687596229,2052,2044,2057,2084,2061,2062,1198
1143,1713925725697597470,2059,2065,2058,2065,2051,2047,1194
1144,1713925725707598672,2052,2046,2067,2063,2070,2067,1198
1145,1713925725717600706,2052,2058,2047,2041,2036,2043,1195
1146,1713925725727604072,2047,2036,2041,2050,2056,2065,1200
1147,1713925725737601848,2061,2099,2116,2045,2040,2045,1196
1148,1713925725747601567,2051,2052,2108,2072,2066,2063,1198
1149,1713925725757589825,2051,2042,2020,2079,2046,2041,1195
1150,1713925725767589223,2056,2049,2058,2093,2088,2068,1197
1151,1713925725777586057,2060,1993,2058,2040,2045,2045,1194
1152,1713925725787590756,2050,2045,2062,2072,2067,2062,1196
1153,1713925725797586737,2061,2057,2049,2041,2040,2044,1195
1154,1713925725807590484,2053,2041,2064,2068,2066,2066,1197
1155,1713925725817584753,2061,2059,2050,2049,2046,2046,1192
1156,1713925725827586767,2061,2046,2054,2062,2064,2067,1194
1157,1713925725837589692,2061,2064,2053,2032,2038,2043,1196
1158,1713925725847587207,2053,2042,2056,2061,2062,2061,1196
1159,1713925725857584752,2066,2068,2053,2052,2032,2042,1195
1160,1713925725867586806,2057,2043,2059,2072,2075,2068,1196
1161,1713925725877599621,2057,2075,2056,2045,2038,2045,1192
1162,1713925725887593819,2054,2033,2056,2069,2072,2060,1196
1163,1713925725897591855,2061,2085,2061,2057,2040,2045,1196
1164,1713925725907594339,2041,2032,2039,2065,2069,2065,1195
1165,1713925725917589400,2060,2064,2063,2056,2042,2043,1196
1166,1713925725927596623,2047,2037,2053,2058,2064,2064,1198
1167,1713925725937587856,2053,2058,2050,2050,2040,2045,1196
1168,1713925725947588928,2048,2039,2057,2059,2068,2063,1199
1169,1713925725957586724,2053,2075,2053,2042,2029,2041,1196
1170,1713925725967589459,2048,2037,2047,2061,2068,2064,1197
1171,1713925725977584589,2057,2072,2042,2042,2057,2046,1193
1172,1713925725987587384,2050,2044,2068,2061,2072,2066,1197
1173,1713925725997584688,2056,2064,2048,2029,2028,2046,1195
1174,1713925726007586161,2052,2053,2056,2060,2059,2064,1196
1175,1713925726017584117,2056,2067,2051,2045,2036,2046,1194
1176,1713925726027592092,2051,2039,2064,2044,2053,2061,1196
1177,1713925726037582884,2058,2065,2057,2051,2036,2042,1192
1178,1713925726047587132,2052,2037,2059,2068,2076,2066,1195
1179,1713925726057587914,2057,2057,2054,2060,2047,2045,1193
1180,1713925726067586511,2061,2041,2056,2065,2072,2061,1196
1181,1713925726077585499,2061,2092,2099,2044,2043,2042,1194
1182,1713925726087586470,2045,2037,2051,2064,2073,2062,1196
1183,1713925726097586841,2063,2078,2054,2060,2049,2043,1194
1184,1713925726107591239,2072,2066,2128,2069,2077,2068,1196
1185,1713925726117587272,2054,2068,2056,2059,2042,2046,1196
1186,1713925726127596379,2052,2032,2056,2064,2066,2063,1198
1187,1713925726137583955,2059,2064,2056,2052,2038,2048,1198
1188,1713925726147593543,2052,2047,2066,2061,2067,2062,1196
1189,1713925726157584865,2060,2073,2056,2048,2040,2046,1194
1190,1713925726167586449,2053,2037,2054,2058,2064,2067,1197
1191,1713925726177591738,2062,2085,2059,2045,2040,2044,1196
1192,1713925726187582190,2052,2040,2052,2067,2069,2061,1198
1193,1713925726197583031,2053,2054,2042,2055,2036,2042,1195
1194,1713925726207589744,2072,2156,2286,2073,2084,2072,1197
1195,1713925726217586638,2051,2056,2044,2045,2037,2041,1194
1196,1713925726227601867,2049,2036,2053,2060,2060,2063,1196
1197,1713925726237584283,2061,2070,2053,2048,2040,2042,1194
1198,1713925726247602949,2050,2040,2057,2058,2066,2059,1199
1199,1713925726257584323,2064,2068,2056,2069,2045,2036,1196
1200,1713925726267590605,2053,2039,2060,2058,2056,2061,1198
1201,1713925726277585926,2060,2080,2059,2053,2041,2045,1193
1202,1713925726287586697,2044,2033,2052,2060,2072,2065,1197
1203,1713925726297584322,2042,2064,2053,2052,2036,2042,1196
1204,1713925726307585204,2040,2037,2047,2058,2069,2064,1198
1205,1713925726317583770,2057,2064,2044,2058,2038,2043,1195
1206,1713925726327592107,2047,2040,2058,2064,2067,2064,1197
1207,1713925726337587307,2065,2054,2038,2053,2033,2040,1194
1208,1713925726347589611,2056,2026,2044,2049,2067,2064,1198
1209,1713925726357600021,2058,2064,2051,2057,2052,2040,1194
1210,1713925726367589861,2049,2036,2056,2065,2069,2064,1195
1211,1713925726377611172,2061,2072,2074,2044,2044,2044,1192
1212,1713925726387623736,2054,2036,2050,2052,2073,2065,1195
1213,1713925726397591293,2059,2070,2034,2030,2025,2037,1194
1214,1713925726407586765,2052,2043,2062,2058,2069,2065,1199
1215,1713925726417584580,2080,2081,2056,2051,2035,2038,1194
1216,1713925726427585933,2056,2048,2060,2064,2070,2067,1198
1217,1713925726437586854,2056,2064,2049,2061,2038,2042,1196
1218,1713925726447593427,2037,2024,2056,2063,2068,2067,1197
1219,1713925726457585191,2054,2068,2056,2050,2036,2041,1194
1220,1713925726467585771,2053,2036,2057,2062,2073,2065,1197
1221,1713925726477586994,2061,2076,2050,2040,2032,2041,1194
1222,1713925726487626279,2047,2060,2093,2065,2069,2066,1196
1223,1713925726497583877,2056,2072,2070,2047,2036,2040,1194
1224,1713925726507587113,2043,2019,2049,2062,2070,2066,1195
1225,1713925726517591421,2067,2074,2042,2020,2012,2037,1196
1226,1713925726527587844,2057,2037,2053,2065,2076,2065,1199
1227,1713925726537596090,2066,2093,2060,2037,2038,2042,1196
1228,1713925726547581992,2049,2046,2081,2061,2068,2066,1197
1229,1713925726557585279,2058,2065,2048,2050,2018,2038,1193
1230,1713925726567588685,2050,2033,2054,2069,2069,2068,1198
1231,1713925726577586210,2061,2082,2083,2040,2036,2040,1195
1232,1713925726587593003,2048,2036,2045,2067,2070,2068,1197
1233,1713925726597590608,2056,2070,2056,2050,2033,2038,1194
1234,1713925726607590037,2046,2041,2056,2074,2080,2067,1197
1235,1713925726617618431,2058,2072,2056,2052,2036,2040,1194
1236,1713925726627594505,2052,2040,2056,2072,2074,2071,1196
1237,1713925726637593012,2060,2075,2052,2051,2037,2037,1193
1238,1713925726647591980,2052,2037,2053,2069,2070,2064,1198
1239,1713925726657593452,2064,2088,2053,2048,2036,2042,1195
1240,1713925726667590447,2056,2035,2056,2069,2070,2066,1197
1241,1713925726677591518,2064,2069,2053,2049,2036,2040,1196
1242,1713925726687592600,2048,2037,2061,2061,2071,2068,1197
1243,1713925726697597840,2067,2085,2075,2037,2035,2041,1194
1244,1713925726707593962,2044,2025,2043,2047,2074,2066,1197
1245,1713925726717594383,2069,2092,2085,2040,2037,2042,1194
1246,1713925726727591377,2053,2037,2061,2055,2077,2069,1197
1247,1713925726737588050,2057,2082,2057,2052,2030,2041,1193
1248,1713925726747591437,2049,2041,2055,2068,2074,2064,1196
1249,1713925726757587780,2060,2070,2067,2061,2040,2042,1192
1250,1713925726767588080,2043,2037,2053,2040,2064,2059,1195
1251,1713925726777589292,2058,2073,2059,2060,2050,2041,1193
1252,1713925726787592989,2048,2036,2064,2062,2064,2060,1198
1253,1713925726797593360,2060,2078,2061,2060,2036,2041,1193
1254,1713925726807592357,2046,2067,2088,2068,2075,2064,1197
1255,1713925726817592578,2063,2070,2045,2057,2054,2043,1192
1256,1713925726827591846,2050,2029,2047,2064,2048,2064,1195
1257,1713925726837593118,2071,2075,2056,2050,2037,2040,1192
1258,1713925726847592477,2050,2041,2060,2071,2073,2066,1195
1259,1713925726857598718,2064,2073,2052,2060,2049,2044,1193
1260,1713925726867594239,2048,2034,2055,2096,2077,2062,1194
1261,1713925726877594690,2054,2083,2059,2048,2040,2042,1194
1262,1713925726887596243,2045,2032,2028,2063,2074,2068,1197
1263,1713925726897596493,2059,2090,2079,2047,2032,2044,1196
1264,1713925726907601302,2049,2022,2049,2050,2066,2069,1197
1265,1713925726917596984,2057,2073,2050,2042,2035,2043,1193
1266,1713925726927632462,2052,2019,2044,2068,2066,2062,1197
1267,1713925726937599719,2062,2063,2048,2023,2033,2040,1196
1268,1713925726947599689,2048,2024,2044,2054,2068,2070,1198
1269,1713925726957610880,2053,2065,2049,2056,2051,2041,1194
1270,1713925726967583517,2044,2043,2053,2065,2070,2064,1199
1271,1713925726977583968,2053,2072,2054,2059,2032,2036,1195
1272,1713925726987603415,2043,2020,2054,2055,2071,2070,1196
1273,1713925726997602883,2065,2061,2056,2052,2040,2044,1194
1274,1713925727007603295,2046,2036,2053,2066,2069,2065,1196
1275,1713925727017585660,2066,2066,2060,2057,2040,2038,1193
1276,1713925727027588396,2051,2018,2047,2065,2069,2066,1197
1277,1713925727037587383,2069,2072,2036,2049,2036,2043,1195
1278,1713925727047588615,2048,2032,2048,2057,2056,2060,1197
1279,1713925727057588385,2069,2072,2038,2034,2025,2036,1193
1280,1713925727067590569,2054,2038,2056,2066,2069,2070,1196
1281,1713925727077587903,2072,2074,2054,2050,2038,2040,1193
1282,1713925727087588314,2048,2028,2052,2068,2073,2068,1197
1283,1713925727097586360,2064,2078,2058,2052,2036,2042,1194
1284,1713925727107590758,2054,2046,2060,2066,2070,2066,1198
1285,1713925727117590428,2065,2072,2059,2053,2033,2040,1196
1286,1713925727127588654,2044,2031,2054,2063,2074,2065,1199
1287,1713925727137586029,2072,2072,2054,2052,2037,2038,1194
1288,1713925727147588854,2042,2024,2027,2058,2078,2068,1197
1289,1713925727157589255,2055,2060,2037,2054,2042,2040,1194
1290,1713925727167588774,2044,2029,2042,2058,2092,2067,1198
1291,1713925727177587040,2067,2088,2059,2070,2034,2042,1194
1292,1713925727187590677,2056,2036,2052,2053,2071,2068,1198
1293,1713925727197585507,2056,2066,2063,2058,2036,2044,1194
1294,1713925727207588974,2046,2015,2042,2064,2054,2063,1196
1295,1713925727217585607,2065,2064,2016,2045,2036,2042,1195
1296,1713925727227589284,2049,2035,2033,2060,2071,2063,1197
1297,1713925727237588102,2058,2068,2044,2052,2037,2040,1194
1298,1713925727247589514,2050,2037,2053,2053,2069,2065,1196
1299,1713925727257587861,2068,2073,2040,2047,2036,2044,1193
1300,1713925727267587801,2053,2033,2052,2059,2067,2068,1197
1301,1713925727277595676,2058,2080,2057,2040,2043,2041,1194
1302,1713925727287598511,2048,2052,2078,2056,2080,2066,1196
1303,1713925727297595465,2066,2091,2084,2058,2038,2042,1196
1304,1713925727307595224,2050,2018,1994,2048,2063,2062,1198
1305,1713925727317595605,2061,2084,2066,2059,2037,2042,1197
1306,1713925727327594432,2042,2017,2030,2060,2070,2065,1200
1307,1713925727337586918,2061,2076,2049,2049,2040,2041,1195
1308,1713925727347592208,2051,2033,2050,2062,2059,2069,1199
1309,1713925727357588340,2058,2065,2054,2057,2037,2043,1195
1310,1713925727367591115,2044,2032,2058,2059,2073,2067,1197
1311,1713925727377585615,2064,2074,2061,2056,2037,2045,1196
1312,1713925727387605212,2047,2037,2058,2088,2074,2065,1197
1313,1713925727397585114,2062,2073,2058,2053,2039,2041,1195
1314,1713925727407587257,2045,2032,2051,2070,2084,2064,1199
1315,1713925727417583190,2072,2092,2062,2073,2044,2040,1193
1316,1713925727427587197,2044,2045,2064,2056,2068,2066,1196
1317,1713925727437584832,2056,2068,2061,2060,2037,2039,1194
1318,1713925727447590353,2046,2032,2066,2072,2072,2068,1197
1319,1713925727457592155,2066,2073,2058,2045,2038,2041,1192
1320,1713925727467589992,2044,2038,2056,2066,2076,2070,1198
1321,1713925727477586384,2059,2066,2040,2050,2040,2041,1193
1322,1713925727487588649,2041,2028,2037,2071,2068,2069,1197
1323,1713925727497586123,2053,2081,2046,2061,2040,2037,1194
1324,1713925727507587176,2042,2036,2078,2069,2077,2070,1196
1325,1713925727517584500,2065,2072,2060,2052,2034,2037,1193
1326,1713925727527588347,2043,2028,2064,2060,2077,2067,1197
1327,1713925727537585962,2067,2088,2112,2058,2043,2043,1197
1328,1713925727547589198,2045,2029,2058,2059,2071,2065,1199
1329,1713925727557586523,2059,2075,2053,2064,2039,2036,1196
1330,1713925727567590260,2058,2057,2058,2057,2072,2065,1199
1331,1713925727577599638,2061,2070,2056,2050,2043,2043,1197
1332,1713925727587589759,2049,2034,2050,2069,2072,2066,1197
1333,1713925727597590701,2066,2065,2060,2056,2042,2040,1195
1334,1713925727607589729,2047,2030,2058,2056,2072,2064,1198
1335,1713925727617593285,2068,2069,2039,2053,2039,2042,1191
1336,1713925727627606020,2044,2028,2049,2069,2068,2066,1196
1337,1713925727637595379,2050,2049,2038,2066,2053,2049,1196
1338,1713925727647616189,2044,2014,2012,2047,2062,2066,1197
1339,1713925727657596912,2054,2068,2037,2056,2043,2041,1195
1340,1713925727667599056,2053,2045,2058,2061,2075,2071,1197
1341,1713925727677594757,2059,2065,2042,2043,2041,2041,1194
1342,1713925727687598544,2048,2033,2044,2066,2072,2066,1195
1343,1713925727697599276,2059,2075,2062,2060,2043,2040,1194
1344,1713925727707599316,2050,2035,2048,2069,2072,2068,1196
1345,1713925727717599806,2061,2078,2058,2056,2042,2044,1196
1346,1713925727727605628,2047,2044,2049,2060,2068,2066,1197
1347,1713925727737585288,2057,2057,2033,2020,2043,2037,1194
1348,1713925727747629613,2049,2030,2043,2060,2069,2070,1196
1349,1713925727757588735,2064,2082,2076,2072,2056,2042,1194
1350,1713925727767584707,2046,2038,2063,2068,2065,2068,1197
1351,1713925727777585628,2060,2068,2037,2028,2033,2039,1194
1352,1713925727787583945,2057,2042,2056,2068,2074,2060,1195
1353,1713925727797608182,2061,2066,2061,2038,2036,2041,1195
1354,1713925727807584305,2044,2050,2056,2076,2070,2069,1198
1355,1713925727817588423,2058,2067,2043,2041,2014,2036,1192
1356,1713925727827600807,2050,2040,2058,2067,2070,2068,1194
1357,1713925727837582121,2064,2073,2053,2029,2034,2041,1193
1358,1713925727847588893,2040,2036,2052,2064,2069,2066,1194
1359,1713925727857585988,2057,2073,2053,2051,2046,2040,1192
1360,1713925727867606788,2047,2037,2079,2064,2073,2068,1196
1361,1713925727877582441,2058,2062,2049,2052,2046,2040,1195
1362,1713925727887588412,2059,2037,2060,2057,2069,2066,1197
1363,1713925727897587199,2064,2074,2052,2038,2032,2040,1194
1364,1713925727907587279,2053,2052,2104,2052,2073,2066,1197
1365,1713925727917593030,2063,2067,2046,2041,2040,2040,1194
1366,1713925727927585406,2045,2030,2050,2052,2070,2065,1198
1367,1713925727937584934,2061,2076,2061,2034,2038,2039,1192
1368,1713925727947586107,2046,2027,2046,2100,2080,2060,1196
1369,1713925727957586717,2064,2078,2062,2038,2024,2040,1195
1370,1713925727967584864,2040,2028,2061,2058,2069,2038,1194
1371,1713925727977587919,2065,2082,2065,2062,2031,2039,1194
1372,1713925727987624028,2050,2041,2056,2066,2074,2075,1197
1373,1713925727997594281,2063,2076,2056,2052,2024,1960,1193
1374,1713925728007591516,2048,2034,2051,2069,2077,2072,1197
1375,1713925728017589652,2066,2074,2060,2045,2026,2010,1191
1376,1713925728027595453,2041,2043,2050,2048,2071,2070,1197
1377,1713925728037587518,2067,2073,2047,2052,2037,2041,1192
1378,1713925728047588229,2044,2030,2063,2041,2072,2066,1197
1379,1713925728057591415,2062,2062,2047,2050,2033,2041,1197
1380,1713925728067592838,2041,2022,2058,2058,2070,2072,1196
1381,1713925728077589080,2063,2069,2051,2049,2037,2040,1194
1382,1713925728087591956,2048,2033,2053,2058,2068,2066,1197
1383,1713925728097660758,2050,2066,2056,2041,2037,2040,1192
1384,1713925728107587638,2045,2042,2058,2083,2077,2064,1198
1385,1713925728117588338,2057,2059,2025,2066,2043,2038,1196
1386,1713925728127596023,2044,2037,2051,2060,2072,2068,1199
1387,1713925728137584971,2061,2072,2051,2044,2039,2040,1196
1388,1713925728147598788,2047,2036,2051,2072,2082,2072,1197
1389,1713925728157589730,2066,2078,2060,2058,2043,2040,1195
1390,1713925728167600501,2037,2025,2054,2074,2069,2062,1199
1391,1713925728177582718,2056,2068,2069,2076,2054,2043,1195
1392,1713925728187584731,2040,2032,2053,2058,2056,2056,1196
1393,1713925728197589200,2065,2081,2059,2045,2044,2042,1192
1394,1713925728207589440,2047,2040,2052,2076,2069,2064,1199
1395,1713925728217589320,2064,2069,2047,2052,2034,2041,1193
1396,1713925728227606662,2044,2032,2022,2038,2066,2060,1197
1397,1713925728237589119,2061,2061,2021,2050,2039,2040,1195
1398,1713925728247586033,2049,2033,2046,2057,2066,2066,1197
1399,1713925728257590221,2068,2068,2054,2034,2034,2038,1193
1400,1713925728267600510,2052,2012,2054,2064,2071,2066,1197
1401,1713925728277588748,2060,2064,2037,2050,2038,2041,1195
1402,1713925728287617913,2047,2034,2054,2067,2080,2064,1197
1403,1713925728297615789,2061,2069,2046,2053,2035,2040,1193
1404,1713925728307594939,2049,2033,2056,2073,2064,2064,1198
1405,1713925728317586733,2061,2070,2056,2052,2036,2040,1195
1406,1713925728327598806,2046,2040,2052,2059,2070,2064,1198
1407,1713925728337589939,2057,2068,2047,2100,2062,2044,1194
1408,1713925728347621600,2061,2045,2078,2074,2080,2065,1196
1409,1713925728357589268,2072,2065,2072,2052,2033,2041,1194
1410,1713925728367594958,2049,2045,2082,2058,2053,2064,1197
1411,1713925728377628623,2060,2072,2045,2032,2036,2037,1193
1412,1713925728387588606,2046,2045,2053,2080,2080,2072,1197
1413,1713925728397615618,2056,2065,2056,2056,2040,2040,1195
1414,1713925728407592473,2047,2044,2064,2061,2066,2066,1196
1415,1713925728417610077,2064,2074,2047,2073,2045,2042,1193
1416,1713925728427586521,2045,2030,2054,2094,2096,2072,1197
1417,1713925728437590178,2065,2073,2058,2056,2030,2040,1193
1418,1713925728447587663,2046,2035,2049,2047,2066,2069,1195
1419,1713925728457588114,2061,2069,2033,2052,2026,2041,1194
1420,1713925728467598594,2050,2034,2055,2050,2061,2065,1197
1421,1713925728477585709,2052,2084,2069,2088,2064,2043,1194
1422,1713925728487589346,2037,2021,2053,2054,2061,2064,1196
1423,1713925728497584887,2068,2074,2067,2053,2037,2040,1195
1424,1713925728507587031,2048,2042,2061,2064,2071,2069,1197
1425,1713925728517593804,2066,2072,2052,2042,2042,2041,1195
1426,1713925728527584406,2047,2038,2050,2064,2065,2064,1197
1427,1713925728537589857,2064,2070,2053,2072,2037,2042,1194
1428,1713925728547592632,2047,2032,2041,2048,2075,2062,1195
1429,1713925728557585568,2062,2081,2056,2055,2047,2041,1193
1430,1713925728567587201,2042,2032,2055,2052,2068,2080,1197
1431,1713925728577597621,2070,2081,2061,2052,2038,2042,1194
1432,1713925728587582311,2045,2038,2053,2054,2066,2062,1196
1433,1713925728597588804,2061,2064,2062,2031,2037,2041,1193
1434,1713925728607587932,2052,2054,2041,2075,2072,2066,1195
1435,1713925728617607059,2058,2069,2049,2041,2042,2035,1192
1436,1713925728627583533,2050,2052,2058,2059,2065,2066,1196
1437,1713925728637588713,2055,2074,2060,2046,2037,2041,1195
1438,1713925728647587200,2052,2042,2060,2096,2106,2070,1198
1439,1713925728657586028,2062,2072,2064,2080,2048,2038,1194
1440,1713925728667610896,2050,2027,2045,2068,2074,2066,1196
1441,1713925728677583953,2064,2074,2079,2062,2036,2040,1193
1442,1713925728687587811,2046,2044,2056,2062,2080,2069,1196
1443,1713925728697586328,2054,2064,2049,2068,2031,2055,1197
1444,1713925728707588091,2054,2043,2065,2074,2070,2072,1197
1445,1713925728717586237,2056,2070,2052,2039,2037,2038,1194
1446,1713925728727608230,2050,2033,2056,2096,2066,2065,1198
1447,1713925728737584343,2065,2072,2064,2037,2042,2041,1197
1448,1713925728747589193,2048,2032,2045,2072,2069,2065,1199
1449,1713925728757587770,2068,2075,2060,2052,2037,2042,1193
1450,1713925728767593231,2045,2030,2051,2064,2066,2064,1194
1451,1713925728777607929,2061,2068,2053,2048,2036,2043,1193
1452,1713925728787588171,2045,2031,2057,2054,2072,2066,1197
1453,1713925728797608370,2065,2075,2052,2036,2033,2040,1193
1454,1713925728807593260,2042,2034,2068,2056,2066,2064,1198
1455,1713925728817618329,2063,2072,2044,2096,2056,2043,1193
1456,1713925728827591607,2042,2028,2053,2102,2077,2064,1194
1457,1713925728837593551,2072,2104,2104,2081,2049,2044,1194
1458,1713925728847594752,2045,2032,2042,2065,2066,2064,1196
1459,1713925728857596095,2060,2069,2060,2067,2024,2042,1194
1460,1713925728867611244,2050,2034,2049,2058,2068,2064,1194
1461,1713925728877593079,2064,2070,2059,2044,2031,2037,1193
1462,1713925728887597036,2050,2046,2057,2040,2078,2066,1198
1463,1713925728897600994,2061,2072,2057,2049,2044,2044,1195
1464,1713925728907598499,2052,2027,2049,2060,2069,2068,1198
1465,1713925728917599561,2055,2072,2062,2050,2040,2040,1195
1466,1713925728927603929,2042,2024,2045,2064,2067,2064,1198
1467,1713925728937581446,2059,2061,2061,2051,2033,2045,1196
1468,1713925728947602055,2046,2032,2050,2061,2057,2062,1196
1469,1713925728957600923,2065,2080,2061,2057,2034,2041,1192
1470,1713925728967606133,2046,2040,2053,2063,2073,2070,1196
1471,1713925728977610331,2060,2066,2057,2056,2041,2045,1195
1472,1713925728987583620,2056,2031,2061,2061,2060,2066,1197
1473,1713925728997586184,2064,2069,2061,2076,2062,2046,1195
1474,1713925729007586976,2050,2041,2062,2136,2061,2062,1199
1475,1713925729017617564,2064,2072,2064,2040,2030,2043,1191
1476,1713925729027586755,2052,2038,2052,2062,2064,2064,1195
1477,1713925729037590131,2060,2067,2056,2057,2040,2043,1193
1478,1713925729047589670,2049,2042,2056,2060,2064,2066,1196
1479,1713925729057590141,2061,2074,2056,2062,2057,2041,1194
1480,1713925729067621301,2044,2042,2053,2040,2059,2066,1195
1481,1713925729077584200,2061,2071,2072,2049,2035,2041,1193
1482,1713925729087591304,2049,2032,2062,2040,2056,2063,1198
1483,1713925729097584420,2060,2068,2056,2072,2037,2042,1194
1484,1713925729107590502,2052,2051,2085,2074,2066,2066,1198
1485,1713925729117585532,2058,2074,2069,2044,2040,2040,1195
1486,1713925729127591814,2052,2041,2051,2058,2065,2062,1198
1487,1713925729137584510,2062,2066,2055,2045,2040,2041,1192
1488,1713925729147587526,2054,2056,2057,2060,2052,2069,1196
1489,1713925729157590321,2067,2072,2052,2038,2036,2043,1195
1490,1713925729167586935,2046,2034,2053,2052,2058,2067,1197
1491,1713925729177590291,2057,2069,2057,2040,2030,2041,1194
1492,1713925729187585171,2050,2040,2059,2042,2056,2064,1198
1493,1713925729197584129,2065,2080,2059,2044,2040,2041,1194
1494,1713925729207586413,2052,2036,2049,2045,2063,2066,1196
1495,1713925729217585351,2058,2068,2046,2014,2037,2041,1191
1496,1713925729227604227,2042,2034,2043,2029,2034,2056,1198
1497,1713925729237581163,2068,2084,2053,2052,2037,2040,1193
1498,1713925729247584449,2042,2042,2045,2036,2062,2062,1196
1499,1713925729257587234,2065,2072,2058,2055,2037,2041,1194
1500,1713925729267586613,2046,2036,2053,2056,2062,2065,1196
1501,1713925729277603255,2055,2069,2064,2040,2035,2037,1193
1502,1713925729287586874,2049,2040,2042,2035,2046,2064,1195
1503,1713925729297587925,2061,2066,2056,2017,2041,2044,1195
1504,1713925729307588827,2055,2045,2057,2056,2082,2066,1197
1505,1713925729317588887,2058,2071,2058,2068,2053,2041,1194
1506,1713925729327602303,2050,2036,2049,2052,2064,2064,1198
1507,1713925729337580170,2063,2072,2060,2051,2036,2045,1193
1508,1713925729347588225,2047,2040,2061,2064,2068,2065,1196
1509,1713925729357586733,2061,2067,2052,2034,2040,2040,1193
1510,1713925729367584889,2052,2037,2052,2070,2066,2067,1197
1511,1713925729377598886,2055,2065,2044,2077,2044,2040,1195
1512,1713925729387579979,2066,2060,2065,2017,2048,2061,1197
1513,1713925729397578807,2064,2084,2058,2055,2044,2042,1193
1514,1713925729407586802,2047,2040,2065,2080,2068,2064,1198
1515,1713925729417587494,2058,2068,2052,2049,2036,2042,1191
1516,1713925729427600057,2049,2040,2057,2044,2068,2061,1196
1517,1713925729437578456,2060,2073,2058,2053,2042,2042,1192
1518,1713925729447584367,2053,2036,2053,2065,2084,2063,1196
1519,1713925729457586942,2060,2069,2046,2056,2057,2043,1192
1520,1713925729467587694,2054,2035,2056,2062,2068,2076,1197
1521,1713925729477599656,2058,2070,2057,2054,2044,2054,1197
1522,1713925729487585029,2052,2036,2055,2054,2058,2073,1196
1523,1713925729497587183,2056,2076,2055,2058,2041,2040,1194
1524,1713925729507588545,2056,2033,2053,2061,2069,2081,1196
1525,1713925729517588655,2060,2064,2057,2057,2039,2072,1197
1526,1713925729527591110,2060,2041,2048,2060,2060,2075,1198
1527,1713925729537590028,2053,2065,2050,2047,2056,2043,1194
1528,1713925729547590669,2052,2042,2053,2057,2075,2069,1198
1529,1713925729557591360,2062,2070,2064,2048,2045,2051,1196
1530,1713925729567591671,2052,2039,2032,2063,2072,2065,1197
1531,1713925729577597812,2061,2074,2065,2043,2037,2044,1194
1532,1713925729587594345,2052,2038,2059,2067,2067,2065,1197
1533,1713925729597594436,2056,2064,2049,2044,2040,2047,1194
1534,1713925729607597972,2049,2034,2054,2048,2074,2075,1197
1535,1713925729617597792,2072,2073,2047,2049,2046,2032,1195
1536,1713925729627596920,2046,2046,2043,2051,2058,2069,1194
1537,1713925729637596158,2046,2063,2056,2101,2039,2024,1193
1538,1713925729647597642,2050,2047,2066,2065,2069,2068,1195
1539,1713925729657609704,2080,2071,2053,2045,2034,2042,1195
1540,1713925729667598864,2073,2049,2053,2056,2064,2066,1197
1541,1713925729677599695,2064,2064,2049,2055,2041,2041,1193
1542,1713925729687599064,2046,2037,2062,2032,2057,2047,1195
1543,1713925729697603312,2056,2070,2073,2057,2053,2044,1195
1544,1713925729707588203,2052,2027,2049,2057,2073,2062,1199
1545,1713925729717588524,2061,2068,2061,2030,2047,2047,1194
1546,1713925729727610786,2048,2040,2046,2087,2048,2065,1196
1547,1713925729737586670,2056,2065,2064,2090,2069,2064,1197
1548,1713925729747588203,2056,2043,2053,2039,2048,2045,1193
1549,1713925729757588483,2054,2072,2060,2054,2072,2154,1196
1550,1713925729767588773,2047,2046,2055,2060,2063,2078,1195
1551,1713925729777595627,2056,2067,2053,2021,2027,2035,1192
1552,1713925729787585317,2037,2033,2052,2056,2085,2107,1197
1553,1713925729797587270,2042,2068,2059,2062,2032,2083,1194
1554,1713925729807589705,2015,2034,2051,2050,2066,2128,1198
1555,1713925729817590486,2080,2073,2060,2023,2052,2075,1195
1556,1713925729827596128,2046,2042,2060,2056,2053,2064,1196
1557,1713925729837591308,2053,2062,2051,2042,2040,2062,1197
1558,1713925729847589825,2049,2034,2061,2065,2067,2064,1195
