seq,time,data[0],data[1],data[2],data[3],data[4],data[5],data[6]
201,1711003728750812043,2060,2061,2066,2125,2134,2060,1195
202,1711003728760813595,2052,2056,2051,2058,2072,2053,1198
203,1711003728770812843,2054,2057,2098,2056,2066,2065,1197
204,1711003728780817932,2046,2048,2046,1984,2038,2056,1196
205,1711003728790813583,2060,2057,2056,1966,2009,2048,1199
206,1711003728800814835,2059,2063,2098,2085,2060,2061,1197
207,1711003728810815045,2059,2057,2079,2042,2043,2052,1195
208,1711003728820815284,2051,2046,2034,2022,2013,2042,1194
209,1711003728830815203,2057,2045,2052,2046,2034,2045,1193
210,1711003728840816605,2046,2043,2027,2053,2057,2053,1199
211,1711003728850816594,2056,2052,2036,2045,2008,2060,1196
212,1711003728860817355,2054,2047,2030,2045,2021,2052,1195
213,1711003728870817756,2054,2041,2034,2058,2057,2056,1195
214,1711003728880818747,2056,2058,2049,2060,2078,2049,1193
215,1711003728890819807,2064,2072,2095,2077,2116,2068,1197
216,1711003728900818665,2054,2056,2045,2055,2060,2056,1197
217,1711003728910819255,2059,2077,2100,2069,2055,2060,1195
218,1711003728920802323,2050,2032,2024,2049,2053,2050,1196
219,1711003728930804697,2048,2047,2050,2058,2061,2047,1193
220,1711003728940821698,2050,2059,2013,2040,2037,2046,1193
221,1711003728950802360,2074,2108,2149,2084,2082,2080,1196
222,1711003728960821466,2056,2051,2033,2053,2056,2052,1196
223,1711003728970804714,2051,2052,2058,2056,2058,2054,1196
224,1711003728980805645,2051,2068,2098,2022,2022,2046,1193
225,1711003728990827205,2056,2068,2050,2058,2043,2050,1197
226,1711003729000806645,2056,2045,2028,2040,2037,2054,1196
227,1711003729010832664,2059,2056,2059,2060,2066,2058,1198
228,1711003729020806353,2052,2045,2013,2074,2093,2059,1196
229,1711003729030831871,2057,2064,2073,2053,2072,2054,1196
230,1711003729040829616,2054,2070,2055,2085,1984,2047,1193
231,1711003729050803626,2046,2039,2034,2054,2074,2064,1195
232,1711003729060802173,2048,2072,2042,2047,2052,2050,1195
233,1711003729070801961,2080,2115,2211,2077,2042,2053,1197
234,1711003729080802852,2048,2044,2043,2059,2065,2058,1194
235,1711003729090810586,2059,2059,2064,2060,2056,2058,1199
236,1711003729100827648,2060,2063,2082,2060,2051,2065,1193
237,1711003729110799884,2057,2056,2046,2060,2056,2053,1196
238,1711003729120805674,2051,2045,2011,2048,2044,2047,1196
239,1711003729130805854,2069,2074,2062,2093,2099,2059,1195
240,1711003729140806494,2047,2040,2028,2051,2056,2052,1194
241,1711003729150829437,2052,2049,2046,2061,2077,2057,1195
242,1711003729160805481,2056,2052,2021,2086,2041,2061,1197
243,1711003729170804939,2057,2063,2085,2074,2065,2053,1197
244,1711003729180804978,2052,2040,2029,2052,2040,2058,1196
245,1711003729190836427,2061,2090,2073,2056,2052,2061,1198
246,1711003729200801631,2056,2061,2076,2049,2045,2052,1196
247,1711003729210807201,2056,2052,2064,2072,2092,2061,1196
248,1711003729220802170,2056,2061,2078,2056,2034,2052,1196
249,1711003729230799845,2065,2086,2094,2073,2057,2062,1196
250,1711003729240818690,2051,2047,2029,2047,2053,2061,1196
251,1711003729250800705,2052,2024,2043,2036,2031,2052,1196
252,1711003729260794944,2056,2043,2045,2052,2052,2055,1195
253,1711003729270794582,2053,2049,2050,2064,2073,2056,1194
254,1711003729280793860,2056,2053,2036,2027,2024,2045,1192
255,1711003729290816953,2061,2070,2074,2057,2048,2056,1197
256,1711003729300815399,2065,2093,2200,2069,2063,2053,1195
257,1711003729310811892,2060,2068,2001,2061,2053,2054,1195
258,1711003729320817281,2050,2052,2039,2021,2040,2054,1196
259,1711003729330804716,2058,2047,2042,2045,2043,2049,1196
260,1711003729340840965,2059,2063,2066,2047,2047,2067,1195
261,1711003729350809224,2052,2050,2073,2051,2053,2058,1195
262,1711003729360806228,2058,2057,2059,2056,2056,2052,1195
263,1711003729370805706,2066,2101,2149,2089,2066,2053,1195
264,1711003729380802439,2051,2043,2047,2064,2045,2052,1197
265,1711003729390828598,2056,2045,2056,2052,2041,2051,1200
266,1711003729400787319,2052,2052,2033,2050,2085,2052,1198
267,1711003729410825160,2054,2054,2060,2059,2056,2052,1198
268,1711003729420806734,2057,2052,2047,2044,2028,2046,1194
269,1711003729430806923,2058,2054,2050,2049,2050,2053,1197
270,1711003729440827943,2052,2037,2041,2053,2047,2052,1194
271,1711003729450795811,2056,2052,2060,2058,2054,2056,1196
272,1711003729460788917,2053,2049,2044,2069,2102,2056,1199
273,1711003729470789477,2061,2056,2057,2036,2044,2056,1194
274,1711003729480788384,2054,2053,2049,2036,2045,2049,1194
275,1711003729490788003,2059,2040,2051,2050,2056,2062,1196
276,1711003729500786489,2042,2035,2047,2037,2025,2060,1198
277,1711003729510794384,2058,2052,2060,2060,2072,2062,1196
278,1711003729520796567,2056,2056,2057,2050,2061,2056,1197
279,1711003729530794202,2056,2051,2057,2082,2080,2062,1195
280,1711003729540795804,2056,2056,2046,2050,2060,2058,1196
281,1711003729550791255,2053,2053,2060,2059,2051,2052,1196
282,1711003729560787958,2054,2048,2052,2053,2052,2056,1196
283,1711003729570791844,2056,2051,2060,2056,2056,2056,1198
284,1711003729580792074,2057,2056,2054,2053,2071,2040,1196
285,1711003729590805098,2059,2056,2058,2044,2057,2063,1198
286,1711003729600784759,2052,2054,2052,2059,2044,2052,1196
287,1711003729610792071,2059,2056,2058,2060,2053,2049,1198
288,1711003729620796159,2053,2054,2050,2074,2073,2049,1196
289,1711003729630796910,2053,2052,2058,2064,2061,2058,1197
290,1711003729640820453,2052,2057,2050,2017,2042,2046,1193
291,1711003729650798891,2056,2056,2056,2064,2088,2046,1196
292,1711003729660794683,2049,2051,2050,2048,2057,2064,1198
293,1711003729670792017,2057,2056,2060,2068,2059,2054,1196
294,1711003729680793109,2049,2050,2053,2057,2066,2056,1194
295,1711003729690793319,2057,2057,2056,2071,2040,2040,1194
296,1711003729700788769,2052,2055,2062,2057,2054,2050,1196
297,1711003729710819667,2055,2052,2036,2050,2046,2064,1197
298,1711003729720794458,2056,2055,2053,2052,2036,2056,1197
299,1711003729730793977,2056,2056,2060,2067,2057,2053,1196
300,1711003729740799536,2056,2054,2047,2052,2040,2044,1194
301,1711003729750800237,2053,2057,2063,2088,2068,2105,1196
302,1711003729760791479,2053,2054,2052,2034,2032,2054,1197
303,1711003729770799023,2059,2058,2060,2059,2050,2052,1196
304,1711003729780797840,2056,2053,2034,2057,2033,2041,1193
305,1711003729790797839,2046,2048,2035,2052,2080,2048,1195
306,1711003729800804751,2053,2041,2024,2050,2052,2052,1197
307,1711003729810797617,2070,2111,2056,2054,2064,2058,1194
308,1711003729820798668,2056,2044,2033,2029,2051,2056,1195
309,1711003729830798498,2058,2053,2063,2058,2064,2056,1194
310,1711003729840804068,2056,2060,2054,2034,2026,2046,1194
311,1711003729850798245,2064,2060,2060,2054,2043,2057,1197
312,1711003729860772516,2052,2056,2054,2048,2045,2049,1197
313,1711003729870807362,2058,2057,2063,2060,2054,2053,1197
314,1711003729880805547,2056,2056,2056,2057,2052,2051,1195
315,1711003729890805586,2056,2056,2058,2049,2048,2053,1196
316,1711003729900803321,2060,2054,2050,2065,2062,2063,1196
317,1711003729910808901,2042,2056,2072,2064,2057,2068,1195
318,1711003729920803089,2052,2056,2053,2056,2055,2075,1197
319,1711003729930803619,2060,2045,2056,2050,2045,2044,1193
320,1711003729940817535,2053,2058,2059,2046,2040,2057,1197
321,1711003729950813217,2057,2056,2053,2046,2047,2053,1196
322,1711003729960802084,2055,2060,2073,2081,2098,2069,1196
323,1711003729970791323,2056,2051,2064,2076,2066,2059,1196
324,1711003729980812262,2049,2024,2038,2044,2044,2054,1197
325,1711003729990789438,2059,2058,2096,2040,2052,2052,1196
326,1711003730000823953,2056,2052,2056,2058,2045,2040,1194
327,1711003730010792573,2061,2056,2056,2052,2026,2039,1196
328,1711003730020812169,2052,2057,2056,2048,2043,2048,1198
329,1711003730030798763,2056,2055,2055,2064,2056,2020,1194
330,1711003730040817728,2055,2053,2052,2063,2052,2058,1196
331,1711003730050789503,2057,2056,2054,2069,2056,2057,1197
332,1711003730060793200,2056,2058,2054,2049,2047,2004,1194
333,1711003730070790734,2056,2056,2062,2073,2056,2062,1197
334,1711003730080793669,2047,2021,2037,2026,2040,2016,1194
335,1711003730090794730,2057,2047,2064,2072,2112,2069,1194
336,1711003730100792675,2056,2052,2052,2063,2048,2053,1196
337,1711003730110795901,2053,2050,2048,2047,2070,2070,1197
338,1711003730120796351,2062,2081,2186,2074,2064,2068,1196
339,1711003730130800177,2057,2053,2052,2056,2057,2057,1197
340,1711003730140804465,2053,2050,2035,2056,2050,2056,1195
341,1711003730150816217,2052,2046,2047,2052,2056,2056,1195
342,1711003730160795737,2056,2055,2072,2060,2058,2053,1197
343,1711003730170796166,2056,2051,2053,2055,2065,2053,1197
344,1711003730180794633,2052,2055,2048,2049,2047,2056,1197
345,1711003730190794813,2055,2048,2056,2041,2045,2054,1197
346,1711003730200798098,2049,2047,2047,2052,2046,2052,1198
347,1711003730210791194,2057,2050,2054,2056,2061,2053,1198
348,1711003730220799248,2052,2050,2070,2064,2048,2053,1195
349,1711003730230793115,2056,2044,2035,2121,2139,2072,1195
350,1711003730240798064,2059,2067,2050,2064,2044,2058,1194
351,1711003730250794316,2052,2056,2061,2058,2064,2060,1197
352,1711003730260796730,2055,2036,2040,2076,2058,2053,1197
353,1711003730270802781,2047,2045,2058,2095,2113,2057,1196
354,1711003730280792220,2054,2050,2052,2043,2067,2050,1197
355,1711003730290793572,2058,2050,2032,2053,2052,2053,1197
356,1711003730300804792,2058,2060,2056,2064,2070,2052,1195
357,1711003730310794522,2056,2047,2052,2037,2033,2057,1197
358,1711003730320793930,2052,2050,2050,2058,2066,2054,1196
359,1711003730330790773,2057,2056,2060,2049,2050,2052,1197
360,1711003730340821451,2052,2047,2033,2049,2048,2056,1197
361,1711003730350807744,2065,2082,2143,2088,2065,2061,1197
362,1711003730360794328,2051,2048,2041,2097,2051,2058,1199
363,1711003730370788276,2050,2027,2044,2082,2082,2056,1199
364,1711003730380788084,2051,2046,2053,2056,2051,2055,1198
365,1711003730390788544,2058,2058,2056,2045,2042,2053,1196
366,1711003730400782532,2051,2050,2035,2048,2056,2051,1196
367,1711003730410787470,2062,2075,2069,2056,2066,2060,1197
368,1711003730420796817,2054,2062,2056,2040,2041,2048,1195
369,1711003730430793981,2053,2050,2058,2056,2061,2053,1197
370,1711003730440796765,2053,2054,2052,2062,2029,2046,1195
371,1711003730450796033,2060,2062,2082,2047,2064,2057,1196
372,1711003730460794429,2057,2050,2051,2028,2047,2051,1197
373,1711003730470796833,2054,2044,2045,2065,2066,2053,1196
374,1711003730480792725,2058,2056,2074,2063,2055,2057,1194
375,1711003730490811199,2057,2067,2034,2059,2062,2054,1197
376,1711003730500795318,2056,2051,2063,2061,2088,2057,1196
377,1711003730510794756,2053,2056,2056,2064,2030,2057,1195
378,1711003730520790487,2054,2053,2050,2062,2042,2053,1198
379,1711003730530796858,2056,2053,2059,2059,2052,2056,1196
380,1711003730540802278,2053,2060,2085,2048,2030,2053,1196
381,1711003730550805303,2053,2056,2041,2062,2056,2054,1196
382,1711003730560804240,2060,2070,2063,2024,2047,2052,1196
383,1711003730570795152,2060,2060,2032,2068,2067,2058,1196
384,1711003730580796974,2054,2051,2050,2051,2042,2049,1199
385,1711003730590793306,2058,2051,2057,2092,2088,2059,1197
386,1711003730600795059,2054,2052,2052,2067,2063,2054,1195
387,1711003730610783647,2056,2054,2050,2015,2056,2052,1197
388,1711003730620796210,2056,2056,2056,2048,2039,2052,1197
389,1711003730630797451,2061,2068,2092,2040,2040,2047,1193
390,1711003730640799103,2046,2032,2014,2058,2118,2062,1194
391,1711003730650812368,2053,2053,2049,2003,2036,2048,1196
392,1711003730660796888,2047,2036,2019,2036,2033,2050,1196
393,1711003730670791517,2061,2073,2096,2088,2092,2061,1196
394,1711003730680796315,2052,2039,2030,2016,2058,2057,1196
395,1711003730690797186,2060,2055,2057,2004,2059,2054,1195
396,1711003730700814498,2049,2046,2048,2041,2042,2056,1196
397,1711003730710820018,2061,2062,2064,2081,2058,2051,1195
398,1711003730720796132,2057,2052,2041,2066,2054,2097,1195
399,1711003730730799487,2064,2062,2068,2054,2090,2052,1195
400,1711003730740793856,2058,2056,2057,2063,2070,2069,1197
401,1711003730750803012,2046,2049,2025,2048,1950,2055,1196
402,1711003730760797601,2058,2072,2088,2056,2042,2054,1195
403,1711003730770795977,2055,2046,2031,2057,2051,2050,1198
404,1711003730780794583,2049,2052,2064,2064,2046,2057,1195
405,1711003730790794693,2056,2053,2051,2057,2044,2038,1194
406,1711003730800803629,2045,2050,2053,2064,2060,2040,1193
407,1711003730810794370,2064,2065,2078,2082,2050,2049,1196
408,1711003730820797205,2052,2047,2054,2018,2053,2061,1196
409,1711003730830792205,2058,2051,2040,1989,2082,2088,1197
410,1711003730840807984,2037,2044,2048,2067,2049,2060,1198
411,1711003730850787224,2054,2058,2062,2020,2068,2090,1195
412,1711003730860809285,2051,2049,2051,2073,2058,2025,1193
413,1711003730870796059,2050,2045,2032,2049,2051,2047,1195
414,1711003730880793534,2053,2054,2057,2077,2040,2057,1194
415,1711003730890794414,2060,2058,2058,2044,2059,2070,1198
416,1711003730900799804,2052,2047,2047,2020,2064,2066,1196
417,1711003730910795906,2060,2057,2046,2036,2045,2027,1193
418,1711003730920797959,2054,2050,2007,1949,2029,2042,1194
419,1711003730930797347,2056,2049,2058,2077,2028,2116,1195
420,1711003730940836250,2057,2059,2058,2092,2044,1968,1194
421,1711003730950787786,2058,2060,2065,2083,2063,2060,1198
422,1711003730960794759,2051,2052,2059,2101,2053,2056,1198
423,1711003730970791993,2058,2056,2045,2069,2088,2111,1196
424,1711003730980797673,2053,2050,2047,2075,2024,2064,1196
425,1711003730990796680,2056,2053,2061,2047,2030,2069,1197
426,1711003731000792171,2058,2054,2062,2020,2034,2078,1196
427,1711003731010793403,2057,2056,2068,2088,2084,2065,1194
428,1711003731020792761,2054,2041,2054,2049,2052,2072,1195
429,1711003731030800184,2056,2043,2060,2062,2062,2096,1196
430,1711003731040797898,2050,2052,2045,2049,2050,2027,1192
431,1711003731050787628,2052,2046,2039,2044,2029,2060,1197
432,1711003731060787847,2053,2042,2013,2026,2034,2052,1195
433,1711003731070785803,2060,2059,2063,2074,2064,2065,1196
434,1711003731080787014,2050,2054,2056,2070,2052,2050,1194
435,1711003731090786412,2056,2052,2038,2053,2067,2020,1193
436,1711003731100760742,2056,2043,2001,2078,2035,2054,1197
437,1711003731110796930,2054,2052,2040,2052,2092,2056,1196
438,1711003731120805345,2040,2031,2024,2038,2000,2029,1194
439,1711003731130793532,2089,2159,2378,2021,2105,2092,1197
440,1711003731140794854,2050,2058,2065,2056,2036,2036,1193
441,1711003731150798410,2052,2046,2024,2040,2064,2057,1195
442,1711003731160800523,2070,2076,2112,2064,2043,2071,1198
443,1711003731170793318,2058,2052,2041,2076,2062,2054,1196
444,1711003731180791744,2050,2045,2042,2056,2089,2005,1194
445,1711003731190796473,2052,2048,2045,1977,1940,2013,1195
446,1711003731200792514,2063,2064,2068,2122,2030,2045,1195
447,1711003731210791281,2136,2103,2072,2005,2029,2244,1197
448,1711003731220795257,2049,2028,2036,2040,1994,1982,1194
449,1711003731230793783,2052,2058,2057,2082,2039,1976,1194
450,1711003731240800395,2051,2062,2073,2057,2013,2013,1194
451,1711003731250799253,2056,2053,2070,2094,2083,2125,1197
452,1711003731260833888,2053,2068,2060,2044,2088,2155,1198
453,1711003731270793760,2044,2055,2066,2076,2020,2049,1199
454,1711003731280793779,2052,2053,2051,2076,2099,2133,1194
455,1711003731290795141,2059,2058,2056,1955,2013,2027,1195
456,1711003731300793277,2056,2052,2038,2034,2065,2027,1196
457,1711003731310788858,2060,2062,2053,2022,1954,2053,1195
458,1711003731320792283,2050,2052,2070,2172,2124,2059,1197
459,1711003731330792733,2052,2052,2055,2062,2041,2040,1193
460,1711003731340792742,2064,2061,2065,2120,2060,2066,1195
461,1711003731350799844,2072,2067,2072,2117,2100,2064,1196
462,1711003731360797760,2049,2040,2029,2036,2092,2010,1193
463,1711003731370796737,2057,2054,2058,2095,2013,2039,1192
464,1711003731380801355,2061,2060,2057,2035,2031,2040,1194
465,1711003731390798679,2068,2066,2066,2088,2043,2067,1199
466,1711003731400795302,2053,2050,2058,2056,2136,2072,1198
467,1711003731410795421,2058,2058,2053,2056,2063,2075,1196
468,1711003731420798807,2050,2025,2060,2072,2089,2057,1196
469,1711003731430798495,2061,2063,2141,2064,2090,2056,1196
470,1711003731440803845,2056,2051,2046,2037,2041,2024,1194
471,1711003731450804685,2049,2044,2034,2010,2032,2041,1193
472,1711003731460799815,2050,2051,2056,2075,2072,2104,1196
473,1711003731470800094,2059,2060,2060,2048,2071,2068,1197
474,1711003731480800545,2056,2054,2059,1903,1985,2068,1194
475,1711003731490801796,2052,2055,2055,2064,2141,2041,1194
476,1711003731500803569,2052,2052,2061,2060,2048,2077,1195
477,1711003731510804630,2054,2052,2046,1961,1979,2028,1193
478,1711003731520802615,2052,2050,2053,2057,2074,2032,1196
479,1711003731530802794,2050,2048,2045,2077,2137,2038,1194
480,1711003731540803675,2054,2048,2051,2040,2020,2056,1196
481,1711003731550785691,2058,2056,2056,2083,2087,2087,1197
482,1711003731560806348,2058,2042,2056,2015,2008,2067,1195
483,1711003731570788674,2049,2051,2052,2061,2063,2057,1197
484,1711003731580806247,2052,2056,2060,2042,2016,2050,1197
485,1711003731590781909,2059,2057,2056,2088,2204,2088,1198
486,1711003731600807567,2062,2058,2057,2060,2036,2045,1193
487,1711003731610807146,2054,2051,2058,2089,2062,2045,1194
488,1711003731620810030,2058,2056,2055,2045,2065,2040,1196
489,1711003731630807795,2052,2053,2047,2027,2078,2036,1195
490,1711003731640807834,2049,2059,2053,2017,1984,2038,1195
491,1711003731650809897,2055,2053,2048,2080,2072,2090,1193
492,1711003731660792343,2050,2054,2053,2064,2091,2065,1196
493,1711003731670793956,2062,2057,2053,1978,1990,2076,1196
494,1711003731680793403,2057,2056,2058,1989,2016,2008,1194
495,1711003731690811667,2056,2056,2061,2124,2179,2070,1196
496,1711003731700795997,2054,2054,2053,2036,2061,2056,1199
497,1711003731710796366,2057,2055,2048,2051,2080,2068,1195
498,1711003731720795404,2056,2049,2054,2057,2032,2057,1197
499,1711003731730794511,2056,2052,2052,2029,2043,2050,1194
500,1711003731740797285,2060,2059,2064,2048,2033,2089,1196
501,1711003731750782016,2045,2043,2040,2082,2096,2056,1198
502,1711003731760798165,2053,2052,2054,2052,2030,2047,1194
503,1711003731770793916,2068,2056,2057,2061,2064,2053,1195
504,1711003731780799366,2060,2054,2064,2065,2035,2056,1197
505,1711003731790797060,2052,2052,2050,2060,2097,2044,1194
506,1711003731800815795,2052,2052,2050,2045,1984,2044,1193
507,1711003731810799454,2062,2064,2062,2107,2059,2083,1198
508,1711003731820791668,2050,2048,2048,2045,2034,2045,1194
509,1711003731830791096,2056,2057,2054,2056,2079,2053,1196
510,1711003731840797627,2057,2052,2049,2063,2085,2081,1197
511,1711003731850792196,2056,2057,2058,2069,2172,2047,1195
512,1711003731860796273,2054,2052,2058,2104,2024,2047,1194
513,1711003731870794950,2056,2052,2053,2031,2068,2057,1197
514,1711003731880795139,2053,2053,2056,2080,2065,2060,1194
515,1711003731890801119,2057,2056,2056,2038,2072,2017,1193
516,1711003731900795468,2053,2052,2058,2068,2004,2048,1198
517,1711003731910794595,2051,2052,2049,2059,2100,2058,1198
518,1711003731920794544,2053,2051,2049,2049,2041,2059,1197
519,1711003731930796848,2056,2055,2053,2064,2081,2048,1197
520,1711003731940801536,2049,2052,2057,2052,2021,2058,1196
521,1711003731950798940,2059,2058,2058,2052,1976,2052,1197
522,1711003731960795512,2049,2054,2056,2046,2017,2052,1197
523,1711003731970793387,2060,2058,2060,2056,2004,2053,1196
524,1711003731980843692,2057,2076,2064,2041,2032,2048,1197
525,1711003731990795961,2063,2062,2060,2069,2086,2054,1196
526,1711003732000797543,2054,2053,2054,2021,2122,2024,1193
527,1711003732010797161,2056,2054,2052,1988,2021,2049,1198
528,1711003732020795517,2054,2053,2060,2057,2041,2052,1197
529,1711003732030792941,2056,2056,2057,2054,2017,2044,1195
530,1711003732040807138,2056,2058,2057,2076,2117,2040,1194
531,1711003732050798580,2063,2064,2062,2088,2095,2080,1197
532,1711003732060797778,2055,2056,2060,2087,2024,2032,1195
533,1711003732070795403,2052,2054,2051,2080,2073,2083,1195
534,1711003732080794430,2058,2054,2059,2064,2031,2057,1197
535,1711003732090798216,2060,2064,2055,2048,2038,2050,1196
536,1711003732100794438,2044,2044,2050,2056,2104,2072,1196
537,1711003732110807121,2060,2058,2055,2062,2071,2020,1196
538,1711003732120804354,2051,2043,2049,2061,2067,2050,1198
539,1711003732130797811,2061,2064,2057,2051,2037,2064,1196
540,1711003732140810675,2056,2056,2061,2059,2075,2054,1196
541,1711003732150796336,2060,2054,2054,2062,2053,2061,1197
542,1711003732160805282,2048,2072,2059,2056,2056,2058,1196
543,1711003732170799601,2059,2057,2049,2044,2005,2047,1196
544,1711003732180809349,2044,2047,2050,2039,2076,2056,1198
545,1711003732190812594,2056,2052,2051,2053,2093,2049,1197
546,1711003732200809306,2050,2052,2058,2040,2021,2045,1197
547,1711003732210805949,2050,2056,2048,2100,2116,2028,1193
548,1711003732220807972,2056,2055,2060,2045,2077,2073,1197
549,1711003732230845131,2056,2056,2051,2040,2130,2042,1194
550,1711003732240801868,2050,2048,2054,2056,2017,2052,1195
551,1711003732250806075,2066,2060,2053,2040,2114,2051,1196
552,1711003732260805443,2063,2060,2064,1993,2020,2065,1197
553,1711003732270810452,2056,2049,2050,2112,2090,2064,1197
554,1711003732280955076,2049,2052,2062,2056,2037,1965,1192
555,1711003732290810560,2056,2045,2046,2021,1965,2034,1194
556,1711003732300808205,2050,2049,2052,1992,1980,2052,1195
557,1711003732310811219,2064,2052,2052,2085,2066,2078,1197
558,1711003732320808583,2061,2060,2060,2036,2008,2059,1197
559,1711003732330807029,2062,2061,2068,2069,2282,2029,1195
560,1711003732340807460,2065,2057,2065,2099,2101,2092,1197
561,1711003732350812038,2062,2058,2056,2088,2093,2061,1196
562,1711003732360810123,2050,2058,2064,2070,1969,2046,1193
563,1711003732370815953,2056,2052,2049,2051,2046,2049,1193
564,1711003732380809219,2057,2056,2056,2012,1976,2031,1194
565,1711003732390806934,2058,2056,2051,2056,2034,2052,1196
566,1711003732400794279,2050,2052,2057,2024,1978,2037,1195
567,1711003732410807483,2064,2056,2053,2096,2085,2060,1196
568,1711003732420806310,2048,2050,2053,2027,2057,2072,1196
569,1711003732430824152,2059,2058,2051,2081,2083,2068,1196
570,1711003732440812940,2061,2058,2060,2090,2178,2064,1197
571,1711003732450813531,2060,2060,2058,2102,2074,2049,1195
572,1711003732460806977,2047,2051,2056,2002,1967,2052,1197
573,1711003732470803951,2056,2060,2058,2065,2072,2056,1195
574,1711003732480801956,2053,2047,2050,2058,2043,2030,1193
575,1711003732490806944,2058,2058,2054,2069,2080,2057,1197
576,1711003732500798317,2057,2055,2061,2033,2054,2075,1196
577,1711003732510804959,2061,2059,2059,2052,2080,2057,1197
578,1711003732520811100,2054,2053,2062,2032,1995,2059,1197
579,1711003732530810988,2055,2048,2044,2109,2046,2058,1196
580,1711003732540817790,2056,2050,2061,2038,1926,2032,1196
581,1711003732550806628,2064,2058,2056,2068,2052,2058,1196
582,1711003732560810244,2056,2054,2060,1993,2032,2058,1195
583,1711003732570806907,2057,2056,2055,2093,2100,2052,1195
584,1711003732580807136,2052,2049,2054,2065,2096,2057,1198
585,1711003732590823316,2060,2054,2054,2053,2001,2063,1197
586,1711003732600807575,2054,2054,2059,2051,2043,2075,1195
587,1711003732610806001,2047,2051,2042,2018,2101,2044,1193
588,1711003732620810278,2051,2048,2053,2058,2043,2061,1197
589,1711003732630807542,2061,2056,2048,2053,2069,2072,1196
590,1711003732640811348,2048,2052,2060,1999,2061,2076,1197
591,1711003732650802962,2049,2049,2048,2065,2092,2050,1197
592,1711003732660811106,2041,2039,2045,2031,2052,2047,1194
593,1711003732670810674,2055,2056,2064,2082,2080,2038,1194
594,1711003732680813008,2057,2058,2062,2084,2041,2066,1193
595,1711003732690808027,2059,2057,2053,2064,2081,2048,1197
596,1711003732700812996,2058,2056,2060,2058,1996,2052,1195
597,1711003732710811542,2060,2053,2049,2124,2119,2044,1193
598,1711003732720818805,2060,2056,2061,2061,1963,2022,1193
599,1711003732730813093,2061,2058,2056,2044,2084,2068,1196
600,1711003732740832369,2053,2036,2052,2047,2030,2056,1196
601,1711003732750818953,2056,2042,2046,2064,2025,2046,1194
602,1711003732760816878,2053,2051,2057,2036,2011,2067,1196
603,1711003732770812458,2062,2058,2056,2083,1993,2053,1196
604,1711003732780812578,2049,2048,2056,2105,2191,2045,1193
605,1711003732790816674,2060,2058,2052,2066,2156,2065,1198
606,1711003732800825470,2061,2056,2066,2074,2018,1997,1194
607,1711003732810813697,2059,2054,2052,2057,2136,2068,1197
608,1711003732820817964,2050,2053,2066,2018,2029,2048,1196
609,1711003732830813644,2063,2076,2061,2020,2059,2080,1198
610,1711003732840816880,2052,2051,2059,2024,1997,2073,1195
611,1711003732850824995,2058,2057,2049,2051,2012,2041,1194
612,1711003732860809615,2048,2042,2050,2060,1990,2047,1195
613,1711003732870801278,2061,2065,2051,2043,2044,2062,1197
614,1711003732880828278,2051,2050,2057,2027,2057,2059,1194
615,1711003732890796967,2056,2052,2051,2109,2125,2052,1197
616,1711003732900823717,2056,2052,2058,2059,2070,2043,1194
617,1711003732910797115,2062,2058,2052,2065,2068,2064,1196
618,1711003732921652412,2052,2056,2064,2046,2013,2046,1194
619,1711003732930823404,2060,2056,2053,2076,2036,2052,1196
620,1711003732940794949,2056,2066,2069,2041,2011,2044,1196
621,1711003732950819505,2057,2060,2040,2078,2225,2113,1197
622,1711003732960814013,2056,2051,2057,2043,2107,2067,1198
623,1711003732970797391,2058,2056,2051,2073,2048,2045,1194
624,1711003732980784405,2057,2052,2057,2071,2048,2061,1197
625,1711003732990806596,2058,2058,2052,2061,2069,2065,1198
626,1711003733000834348,2055,2053,2061,2051,2120,2055,1198
627,1711003733010800813,2059,2053,2050,2057,1976,2080,1196
628,1711003733020806032,2054,2057,2062,2047,2058,2063,1196
629,1711003733030809257,2059,2063,2053,2059,2044,2045,1194
630,1711003733040813755,2048,2053,2056,2028,1993,2017,1195
631,1711003733050827680,2063,2060,2053,2089,2096,2063,1196
632,1711003733060807511,2042,2041,2050,2054,1992,2024,1195
633,1711003733070806959,2057,2054,2049,2069,1992,2066,1196
634,1711003733080807198,2052,2050,2060,2051,2007,2040,1193
635,1711003733090818349,2059,2059,2054,2047,2049,2044,1194
636,1711003733100803750,2058,2058,2068,2041,2040,2062,1197
637,1711003733110817776,2061,2061,2056,2048,2100,2016,1196
638,1711003733120804559,2060,2055,2071,2122,2225,2040,1196
639,1711003733130820519,2061,2047,2045,2037,2020,2035,1192
640,1711003733140823123,2052,2050,2060,2042,2001,2037,1195
641,1711003733150812161,2065,2064,2052,2007,2005,2056,1195
642,1711003733160802692,2054,2052,2062,2061,2041,2072,1197
643,1711003733170801659,2056,2053,2046,2004,2042,2013,1193
644,1711003733180800365,2054,2052,2064,2038,2017,2023,1195
645,1711003733190803159,2056,2041,2045,2046,2036,2056,1198
646,1711003733200807537,2050,2041,2054,2038,2036,2040,1193
647,1711003733210795312,2061,2068,2065,2077,2066,2065,1199
648,1711003733220809238,2058,2054,2070,2045,2064,2096,1197
649,1711003733230804257,2059,2057,2053,2073,2079,2050,1197
650,1711003733240820748,2060,2058,2064,2072,2136,2073,1198
651,1711003733250822189,2057,2062,2061,2125,2157,2127,1198
652,1711003733260798654,2052,2046,2052,2032,1996,1998,1195
653,1711003733270795095,2057,2057,2049,2064,2073,2068,1198
654,1711003733280798231,2049,2066,2065,2096,2112,2032,1192
655,1711003733290805875,2063,2061,2056,2072,2163,2056,1198
656,1711003733300799070,2053,2052,2057,2058,2028,2069,1197
657,1711003733310819218,2051,2050,2038,2041,2089,2047,1194
658,1711003733320806833,2052,2052,2061,2020,2008,2053,1197
659,1711003733330818745,2058,2057,2054,2074,2116,2076,1197
660,1711003733340802463,2059,2060,2069,2043,2077,2056,1196
661,1711003733350816889,2064,2062,2055,1988,2072,2062,1197
662,1711003733360807170,2056,2056,2064,2048,2014,2065,1198
663,1711003733370803071,2061,2059,2053,2065,2076,2072,1197
664,1711003733380809152,2072,2060,2065,2040,2013,2099,1197
665,1711003733390846702,2062,2061,2058,2098,2178,2020,1192
666,1711003733400802316,2056,2044,2056,2042,2013,2058,1196
667,1711003733410817204,2064,2058,2054,2059,2038,2042,1192
668,1711003733420806973,2054,2053,2061,2072,2125,2076,1198
669,1711003733430809086,2060,2058,2049,2013,2057,2075,1196
670,1711003733440812682,2059,2057,2069,2070,2048,2060,1197
671,1711003733450798294,2057,2056,2054,2072,1944,1981,1194
672,1711003733460807510,2050,2045,2054,2028,2008,2059,1198
673,1711003733470803992,2061,2058,2054,2047,2049,2062,1198
674,1711003733480825663,2053,2058,2060,2049,2029,2084,1194
675,1711003733490814300,2054,2053,2047,2036,1992,2041,1193
676,1711003733500824168,2060,2057,2062,2045,1999,2057,1196
677,1711003733510812956,2053,2054,2047,2053,2082,2058,1198
678,1711003733520809087,2050,2047,2058,2056,2084,2077,1197
679,1711003733530808215,2060,2058,2050,2051,2043,2064,1195
680,1711003733540841046,2050,2046,2056,2041,2052,2048,1197
681,1711003733550820767,2062,2085,2053,2064,2107,2064,1194
682,1711003733560804294,2063,2059,2068,2059,2022,2038,1192
683,1711003733570802179,2061,2062,2054,2076,2097,2045,1194
684,1711003733580809081,2057,2060,2068,2053,2056,2056,1195
685,1711003733590823207,2044,2050,2043,2058,2114,2040,1193
686,1711003733600810412,2052,2052,2061,2030,1985,2044,1193
687,1711003733610811853,2057,2053,2044,2050,2018,2037,1193
688,1711003733620805390,2041,2053,2056,2032,2009,2016,1195
689,1711003733630804507,2059,2060,2060,2122,2049,2059,1195
690,1711003733640808905,2045,2042,2037,2017,1973,2007,1194
691,1711003733650804335,2049,2061,2058,2093,2039,2039,1193
692,1711003733660803893,2056,2057,2072,2078,1930,2024,1195
693,1711003733670803732,2056,2061,2057,2093,2110,2069,1195
694,1711003733680804071,2049,2045,2056,2084,2086,2086,1193
695,1711003733690831292,2046,2053,2050,2072,2156,2070,1196
696,1711003733700812956,2044,2046,2060,2028,2014,2047,1192
697,1711003733710803106,2056,2047,2036,2004,2073,2044,1196
698,1711003733720804228,2056,2056,2072,2110,2122,2045,1193
699,1711003733730807813,2058,2053,2046,2070,2081,1941,1193
700,1711003733740816359,2045,2050,2063,2031,2037,2048,1197
701,1711003733750809184,2048,2050,2050,2112,2145,2074,1196
702,1711003733760805606,2056,2050,2059,2064,2036,2077,1197
703,1711003733770808261,2055,2052,2041,2052,2060,2056,1195
704,1711003733780804613,2051,2050,2067,2060,2060,2061,1196
705,1711003733790807337,2058,2061,2052,2046,2060,2052,1197
706,1711003733800810592,2061,2054,2060,2025,1985,1998,1194
707,1711003733810802004,2054,2053,2053,2053,2028,2046,1193
708,1711003733820806071,2054,2055,2058,2060,2052,2060,1197
709,1711003733830805058,2056,2056,2052,2061,2024,2062,1199
710,1711003733840806981,2049,2052,2061,2079,2099,2084,1197
711,1711003733850824543,2057,2049,2050,2092,2068,2058,1197
712,1711003733860805345,2049,2043,2052,2063,2098,2055,1198
713,1711003733870806517,2055,2052,2048,2045,2074,2054,1198
714,1711003733880805764,2053,2052,2062,2042,2020,2051,1195
715,1711003733890806715,2058,2061,2053,2049,2060,2044,1193
716,1711003733900814118,2058,2052,2059,2030,2069,2050,1196
717,1711003733910813065,2059,2057,2049,2052,2048,2045,1193
718,1711003733920808976,2058,2054,2065,2062,2089,2062,1196
719,1711003733930805979,2053,2051,2049,2028,2050,2068,1196
720,1711003733940807732,2060,2056,2065,2084,2059,2069,1195
721,1711003733950810355,2057,2057,2053,2072,2079,2059,1198
722,1711003733960805105,2054,2056,2064,2051,2047,2052,1197
723,1711003733970804633,2054,2056,2049,2067,2073,2056,1197
724,1711003733980803480,2055,2056,2066,2059,2046,2054,1199
725,1711003733990824860,2054,2049,2040,2061,2044,2052,1196
726,1711003734000805151,2056,2053,2062,2049,2045,2060,1196
727,1711003734010810791,2052,2053,2049,2042,2048,2047,1192
728,1711003734020807834,2050,2053,2064,2054,2041,2046,1192
729,1711003734030807372,2056,2056,2046,2060,2074,2056,1196
730,1711003734040824002,2056,2053,2060,2051,2036,2050,1195
731,1711003734050792161,2052,2048,2036,2056,2060,2051,1198
732,1711003734060806397,2056,2055,2058,2049,2036,2056,1197
733,1711003734070804613,2060,2059,2050,2078,2064,2060,1196
734,1711003734080819540,2057,2055,2064,2045,2013,2012,1192
735,1711003734090811243,2064,2058,2047,2030,2032,2064,1196
736,1711003734100809669,2059,2058,2061,2052,2013,2080,1197
737,1711003734110810660,2056,2054,2052,2068,2096,2055,1197
738,1711003734120810348,2058,2047,2050,2029,2011,2038,1192
739,1711003734130839913,2053,2052,2049,2078,2079,2056,1195
740,1711003734140806598,2052,2053,2065,2072,2047,2068,1197
741,1711003734150799714,2056,2056,2045,2027,2039,2039,1194
742,1711003734160803601,2060,2057,2067,2036,2060,2056,1197
743,1711003734170803238,2062,2058,2056,2086,2104,2048,1196
744,1711003734180812355,2052,2056,2064,2056,2021,2045,1194
745,1711003734190804138,2056,2055,2049,2055,2069,2051,1198
746,1711003734200807514,2056,2053,2058,2040,2050,2037,1192
747,1711003734210807813,2054,2056,2050,2062,2067,2060,1196
748,1711003734220807732,2048,2052,2060,2044,2009,2037,1194
749,1711003734230818431,2056,2056,2049,2069,2067,2048,1197
750,1711003734240803221,2056,2053,2066,2077,2076,2061,1199
751,1711003734250814301,2058,2060,2049,2062,2085,2064,1196
752,1711003734260801917,2052,2052,2060,2053,2061,2052,1196
753,1711003734270803979,2058,2058,2051,2060,2141,2062,1197
754,1711003734280850947,2056,2058,2060,2039,2027,2061,1196
755,1711003734290809768,2059,2060,2053,2065,2080,2035,1195
756,1711003734300813955,2056,2056,2065,2048,2026,2049,1195
757,1711003734310803474,2052,2054,2049,2049,2028,2047,1192
758,1711003734320805707,2052,2052,2058,2021,2009,2031,1194
759,1711003734330820304,2056,2052,2050,2058,2158,2059,1195
760,1711003734340822667,2051,2052,2061,2054,2033,2050,1196
761,1711003734350806305,2058,2059,2050,2066,2078,2058,1196
762,1711003734360808258,2059,2053,2064,2082,2064,2068,1195
763,1711003734370807976,2060,2057,2048,2054,2069,2061,1195
764,1711003734380834265,2052,2051,2064,2058,2067,2047,1194
765,1711003734390809978,2053,2052,2042,2050,2059,2046,1194
766,1711003734400758489,2060,2056,2062,2047,2041,2058,1196
767,1711003734410829353,2057,2052,2049,2061,2055,2044,1192
768,1711003734420807280,2058,2055,2064,2047,2038,2053,1195
769,1711003734430837616,2056,2056,2046,2064,2074,2050,1195
770,1711003734440810704,2056,2047,2059,2032,2044,2066,1197
771,1711003734450810432,2063,2062,2052,2057,2061,2061,1196
772,1711003734460811333,2052,2050,2064,2041,2017,2049,1195
773,1711003734470811462,2060,2059,2052,2064,2072,2056,1196
774,1711003734480813535,2052,2052,2061,2054,2053,2070,1195
775,1711003734490807072,2057,2056,2048,2048,2065,2054,1195
776,1711003734500791551,2053,2050,2061,2044,2030,2049,1197
777,1711003734510792682,2060,2057,2045,2056,2075,2052,1196
778,1711003734520814152,2050,2050,2065,2043,2031,2060,1196
779,1711003734530814151,2056,2052,2044,2064,2039,2045,1194
780,1711003734540822095,2050,2051,2060,2047,2033,2049,1195
781,1711003734550814760,2056,2058,2045,2058,2066,2054,1196
782,1711003734560817153,2052,2051,2062,2044,2028,2058,1197
783,1711003734570829686,2059,2056,2043,2061,2065,2052,1195
784,1711003734580838782,2056,2048,2061,2044,2020,2060,1197
785,1711003734590819795,2056,2052,2044,2061,2056,2014,1194
786,1711003734600817700,2056,2056,2065,2072,2078,2080,1196
787,1711003734610819001,2055,2056,2044,2057,2034,2040,1195
788,1711003734620822167,2054,2051,2064,2052,2035,2050,1196
789,1711003734630854256,2051,2056,2045,2035,2039,2044,1194
790,1711003734640815572,2050,2048,2060,2036,2013,2053,1196
791,1711003734650818857,2059,2061,2049,2068,2092,2062,1196
792,1711003734660802204,2051,2052,2062,2050,2053,2052,1196
793,1711003734670818334,2057,2061,2051,2067,2076,2056,1194
794,1711003734680832990,2056,2053,2060,2104,2060,2070,1194
795,1711003734690819364,2061,2060,2047,2078,2079,2056,1198
796,1711003734700799725,2056,2050,2064,2050,2040,2051,1194
797,1711003734710803832,2059,2058,2049,2069,2082,2021,1194
798,1711003734720798340,2053,2049,2061,2041,2049,2049,1197
799,1711003734730861289,2057,2057,2044,2050,2071,2056,1197
800,1711003734740805782,2051,2048,2059,2020,2000,2027,1192
801,1711003734750806583,2054,2056,2046,2060,2068,2053,1196
802,1711003734760798957,2049,2053,2064,2033,2020,2045,1193
803,1711003734770806801,2060,2056,2047,2069,2081,2055,1197
804,1711003734780805026,2049,2046,2057,2067,2058,2039,1196
805,1711003734790830965,2060,2055,2050,2063,2102,2070,1197
806,1711003734800807208,2052,2057,2067,2048,2013,2052,1196
807,1711003734810800514,2055,2060,2046,2072,2113,2060,1193
808,1711003734820801585,2056,2050,2062,2058,2049,2064,1196
809,1711003734830826281,2064,2064,2049,2065,2065,2056,1196
810,1711003734840808446,2054,2053,2063,2038,2025,2056,1197
811,1711003734850831108,2061,2059,2046,2054,2083,2054,1197
812,1711003734860808915,2052,2054,2065,2061,2118,2063,1197
813,1711003734870810747,2049,2052,2046,2054,2104,2057,1196
814,1711003734880806679,2057,2051,2061,2038,2014,2046,1192
815,1711003734890811266,2056,2056,2047,2062,2073,2051,1195
816,1711003734900793662,2056,2048,2065,2042,2011,2058,1195
817,1711003734910798540,2058,2060,2045,2074,2129,2059,1196
818,1711003734920803759,2053,2049,2062,2053,2031,2056,1196
819,1711003734930823795,2056,2060,2051,2057,2015,2043,1194
820,1711003734940838011,2056,2054,2068,2056,2030,2049,1195
821,1711003734950805529,2060,2054,2042,2052,2069,2053,1195
822,1711003734960808183,2053,2058,2070,2052,2033,2048,1197
823,1711003734970807099,2057,2056,2045,2057,2078,2044,1194
824,1711003734980840382,2054,2053,2063,2040,2036,2062,1198
825,1711003734990814121,2052,2050,2040,2056,2065,2047,1193
826,1711003735000804181,2049,2050,2065,2065,2071,2056,1197
827,1711003735010802086,2056,2058,2046,2066,2062,2050,1197
828,1711003735020802596,2050,2047,2062,2062,2039,2059,1195
829,1711003735030835988,2059,2062,2045,2064,2077,2054,1195
830,1711003735040806791,2052,2055,2065,2050,2038,2054,1196
831,1711003735050808333,2055,2053,2044,2047,2078,2047,1194
832,1711003735060803914,2051,2032,2062,2045,2052,2029,1194
833,1711003735070802961,2059,2045,2041,2060,2075,2056,1196
834,1711003735080803751,2053,2053,2069,2054,2050,2054,1194
835,1711003735090823408,2057,2056,2049,2065,2069,2054,1197
836,1711003735100811393,2061,2042,2060,2053,2009,2040,1193
837,1711003735110809027,2056,2046,2040,2047,2090,2050,1194
838,1711003735120805600,2052,2056,2063,2048,2033,2052,1196
839,1711003735130806009,2054,2056,2040,2072,2109,2053,1196
840,1711003735140824002,2052,2051,2064,2045,2033,2056,1197
841,1711003735150801689,2064,2065,2050,2062,2084,2066,1197
842,1711003735160808591,2051,2048,2063,2052,2097,2072,1197
843,1711003735170801577,2056,2056,2046,2060,2054,2047,1192
844,1711003735180804120,2051,2050,2062,2045,2005,2034,1195
845,1711003735190827123,2063,2061,2050,2064,2070,2054,1196
846,1711003735200811432,2051,2050,2060,2046,2034,2057,1194
847,1711003735210804167,2058,2060,2048,2068,2044,2045,1192
848,1711003735220804907,2060,2061,2076,2053,2017,2052,1194
849,1711003735230803424,2061,2057,2047,2053,2091,2054,1196
850,1711003735240806007,2052,2044,2064,2053,2040,2056,1194
851,1711003735250813309,2056,2053,2048,2061,2071,2056,1193
852,1711003735260797579,2052,2046,2066,2047,2044,2058,1195
853,1711003735270803739,2059,2059,2046,2050,2080,2053,1196
854,1711003735280793689,2052,2054,2068,2048,2045,2058,1196
855,1711003735290817733,2056,2056,2041,2070,2098,2056,1196
856,1711003735300810388,2052,2047,2069,2056,2050,2059,1199
857,1711003735310807913,2061,2051,2042,2057,2056,2058,1195
858,1711003735320802020,2053,2054,2071,2056,2040,2056,1197
859,1711003735330829541,2053,2056,2042,2060,2069,2055,1196
860,1711003735340830582,2056,2054,2065,2066,2065,2051,1195
861,1711003735350803650,2061,2053,2041,2043,2093,2050,1194
862,1711003735360802877,2053,2052,2065,2046,1992,2053,1197
863,1711003735370804059,2058,2056,2045,2064,2089,2057,1195
864,1711003735380805780,2052,2056,2065,2050,2038,2056,1196
865,1711003735390812432,2057,2085,2062,2077,2120,2062,1199
866,1711003735400799957,2058,2055,2064,2073,2038,2064,1194
867,1711003735410799685,2050,2055,2042,2067,2024,2060,1197
868,1711003735420800636,2054,2054,2067,2048,2044,2056,1196
869,1711003735430800795,2059,2056,2046,2063,2092,2058,1196
870,1711003735440815512,2056,2055,2064,2051,2059,2057,1197
871,1711003735450819168,2053,2058,2046,2060,2066,2049,1196
872,1711003735460797826,2051,2052,2069,2047,2044,2056,1197
873,1711003735470804909,2055,2053,2040,2050,2068,2048,1197
874,1711003735480799848,2054,2052,2066,2059,2056,2067,1195
875,1711003735490809665,2058,2056,2042,2057,2039,2052,1196
876,1711003735500805536,2051,2050,2064,2078,2162,2076,1194
877,1711003735510803481,2064,2060,2048,2060,2089,2053,1197
878,1711003735520808369,2056,2056,2066,2065,2082,2061,1194
879,1711003735530813598,2060,2058,2044,2059,2064,2045,1194
880,1711003735540819137,2052,2054,2069,2045,2056,2052,1196
881,1711003735550812093,2057,2058,2049,2093,2177,2047,1195
882,1711003735560799808,2056,2053,2062,2049,2061,2057,1195
883,1711003735570858329,2057,2059,2047,2050,2049,2052,1196
884,1711003735580802431,2056,2052,2065,2053,2036,2050,1197
885,1711003735590795467,2057,2059,2045,2072,2067,2053,1197
886,1711003735600803110,2054,2056,2066,2047,2068,2052,1197
887,1711003735610800695,2053,2056,2044,2060,2056,2054,1196
888,1711003735620803328,2052,2054,2066,2060,2026,2051,1195
889,1711003735630801073,2052,2057,2042,2063,2068,2047,1195
890,1711003735640797304,2050,2052,2064,2060,2046,2064,1197
891,1711003735650807532,2059,2057,2041,2057,2050,2046,1193
892,1711003735660803985,2052,2052,2065,2049,2030,2049,1195
893,1711003735670830584,2064,2056,2046,2075,2081,2058,1196
894,1711003735680795526,2050,2050,2063,2028,1990,2056,1196
895,1711003735690808790,2057,2053,2041,2056,2067,2056,1196
896,1711003735700792859,2052,2052,2064,2038,2009,2050,1195
897,1711003735710792457,2057,2060,2046,2054,2067,2051,1196
898,1711003735720810991,2056,2053,2068,2050,2022,2021,1192
899,1711003735730791794,2056,2053,2042,2044,2078,2053,1197
900,1711003735740783517,2051,2053,2069,2048,2041,2056,1195
901,1711003735750793976,2053,2065,2045,2065,2074,2049,1196
902,1711003735760795798,2049,2049,2062,2061,2001,2049,1197
903,1711003735770795737,2067,2051,2040,2051,2072,2061,1195
904,1711003735780828458,2056,2054,2066,2031,1995,2054,1196
905,1711003735790784783,2057,2057,2046,2061,2061,2057,1197
906,1711003735800792957,2052,2051,2070,2062,2032,2058,1195
907,1711003735810790231,2056,2056,2040,2054,2028,2047,1194
908,1711003735820792725,2058,2052,2068,2052,2005,2053,1194
909,1711003735830821859,2056,2056,2042,2074,2134,2050,1197
910,1711003735840788865,2060,2056,2072,2057,2036,2062,1196
911,1711003735850810095,2056,2056,2041,2065,2096,2066,1200
912,1711003735860797870,2057,2053,2067,2060,2031,2054,1195
913,1711003735870807207,2056,2057,2046,2069,2072,2048,1197
914,1711003735880792879,2056,2053,2068,2053,2062,2072,1194
915,1711003735890798829,2061,2058,2041,2037,2068,2056,1195
916,1711003735900801172,2057,2051,2068,2049,2066,2064,1197
917,1711003735910795750,2064,2058,2044,2089,2060,2052,1195
918,1711003735920798665,2059,2048,2068,2069,2031,2053,1194
919,1711003735930787963,2057,2074,2049,2080,2093,2057,1196
920,1711003735940797811,2052,2051,2069,2037,2025,2055,1196
921,1711003735950795565,2063,2060,2038,2056,2092,2036,1192
922,1711003735960795695,2053,2056,2071,2048,2056,2068,1196
923,1711003735970824148,2046,2049,2033,2045,2059,2037,1196
924,1711003735980792376,2054,2049,2073,2054,2024,2052,1196
925,1711003735990789710,2056,2046,2036,2057,2113,2060,1197
926,1711003736000798756,2056,2053,2074,2090,2034,2060,1196
927,1711003736010796741,2056,2059,2042,2072,2091,2054,1195
928,1711003736020793123,2052,2052,2072,2040,2014,2060,1196
929,1711003736030790847,2057,2056,2039,2064,2013,2044,1193
930,1711003736040801887,2055,2049,2072,2064,2029,2057,1197
931,1711003736050797387,2053,2056,2045,2073,2090,2033,1194
932,1711003736060792557,2052,2052,2072,2050,2021,2057,1196
933,1711003736070811692,2061,2057,2040,2065,2088,2056,1196
934,1711003736080789228,2053,2049,2069,2057,2047,2058,1195
935,1711003736090795339,2055,2050,2039,2064,2080,2053,1195
936,1711003736100796179,2047,2046,2067,2005,2034,2053,1197
937,1711003736110793252,2057,2060,2039,2066,2081,2056,1195
938,1711003736120795996,2052,2052,2076,2047,2024,2054,1196
939,1711003736130794542,2057,2054,2036,2057,2077,2038,1193
940,1711003736140783039,2057,2053,2076,2093,2163,2052,1197
941,1711003736150800281,2057,2057,2036,2067,2045,2056,1196
942,1711003736160796543,2049,2052,2072,2077,2040,2048,1196
943,1711003736170815628,2058,2056,2042,2065,2059,2081,1196
944,1711003736180780640,2058,2052,2074,2034,2000,2055,1198
945,1711003736190797680,2066,2058,2034,2030,2057,2054,1197
946,1711003736200800244,2050,2053,2069,2047,2040,2061,1196
947,1711003736210801756,2057,2057,2040,2073,2098,2063,1196
948,1711003736220798729,2050,2053,2072,2053,2014,2050,1194
949,1711003736230808998,2056,2054,2038,2065,2074,2084,1198
950,1711003736240787556,2054,2047,2069,2052,2057,2064,1197
951,1711003736250798696,2064,2061,2046,2072,2084,2065,1198
952,1711003736260798594,2056,2056,2072,2056,2076,2073,1195
953,1711003736271257545,2059,2056,2037,2036,2047,2045,1194
954,1711003736280804332,2062,2054,2076,2056,2044,2038,1192
955,1711003736290803129,2058,2056,2044,2066,2080,2058,1196
956,1711003736300803018,2051,2054,2068,2040,2026,2053,1197
957,1711003736310798799,2045,2057,2041,2050,2053,2044,1193
958,1711003736320798156,2056,2060,2070,2041,2011,2056,1196
959,1711003736330796140,2056,2056,2040,2093,2124,2060,1196
960,1711003736340784828,2051,2056,2072,2049,2022,2067,1198
961,1711003736350795237,2056,2057,2037,2088,2172,2077,1195
962,1711003736360793783,2053,2053,2069,2091,2042,2058,1196
963,1711003736370811666,2057,2056,2042,2048,2058,2061,1194
964,1711003736380788100,2052,2048,2065,2087,2069,2058,1197
965,1711003736390786465,2056,2050,2037,2075,2074,2031,1194
966,1711003736400794299,2060,2052,2067,2033,2023,2060,1196
967,1711003736410791382,2064,2069,2044,2041,2062,2053,1196
968,1711003736420796019,2051,2044,2065,2057,2050,2054,1195
969,1711003736430832888,2056,2056,2041,2080,2115,2060,1197
970,1711003736440797450,2051,2052,2064,2071,2031,2040,1194
971,1711003736450799222,2066,2062,2045,2059,2070,2054,1198
972,1711003736460797889,2055,2048,2070,2052,2056,2056,1195
973,1711003736470796565,2056,2062,2050,2062,2081,2056,1196
974,1711003736480786875,2053,2027,2058,2067,2008,2022,1192
975,1711003736490792454,2058,2046,2041,2062,2062,2056,1196
976,1711003736500793715,2052,2055,2069,2056,2049,2050,1196
977,1711003736510791160,2055,2056,2043,2085,2115,2069,1197
978,1711003736520789365,2054,2051,2072,2054,2040,2078,1196
979,1711003736530795596,2056,2057,2040,2021,2098,2058,1196
980,1711003736540800264,2056,2048,2068,2057,2036,2052,1198
981,1711003736550794902,2057,2058,2041,2049,2061,2048,1195
982,1711003736560797085,2052,2047,2062,2038,2019,2040,1194
983,1711003736570815518,2054,2049,2035,2058,2080,2058,1195
984,1711003736580794337,2056,2053,2068,2057,2032,2060,1197
985,1711003736590792232,2059,2057,2040,2068,2044,2058,1198
986,1711003736600787171,2056,2054,2061,2064,2020,2049,1197
987,1711003736610787080,2059,2057,2041,2044,1975,2031,1194
988,1711003736620783892,2052,2053,2069,2043,2021,2064,1199
989,1711003736630803278,2058,2056,2040,2029,2036,2046,1195
990,1711003736640792957,2050,2049,2064,2044,2041,2060,1197
991,1711003736650792485,2059,2056,2039,2058,2060,2046,1193
992,1711003736660796662,2050,2046,2064,2056,2027,2019,1193
993,1711003736670799456,2053,2054,2038,2046,2030,2036,1194
994,1711003736680796910,2056,2053,2065,2049,1964,2047,1192
995,1711003736690796859,2060,2057,2045,2022,2080,2048,1196
996,1711003736700800404,2058,2057,2070,2062,2093,2081,1196
997,1711003736710794742,2057,2056,2041,2070,2056,2056,1196
998,1711003736720793298,2058,2056,2068,2061,2046,2068,1197
999,1711003736730807293,2053,2053,2041,2081,2060,2048,1196
1000,1711003736740795991,2040,2046,2061,2032,2005,2028,1193
1001,1711003736750798374,2060,2057,2043,2056,2022,2044,1194
1002,1711003736760788254,2050,2050,2068,2056,2040,2049,1194
1003,1711003736770793423,2060,2056,2042,2063,2069,2056,1196
1004,1711003736780800925,2050,2051,2068,2044,2018,2052,1197
1005,1711003736790788600,2057,2052,2043,2067,2102,2077,1198
1006,1711003736800800732,2056,2056,2071,2040,2040,2056,1195
1007,1711003736810796062,2059,2054,2040,2080,2147,2065,1196
1008,1711003736820797254,2056,2046,2058,2034,2003,2052,1197
1009,1711003736830800148,2055,2054,2042,2056,2022,2052,1198
1010,1711003736840827599,2057,2054,2068,2068,2033,2040,1194
1011,1711003736850808622,2057,2046,2042,2042,2038,2036,1194
1012,1711003736860799443,2059,2052,2064,2050,2021,2053,1197
1013,1711003736870797798,2057,2056,2040,2030,2015,2039,1194
1014,1711003736880817925,2056,2052,2067,2048,2033,2064,1193
1015,1711003736890787156,2054,2046,2037,2046,2036,2050,1196
1016,1711003736900782937,2062,2059,2064,2074,1987,2058,1198
1017,1711003736910784929,2052,2053,2043,2058,2029,2037,1192
1018,1711003736920783695,2058,2077,2077,2067,2044,2072,1198
1019,1711003736930808671,2060,2060,2040,2055,2062,2064,1196
1020,1711003736940792530,2037,2052,2064,2033,2027,2049,1195
1021,1711003736950790384,2054,2053,2038,2057,2032,2058,1195
1022,1711003736960787378,2054,2054,2065,2049,2042,2060,1194
1023,1711003736970817103,2053,2056,2041,2062,2057,2051,1196
1024,1711003736980824125,2047,2049,2065,2030,1968,2020,1193
1025,1711003736990829274,2056,2054,2041,2032,2049,2052,1197
1026,1711003737000796019,2056,2053,2068,2047,2048,2053,1197
1027,1711003737010793683,2056,2057,2040,2064,2025,2055,1197
1028,1711003737020772051,2057,2055,2065,2061,2052,2050,1196
1029,1711003737030797058,2064,2058,2042,2060,2063,2056,1196
1030,1711003737040794862,2064,2054,2070,2064,2074,2072,1196
1031,1711003737050802526,2057,2056,2049,2073,2056,2057,1195
1032,1711003737060794819,2056,2054,2063,2042,2013,2059,1198
1033,1711003737070806590,2056,2053,2041,2062,2068,2051,1198
1034,1711003737080797241,2054,2054,2065,2053,2052,2064,1195
1035,1711003737090796749,2056,2054,2045,2064,2064,2052,1197
1036,1711003737100795416,2052,2050,2066,2065,2049,2060,1197
1037,1711003737110797127,2058,2056,2045,2068,2048,2047,1194
1038,1711003737120797637,2060,2062,2072,2057,2013,2052,1196
1039,1711003737130798738,2061,2059,2045,2052,2072,2058,1197
1040,1711003737140827712,2052,2051,2057,2050,2037,2056,1195
1041,1711003737150799176,2057,2056,2036,2066,2057,2049,1196
1042,1711003737160800066,2053,2056,2070,2034,2017,2043,1193
1043,1711003737170807209,2057,2057,2044,2037,2075,2043,1196
1044,1711003737180804162,2053,2050,2062,2028,2007,2040,1194
1045,1711003737190797648,2051,2047,2040,2045,2037,2056,1199
1046,1711003737200802116,2062,2056,2066,2057,2038,2066,1198
1047,1711003737210801734,2051,2056,2042,2026,2052,2045,1196
1048,1711003737220802864,2053,2051,2065,2029,2017,2048,1197
1049,1711003737230808043,2054,2067,2049,2064,2116,2047,1193
1050,1711003737240808272,2058,2057,2068,2069,2061,2070,1196
1051,1711003737250800696,2060,2057,2043,2038,2096,2056,1196
1052,1711003737260807147,2056,2051,2064,2064,2060,2065,1195
1053,1711003737270810572,2056,2066,2050,2079,2093,2058,1196
1054,1711003737280807786,2054,2054,2071,2046,1996,2046,1194
1055,1711003737290782998,2053,2056,2042,2060,2060,2042,1192
1056,1711003737300806070,2057,2061,2070,2062,2035,2076,1196
1057,1711003737310806340,2058,2058,2049,2076,2080,2049,1194
1058,1711003737320806689,2057,2056,2066,2056,2041,2057,1196
1059,1711003737330811356,2057,2056,2046,2051,2068,2056,1197
1060,1711003737340808429,2058,2056,2066,2038,2064,2054,1197
1061,1711003737350806435,2053,2047,2038,2056,2045,2047,1195
1062,1711003737360790243,2061,2049,2062,2072,2089,2065,1198
1063,1711003737370790862,2057,2056,2043,2050,2008,2012,1193
1064,1711003737380813904,2052,2056,2064,2052,2036,2044,1194
1065,1711003737390788134,2058,2056,2044,2064,2068,2057,1197
1066,1711003737400789085,2058,2056,2065,2049,2007,2042,1194
1067,1711003737410791288,2061,2052,2041,2068,2104,2057,1197
1068,1711003737420788591,2051,2050,2064,2074,2053,2065,1199
1069,1711003737430786716,2056,2056,2044,2046,2058,2043,1195
1070,1711003737440822844,2058,2053,2068,2067,2099,2061,1197
1071,1711003737450813315,2053,2054,2040,2045,2080,2056,1196
1072,1711003737460792264,2056,2047,2058,2052,2056,2056,1194
1073,1711003737470828101,2052,2047,2032,2051,2046,2043,1195
1074,1711003737480818621,2064,2055,2064,2063,2061,2053,1195
1075,1711003737490790967,2057,2061,2044,2050,2077,2083,1197
1076,1711003737500798360,2056,2046,2059,2056,2033,2051,1196
1077,1711003737510795493,2053,2056,2041,2072,2089,2052,1195
1078,1711003737520794800,2056,2050,2061,2039,1999,2044,1193
1079,1711003737530797794,2053,2054,2043,2077,2100,2050,1196
1080,1711003737540797102,2058,2057,2076,2066,2067,2051,1198
1081,1711003737550778095,2056,2058,2042,2072,2064,2051,1195
1082,1711003737560794485,2053,2048,2069,2043,2035,2046,1192
1083,1711003737570794624,2059,2060,2047,2069,2086,2066,1195
1084,1711003737580800393,2058,2071,2073,2050,2050,2072,1197
1085,1711003737590802195,2060,2058,2042,2057,2059,2046,1195
1086,1711003737600796574,2052,2061,2073,2055,2021,2051,1196
1087,1711003737610789980,2058,2053,2044,2056,2067,2050,1194
1088,1711003737620794538,2056,2049,2069,2061,2036,2061,1197
1089,1711003737630807932,2057,2056,2042,2064,2062,2053,1197
1090,1711003737640822147,2056,2056,2069,2045,2008,2080,1196
1091,1711003737650819531,2055,2058,2047,2052,2078,2056,1197
1092,1711003737660791096,2053,2050,2060,2032,2053,2062,1198
1093,1711003737670790804,2060,2064,2046,2064,2077,2052,1197
1094,1711003737680813395,2047,2045,2062,2066,2005,2036,1193
1095,1711003737690814265,2058,2057,2038,2014,2036,2048,1197
1096,1711003737700797492,2056,2053,2066,2021,2029,2057,1197
1097,1711003737710799315,2052,2054,2044,2047,2073,2054,1197
1098,1711003737720796779,2056,2054,2064,2046,2064,2058,1194
1099,1711003737730808630,2053,2057,2049,2061,2109,2048,1194
1100,1711003737740797568,2052,2053,2064,2050,2072,2059,1196
1101,1711003737750790312,2056,2059,2048,2055,2064,2065,1197
1102,1711003737760805250,2057,2058,2071,2073,2068,2049,1194
1103,1711003737770798606,2068,2064,2050,2085,2109,2048,1195
1104,1711003737780834643,2052,2052,2068,2041,2009,2045,1193
1105,1711003737790808622,2067,2052,2041,2084,2144,2061,1196
1106,1711003737800796438,2052,2051,2060,2022,1992,2032,1195
1107,1711003737810797058,2054,2052,2040,2039,2063,2044,1192
1108,1711003737820786957,2056,2046,2063,2051,2015,2043,1194
1109,1711003737830790433,2049,2051,2030,2058,2085,2066,1196
1110,1711003737840814307,2054,2050,2061,2064,2045,2078,1196
1111,1711003737850802433,2054,2058,2046,2039,2024,2044,1192
1112,1711003737860793414,2054,2062,2064,2073,2041,2056,1197
1113,1711003737870799074,2062,2056,2042,2065,2092,2057,1195
1114,1711003737880851182,2058,2056,2064,2036,2021,2053,1196
1115,1711003737890786648,2053,2055,2042,2065,2057,2048,1197
1116,1711003737900791656,2050,2054,2066,2047,2002,2050,1197
1117,1711003737910797626,2057,2056,2042,2058,2076,2053,1196
1118,1711003737920796403,2072,2058,2072,2060,2053,2065,1196
1119,1711003737930815147,2056,2057,2045,2063,2065,2056,1195
1120,1711003737940824874,2060,2073,2073,2057,2053,2061,1195
1121,1711003737950796909,2057,2060,2043,2072,2096,2056,1195
1122,1711003737960795175,2053,2050,2066,2037,2032,2050,1197
1123,1711003737970796817,2056,2051,2037,2054,2086,2060,1196
1124,1711003737980809971,2052,2054,2069,2047,2042,2057,1196
1125,1711003737990784461,2056,2061,2046,2049,2084,2062,1198
1126,1711003738000796733,2053,2052,2063,2044,2037,2047,1197
1127,1711003738010795790,2062,2061,2045,2060,2080,2052,1198
1128,1711003738020787523,2053,2055,2066,2062,2044,2053,1196
1129,1711003738030809393,2056,2056,2044,2060,2030,2041,1194
1130,1711003738040810904,2057,2078,2073,2039,2037,2010,1193
1131,1711003738050795223,2058,2066,2047,2049,2052,2053,1197
1132,1711003738060803438,2053,2051,2064,2056,2038,2058,1195
1133,1711003738070798998,2059,2056,2042,2057,2077,2056,1197
1134,1711003738080799768,2044,2047,2057,2030,2030,2053,1196
1135,1711003738090813653,2068,2057,2046,2097,2101,2093,1197
1136,1711003738100798353,2056,2056,2069,2066,2030,2049,1196
1137,1711003738110793242,2053,2053,2042,2056,2056,2048,1197
1138,1711003738120799241,2056,2078,2078,2057,2046,2052,1197
1139,1711003738130792457,2061,2060,2041,2056,2069,2053,1196
1140,1711003738140815961,2056,2056,2063,2035,2007,2047,1192
1141,1711003738150793607,2052,2061,2053,2048,2065,2066,1198
1142,1711003738160797002,2054,2049,2066,2061,2041,2054,1193
1143,1711003738170793343,2056,2056,2046,2052,2061,2046,1192
1144,1711003738180796498,2056,2056,2070,2056,2047,2057,1197
1145,1711003738190814351,2045,2050,2046,2066,2066,2044,1195
1146,1711003738200791095,2057,2054,2065,2081,2088,2040,1194
1147,1711003738210801604,2053,2037,2035,2058,2036,2062,1196
1148,1711003738220797735,2056,2042,2059,2064,2032,2056,1197
1149,1711003738230797043,2053,2053,2047,2064,2066,2057,1195
1150,1711003738240814023,2054,2050,2066,2050,2066,2035,1192
1151,1711003738250789696,2052,2057,2046,2046,2082,2056,1197
1152,1711003738260799193,2056,2050,2068,2049,2056,2065,1197
1153,1711003738270793260,2055,2060,2046,2056,2056,2052,1196
1154,1711003738280796916,2056,2053,2068,2063,2072,2056,1195
1155,1711003738290818455,2057,2058,2042,2066,2079,2050,1197
1156,1711003738300789238,2053,2054,2064,2043,2021,2017,1193
1157,1711003738310795940,2056,2056,2042,2050,2044,2061,1194
1158,1711003738320796269,2056,2066,2072,2037,2020,2052,1195
1159,1711003738330794734,2052,2054,2042,2056,2020,2035,1194
1160,1711003738340823889,2062,2058,2069,2060,2031,2066,1195
1161,1711003738350810973,2058,2055,2037,2086,2095,2059,1196
1162,1711003738360795031,2054,2049,2061,2051,2050,2018,1194
1163,1711003738370798957,2056,2056,2044,2090,2086,2044,1194
1164,1711003738380793706,2048,2047,2059,2052,2097,2065,1196
1165,1711003738390795548,2054,2052,2043,2060,2064,2053,1198
1166,1711003738400832176,2052,2056,2066,2062,2038,2044,1194
1167,1711003738410801557,2057,2056,2042,2065,2061,2047,1194
1168,1711003738420803199,2057,2057,2068,2068,2090,2070,1196
1169,1711003738430803067,2054,2052,2040,2057,2056,2064,1196
1170,1711003738440819828,2047,2056,2072,2047,2060,2070,1197
1171,1711003738450814596,2054,2056,2042,2056,2060,2046,1193
1172,1711003738460794146,2047,2053,2065,2049,1984,2045,1192
1173,1711003738470804665,2048,2054,2043,2052,2090,2047,1189
1174,1711003738480806327,2051,2046,2061,2052,2044,2051,1194
1175,1711003738490813028,2056,2074,2050,2064,2112,2037,1195
1176,1711003738500798850,2056,2060,2064,2054,2027,2067,1197
1177,1711003738510804620,2061,2056,2047,2061,2047,2068,1196
1178,1711003738520807002,2050,2052,2074,2052,2046,2080,1197
1179,1711003738530806199,2056,2056,2044,2059,2064,2053,1197
1180,1711003738540818141,2052,2047,2063,2067,2037,2056,1197
1181,1711003738550823480,2053,2056,2044,2062,2105,2060,1196
1182,1711003738560814702,2052,2050,2061,2044,2041,2074,1195
1183,1711003738570794512,2054,2049,2040,2072,2066,2064,1195
1184,1711003738580793318,2057,2048,2062,2053,2042,2060,1198
1185,1711003738590820469,2053,2040,2036,2058,2063,2025,1193
1186,1711003738600809767,2067,2060,2064,2064,2059,2068,1197
1187,1711003738610808804,2054,2057,2045,2064,2067,2045,1194
1188,1711003738620793423,2054,2052,2065,2060,2032,2063,1196
1189,1711003738630792430,2050,2049,2040,2056,2002,2041,1193
1190,1711003738640830411,2055,2053,2070,2060,2045,2046,1194
1191,1711003738650808087,2050,2048,2036,2034,2048,2046,1194
1192,1711003738660792947,2049,2024,2053,2048,2051,2057,1198
1193,1711003738670813745,2051,2044,2040,2054,2069,2053,1197
1194,1711003738680796491,2056,2054,2069,2076,2094,2067,1194
1195,1711003738690794185,2059,2060,2051,2062,2102,2068,1197
1196,1711003738700801638,2052,2051,2065,2018,2045,2058,1196
1197,1711003738710817126,2054,2056,2045,2047,2073,2050,1197
1198,1711003738720798299,2054,2056,2068,2056,2037,2053,1195
1199,1711003738730795081,2053,2049,2040,2057,2073,2056,1196
1200,1711003738740795782,2058,2058,2064,2050,2040,2054,1197
1201,1711003738750813654,2062,2057,2048,2052,2074,2064,1197
1202,1711003738760797402,2056,2057,2070,2060,2044,2058,1196
1203,1711003738770792130,2057,2056,2040,2060,2058,2045,1193
1204,1711003738780776670,2051,2058,2068,2049,2039,2062,1197
1205,1711003738790795635,2066,2060,2050,2062,2123,2057,1196
1206,1711003738800798819,2050,2050,2064,2040,2021,2037,1193
1207,1711003738810809177,2046,2052,2043,2051,2110,2043,1194
1208,1711003738820794038,2056,2057,2067,2064,2061,2072,1198
1209,1711003738830799096,2056,2053,2044,2057,2144,2053,1196
1210,1711003738840791821,2067,2053,2066,2033,2036,2065,1198
1211,1711003738850807409,2064,2061,2046,2062,2053,2050,1195
1212,1711003738860806366,2052,2052,2066,2061,2085,2073,1197
1213,1711003738870796676,2062,2060,2046,2064,2084,2073,1197
1214,1711003738880806944,2056,2050,2062,2037,2036,2052,1195
1215,1711003738890794679,2052,2052,2039,2049,2078,2038,1195
1216,1711003738900798806,2056,2055,2066,2053,2027,2038,1194
1217,1711003738910790900,2052,2052,2041,2052,2059,2028,1195
1218,1711003738920801999,2049,2052,2070,2040,2012,2017,1194
1219,1711003738930792760,2055,2053,2041,2058,2069,2054,1195
1220,1711003738940795063,2051,2053,2063,2067,2044,2057,1196
1221,1711003738950808468,2057,2054,2038,2043,2104,2058,1195
1222,1711003738960807063,2049,2050,2062,2034,2025,2042,1195
1223,1711003738970791643,2053,2052,2038,2056,2071,2050,1196
1224,1711003738980795088,2044,2049,2062,2043,2024,2044,1194
1225,1711003738990793033,2053,2053,2041,2057,2060,2054,1197
1226,1711003739000814502,2055,2054,2064,2038,2088,2053,1200
1227,1711003739010797528,2053,2056,2042,2074,2105,2040,1193
1228,1711003739020790304,2063,2056,2068,2051,2066,2058,1195
1229,1711003739030788038,2056,2063,2045,2070,2097,2052,1196
1230,1711003739040790070,2066,2058,2068,2058,2049,2053,1196
1231,1711003739050793966,2059,2057,2046,2064,2092,2064,1196
1232,1711003739060808372,2057,2072,2076,2059,2055,2057,1195
1233,1711003739070795686,2057,2059,2041,2063,2121,2061,1195
1234,1711003739080798380,2052,2049,2062,2035,2044,2061,1193
1235,1711003739090791195,2059,2059,2045,2073,2100,2058,1196
1236,1711003739100793558,2062,2064,2077,2054,1992,2049,1196
1237,1711003739110796803,2054,2051,2046,2060,2041,2064,1195
1238,1711003739120796061,2055,2061,2064,2053,2044,2054,1196
1239,1711003739130792572,2054,2051,2041,2074,2092,2071,1195
1240,1711003739140793402,2057,2053,2069,2066,2053,2057,1195
1241,1711003739150829760,2061,2058,2045,2065,2077,2056,1196
1242,1711003739160804350,2056,2056,2066,2049,2037,2047,1194
1243,1711003739170793288,2046,2052,2045,2043,2059,2060,1197
1244,1711003739180795290,2054,2050,2061,2031,2021,2053,1198
1245,1711003739190794077,2058,2049,2038,2060,2034,2026,1194
1246,1711003739200809564,2058,2052,2066,2056,2045,2058,1196
1247,1711003739210793072,2057,2053,2041,2053,2058,2049,1195
1248,1711003739220805243,2052,2052,2066,2051,2050,2065,1196
1249,1711003739230795373,2046,2056,2045,2064,2099,2057,1196
1250,1711003739240798308,2058,2051,2064,2081,1997,2049,1197
1251,1711003739250841278,2060,2059,2045,2056,2072,2052,1195
1252,1711003739260790750,2057,2053,2066,2064,2064,2066,1195
1253,1711003739270794105,2050,2051,2040,2048,2032,2038,1193
1254,1711003739280790057,2042,2050,2065,2040,2024,2035,1192
1255,1711003739290786978,2060,2056,2044,2077,2093,2043,1195
1256,1711003739300786807,2060,2056,2069,2053,2040,2047,1193
1257,1711003739310788399,2060,2057,2043,2062,2061,2046,1196
1258,1711003739320796593,2053,2053,2063,2057,2080,2067,1196
1259,1711003739330795489,2058,2057,2047,2069,2047,2072,1197
1260,1711003739340794827,2049,2051,2062,2060,2042,2053,1195
1261,1711003739350811738,2058,2057,2050,2076,2104,2072,1195
1262,1711003739360806606,2056,2056,2071,2072,2085,2067,1196
1263,1711003739370788972,2049,2049,2041,2059,2064,2044,1194
1264,1711003739380811994,2056,2053,2060,2046,2040,2068,1198
1265,1711003739390813946,2040,2050,2040,2041,2060,2051,1198
1266,1711003739400788837,2052,2053,2066,2049,2036,2055,1197
1267,1711003739410795549,2052,2054,2041,2045,2098,2056,1195
1268,1711003739420794625,2054,2054,2067,2054,2048,2055,1195
1269,1711003739430794183,2058,2057,2046,2045,2046,2037,1194
1270,1711003739440799171,2054,2054,2072,2056,2044,2045,1193
1271,1711003739450814539,2044,2050,2041,2056,2029,2036,1194
1272,1711003739460812553,2058,2061,2068,2034,2008,2058,1196
1273,1711003739470810729,2058,2058,2032,2045,1995,2057,1197
1274,1711003739480796981,2055,2052,2056,2042,2032,2035,1193
1275,1711003739490800115,2056,2056,2040,2054,2066,2042,1193
1276,1711003739500796948,2056,2054,2064,2051,2023,2033,1195
1277,1711003739510798099,2053,2053,2040,2038,2027,2040,1192
1278,1711003739520796244,2054,2053,2065,2053,2050,2077,1198
1279,1711003739530793127,2053,2053,2037,2062,2102,2060,1196
1280,1711003739540870192,2057,2052,2064,2059,2053,2076,1196
1281,1711003739550810727,2056,2056,2043,2064,2057,2046,1194
1282,1711003739560802520,2070,2059,2065,2070,2188,2081,1198
1283,1711003739570798031,2052,2054,2036,2053,2057,2050,1198
1284,1711003739580793490,2056,2056,2062,2050,2048,2056,1197
1285,1711003739590818607,2053,2054,2043,2060,2061,2040,1194
1286,1711003739600818796,2058,2056,2064,2058,2054,2025,1195
1287,1711003739610795811,2060,2060,2047,2067,2077,2050,1197
1288,1711003739620782494,2056,2051,2064,2050,2028,2050,1197
1289,1711003739630787712,2061,2056,2046,2064,2056,2050,1196
1290,1711003739640791569,2051,2052,2063,2045,2041,2048,1197
1291,1711003739650792178,2061,2064,2045,2030,2048,2043,1194
1292,1711003739660789702,2058,2056,2068,2070,2063,2061,1197
1293,1711003739670797566,2053,2052,2043,2040,2033,2060,1195
1294,1711003739680796151,2059,2054,2065,2064,2051,2076,1194
1295,1711003739690822891,2050,2052,2044,2054,2061,2052,1195
1296,1711003739700822719,2056,2053,2062,2051,2040,2047,1195
1297,1711003739710800966,2060,2060,2042,2064,2072,2049,1198
1298,1711003739720799752,2052,2050,2067,2065,2051,2045,1194
1299,1711003739730795223,2056,2053,2043,2059,2065,2037,1196
1300,1711003739740798628,2059,2053,2062,2056,2032,2061,1198
1301,1711003739750825748,2053,2056,2048,2073,2089,2072,1195
1302,1711003739760802162,2052,2050,2060,2014,2026,2041,1195
1303,1711003739770800798,2058,2060,2046,2064,2073,2047,1195
1304,1711003739780794313,2057,2053,2064,2061,2052,2061,1198
1305,1711003739790794904,2060,2057,2046,2060,2105,2061,1197
1306,1711003739800802787,2053,2054,2066,2068,2056,2066,1196
1307,1711003739810788558,2053,2055,2040,2075,2118,2059,1196
1308,1711003739820789178,2060,2056,2066,2041,2039,2062,1197
1309,1711003739830790870,2060,2057,2040,2061,2092,2020,1195
1310,1711003739840809113,2050,2056,2074,2069,2037,2072,1199
1311,1711003739850823399,2058,2053,2043,2059,2065,2052,1195
1312,1711003739860794122,2054,2059,2070,2028,2009,2040,1196
1313,1711003739870797718,2061,2054,2037,2061,2082,2051,1195
1314,1711003739880795822,2060,2064,2101,2060,2043,2016,1190
1315,1711003739890792224,2056,2053,2041,2056,2040,2058,1196
1316,1711003739900796992,2065,2057,2064,2071,2053,2105,1196
1317,1711003739910803663,2056,2056,2044,2063,2058,2050,1197
1318,1711003739920799384,2061,2053,2064,2059,2042,2065,1194
1319,1711003739930796748,2052,2049,2043,2052,2028,2022,1194
1320,1711003739940800032,2058,2059,2068,2051,1983,2028,1193
1321,1711003739950820389,2053,2053,2043,2040,2049,2056,1197
1322,1711003739960806251,2057,2052,2064,2057,2064,2066,1197
1323,1711003739970798254,2053,2058,2050,2074,2069,2073,1196
1324,1711003739980797632,2058,2057,2070,2060,2056,2064,1196
1325,1711003739990797390,2057,2055,2041,2059,2064,2047,1196
1326,1711003740000817928,2054,2056,2061,2053,2020,2068,1198
1327,1711003740010776718,2062,2057,2043,2053,2052,2046,1194
1328,1711003740020766287,2047,2053,2062,2057,2056,2050,1197
1329,1711003740030798636,2052,2057,2042,2053,2046,2048,1196
1330,1711003740040799527,2054,2053,2065,2048,2045,2011,1193
1331,1711003740050799936,2056,2053,2041,2028,2041,2049,1198
1332,1711003740060797981,2063,2060,2067,2056,2058,2052,1197
1333,1711003740070801977,2056,2052,2043,2089,2110,2050,1199
1334,1711003740080801975,2053,2057,2066,2052,2044,2037,1196
1335,1711003740090801453,2056,2056,2044,2053,2047,2047,1195
1336,1711003740100812262,2061,2057,2072,2060,2047,2046,1195
1337,1711003740110807532,2055,2060,2044,2048,2063,2045,1192
1338,1711003740120802300,2058,2056,2068,2059,2074,2075,1195
1339,1711003740130802219,2050,2057,2048,2055,2073,2065,1197
1340,1711003740140815272,2056,2052,2064,2047,2047,2059,1197
1341,1711003740150829798,2052,2048,2041,2073,2147,2064,1197
1342,1711003740160801774,2053,2048,2064,2049,2017,2052,1195
1343,1711003740170805849,2056,2052,2044,2056,2061,2058,1194
1344,1711003740180788405,2052,2053,2068,2041,2029,2041,1194
1345,1711003740190787602,2056,2054,2041,2045,2059,2046,1193
1346,1711003740200792249,2056,2050,2064,2064,2053,2074,1197
1347,1711003740210808619,2057,2056,2047,2049,2064,2062,1197
1348,1711003740220813617,2052,2052,2061,2053,2031,2050,1196
1349,1711003740230797745,2057,2057,2049,2047,2130,2056,1197
1350,1711003740240811090,2055,2062,2064,2046,2045,2057,1197
1351,1711003740250813181,2053,2057,2045,2060,2072,2061,1197
1352,1711003740260786800,2056,2056,2064,2058,2020,2059,1197
1353,1711003740270811286,2056,2053,2044,2044,2054,2052,1197
1354,1711003740280812135,2056,2051,2060,2043,2048,2054,1195
1355,1711003740290794060,2058,2058,2054,2078,2060,2066,1198
1356,1711003740300796753,2050,2052,2065,2052,2021,2059,1196
1357,1711003740310812481,2054,2055,2050,2059,2054,2032,1194
1358,1711003740320796400,2056,2053,2056,2058,2041,2065,1197
1359,1711003740330796077,2056,2054,2041,2056,2068,2053,1196
1360,1711003740340824490,2053,2056,2060,2033,2072,2067,1196
1361,1711003740350815251,2058,2056,2049,2061,2066,2054,1196
1362,1711003740360790242,2058,2053,2057,2055,2032,2050,1198
1363,1711003740370793707,2052,2056,2043,2059,2042,2056,1196
1364,1711003740380787153,2056,2054,2068,2052,2047,2045,1194
1365,1711003740390795197,2060,2056,2043,2044,2041,2060,1197
1366,1711003740400806167,2048,2051,2060,2088,2198,2069,1196
1367,1711003740410788250,2061,2059,2046,2067,2041,2053,1196
1368,1711003740420791966,2055,2056,2064,2037,2064,2058,1198
1369,1711003740430788509,2050,2050,2044,2072,2077,2041,1195
1370,1711003740440817292,2058,2054,2066,2053,2040,2055,1198
1371,1711003740450801099,2056,2060,2045,2047,2054,2049,1198
1372,1711003740460782733,2058,2053,2062,2051,2043,2060,1196
1373,1711003740470786699,2060,2056,2046,2064,2183,2075,1197
1374,1711003740480778462,2054,2054,2065,2067,2064,2064,1194
1375,1711003740490785624,2056,2056,2043,2062,2080,2071,1196
1376,1711003740500771996,2051,2046,2062,2053,2047,2052,1196
1377,1711003740510793116,2051,2056,2046,2064,2078,2060,1196
1378,1711003740520790819,2059,2053,2065,2046,2018,2060,1197
1379,1711003740530790077,2053,2055,2045,2065,2036,1997,1194
1380,1711003740540801136,2054,2054,2061,2035,2011,2061,1197
1381,1711003740550807446,2049,2052,2040,2006,1995,2026,1192
1382,1711003740560793479,2057,2050,2064,2045,2012,2067,1196
1383,1711003740570793117,2062,2056,2045,2041,2043,2048,1193
1384,1711003740580792003,2056,2053,2065,2058,2052,2062,1194
1385,1711003740590794156,2059,2057,2038,2060,2076,2057,1198
1386,1711003740600789295,2058,2058,2069,2059,2064,2060,1196
1387,1711003740610796787,2056,2055,2046,2059,2065,2058,1197
1388,1711003740620795564,2057,2056,2067,2047,2045,2067,1193
1389,1711003740630794810,2056,2056,2040,2068,2056,2077,1195
1390,1711003740640791263,2065,2061,2074,2050,2012,2058,1195
1391,1711003740650785561,2055,2057,2047,2064,2061,2056,1198
1392,1711003740660797692,2052,2057,2069,2066,2060,2048,1197
1393,1711003740670797741,2059,2063,2053,2047,2052,2060,1198
1394,1711003740680795775,2053,2051,2057,2037,2069,2068,1197
1395,1711003740690797056,2060,2057,2049,2056,2068,2048,1194
1396,1711003740700797756,2050,2046,2060,2064,2042,2058,1195
1397,1711003740710794869,2054,2056,2045,2060,2076,2060,1197
1398,1711003740720793806,2057,2051,2064,2056,2040,2064,1196
1399,1711003740730793293,2058,2052,2040,2064,2081,2056,1196
1400,1711003740740799313,2056,2054,2060,2056,2043,2030,1193
1401,1711003740750784053,2053,2056,2049,2059,2068,2053,1196
1402,1711003740760799831,2055,2052,2066,2059,2059,2057,1197
1403,1711003740770797545,2056,2058,2049,2049,2015,2019,1195
1404,1711003740780795139,2056,2057,2072,2050,2036,2062,1198
1405,1711003740790795960,2052,2050,2037,2045,2046,2040,1196
1406,1711003740800795878,2056,2055,2066,2044,2052,2047,1195
1407,1711003740810786719,2052,2054,2044,2064,2056,2051,1198
1408,1711003740820794673,2052,2049,2061,2026,2031,2050,1197
1409,1711003740830794471,2065,2056,2047,2067,2111,2060,1197
1410,1711003740840803447,2056,2053,2067,2060,2048,2050,1195
1411,1711003740850812832,2053,2048,2037,2057,2084,2071,1195
1412,1711003740860784417,2057,2053,2064,2057,2068,2064,1196
1413,1711003740870796940,2053,2051,2046,2059,2060,2057,1196
1414,1711003740880794994,2049,2050,2065,2053,2065,2047,1192
1415,1711003740890793240,2051,2053,2042,2064,2077,2062,1196
1416,1711003740900795242,2054,2048,2062,2061,2046,2062,1197
1417,1711003740910800250,2060,2057,2049,2067,2069,2058,1197
1418,1711003740920801892,2056,2053,2064,2065,2052,2069,1197
1419,1711003740930796038,2056,2055,2044,2048,2043,2049,1194
1420,1711003740940793242,2052,2054,2063,2050,2004,2059,1197
1421,1711003740950797299,2046,2049,2037,2047,2042,2040,1193
1422,1711003740960794702,2053,2056,2065,2043,2041,2060,1197
1423,1711003740970796895,2052,2052,2043,2060,2068,2044,1194
1424,1711003740980795831,2055,2053,2063,2056,2044,2057,1198
1425,1711003740990794347,2056,2056,2047,2064,2058,2039,1194
1426,1711003741000797762,2055,2056,2069,2084,2033,2063,1196
1427,1711003741010800595,2054,2056,2045,2049,2065,2044,1192
1428,1711003741020797168,2057,2057,2067,2054,2021,2069,1197
1429,1711003741030794161,2058,2056,2046,2068,2085,2060,1198
1430,1711003741040794620,2060,2052,2066,2062,2051,2050,1197
1431,1711003741050796021,2057,2057,2045,2056,2068,2040,1195
1432,1711003741060789727,2053,2058,2069,2060,2045,2061,1197
1433,1711003741070796048,2057,2059,2044,2040,2008,2056,1196
1434,1711003741080793311,2052,2056,2064,2047,2039,2057,1196
1435,1711003741090795604,2056,2054,2048,2061,2042,2052,1196
1436,1711003741100816342,2053,2057,2066,2052,2040,2068,1196
1437,1711003741110790782,2056,2056,2045,2042,2061,2061,1196
1438,1711003741120795880,2056,2057,2067,2057,2046,2056,1195
1439,1711003741131027468,2055,2057,2041,2058,2058,2048,1196
1440,1711003741140795216,2052,2052,2068,2056,2056,2059,1198
1441,1711003741150822225,2064,2057,2046,2055,2033,2047,1193
1442,1711003741160783420,2053,2052,2063,2056,2053,2040,1196
1443,1711003741170804509,2057,2057,2049,2066,2046,2058,1196
1444,1711003741180799878,2060,2057,2070,2062,2036,2041,1194
1445,1711003741190802562,2060,2063,2056,2052,2005,2056,1196
1446,1711003741200815414,2063,2056,2067,2031,2053,2063,1196
1447,1711003741210800836,2052,2052,2045,2070,2066,2056,1196
1448,1711003741220798409,2057,2056,2069,2052,2027,2058,1197
1449,1711003741230796344,2060,2056,2050,2067,2071,2072,1196
1450,1711003741240811541,2049,2053,2070,2066,2035,2049,1197
1451,1711003741250830395,2054,2052,2043,2049,2035,2045,1197
1452,1711003741260791350,2064,2059,2066,2051,2044,2057,1196
1453,1711003741270792961,2058,2057,2054,2067,2070,2060,1197
1454,1711003741280795915,2047,2052,2064,2044,2047,2054,1195
1455,1711003741290793859,2056,2052,2046,2067,2091,2074,1197
1456,1711003741300808496,2054,2048,2060,2061,2039,2057,1196
1457,1711003741310796232,2065,2054,2047,2058,2072,2061,1194
1458,1711003741320800928,2058,2056,2070,2064,2038,2064,1194
1459,1711003741330801879,2052,2052,2044,2049,2041,2045,1192
1460,1711003741340797819,2056,2056,2069,2060,2062,2045,1195
1461,1711003741350804581,2059,2057,2053,2069,2061,2057,1195
1462,1711003741360799790,2057,2053,2067,2093,2108,2086,1198
1463,1711003741370816420,2057,2060,2044,2026,2061,2042,1194
1464,1711003741380818012,2056,2054,2064,2056,2035,2051,1197
1465,1711003741390817439,2050,2049,2042,2056,2060,2028,1194
1466,1711003741400830292,2053,2056,2061,2052,2075,2066,1196
1467,1711003741411456671,2057,2053,2046,2073,2070,2056,1197
1468,1711003741420808077,2060,2056,2061,2047,2046,2053,1196
1469,1711003741430809458,2057,2061,2046,2072,2104,2052,1197
1470,1711003741440827581,2054,2055,2066,2049,2040,2065,1198
1471,1711003741450798584,2057,2057,2044,2054,2040,2053,1196
1472,1711003741460792481,2054,2048,2064,2048,2003,2056,1196
1473,1711003741470789574,2060,2056,2050,2064,2056,2040,1194
1474,1711003741480793159,2053,2056,2065,2056,2055,2055,1195
1475,1711003741490791424,2054,2050,2042,2052,2108,2069,1194
1476,1711003741500798897,2056,2051,2062,2065,2064,2061,1194
1477,1711003741510793976,2056,2056,2048,2057,2091,2056,1196
1478,1711003741520795007,2056,2052,2068,2057,2057,2057,1197
1479,1711003741530794424,2056,2058,2048,2053,2066,2040,1192
1480,1711003741540798951,2045,2050,2060,2056,2044,2059,1196
1481,1711003741550793298,2056,2056,2047,2056,2045,2050,1198
1482,1711003741560807404,2056,2057,2068,2057,2025,2056,1195
1483,1711003741570795711,2060,2057,2046,2063,2062,2049,1196
1484,1711003741580793865,2052,2053,2064,2066,2049,2038,1192
1485,1711003741590793804,2060,2060,2044,2075,2058,2048,1195
1486,1711003741600800023,2056,2060,2071,2052,2058,2054,1198
1487,1711003741610815973,2047,2054,2042,2052,2077,2035,1195
1488,1711003741620798868,2056,2052,2064,2075,2072,2065,1195
1489,1711003741630793567,2052,2053,2052,2062,2061,2053,1196
1490,1711003741640801550,2051,2052,2065,2088,2064,2056,1196
1491,1711003741650787121,2058,2056,2047,2052,2058,2041,1194
1492,1711003741660795336,2056,2053,2061,2045,2052,2059,1198
1493,1711003741670792528,2059,2058,2052,2064,2068,2061,1198
1494,1711003741680793269,2057,2050,2061,2051,2059,2060,1196
1495,1711003741690792004,2059,2058,2049,2055,2044,2045,1195
1496,1711003741700804878,2053,2053,2064,2060,2051,2047,1194
1497,1711003741710814715,2059,2054,2047,2063,2072,2057,1197
1498,1711003741720796248,2056,2052,2063,2069,2085,2056,1195
1499,1711003741730796297,2058,2065,2056,2048,2047,2068,1195
1500,1711003741740797227,2052,2052,2065,2061,2069,2076,1195
1501,1711003741750794140,2049,2046,2040,2052,2067,2048,1194
1502,1711003741760785501,2049,2056,2068,2051,2010,2048,1195
1503,1711003741770791481,2056,2056,2047,2056,2064,2061,1195
1504,1711003741780791019,2057,2056,2067,2068,2049,2058,1196
1505,1711003741790809753,2050,2051,2042,2056,2040,2043,1196
1506,1711003741800790976,2057,2056,2061,2053,2029,2053,1197
1507,1711003741810791475,2060,2060,2049,2051,2056,2051,1197
1508,1711003741820794980,2056,2054,2069,2054,2058,2039,1195
1509,1711003741830792774,2062,2057,2049,2056,2077,2058,1195
1510,1711003741840800147,2057,2056,2064,2050,2062,2056,1197
1511,1711003741850788644,2057,2053,2047,2048,2060,2053,1196
1512,1711003741860786227,2059,2058,2065,2053,2052,2060,1195
1513,1711003741870781537,2051,2050,2044,2069,2059,2055,1197
1514,1711003741880792786,2056,2054,2069,2077,2035,2043,1192
1515,1711003741890777837,2066,2057,2051,2072,2044,2052,1197
1516,1711003741900796150,2054,2052,2066,2055,2043,2062,1196
1517,1711003741910791590,2053,2053,2042,2042,2090,2044,1193
1518,1711003741920796398,2057,2052,2068,2062,2060,2053,1196
1519,1711003741930794172,2057,2059,2047,2064,2031,2073,1196
1520,1711003741940793930,2056,2055,2062,2051,1978,2052,1195
1521,1711003741950812513,2052,2050,2044,2056,2045,2049,1197
1522,1711003741961382306,2055,2052,2061,2054,2033,2056,1196
1523,1711003741970793835,2057,2056,2048,2062,2066,2069,1196
1524,1711003741980798222,2050,2049,2055,2045,2052,2059,1196
1525,1711003741990796076,2056,2054,2043,2047,2079,2055,1197
1526,1711003742000812666,2048,2047,2062,2058,2037,2048,1197
1527,1711003742010803948,2051,2056,2047,2053,2089,2058,1196
1528,1711003742020799688,2050,2049,2064,2047,2013,2053,1198
1529,1711003742030802913,2053,2056,2045,2058,2096,2070,1197
1530,1711003742040793854,2056,2053,2061,2049,2040,2040,1193
1531,1711003742050834390,2057,2052,2044,2055,2080,2072,1196
1532,1711003742060805743,2060,2060,2069,2098,2057,2060,1198
1533,1711003742070792417,2054,2056,2044,2062,2088,2052,1196
1534,1711003742080795140,2056,2052,2064,2040,2044,2067,1195
1535,1711003742090794798,2053,2053,2046,2078,2139,2067,1197
1536,1711003742100825785,2054,2056,2063,2043,2045,2054,1197
1537,1711003742110803601,2044,2050,2045,2072,2065,2016,1192
1538,1711003742120795715,2050,2052,2064,2059,2048,2064,1196
1539,1711003742130792988,2052,2051,2041,2045,2057,2050,1195
1540,1711003742140794679,2050,2051,2066,2060,2048,2058,1196
1541,1711003742150804316,2056,2056,2048,2061,2060,2057,1194
1542,1711003742160792833,2052,2053,2065,2054,2068,2059,1196
1543,1711003742170797199,2054,2052,2048,2037,2040,2069,1196
1544,1711003742180793691,2052,2050,2064,2052,2040,2052,1197
1545,1711003742190810832,2056,2056,2046,2062,2053,2044,1194
1546,1711003742200800180,2053,2058,2069,2053,2044,2049,1197
1547,1711003742210791813,2057,2056,2050,2067,2094,2061,1198
1548,1711003742220791671,2059,2052,2065,2052,2038,2055,1195
1549,1711003742230793322,2061,2056,2046,2059,2096,2109,1196
1550,1711003742240872021,2060,2054,2064,2058,2122,2069,1195
1551,1711003742250996365,2056,2053,2040,2048,2044,2049,1196
1552,1711003742260797987,2053,2053,2065,2056,2049,2060,1195
1553,1711003742270791693,2050,2056,2048,2062,2058,2050,1195
1554,1711003742280795789,2056,2056,2064,2045,2013,2057,1196
1555,1711003742290796348,2058,2057,2048,2061,2064,2052,1198
1556,1711003742300792931,2057,2054,2060,2065,2061,2065,1193
1557,1711003742310791075,2055,2057,2045,2034,2090,2050,1195
1558,1711003742320787978,2060,2057,2066,2056,2031,2057,1195
1559,1711003742330787004,2057,2058,2048,2055,2040,2045,1193
1560,1711003742340809676,2051,2056,2068,2066,1980,2033,1193
1561,1711003742350796409,2060,2054,2046,2077,2065,2073,1195
1562,1711003742360787471,2056,2053,2065,2065,2054,2050,1194
1563,1711003742370798059,2060,2061,2052,2064,2075,2057,1194
1564,1711003742380793068,2050,2051,2063,2046,2020,2055,1197
1565,1711003742390798206,2054,2055,2045,2050,2065,2058,1197
1566,1711003742400804346,2048,2050,2060,2050,2043,2061,1196
1567,1711003742410813141,2056,2054,2050,2065,2072,2039,1192
1568,1711003742420794494,2056,2055,2060,2045,2047,2064,1196
1569,1711003742430793180,2050,2054,2045,2080,2048,1997,1195
1570,1711003742440839487,2049,2048,2061,2064,2086,2061,1196
1571,1711003742450803596,2058,2057,2050,2060,2062,2053,1196
1572,1711003742460785230,2054,2056,2065,2046,1969,2056,1197
1573,1711003742470800759,2054,2053,2043,2052,2062,2054,1198
1574,1711003742480803401,2052,2054,2064,2067,2069,2060,1193
1575,1711003742490801938,2046,2054,2043,2069,2060,2056,1196
1576,1711003742500803488,2048,2050,2065,2058,2034,2058,1197
1577,1711003742510793859,2050,2056,2045,2055,2001,2052,1196
1578,1711003742520796001,2044,2047,2056,2051,2023,2046,1193
1579,1711003742530793405,2055,2054,2047,2069,2100,2058,1196
1580,1711003742540823390,2050,2050,2061,2047,2042,2042,1194
1581,1711003742550813319,2050,2054,2046,2061,2062,2059,1196
1582,1711003742560801976,2052,2052,2063,2034,2028,2064,1196
1583,1711003742570795562,2057,2057,2048,2056,2037,2060,1196
1584,1711003742580794979,2057,2056,2064,2047,2026,2050,1197
1585,1711003742590812281,2053,2055,2047,2075,2081,2050,1197
1586,1711003742600794124,2049,2048,2060,2058,2074,2056,1197
1587,1711003742610792871,2056,2054,2048,2060,2058,2042,1194
1588,1711003742620798580,2057,2054,2060,2050,2022,2049,1196
1589,1711003742630810912,2067,2064,2053,2078,2047,2058,1197
1590,1711003742640823013,2059,2053,2061,2081,2046,2062,1197
1591,1711003742650796892,2064,2057,2048,2056,2042,2037,1193
1592,1711003742660793043,2058,2058,2065,2048,2024,2048,1197
1593,1711003742670793392,2055,2058,2048,2066,2017,2032,1195
1594,1711003742680791727,2056,2056,2072,2060,2059,2060,1195
1595,1711003742690826772,2055,2056,2047,2053,2074,2058,1198
1596,1711003742700804388,2060,2058,2074,2060,2040,2065,1197
1597,1711003742710793416,2056,2056,2043,2051,2073,2038,1193
1598,1711003742720806329,2056,2056,2068,2070,2054,2060,1197
1599,1711003742730795817,2056,2054,2044,2066,2098,2067,1196
1600,1711003742740801676,2060,2051,2068,2072,2040,2058,1197
1601,1711003742750826512,2056,2057,2047,2065,2059,2040,1193
1602,1711003742760792796,2059,2057,2069,2055,2046,2055,1194
1603,1711003742770798315,2056,2060,2045,2057,2045,2056,1196
1604,1711003742780795168,2053,2052,2065,2053,2042,2053,1197
1605,1711003742790795166,2053,2056,2048,2064,2085,2060,1198
1606,1711003742800802248,2058,2056,2066,2057,2040,2056,1197
1607,1711003742810795594,2055,2056,2043,2060,2069,2054,1197
1608,1711003742820795842,2064,2053,2066,2078,2108,2068,1196
1609,1711003742830796171,2056,2053,2046,2057,2060,2047,1196
1610,1711003742840809465,2052,2053,2067,2064,2048,2053,1198
1611,1711003742850840683,2050,2054,2044,2067,2099,2049,1195
1612,1711003742860805976,2057,2053,2067,2064,2030,2062,1198
1613,1711003742870809671,2056,2055,2041,2055,2079,2053,1199
1614,1711003742880799981,2056,2048,2059,2027,2039,2057,1195
1615,1711003742890800209,2052,2053,2040,2065,2130,2060,1196
1616,1711003742900802032,2060,2053,2060,2040,2014,2041,1196
1617,1711003742910797902,2060,2059,2047,2062,2105,2056,1196
1618,1711003742920798602,2050,2049,2060,2064,2044,2051,1197
1619,1711003742930800013,2050,2052,2045,2069,2090,2040,1196
1620,1711003742940786456,2056,2054,2064,2067,2060,2053,1198
1621,1711003742950870333,2060,2058,2048,2057,2072,2052,1197
1622,1711003742960797363,2052,2053,2065,2058,2035,2061,1196
1623,1711003742970800287,2056,2056,2046,2042,2056,2049,1196
1624,1711003742980802480,2050,2053,2064,2046,2041,2046,1194
1625,1711003742990802868,2056,2055,2045,2058,2100,2067,1198
1626,1711003743000808117,2053,2056,2061,2040,1998,2040,1194
1627,1711003743010803506,2051,2053,2044,2059,1981,2029,1194
1628,1711003743020805639,2056,2057,2069,2047,2036,2053,1197
1629,1711003743030805898,2057,2051,2040,2064,2076,2052,1196
1630,1711003743040814543,2054,2051,2062,2088,2045,2064,1197
1631,1711003743050814020,2061,2059,2046,2060,2078,2063,1194
1632,1711003743060801946,2057,2051,2066,2044,2051,2064,1195
1633,1711003743070806823,2054,2058,2049,2055,2027,2029,1194
1634,1711003743080805248,2052,2056,2069,2050,2035,2054,1194
1635,1711003743090788895,2054,2054,2044,2056,2060,2049,1198
1636,1711003743100815114,2058,2052,2066,2049,2041,2058,1196
1637,1711003743110812016,2057,2060,2047,2053,2073,2066,1197
1638,1711003743120810261,2056,2048,2065,2052,2036,2054,1198
1639,1711003743130793297,2058,2054,2048,2047,2068,2056,1196
1640,1711003743140813393,2051,2056,2065,2048,2038,2053,1196
1641,1711003743150811559,2057,2056,2045,2053,2050,2076,1195
1642,1711003743160808431,2063,2058,2068,2052,2064,2049,1197
1643,1711003743170785326,2059,2057,2045,2052,2056,2049,1195
1644,1711003743180795302,2061,2056,2066,2058,2029,2052,1196
1645,1711003743190795381,2060,2056,2043,2060,2061,2060,1197
1646,1711003743200785871,2058,2054,2066,2048,2033,2060,1199
1647,1711003743210786692,2054,2053,2049,2064,2113,2068,1198
1648,1711003743220795045,2053,2049,2063,2057,2055,2068,1196
1649,1711003743230797588,2073,2058,2045,2066,2100,2063,1196
1650,1711003743240798920,2053,2052,2060,2050,2044,2053,1197
1651,1711003743250852700,2057,2065,2053,2065,2071,2056,1197
1652,1711003743260799998,2050,2069,2070,2056,2005,2044,1194
1653,1711003743270797632,2058,2062,2044,2058,2045,2045,1193
1654,1711003743280798663,2057,2054,2072,2063,2040,2051,1195
1655,1711003743290798380,2047,2054,2041,2073,2063,2053,1195
1656,1711003743300793119,2053,2050,2063,2045,2029,2057,1196
1657,1711003743310796904,2063,2062,2047,2064,2132,2057,1196
1658,1711003743320796712,2052,2054,2064,2065,2054,2063,1196
1659,1711003743330795167,2054,2056,2046,2033,2054,2045,1194
1660,1711003743340810214,2052,2049,2065,2049,2059,2056,1196
1661,1711003743350791327,2054,2053,2044,2052,2077,2064,1197
1662,1711003743360795543,2056,2050,2063,2045,2041,2056,1197
1663,1711003743370793808,2058,2054,2042,2062,2062,2050,1197
1664,1711003743380790239,2052,2051,2066,2051,2020,2044,1196
1665,1711003743390852276,2052,2033,2034,2070,2084,2052,1198
1666,1711003743400840712,2049,2043,2064,2057,2045,2058,1198
1667,1711003743410787149,2056,2063,2048,2059,2056,2047,1192
1668,1711003743420782829,2047,2047,2056,2043,2037,2062,1196
1669,1711003743430788027,2056,2057,2042,2056,2056,2057,1193
1670,1711003743440789087,2052,2056,2065,2056,2032,2044,1196
1671,1711003743450836215,2056,2054,2043,2066,2088,2060,1195
1672,1711003743460795075,2057,2053,2068,2052,2038,2060,1197
1673,1711003743470790845,2056,2059,2043,2065,2081,2050,1196
1674,1711003743480794361,2047,2052,2068,2056,2035,2052,1195
1675,1711003743490839495,2052,2047,2042,2057,2060,2049,1197
1676,1711003743500837890,2053,2060,2066,2060,2027,2058,1195
1677,1711003743510795948,2056,2053,2044,2056,2048,2043,1193
1678,1711003743520834270,2064,2058,2068,2048,2073,2052,1196
1679,1711003743530840770,2061,2053,2042,2051,2053,2047,1194
1680,1711003743540828456,2056,2052,2065,2053,2041,2051,1196
1681,1711003743550791433,2051,2056,2043,2064,2069,2056,1197
1682,1711003743560833662,2054,2054,2069,2046,2035,2049,1196
1683,1711003743570832107,2061,2056,2041,2064,2071,2059,1195
1684,1711003743580832246,2057,2076,2073,2056,2058,2051,1196
1685,1711003743590836422,2062,2066,2056,2068,2101,2080,1200
1686,1711003743600829697,2053,2047,2065,2008,2044,2063,1196
1687,1711003743610832181,2061,2061,2050,2068,2111,2068,1196
1688,1711003743620787314,2046,2054,2065,2036,1972,2037,1195
1689,1711003743630789497,2058,2058,2044,2049,2022,2048,1197
1690,1711003743640834059,2061,2056,2074,2054,2015,2060,1195
1691,1711003743650830261,2048,2034,2033,2018,2006,2028,1194
1692,1711003743660828916,2052,2041,2060,2049,2057,2040,1195
1693,1711003743670827372,2053,2058,2048,2069,2076,2064,1196
1694,1711003743680829053,2050,2047,2066,2045,2067,2054,1193
1695,1711003743690833179,2066,2056,2044,2076,2078,2060,1196
1696,1711003743700823019,2047,2054,2070,2072,2027,2062,1196
1697,1711003743710825311,2048,2051,2037,2043,2052,2053,1196
1698,1711003743720822815,2049,2038,2090,2056,2052,2054,1194
1699,1711003743730823324,2048,2041,2034,2074,2078,2066,1196
1700,1711003743740878898,2056,2061,2108,2069,2058,2050,1196
1701,1711003743750824372,2060,2059,2049,2047,2077,2059,1198
1702,1711003743760821286,2056,2064,2083,2056,2056,2062,1194
1703,1711003743770820572,2054,2050,2037,2061,2092,2059,1195
1704,1711003743780818747,2050,2050,2058,2064,2058,2052,1196
1705,1711003743790819336,2058,2056,2049,2071,2056,2053,1196
1706,1711003743800817000,2060,2053,2058,2065,2012,2060,1197
1707,1711003743810821337,2061,2057,2041,2052,2057,2041,1193
1708,1711003743820822067,2056,2056,2069,2041,2038,2047,1194
1709,1711003743830820803,2056,2069,2048,2077,2100,2054,1197
1710,1711003743840819989,2062,2058,2069,2065,2053,2066,1197
1711,1711003743850814938,2057,2076,2050,2051,2066,2053,1197
1712,1711003743860812922,2056,2060,2066,2058,2045,2058,1196
1713,1711003743870813512,2052,2057,2045,2056,2054,2056,1197
1714,1711003743880811256,2051,2054,2068,2070,2044,2056,1196
1715,1711003743890812347,2056,2062,2056,2065,2061,2032,1193
1716,1711003743900816102,2059,2053,2064,2057,2040,2038,1193
1717,1711003743910810730,2060,2058,2046,2049,2072,2056,1196
1718,1711003743920817131,2058,2052,2068,2033,2012,2052,1195
1719,1711003743930813211,2048,2047,2041,2046,2049,2010,1193
1720,1711003743940816115,2051,2047,2057,2062,2058,2056,1196
1721,1711003743950813919,2054,2055,2045,2054,2061,2047,1195
1722,1711003743960810371,2052,2051,2066,2046,2021,2052,1197
1723,1711003743970812854,2057,2057,2046,2066,2057,2050,1197
1724,1711003743980814045,2052,2054,2064,2053,2046,2048,1199
1725,1711003743990812119,2060,2058,2044,2072,2047,2046,1195
1726,1711003744000812138,2053,2052,2066,2048,2053,2072,1197
1727,1711003744010808088,2047,2051,2040,2055,2092,2064,1196
1728,1711003744020808197,2056,2052,2062,2056,2035,2053,1195
1729,1711003744030874551,2052,2038,2038,2069,2046,2047,1196
1730,1711003744040806951,2057,2045,2065,2044,2027,2050,1197
1731,1711003744050805156,2056,2055,2047,2059,2078,2062,1196
1732,1711003744060809242,2053,2052,2060,2045,2061,2056,1197
1733,1711003744070807526,2053,2064,2043,2041,2066,2064,1197
1734,1711003744080808096,2052,2051,2066,2064,2041,2060,1193
1735,1711003744090808124,2052,2054,2044,2058,2053,2064,1196
1736,1711003744100821799,2054,2053,2067,2061,2048,2061,1197
1737,1711003744110808572,2053,2066,2044,2062,2085,2058,1194
1738,1711003744120810113,2052,2054,2065,2052,2044,2051,1196
1739,1711003744130828807,2060,2056,2047,2065,2081,2070,1197
1740,1711003744140809739,2048,2051,2061,2029,2067,2056,1197
1741,1711003744150809447,2057,2056,2042,2021,2050,2042,1195
1742,1711003744160808182,2051,2054,2065,2061,2029,2067,1197
1743,1711003744170810174,2053,2061,2041,2051,2062,2052,1194
1744,1711003744180808920,2050,2050,2060,2063,2052,2063,1197
1745,1711003744190810431,2057,2062,2044,2044,2079,2043,1193
1746,1711003744200810280,2060,2052,2066,2045,2050,2049,1195
1747,1711003744210812151,2056,2056,2047,2053,2062,2057,1198
1748,1711003744220817540,2057,2053,2065,2047,2033,2046,1193
1749,1711003744230814352,2056,2056,2046,2064,2065,2049,1197
1750,1711003744240814961,2052,2047,2061,2057,2050,2062,1198
1751,1711003744250816313,2054,2055,2055,2053,2090,2089,1197
1752,1711003744260816871,2056,2028,2061,2064,2078,2057,1196
1753,1711003744270816839,2051,2040,2036,2057,2061,2049,1195
1754,1711003744280819062,2050,2049,2065,2049,2080,2064,1194
1755,1711003744290817117,2059,2057,2048,2049,2057,2068,1195
1756,1711003744300814641,2053,2057,2072,2071,2051,2054,1194
1757,1711003744310815190,2056,2049,2039,2056,2064,2065,1195
1758,1711003744320816150,2045,2053,2098,2057,2047,2056,1198
1759,1711003744330806911,2060,2059,2049,2057,2069,2054,1198
1760,1711003744340819362,2061,2066,2072,2056,2051,2064,1196
1761,1711003744350819602,2047,2050,2036,2040,2096,2032,1193
1762,1711003744360802787,2053,2052,2060,2068,2041,2057,1194
1763,1711003744370803306,2054,2055,2036,2066,2060,2044,1196
1764,1711003744380827641,2052,2056,2077,2053,2030,2037,1196
1765,1711003744390819153,2048,2060,2044,2060,2062,2052,1199
1766,1711003744400797811,2050,2032,2057,2055,2056,2051,1198
1767,1711003744410799532,2064,2047,2038,2065,2067,2076,1196
1768,1711003744420801294,2058,2050,2056,2032,2031,2047,1193
1769,1711003744430806743,2056,2053,2042,2059,2068,2063,1196
1770,1711003744440805288,2054,2048,2057,2047,2026,2056,1196
1771,1711003744450802742,2057,2056,2046,2056,2057,2033,1194
1772,1711003744460799023,2050,2050,2068,2051,2053,2053,1197
1773,1711003744470801325,2056,2053,2044,2068,2064,2056,1196
1774,1711003744480799160,2052,2040,2060,2054,2042,2054,1193
1775,1711003744490826049,2046,2040,2044,2089,2074,2054,1195
1776,1711003744500809887,2053,2055,2062,2056,2078,2063,1194
1777,1711003744510818762,2054,2055,2044,2060,2057,2046,1192
1778,1711003744520814622,2052,2052,2062,2046,2013,2046,1194
1779,1711003744530804181,2054,2057,2059,2051,2046,2056,1195
1780,1711003744540875875,2050,2049,2064,2054,2020,2052,1195
1781,1711003744550812353,2052,2056,2046,2060,2079,2048,1195
1782,1711003744560802372,2059,2064,2068,2060,2033,2063,1196
1783,1711003744570805365,2057,2058,2045,2073,2075,2049,1195
1784,1711003744580874436,2062,2057,2066,2060,2045,2061,1196
1785,1711003744590872219,2046,2054,2042,2067,2067,2056,1197
1786,1711003744600807595,2056,2052,2057,2029,2037,2049,1195
1787,1711003744610809487,2058,2056,2045,2057,2059,2060,1196
1788,1711003744620803854,2060,2056,2070,2056,2030,2057,1196
1789,1711003744630804053,2051,2052,2045,2058,2076,2060,1197
1790,1711003744640800244,2053,2041,2060,2056,2006,2055,1196
1791,1711003744650804681,2049,2052,2040,2057,2008,2021,1193
1792,1711003744660804629,2060,2054,2056,2056,2054,2052,1197
1793,1711003744670803154,2058,2056,2045,2059,2053,2047,1193
1794,1711003744680819253,2056,2055,2068,2079,2040,2046,1192
1795,1711003744690807218,2052,2050,2043,2062,2062,2051,1196
1796,1711003744700803490,2054,2049,2062,2065,2070,2057,1197
1797,1711003744710816052,2055,2052,2046,2047,2015,2050,1195
1798,1711003744720805099,2045,2050,2059,2041,2013,2049,1197
1799,1711003744730806190,2057,2053,2042,2047,2057,2054,1194
1800,1711003744740805246,2056,2072,2064,2037,2017,2047,1193
1801,1711003744750802249,2060,2060,2047,2042,2028,2029,1194
1802,1711003744760800043,2054,2050,2059,2038,2001,2028,1193
1803,1711003744770800181,2056,2054,2048,2040,2056,2056,1195
1804,1711003744780809928,2053,2049,2062,2026,2031,2047,1195
1805,1711003744790807011,2058,2059,2050,2050,2064,2056,1198
1806,1711003744800805607,2054,2057,2068,2056,2043,2062,1196
1807,1711003744810801928,2052,2054,2049,2057,2047,2047,1193
1808,1711003744820807366,2053,2032,2056,2064,2061,2048,1195
1809,1711003744830803698,2056,2042,2044,2064,2064,2052,1196
1810,1711003744840807072,2063,2050,2065,2086,2076,2068,1196
1811,1711003744850798865,2053,2058,2042,2045,2056,2051,1196
1812,1711003744860803312,2052,2057,2066,2049,2040,2056,1195
1813,1711003744870806716,2058,2057,2050,2068,2090,2046,1195
1814,1711003744880805563,2051,2064,2068,2064,2050,2057,1195
1815,1711003744890838323,2057,2054,2047,2056,2092,2067,1195
1816,1711003744900832561,2061,2056,2066,2061,2062,2061,1194
1817,1711003744910801990,2053,2056,2047,2055,2056,2049,1196
1818,1711003744920837075,2056,2060,2070,2048,2037,2029,1194
1819,1711003744930828548,2049,2049,2046,2051,2056,2052,1196
1820,1711003744940803939,2056,2059,2075,2060,2060,2064,1199
1821,1711003744950831450,2053,2051,2045,2053,2050,2052,1198
1822,1711003744960802863,2051,2065,2061,2054,2048,2061,1197
1823,1711003744970801328,2058,2056,2047,2061,2046,2053,1198
1824,1711003744980850631,2053,2053,2062,2045,2041,2048,1197
1825,1711003744990835280,2056,2052,2047,2064,2050,2057,1197
1826,1711003745000826532,2056,2052,2090,2049,2034,2058,1196
1827,1711003745010829525,2056,2056,2040,2058,2072,2052,1196
1828,1711003745020799456,2049,2065,2061,2060,2073,2064,1195
1829,1711003745030836796,2054,2045,2042,2060,2053,2054,1195
1830,1711003745040829760,2056,2054,2061,2057,2048,2047,1194
1831,1711003745050828376,2058,2054,2045,2064,2024,2034,1193
1832,1711003745060826651,2056,2053,2062,2035,2005,2044,1195
1833,1711003745070827240,2056,2052,2052,2056,2127,2071,1196
1834,1711003745080828150,2058,2057,2068,2058,2050,2059,1193
1835,1711003745090821005,2059,2052,2037,2047,2055,2053,1195
1836,1711003745100825491,2056,2053,2058,2069,2065,2054,1194
1837,1711003745110824117,2047,2047,2045,2052,2052,2051,1197
1838,1711003745120836910,2050,2047,2058,2054,2042,2054,1195
1839,1711003745130832479,2056,2059,2051,2056,2047,2056,1195
1840,1711003745140833710,2059,2057,2065,2078,2097,2069,1195
1841,1711003745150827376,2056,2060,2049,2062,2061,2042,1193
1842,1711003745160825541,2055,2053,2065,2068,2032,2063,1196
1843,1711003745170822754,2054,2055,2052,2066,2061,2047,1196
1844,1711003745180813895,2048,2053,2061,2070,2047,2052,1197
1845,1711003745190813102,2056,2053,2043,2061,2062,2054,1196
1846,1711003745200811066,2056,2059,2075,2053,2034,2054,1195
1847,1711003745210812788,2053,2052,2057,2066,2088,2053,1197
1848,1711003745220817114,2061,2070,2065,2060,2057,2053,1196
1849,1711003745230819868,2060,2057,2040,2042,2048,2047,1194
1850,1711003745240822331,2056,2053,2061,2042,2021,2038,1195
1851,1711003745250817940,2048,2048,2040,2050,2061,2044,1193
1852,1711003745260816296,2056,2050,2051,2069,2052,2053,1196
1853,1711003745270830070,2055,2056,2045,2046,2042,2064,1196
1854,1711003745280816131,2061,2055,2052,2054,2052,2065,1195
1855,1711003745290814908,2058,2053,2072,2053,2074,2064,1196
1856,1711003745300817771,2056,2054,2065,2060,2077,2071,1196
1857,1711003745310825293,2053,2051,2040,2050,2036,2041,1194
1858,1711003745320816636,2054,2055,2062,2068,2060,2056,1195
1859,1711003745330827825,2057,2066,2066,2057,2056,2046,1194
1860,1711003745340815569,2063,2042,2060,2049,2022,2041,1194
1861,1711003745350814085,2052,2048,2045,2050,2053,2058,1196
1862,1711003745360823401,2060,2057,2062,2057,2039,2048,1196
1863,1711003745370805935,2057,2070,2056,2059,2075,2054,1198
1864,1711003745380823879,2061,2053,2059,2064,2045,2066,1196
1865,1711003745390804970,2054,2057,2046,2049,2036,2048,1197
1866,1711003745400799959,2056,2053,2063,2050,2041,2038,1194
1867,1711003745410805699,2052,2056,2047,2050,2029,2030,1196
1868,1711003745420813441,2056,2041,2047,2060,2072,2060,1197
1869,1711003745430823869,2054,2052,2036,2053,2052,2046,1194
1870,1711003745440826523,2056,2057,2057,2059,2045,2052,1196
1871,1711003745450817383,2045,2048,2044,2110,2050,2050,1195
1872,1711003745460811810,2057,2053,2057,2060,2006,2054,1196
1873,1711003745470813723,2058,2073,2056,2057,2061,2060,1196
1874,1711003745480807779,2059,2056,2058,2050,2060,2056,1194
1875,1711003745490806415,2052,2051,2047,2055,2030,2052,1196
1876,1711003745500804981,2060,2058,2063,2050,2060,2058,1200
1877,1711003745510799839,2052,2054,2049,2048,2049,2056,1197
1878,1711003745520798394,2058,2056,2060,2060,2040,2071,1196
1879,1711003745530803603,2054,2056,2049,2036,2021,2056,1197
1880,1711003745540814241,2056,2047,2056,2065,2058,2060,1195
1881,1711003745550803830,2052,2052,2045,2055,2085,2074,1196
1882,1711003745560805311,2059,2072,2070,2048,2059,2057,1196
1883,1711003745570802543,2052,2052,2048,2068,2067,2051,1195
1884,1711003745580814514,2046,2053,2061,2074,2113,2047,1194
1885,1711003745590791930,2048,2048,2041,2049,2047,2047,1194
1886,1711003745600801315,2062,2058,2066,2059,2060,2057,1196
1887,1711003745610801976,2057,2050,2049,2040,1942,2062,1196
1888,1711003745620801392,2058,2079,2076,2066,2047,2047,1195
1889,1711003745630799436,2059,2052,2049,2054,2090,2058,1195
1890,1711003745640804104,2050,2050,2057,2025,1976,2024,1196
1891,1711003745650795616,2054,2057,2052,2069,2081,2047,1194
1892,1711003745660796846,2054,2053,2058,2042,2024,2049,1197
1893,1711003745670797566,2048,2049,2048,2074,2066,2052,1196
1894,1711003745680817983,2056,2052,2054,2029,2000,2036,1193
1895,1711003745690791931,2053,2051,2045,2047,2070,2062,1198
1896,1711003745700795798,2056,2056,2062,2080,2066,2057,1196
1897,1711003745710815232,2056,2056,2045,2057,2029,2035,1194
1898,1711003745720795713,2053,2073,2067,2045,2029,2047,1194
1899,1711003745730800040,2052,2060,2043,2024,2010,2028,1191
1900,1711003745740800749,2060,2059,2067,2074,2058,2060,1196
1901,1711003745750794355,2049,2046,2053,2064,2053,2046,1194
1902,1711003745760800285,2054,2053,2057,2060,2076,2069,1195
1903,1711003745770839848,2056,2052,2049,2047,2028,2038,1193
1904,1711003745780832592,2052,2051,2056,2047,2047,2049,1198
1905,1711003745790832381,2056,2050,2048,2033,2042,2046,1195
1906,1711003745800832258,2051,2072,2062,2064,2044,2056,1197
1907,1711003745810844459,2058,2060,2052,2044,2041,2040,1194
1908,1711003745820799693,2062,2057,2060,2051,2058,2066,1196
1909,1711003745830784933,2059,2068,2056,2064,2076,2061,1197
1910,1711003745840811702,2048,2053,2060,2058,2054,2042,1193
1911,1711003745850798005,2053,2053,2052,2054,2036,2046,1195
1912,1711003745860829773,2056,2056,2056,2058,2015,2052,1197
1913,1711003745870829049,2057,2060,2056,2072,2057,2052,1194
1914,1711003745880824429,2058,2044,2058,2067,2072,2080,1196
1915,1711003745890863492,2062,2055,2051,2036,2038,2043,1194
1916,1711003745900809167,2056,2058,2062,2050,2050,2065,1195
1917,1711003745910833652,2054,2060,2061,2050,2052,2052,1196
1918,1711003745920790087,2054,2048,2056,2056,2008,2039,1194
1919,1711003745930788792,2059,2052,2049,2052,2081,2061,1195
1920,1711003745940809751,2058,2070,2064,2061,2052,2053,1197
1921,1711003745950838293,2060,2060,2045,2056,2035,2050,1197
1922,1711003745960808244,2053,2052,2057,2048,2013,2049,1197
1923,1711003745970808894,2049,2050,2027,2030,2015,2030,1194
1924,1711003745980809432,2054,2049,2077,2049,2028,2047,1193
1925,1711003745990792289,2049,2051,2043,2037,2016,2040,1195
1926,1711003746000795192,2058,2053,2054,2027,2000,2055,1197
1927,1711003746010816340,2060,2060,2052,2064,2056,2053,1197
1928,1711003746020823803,2050,2053,2056,2056,2061,2060,1195
1929,1711003746030821727,2056,2057,2052,2054,2037,2052,1198
1930,1711003746040791618,2041,2045,2050,2057,2040,2044,1195
1931,1711003746050797747,2055,2061,2042,2056,2105,2054,1197
1932,1711003746060794219,2056,2051,2057,2049,2016,2045,1193
1933,1711003746070820026,2053,2050,2054,2047,2010,2038,1192
1934,1711003746080818060,2052,2053,2056,2064,2124,2068,1194
1935,1711003746090791357,2059,2047,2057,2036,1986,2035,1194
1936,1711003746100813308,2060,2052,2053,2056,2033,2058,1194
1937,1711003746110816392,2054,2051,2047,2055,2031,2056,1196
1938,1711003746120821780,2051,2056,2062,2058,2052,2046,1195
1939,1711003746130816298,2052,2055,2052,2044,2031,2049,1196
1940,1711003746140830052,2058,2056,2061,2062,2017,2072,1197
1941,1711003746150810383,2057,2052,2053,2056,2052,2050,1195
1942,1711003746160815761,2054,2065,2066,2044,2048,2046,1194
1943,1711003746170815569,2057,2042,2047,2051,2065,2054,1197
1944,1711003746180816549,2052,2050,2056,2057,2032,2043,1194
1945,1711003746190815525,2055,2053,2056,2047,2032,2048,1197
1946,1711003746200819782,2056,2056,2056,2057,2063,2061,1196
1947,1711003746210798409,2052,2064,2053,2056,2078,2051,1195
1948,1711003746220820629,2060,2060,2088,2070,2038,2054,1197
1949,1711003746230820397,2056,2076,2060,2049,2058,2058,1197
1950,1711003746240795588,2057,2060,2059,2040,2004,2041,1193
1951,1711003746250793783,2060,2056,2043,2052,2027,2048,1197
1952,1711003746260792939,2052,2049,2058,2036,2016,2033,1194
1953,1711003746270791896,2054,2052,2051,2080,2077,2062,1197
1954,1711003746280843261,2057,2057,2058,2046,2059,2060,1194
1955,1711003746290824944,2065,2049,2053,2073,2131,2078,1196
1956,1711003746300805635,2052,2051,2055,2052,2009,2054,1197
1957,1711003746310804172,2053,2056,2070,2050,2009,2043,1193
1958,1711003746320808087,2061,2075,2059,2058,2053,2053,1197
1959,1711003746330807333,2057,2060,2064,2051,2053,2067,1197
1960,1711003746340795650,2027,2045,2040,2058,2082,2053,1195
1961,1711003746350799295,2058,2052,2048,2066,2076,2046,1194
1962,1711003746360806045,2052,2053,2057,2063,2040,2044,1193
1963,1711003746370803318,2057,2052,2052,2054,2060,2050,1194
1964,1711003746380805441,2056,2057,2057,2043,2028,2042,1193
1965,1711003746390809487,2066,2066,2056,2053,2029,2046,1194
1966,1711003746400794496,2056,2041,2054,2050,2056,2046,1194
1967,1711003746410793683,2051,2043,2047,2044,2022,2055,1195
1968,1711003746420805634,2056,2052,2056,2064,2069,2063,1198
1969,1711003746430805061,2054,2053,2055,2065,2035,2049,1198
1970,1711003746440797774,2061,2058,2062,2052,2049,2043,1195
1971,1711003746450796651,2056,2057,2049,2073,2082,2066,1196
1972,1711003746460793864,2062,2057,2059,2061,2057,2052,1198
1973,1711003746470792048,2058,2058,2057,2046,2080,2055,1197
1974,1711003746480791295,2066,2068,2078,2078,2072,2058,1195
1975,1711003746490790181,2051,2028,2040,2056,2056,2049,1196
1976,1711003746500799377,2050,2040,2052,2061,2087,2068,1195
1977,1711003746510797220,2048,2048,2048,2054,2065,2060,1197
1978,1711003746520800866,2054,2052,2058,2084,2106,2067,1197
1979,1711003746530791667,2057,2057,2088,2050,2001,2034,1195
1980,1711003746540796714,2057,2056,2061,2061,2067,2059,1196
1981,1711003746550839514,2054,2056,2054,2058,2056,2056,1196
1982,1711003746560794306,2057,2048,2058,2075,2070,2052,1196
1983,1711003746570797660,2052,2049,2052,2050,2033,2056,1196
1984,1711003746580792979,2057,2056,2058,2068,2085,2054,1196
1985,1711003746590782679,2058,2050,2053,2070,2093,2063,1197
1986,1711003746600798216,2060,2056,2056,2056,2052,2056,1195
1987,1711003746610797553,2049,2049,2053,2068,2098,2055,1194
1988,1711003746620797220,2053,2061,2057,2080,2070,2045,1193
1989,1711003746630796427,2050,2066,2056,2031,2039,2046,1192
1990,1711003746640783300,2056,2053,2056,2058,2045,2048,1195
1991,1711003746650789520,2061,2053,2052,2056,2079,2052,1197
1992,1711003746660791643,2065,2056,2056,2047,2054,2050,1197
1993,1711003746670794526,2054,2050,2049,2057,2064,2056,1197
1994,1711003746680802278,2058,2057,2065,2064,2040,2052,1195
1995,1711003746690813839,2052,2046,2056,2072,2050,2054,1197
1996,1711003746700793709,2047,2050,2062,2075,2099,2053,1196
1997,1711003746710798225,2060,2049,2051,2062,2132,2066,1194
1998,1711003746720797782,2058,2064,2054,2062,2065,2072,1197
1999,1711003746730794816,2055,2052,2049,2044,2068,2060,1195
2000,1711003746740792699,2053,2046,2042,2019,2061,2045,1195
2001,1711003746750796725,2052,2065,2053,2037,2027,2041,1195
2002,1711003746760796573,2052,2054,2060,2054,2053,2059,1197
2003,1711003746770794537,2053,2050,2049,2047,2027,2058,1197
2004,1711003746780797271,2050,2055,2060,2056,2045,2057,1194
2005,1711003746790803540,2061,2078,2064,2052,2078,2047,1192
2006,1711003746800781026,2063,2064,2060,2065,2056,2064,1195
2007,1711003746810795802,2051,2052,2051,2030,2010,2048,1197
2008,1711003746820794237,2060,2052,2056,2053,2060,2048,1195
2009,1711003746830793253,2052,2048,2052,2057,2053,2042,1192
2010,1711003746840809984,2052,2034,2052,2070,2067,2059,1196
2011,1711003746850805343,2056,2040,2047,2050,2046,2059,1194
2012,1711003746860797205,2052,2052,2052,2064,2036,2046,1194
2013,1711003746870800811,2057,2053,2052,2064,2096,2062,1197
2014,1711003746880797152,2057,2052,2050,2044,2022,2061,1196
2015,1711003746890798923,2053,2049,2057,2064,2076,2059,1199
2016,1711003746900789914,2053,2051,2050,2069,2093,2060,1195
2017,1711003746910792798,2053,2054,2056,2011,2008,2042,1195
2018,1711003746920789019,2047,2048,2055,2068,2124,2058,1197
2019,1711003746930791131,2052,2055,2058,2045,2056,2055,1197
2020,1711003746940790588,2061,2054,2056,2040,2041,2045,1195
2021,1711003746950793031,2052,2054,2064,2062,2052,2048,1196
2022,1711003746960794642,2057,2074,2064,2038,2027,2049,1196
2023,1711003746970802124,2056,2063,2041,2020,2033,2057,1195
2024,1711003746980799929,2060,2055,2054,2049,2072,2056,1198
2025,1711003746990800658,2054,2051,2052,2042,2056,2055,1199
2026,1711003747000796197,2060,2058,2060,2045,2048,2042,1195
2027,1711003747010775346,2050,2049,2054,2038,1966,2027,1194
2028,1711003747020794060,2057,2053,2059,2048,2026,2046,1193
2029,1711003747030798095,2056,2050,2052,2044,2046,2035,1193
2030,1711003747040796771,2061,2031,2047,2028,1974,2040,1196
2031,1711003747050802129,2060,2039,2043,2046,2037,2047,1195
2032,1711003747060802358,2064,2054,2054,2068,2044,2043,1194
2033,1711003747070802817,2056,2056,2057,2056,2033,2043,1194
2034,1711003747080803746,2056,2052,2057,2072,2115,2071,1194
2035,1711003747090804195,2053,2057,2056,2051,2047,2043,1195
2036,1711003747100804915,2047,2056,2059,2043,2041,2046,1193
2037,1711003747110806206,2054,2080,2069,2064,2014,2070,1196
2038,1711003747120807967,2064,2066,2066,2042,2072,2047,1194
2039,1711003747130807494,2052,2048,2053,2076,2064,2064,1195
2040,1711003747140809085,2057,2056,2070,2064,2050,2049,1198
2041,1711003747150814654,2047,2053,2050,2057,2066,2054,1199
2042,1711003747160815614,2053,2053,2052,2056,2046,2045,1194
2043,1711003747170809780,2055,2052,2052,2058,2044,2059,1195
2044,1711003747180810169,2058,2078,2066,2068,2069,2078,1196
2045,1711003747190794819,2056,2053,2056,2054,2035,2060,1198
2046,1711003747200803864,2057,2056,2051,2055,2064,2057,1197
2047,1711003747210799974,2057,2054,2057,2041,2028,2064,1196
2048,1711003747220810983,2052,2056,2042,2069,2076,2057,1197
2049,1711003747230794450,2056,2053,2053,2040,2041,2053,1196
2050,1711003747240796853,2056,2056,2054,2058,2064,2055,1194
2051,1711003747250808122,2056,2074,2061,2062,2021,2045,1194
2052,1711003747260797880,2056,2058,2054,2036,2018,2033,1194
2053,1711003747270799060,2058,2058,2082,2056,2051,2056,1197
2054,1711003747280801604,2058,2058,2053,2065,2078,2060,1193
2055,1711003747290800580,2053,2059,2047,2021,2010,2035,1193
2056,1711003747300790388,2060,2068,2074,2072,2072,2058,1196
2057,1711003747310804694,2052,2050,2056,2059,2056,2065,1197
2058,1711003747320786147,2056,2053,2063,2062,2048,2060,1198
2059,1711003747330788920,2050,2047,2048,2061,2052,2058,1196
2060,1711003747340786023,2054,2058,2047,2074,2097,2054,1196
2061,1711003747350801740,2053,2052,2053,2070,2062,2047,1195
2062,1711003747360798172,2058,2052,2054,2044,2061,2064,1196
2063,1711003747370797679,2051,2053,2057,2059,2052,2061,1196
2064,1711003747380799861,2065,2060,2056,2056,2076,2052,1197
2065,1711003747390826911,2065,2089,2057,2068,2037,2049,1196
2066,1711003747400815557,2050,2037,2040,2047,2022,2040,1194
2067,1711003747410799776,2048,2052,2057,2068,2056,2050,1196
2068,1711003747420811656,2056,2060,2052,2066,2093,2056,1196
2069,1711003747430799521,2054,2053,2056,2042,2026,2057,1197
2070,1711003747440825488,2057,2064,2052,2033,2000,2044,1193
2071,1711003747450815798,2051,2091,2069,2052,2044,2052,1197
2072,1711003747460795848,2056,2052,2047,2075,2118,2077,1197
2073,1711003747470793903,2053,2049,2059,2056,2055,2028,1194
2074,1711003747480794792,2057,2052,2052,2049,2090,2069,1196
2075,1711003747490804769,2049,2053,2055,2054,2071,2081,1197
2076,1711003747500799097,2052,2052,2050,2053,2068,2066,1196
2077,1711003747510812180,2055,2053,2052,2059,2075,2050,1197
2078,1711003747520804743,2061,2053,2046,2058,2056,2061,1196
2079,1711003747530821623,2052,2049,2053,2050,2037,2049,1196
2080,1711003747540772178,2054,2057,2056,2064,2086,2061,1198
2081,1711003747550812483,2052,2054,2064,2104,2042,2053,1197
2082,1711003747560792563,2053,2053,2049,2058,2078,2056,1195
2083,1711003747570794644,2052,2050,2050,2053,2018,2043,1194
2084,1711003747580789282,2060,2058,2056,2057,2056,2064,1196
2085,1711003747590804710,2063,2060,2073,2056,2045,2056,1196
2086,1711003747600795571,2052,2052,2052,2057,2058,2049,1197
2087,1711003747610810086,2056,2052,2069,2046,2054,2047,1195
2088,1711003747620808551,2049,2063,2062,2046,2066,2039,1194
2089,1711003747630821044,2055,2050,2053,2055,2046,2058,1198
2090,1711003747640811033,2054,2050,2069,2070,2081,2056,1195
2091,1711003747650807844,2051,2051,2056,2066,2093,2082,1196
2092,1711003747660804456,2063,2058,2059,2057,2064,2072,1195
2093,1711003747670804454,2059,2056,2058,2071,2091,2061,1195
2094,1711003747680810694,2057,2062,2066,2058,2003,2054,1193
2095,1711003747691332765,2048,2049,2056,2046,2022,2052,1196
2096,1711003747700798166,2065,2053,2053,2064,2062,2052,1196
2097,1711003747710817320,2058,2056,2060,2009,2041,2054,1195
2098,1711003747720799796,2053,2074,2064,2051,2073,2080,1196
2099,1711003747730804923,2059,2056,2060,2062,2091,2066,1197
2100,1711003747740806324,2056,2052,2050,2053,2049,2057,1195
2101,1711003747750795882,2061,2053,2058,2064,2101,2063,1195
2102,1711003747760788657,2067,2060,2054,2050,2070,2048,1195
2103,1711003747770805747,2053,2053,2057,2053,2072,2083,1195
2104,1711003747780795275,2055,2059,2051,2056,2052,2065,1197
2105,1711003747790798780,2050,2041,2055,2056,2076,2061,1197
2106,1711003747800797806,2058,2042,2050,2048,2116,2082,1197
2107,1711003747810794358,2048,2044,2043,2026,2077,2051,1197
2108,1711003747820797211,2052,2060,2058,2064,2047,2046,1194
2109,1711003747830792210,2056,2053,2056,2069,2049,2054,1194
2110,1711003747840794281,2066,2057,2050,2055,2072,2064,1195
2111,1711003747850795212,2053,2053,2055,2047,2070,2059,1195
2112,1711003747860794699,2056,2041,2045,2043,2059,2043,1194
2113,1711003747870795919,2053,2037,2053,2040,2018,2034,1195
2114,1711003747880794985,2055,2050,2055,2072,2076,2040,1191
2115,1711003747890795595,2056,2050,2061,2064,2021,2061,1194
2116,1711003747900788249,2048,2048,2047,2052,2030,2038,1193
2117,1711003747910789529,2056,2057,2061,2045,2050,2066,1195
2118,1711003747920796020,2053,2072,2056,2082,2137,2062,1197
2119,1711003747930797230,2058,2055,2063,2057,2032,2050,1193
2120,1711003747940795656,2056,2050,2047,2059,2053,2056,1193
2121,1711003747950788440,2051,2066,2058,2045,2044,2020,1193
2122,1711003747960797044,2058,2054,2054,2047,2059,2063,1195
2123,1711003747970794106,2055,2057,2060,2068,2030,2053,1196
2124,1711003747980794776,2061,2074,2064,2058,2055,2053,1197
2125,1711003747990794774,2052,2049,2056,2042,2024,2045,1195
2126,1711003748000788380,2064,2057,2052,2048,2010,2044,1194
2127,1711003748010792405,2060,2049,2050,2045,2041,2049,1200
2128,1711003748020796822,2073,2064,2056,2068,2064,2058,1197
2129,1711003748030796931,2056,2058,2068,2060,2042,2060,1197
2130,1711003748040799493,2062,2033,2043,2046,2064,2063,1196
2131,1711003748050781667,2053,2041,2054,2046,2079,2063,1198
2132,1711003748060787867,2056,2052,2056,2056,2077,2064,1197
2133,1711003748070795680,2049,2063,2079,2044,2073,2048,1197
2134,1711003748080797170,2057,2054,2052,2064,2076,2059,1192
2135,1711003748090834069,2057,2054,2061,2057,2049,2065,1196
2136,1711003748100791446,2052,2056,2050,2058,2061,2055,1196
2137,1711003748111186946,2055,2052,2056,2067,2086,2066,1196
2138,1711003748120790490,2061,2058,2056,2057,2054,2077,1195
2139,1711003748130802040,2062,2056,2061,2056,2097,2066,1197
2140,1711003748140823007,2063,2062,2056,2053,2104,2052,1196
2141,1711003748150798540,2059,2057,2064,2060,2065,2049,1195
2142,1711003748160791594,2059,2074,2056,2052,2061,2058,1195
2143,1711003748170793746,2056,2053,2060,2064,2070,2083,1194
2144,1711003748180789236,2054,2056,2053,2084,2073,2060,1197
2145,1711003748190786538,2053,2050,2052,2056,2069,2052,1197
2146,1711003748200789011,2055,2054,2049,2024,2027,2030,1194
2147,1711003748210827102,2050,2053,2056,2047,2064,2052,1196
2148,1711003748220801100,2058,2054,2052,2072,2073,2052,1195
2149,1711003748230794275,2048,2053,2057,2040,2037,2050,1198
2150,1711003748240820633,2062,2053,2053,2058,2064,2034,1192
2151,1711003748250788961,2056,2069,2058,2048,2056,2053,1196
2152,1711003748260814117,2056,2053,2037,2080,2105,2069,1196
2153,1711003748270794137,2056,2050,2062,2037,2033,2059,1196
2154,1711003748280800187,2065,2059,2056,2060,2097,2089,1194
2155,1711003748290798261,2052,2056,2057,2046,2041,2050,1195
2156,1711003748300790334,2056,2056,2052,2047,1988,2060,1194
2157,1711003748310791704,2047,2050,2057,2051,2076,2049,1198
2158,1711003748320787514,2060,2056,2056,2059,2078,2066,1196
2159,1711003748330797231,2057,2045,2060,2056,2062,2045,1195
2160,1711003748340795205,2059,2060,2050,2074,2074,2040,1192
2161,1711003748350798449,2054,2051,2057,2062,2060,2070,1195
2162,1711003748360792476,2045,2050,2046,2051,2029,2053,1195
2163,1711003748370788336,2059,2057,2065,2064,2064,2056,1196
2164,1711003748380791199,2062,2054,2053,2066,2092,2057,1197
2165,1711003748390816175,2056,2058,2060,2043,2052,2047,1194
2166,1711003748400797508,2053,2050,2045,2070,2084,2067,1197
2167,1711003748410791674,2050,2052,2058,2048,2052,2046,1193
2168,1711003748420811791,2062,2056,2050,2047,2062,2051,1196
2169,1711003748430792401,2061,2057,2061,2049,2041,2056,1196
2170,1711003748440789854,2056,2056,2053,2050,2061,2050,1196
2171,1711003748450797348,2051,2050,2054,2051,2027,2043,1194
2172,1711003748460795262,2057,2056,2051,2075,2068,2060,1196
2173,1711003748470792083,2056,2053,2057,2060,2044,2049,1198
2174,1711003748480792572,2049,2056,2053,2049,2064,2064,1195
2175,1711003748490812067,2054,2046,2054,2045,2065,2073,1194
2176,1711003748500790925,2044,2052,2049,2079,2044,2041,1193
2177,1711003748510801514,2055,2054,2060,2047,2056,2082,1196
2178,1711003748520799037,2049,2056,2044,2064,2058,2058,1195
2179,1711003748530797391,2057,2053,2059,2042,1989,2037,1194
2180,1711003748540798571,2047,2053,2048,2047,2033,2054,1195
2181,1711003748550817716,2055,2048,2054,2058,2037,2043,1192
2182,1711003748560799740,2051,2058,2050,2036,2024,2040,1192
2183,1711003748570801301,2054,2051,2052,2058,2045,2028,1193
2184,1711003748580801199,2058,2052,2041,2064,2067,2072,1195
2185,1711003748590820333,2053,2057,2064,2052,2036,2044,1193
2186,1711003748600801876,2070,2060,2050,2040,2061,2068,1195
2187,1711003748610848382,2052,2052,2056,2045,1993,2047,1193
2188,1711003748620808785,2057,2056,2045,2063,2057,2056,1195
2189,1711003748630822620,2060,2054,2060,2068,2056,2057,1197
2190,1711003748640813460,2053,2055,2053,2064,2061,2041,1194
2191,1711003748650807587,2063,2056,2066,2061,2054,2062,1196
2192,1711003748660804980,2059,2055,2052,2064,2072,2056,1194
2193,1711003748670805769,2056,2053,2061,2064,2058,2053,1196
2194,1711003748680808342,2065,2060,2049,2055,2083,2052,1193
2195,1711003748690818059,2045,2052,2074,2054,2015,2050,1197
2196,1711003748700799782,2063,2072,2056,2066,2068,2053,1195
2197,1711003748710811903,2052,2046,2055,2059,2080,2046,1194
2198,1711003748720804497,2056,2060,2072,2066,2058,2052,1196
2199,1711003748730809184,2052,2052,2061,2051,2063,2026,1192
2200,1711003748740816917,2045,2050,2040,2061,2014,2040,1194
2201,1711003748750804351,2052,2052,2048,2032,1984,2033,1194
2202,1711003748760783068,2056,2060,2057,2052,2066,2059,1195
2203,1711003748770804287,2056,2050,2050,2045,2050,2060,1196
2204,1711003748780803162,2053,2049,2044,2049,2076,2062,1196
2205,1711003748790805354,2060,2052,2064,2052,2039,2015,1195
2206,1711003748800804792,2058,2057,2064,2049,2011,2057,1196
2207,1711003748810808257,2056,2059,2068,2053,2035,2060,1195
2208,1711003748820787325,2054,2052,2051,2052,2008,2061,1196
2209,1711003748830791059,2056,2053,2062,2046,2059,2041,1193
2210,1711003748840791548,2046,2052,2048,2059,2047,2093,1196
2211,1711003748850808368,2057,2054,2062,2061,2088,2084,1196
2212,1711003748860790703,2058,2058,2052,2064,2067,2041,1196
