seq,time,data[0],data[1],data[2],data[3],data[4],data[5],data[6]
201,1711004387513519249,2057,2052,2062,2055,2051,2057,1196
202,1711004387523519593,2060,2081,2103,1966,2055,2056,1195
203,1711004387533517331,2050,2044,2058,2059,2047,2053,1196
204,1711004387543528836,2061,2052,2046,2054,2057,2049,1196
205,1711004387553523128,2053,2032,2018,2056,2049,2059,1194
206,1711004387563521127,2053,2044,2033,2053,2062,2052,1197
207,1711004387573527652,2054,2044,2064,2056,2049,2056,1193
208,1711004387583519430,2060,2056,2040,2057,2068,2057,1196
209,1711004387593522788,2053,2054,2059,2058,2045,2053,1197
210,1711004387603521389,2056,2072,2069,2059,2062,2053,1195
211,1711004387613519297,2050,2042,2062,2052,2051,2057,1196
212,1711004387623518619,2063,2073,2045,2074,2057,2052,1196
213,1711004387633516437,2056,2056,2076,2055,2043,2056,1195
214,1711004387643523344,2056,2073,2065,2052,2061,2052,1197
215,1711004387653517284,2045,2031,2060,2056,2046,2052,1198
216,1711004387663518340,2065,2055,2045,2053,2069,2058,1196
217,1711004387673520015,2056,2056,2064,2043,2040,2056,1196
218,1711004387683517173,2056,2054,2046,2053,2069,2056,1195
219,1711004387693521594,2056,2047,2057,2058,2042,2058,1197
220,1711004387703520225,2049,2037,2012,2061,2068,2048,1196
221,1711004387713520658,2052,2042,2061,2052,2041,2053,1197
222,1711004387723519208,2055,2054,2042,2059,2066,2050,1195
223,1711004387733518900,2050,2070,2063,2082,2040,2049,1194
224,1711004387743521368,2055,2055,2037,2056,2057,2058,1196
225,1711004387753519106,2057,2063,2079,2035,2033,2050,1196
226,1711004387763519570,2051,2050,2040,2057,2047,2053,1196
227,1711004387773528309,2054,2057,2075,2064,2082,2068,1194
228,1711004387783522652,2064,2055,2047,2057,2078,2049,1192
229,1711004387793529467,2054,2047,2062,2054,2057,2060,1194
230,1711004387803519752,2056,2062,2056,2050,2056,2049,1195
231,1711004387813519564,2054,2024,2048,2046,2048,2061,1197
232,1711004387823552329,2062,2057,2042,2052,2056,2044,1192
233,1711004387833529708,2064,2063,2069,2053,2043,2050,1196
234,1711004387843520124,2056,2047,2036,2060,2061,2053,1194
235,1711004387853523452,2057,2056,2062,2046,2049,2053,1195
236,1711004387863525630,2058,2058,2049,2061,2072,2068,1196
237,1711004387873541632,2056,2056,2074,2060,2046,2061,1196
238,1711004387883526046,2061,2055,2026,2057,2057,2052,1197
239,1711004387893517502,2059,2080,2080,2058,2037,2064,1195
240,1711004387903517986,2064,2045,2042,2054,2060,2056,1196
241,1711004387913518600,2056,2059,2077,2061,2048,2057,1195
242,1711004387923509656,2056,2056,2044,2070,2062,2044,1191
243,1711004387933528063,2056,2065,2067,2057,2054,2066,1198
244,1711004387943525170,2058,2052,2044,2057,2065,2056,1196
245,1711004387953518340,2049,2054,2076,2052,2044,2049,1194
246,1711004387963518643,2050,2066,2058,2054,2069,2053,1195
247,1711004387973551228,2061,2058,2080,2036,2033,2044,1192
248,1711004387983520212,2050,2041,2027,1984,2049,2049,1196
249,1711004387993527499,2057,2081,2090,2053,2040,2040,1191
250,1711004388003526600,2055,2052,2040,2045,2061,2045,1192
251,1711004388013524198,2052,2044,2064,2057,2049,2056,1196
252,1711004388023560860,2066,2054,2053,2064,2089,2065,1196
253,1711004388033535215,2056,2051,2069,2071,2048,2058,1197
254,1711004388043521511,2054,2051,2038,2065,2051,2050,1195
255,1711004388053519100,2059,2051,2060,2033,2057,2073,1196
256,1711004388063539982,2057,2028,2037,2060,2068,2040,1194
257,1711004388073517152,2059,2052,2067,2058,2049,2056,1195
258,1711004388083501484,2060,2057,2044,2056,2059,2059,1194
259,1711004388093534420,2061,2052,2064,2060,2038,2051,1193
260,1711004388103522720,2058,2060,2044,2064,2068,2050,1197
261,1711004388113530698,2060,2065,2075,2047,2059,2084,1195
262,1711004388123526332,2056,2056,2044,2047,2059,2057,1195
263,1711004388133529551,2050,2049,2064,2045,2040,2055,1196
264,1711004388143521268,2066,2064,2060,2095,2071,2073,1196
265,1711004388153530558,2054,2054,2068,2082,2036,2053,1196
266,1711004388163595104,2062,2060,2043,2052,2040,2035,1193
267,1711004388173603623,2056,2061,2073,2056,2030,2060,1192
268,1711004388183528574,2060,2049,2040,2056,2057,2056,1197
269,1711004388193519769,2051,2048,2058,2049,2042,2049,1196
270,1711004388203517929,2052,2072,2051,2049,2044,2045,1192
271,1711004388213517420,2052,2044,2049,2047,2054,2053,1196
272,1711004388223544014,2058,2072,2054,2057,2053,2062,1197
273,1711004388233522555,2050,2050,2067,2059,2036,2046,1193
274,1711004388243506026,2052,2057,2040,2045,2064,2044,1193
275,1711004388253516520,2060,2080,2077,2028,2051,2058,1196
276,1711004388263521331,2058,2058,2046,2056,2061,2051,1197
277,1711004388273524791,2049,2033,2040,2050,2047,2054,1197
278,1711004388283509524,2063,2059,2048,2064,2064,2058,1196
279,1711004388293521510,2035,2053,2056,2021,2038,2035,1194
280,1711004388303515802,2074,2072,2069,2068,2070,2065,1197
281,1711004388313515755,2029,2045,2056,2056,2025,2029,1192
282,1711004388323522520,2044,2048,2035,2043,2052,2045,1195
283,1711004388333521631,2048,2029,2037,2044,2042,2051,1194
284,1711004388343518268,2056,2061,2032,2053,2057,2058,1195
285,1711004388353517489,2049,2056,2078,2052,2047,2056,1196
286,1711004388363525607,2056,2051,2037,2056,2056,2046,1193
287,1711004388373518997,2071,2060,2058,2051,2053,2052,1193
288,1711004388383514411,2053,2051,2029,2068,2082,2064,1197
289,1711004388393515395,2039,2032,2042,2043,2027,2040,1193
290,1711004388403516080,2042,2045,2023,2054,2040,2036,1192
291,1711004388413519028,2040,2039,2054,2056,2072,2064,1196
292,1711004388423521957,2070,2064,2046,2072,2079,2061,1195
293,1711004388433515848,2040,2032,2070,2022,2003,2032,1193
294,1711004388443513526,2064,2047,2061,2061,2090,2068,1196
295,1711004388453522095,2053,2050,2069,2061,2064,2056,1195
296,1711004388463521937,2056,2082,2062,2068,2088,2054,1194
297,1711004388473529204,2060,2051,2064,2061,2051,2063,1195
298,1711004388483520961,2050,2044,2037,2043,2066,2040,1194
299,1711004388493518579,2056,2056,2064,2065,2061,2052,1194
300,1711004388503517169,2081,2052,2031,2065,2075,2061,1196
301,1711004388513516491,2047,2048,2070,2062,2063,2064,1196
302,1711004388523531061,2051,2052,2044,2064,2068,2051,1194
303,1711004388533524271,2052,2050,2069,2076,2065,2057,1195
304,1711004388543518944,2050,2026,2030,2059,2062,2048,1195
305,1711004388553529937,2073,2029,2077,2061,2044,2078,1196
306,1711004388563568513,2051,2057,2036,2050,2056,2040,1192
307,1711004388573529061,2062,2048,2074,2046,2034,2054,1195
308,1711004388583518354,2049,2050,2041,2064,2064,2047,1193
309,1711004388593518937,2053,2052,2065,2040,2033,2035,1192
310,1711004388603519381,2056,2050,2042,2006,2059,2045,1193
311,1711004388613512360,2060,2042,2065,2047,2040,2065,1195
312,1711004388623537932,2057,2054,2033,2051,2054,2053,1194
313,1711004388633530210,2054,2040,2061,2057,2040,2048,1194
314,1711004388643522779,2068,2053,2041,2052,2058,2047,1192
315,1711004388653522380,2048,2066,2088,2058,2045,2060,1193
316,1711004388663525750,2059,2038,2035,2054,2074,2049,1197
317,1711004388673517767,2053,2047,2060,2072,2045,2056,1195
318,1711004388683527249,2058,2063,2061,2066,2072,2053,1197
319,1711004388693524656,2045,2053,2069,2061,2050,2069,1196
320,1711004388703524277,2053,2079,2056,2061,2066,2063,1197
321,1711004388713539129,2049,2051,2072,2058,2048,2057,1193
322,1711004388723521678,2076,2049,2030,2057,2068,2067,1197
323,1711004388733522813,2050,2041,2046,2061,2049,2064,1196
324,1711004388743526182,2057,2073,2067,2058,2070,2050,1195
325,1711004388753538519,2041,2057,2064,2056,2038,2063,1196
326,1711004388763546476,2062,2068,2047,1997,2047,2054,1195
327,1711004388773532974,2042,2045,2063,2062,2036,2045,1193
328,1711004388783547804,2058,2059,2038,2052,2063,2041,1194
329,1711004388793529703,2051,2034,2053,2051,2034,2046,1195
330,1711004388803530197,2056,2055,2060,2041,2065,2051,1197
331,1711004388813565747,2056,2040,2036,2021,2036,2041,1194
332,1711004388823512078,2057,2082,2089,2067,2073,2059,1197
333,1711004388833534853,2051,2037,2058,2072,2020,2056,1197
334,1711004388843512785,2052,2064,2029,2050,2064,2047,1195
335,1711004388853530761,2040,2064,2072,2038,2053,2062,1197
336,1711004388863507841,2063,2052,2036,2059,2059,2069,1196
337,1711004388873539062,2053,2059,2082,2057,2033,2043,1193
338,1711004388883533255,2065,2058,2040,2064,2083,2053,1195
339,1711004388893532936,2050,2072,2068,2050,2036,2051,1195
340,1711004388903515947,2060,2076,2057,2053,2061,2050,1195
341,1711004388913542660,2069,2050,2056,2062,2046,2062,1197
342,1711004388923552241,2073,2056,2042,2056,2066,2047,1193
343,1711004388933540893,2054,2066,2070,2054,2045,2037,1192
344,1711004388943542678,2058,2065,2035,2057,2059,2053,1194
345,1711004388953544375,2057,2056,2088,2055,2036,2047,1194
346,1711004388963538987,2067,2060,2038,2056,2057,2050,1196
347,1711004388973519393,2056,2072,2096,2056,2044,2049,1195
348,1711004388983520247,2047,2048,2022,2054,2064,2060,1194
349,1711004388993519338,2046,2052,2062,2048,2047,2048,1193
350,1711004389003543006,2059,2056,2033,2053,2056,2029,1190
351,1711004389013539292,2050,2049,2080,1996,2041,2051,1194
352,1711004389023515329,2054,2059,2048,2056,2064,2043,1194
353,1711004389033516072,2053,2053,2065,2056,2052,2056,1196
354,1711004389043520825,2060,2056,2039,2060,2059,2053,1195
355,1711004389053523512,2053,2040,2056,2056,2057,2046,1193
356,1711004389064916033,2076,2060,2017,2076,2052,2054,1193
357,1711004389073528417,2048,2085,2072,2052,2045,2047,1193
358,1711004389083490136,2054,2049,2037,2067,2065,2050,1196
359,1711004389093516991,2054,2053,2069,2063,2056,2049,1196
360,1711004389103525950,2066,2076,2059,2065,2060,2056,1195
361,1711004389113563234,2061,2053,2072,2056,2043,2057,1196
362,1711004389123517460,2058,2053,2032,2066,2065,2044,1193
363,1711004389133516481,2058,2047,2073,2004,2028,2022,1192
364,1711004389143473532,2060,2074,2039,2073,2068,2043,1195
365,1711004389153508550,2049,2044,2060,2049,2054,2058,1196
366,1711004389163530195,2058,2056,2036,2056,2067,2057,1197
367,1711004389173519487,2049,2042,2067,2066,2052,2053,1193
368,1711004389183514942,2061,2052,2049,2061,2075,2059,1196
369,1711004389193517038,2056,2050,2085,2066,2044,2049,1197
370,1711004389203527490,2059,2046,2034,2056,2059,2052,1195
371,1711004389213521502,2052,2069,2086,2060,2044,2054,1196
372,1711004389223515583,2064,2042,2031,2052,2073,2057,1195
373,1711004389233521187,2042,2073,2103,2067,2043,2044,1193
374,1711004389243518915,2045,2036,2022,2033,2061,2050,1196
375,1711004389253531692,2053,2057,2081,2072,2057,2073,1194
376,1711004389263518329,2059,2056,2042,2070,2064,2044,1194
377,1711004389273524443,2057,2065,2081,2047,2060,2068,1198
378,1711004389283520810,2057,2048,2019,2054,2050,2040,1193
379,1711004389293522295,2066,2056,2072,2041,2020,2042,1193
380,1711004389303593263,2056,2044,2046,2095,2048,2052,1196
381,1711004389313604917,2052,2046,2066,2069,2060,2082,1196
382,1711004389323521611,2079,2076,2045,2054,2075,2058,1196
383,1711004389333514621,2064,2052,2065,2065,2054,2050,1196
384,1711004389343517449,2060,2078,2049,2048,1976,2061,1196
385,1711004389353518073,2065,2059,2060,2024,2000,2053,1197
386,1711004389363515531,2058,2090,2048,2174,2247,2101,1196
387,1711004389373524661,2066,2068,2075,2081,2128,2053,1194
388,1711004389383529493,2045,2051,2058,2055,2066,2076,1196
389,1711004389393522452,2070,2059,2065,2050,2040,2037,1191
390,1711004389403519029,2050,2054,2044,2053,2108,2084,1193
391,1711004389413533578,2064,2043,2069,2064,2072,2096,1194
392,1711004389423521619,2032,2028,2043,2062,2072,2086,1198
393,1711004389433515600,2064,2080,2073,2053,2067,2035,1192
394,1711004389443518888,2047,2045,2032,2054,2085,2030,1192
395,1711004389453586610,2050,2029,2051,2033,2041,2066,1195
396,1711004389463518764,2062,2045,2025,2047,2048,2037,1192
397,1711004389473519098,2051,2050,2061,2020,2032,2064,1195
398,1711004389483513780,2061,2058,2044,2040,2116,2056,1194
399,1711004389493512631,2057,2060,2072,2076,2066,2058,1195
400,1711004389503591764,2057,2057,2045,2061,2063,2059,1196
401,1711004389513526582,2051,2051,2065,2104,2153,2064,1196
402,1711004389523521095,2057,2052,2042,2072,2066,2065,1196
403,1711004389533518923,2055,2049,2062,2037,2029,2072,1194
404,1711004389543519027,2058,2058,2050,2052,2053,2062,1197
405,1711004389553543014,2046,2028,2062,2064,2056,2058,1197
406,1711004389563518109,2058,2038,2049,2072,2068,2043,1193
407,1711004389573505769,2025,2044,2065,2053,2043,2033,1192
408,1711004389583514728,2054,2057,2045,2076,2233,2069,1198
409,1711004389593513119,2051,2056,2069,2053,2089,2064,1196
410,1711004389603515075,2063,2061,2060,2054,2044,2028,1192
411,1711004389613526790,2058,2049,2067,2062,2060,2064,1197
412,1711004389623519889,2056,2056,2043,2003,2062,2061,1196
413,1711004389633520232,2056,2055,2068,2047,2033,2062,1195
414,1711004389643517040,2051,2110,2056,2051,2050,2054,1196
415,1711004389653527171,2060,2045,2060,2064,2091,2078,1197
416,1711004389663513478,2054,2046,2040,2062,2044,2056,1193
417,1711004389673524512,2051,2058,2074,2061,2046,2058,1196
418,1711004389683524183,2067,2060,2094,2053,2057,2054,1197
419,1711004389693519558,2053,2036,2063,2064,2064,2057,1196
420,1711004389703521313,2060,2057,2041,2069,2045,2040,1194
421,1711004389713512871,2076,2052,2065,1996,1892,2089,1196
422,1711004389723565253,2056,2056,2045,2044,2058,2064,1196
423,1711004389733519979,2054,2054,2065,2060,1993,2058,1197
424,1711004389743568965,2050,2052,2044,2053,2064,2041,1194
425,1711004389753971042,2043,2033,2061,2057,2057,2070,1197
426,1711004389763565123,2058,2058,2055,2057,2065,2047,1196
427,1711004389773518758,2046,2044,2061,2038,2028,2050,1193
428,1711004389783517649,2056,2056,2041,2055,2061,2050,1194
429,1711004389793510487,2051,2059,2052,2024,2014,2041,1192
430,1711004389803525478,2054,2040,2043,2053,2068,2041,1194
431,1711004389813517647,2083,2057,2052,2029,2004,2051,1197
432,1711004389823557675,2050,2054,2051,2044,2054,2059,1194
433,1711004389833518003,2049,2050,2062,2037,2022,2043,1193
434,1711004389843517965,2056,2054,2051,2058,2073,2053,1197
435,1711004389853552143,2059,2056,2065,2064,2057,2074,1196
436,1711004389863553288,2058,2081,2040,2048,2046,1984,1193
437,1711004389873556466,2054,2055,2068,2062,2058,2068,1196
438,1711004389883556540,2051,2044,2037,2035,2033,2036,1194
439,1711004389893559618,2053,2053,2068,2057,2072,2072,1197
440,1711004389903564841,2062,2059,2047,2061,2069,2040,1192
441,1711004389913558681,2058,2053,2064,2056,2045,2055,1195
442,1711004389923552702,2060,2052,2037,2078,2052,2059,1197
443,1711004389933553708,2054,2037,2073,2054,2062,2060,1197
444,1711004389943553930,2056,2040,2041,2050,2040,2057,1195
445,1711004389953553102,2050,2050,2064,2063,2045,2058,1197
446,1711004389963549517,2053,2045,2032,2045,2049,2057,1196
447,1711004389973556834,2059,2058,2064,2047,2057,2050,1193
448,1711004389983558390,2053,2052,2064,2066,2067,2052,1195
449,1711004389993550928,2042,2052,2060,2038,2028,2045,1190
450,1711004390003559648,2064,2071,2042,2069,2072,2059,1196
451,1711004390013546926,2058,2057,2057,2062,2046,2031,1194
452,1711004390023549164,2055,2056,2047,2053,2080,2057,1196
453,1711004390033567811,2050,2056,2056,2058,2060,2045,1193
454,1711004390043554388,2051,2031,2024,2073,2080,2044,1194
455,1711004390053551726,2069,2093,2080,2053,2027,2056,1198
456,1711004390063548182,2049,2060,2033,2049,2051,2049,1196
457,1711004390073545830,2064,2066,2069,2024,2013,2056,1196
458,1711004390083545412,2057,2047,2040,2065,2065,2044,1194
459,1711004390093544663,2052,2049,2060,2057,2052,2058,1197
460,1711004390103546139,2058,2056,2039,2046,2042,2051,1195
461,1711004390113539759,2052,2052,2066,2056,2066,2056,1197
462,1711004390123542096,2052,2074,2040,2050,2024,2044,1194
463,1711004390133544043,2049,2037,2032,2056,2032,2044,1194
464,1711004390143554846,2056,2076,2080,2059,2065,2054,1197
465,1711004390153539419,2056,2062,2060,2081,2089,2064,1197
466,1711004390163537518,2058,2051,2035,2056,2059,2045,1195
467,1711004390173541368,2051,2056,2064,2056,2044,2046,1190
468,1711004390183541632,2061,2058,2048,2070,2068,2058,1195
469,1711004390193543718,2054,2044,2056,2045,2024,2044,1194
470,1711004390203548409,2037,2026,2021,2063,2068,2050,1195
471,1711004390213538564,2062,2050,2056,2050,2036,2064,1196
472,1711004390223536753,2053,2056,2044,2060,2064,2048,1198
473,1711004390233538459,2052,2045,2049,2050,2041,2050,1198
474,1711004390243539624,2062,2064,2057,2064,2056,2051,1195
475,1711004390253542201,2052,2065,2061,2052,2052,2052,1196
476,1711004390263537766,2058,2056,2040,2061,2064,2052,1195
477,1711004390273532989,2057,2072,2072,2058,2043,2050,1196
478,1711004390283536608,2056,2051,2021,2061,2056,2056,1196
479,1711004390293536621,2052,2047,2050,2060,2045,2050,1195
480,1711004390303543406,2058,2068,2037,2052,2058,2050,1195
481,1711004390313531998,2052,2085,2061,2056,2047,2049,1195
482,1711004390323534275,2060,2095,2084,2068,2068,2064,1197
483,1711004390333533045,2053,2036,2049,2070,2057,2057,1196
484,1711004390343539781,2058,2056,2048,2067,2082,2054,1197
485,1711004390353538390,2052,2051,2070,2063,2057,2058,1198
486,1711004390363527141,2056,2050,2041,2045,2037,2037,1195
487,1711004390373531573,2054,2060,2072,2047,2043,2052,1195
488,1711004390383530904,2056,2039,2042,2055,2085,2050,1195
489,1711004390393530496,2053,2066,2072,2045,2056,2052,1196
490,1711004390403529657,2052,2045,2031,2050,2052,2057,1196
491,1711004390413525762,2058,2057,2065,2058,2052,2054,1198
492,1711004390423529152,2059,2066,2044,2059,2058,2054,1197
493,1711004390433527100,2061,2068,2074,2064,2022,2064,1196
494,1711004390443546589,2064,2057,2063,2066,2080,2075,1196
495,1711004390453540481,2056,2064,2068,2052,2044,2053,1198
496,1711004390463521968,2053,2051,2031,2058,2060,2050,1196
497,1711004390473525247,2060,2081,2088,2057,2065,2049,1196
498,1711004390483529027,2059,2053,2017,2049,2053,2051,1196
499,1711004390493527286,2053,2043,2063,2061,2053,2058,1196
500,1711004390503529664,2063,2044,2022,2053,2064,2054,1193
501,1711004390513529806,2053,2076,2072,2052,2072,2059,1195
502,1711004390523528637,2047,2032,2021,2059,2049,2059,1196
503,1711004390533527177,2050,2056,2062,2041,2042,2054,1194
504,1711004390543542549,2052,2046,2047,2056,2064,2058,1196
505,1711004390553538033,2050,2047,2069,2067,2049,2062,1196
506,1711004390563530211,2058,2066,2044,2063,2066,2052,1198
507,1711004390573529201,2064,2047,2060,2047,2026,2052,1192
508,1711004390583526249,2057,2052,2036,2060,2067,2052,1195
509,1711004390593527794,2053,2052,2062,2055,2032,2050,1195
510,1711004390603528518,2065,2081,2073,2066,2049,2045,1193
511,1711004390613528230,2047,2041,2044,2081,2068,2069,1197
512,1711004390623526640,2057,2074,2047,2040,2082,2066,1196
513,1711004390633526552,2050,2040,2065,2081,2077,2060,1196
514,1711004390643532626,2060,2044,2041,2065,2064,2054,1196
515,1711004390653525966,2054,2052,2059,2053,2027,2009,1195
516,1711004390663527021,2063,2072,2046,2047,2027,2069,1196
517,1711004390673528186,2061,2075,2085,2072,2086,2072,1195
518,1711004390683529781,2048,2045,2042,2084,2098,2082,1195
519,1711004390693542298,2066,2074,2078,2077,2166,2060,1198
520,1711004390703528625,2052,2030,2036,2052,2056,2052,1197
521,1711004390713525011,2052,2047,2067,2058,2012,2050,1197
522,1711004390723527819,2054,2058,2061,2108,2177,2077,1197
523,1711004390733525857,2055,2053,2049,2057,2064,2068,1195
524,1711004390743551179,2057,2056,2042,2066,2072,2059,1196
525,1711004390753541252,2053,2047,2066,2056,2028,2055,1199
526,1711004390763544901,2056,2050,2042,2053,2040,2043,1193
527,1711004390773526129,2053,2065,2068,2046,2015,2055,1195
528,1711004390783528886,2054,2062,2049,2026,2060,2052,1195
529,1711004390793529611,2047,2008,2038,2064,2085,2077,1195
530,1711004390803530124,2065,2073,2047,2059,2052,2060,1197
531,1711004390813520328,2053,2058,2061,2061,2058,2058,1195
532,1711004390823522616,2060,2056,2049,2073,2082,2077,1196
533,1711004390833528519,2056,2040,2064,2065,2086,2061,1195
534,1711004390843539793,2049,2040,2033,2048,2055,2050,1197
535,1711004390853530558,2061,2036,2058,2056,2048,2064,1197
536,1711004390863528857,2057,2041,2045,2056,2060,2062,1198
537,1711004390873523551,2057,2052,2074,2048,2062,2056,1197
538,1711004390883535736,2060,2064,2047,2092,2145,2061,1197
539,1711004390893539776,2049,2047,2060,2049,2019,2035,1194
540,1711004390903537174,2058,2052,2049,2064,2060,2052,1197
541,1711004390913526416,2059,2048,2068,2058,2052,2056,1198
542,1711004390923528954,2051,2050,2044,2057,2068,2052,1198
543,1711004390933534157,2074,2078,2072,2056,2047,2061,1197
544,1711004390943540571,2050,2040,2027,2067,2060,2052,1196
545,1711004390953522250,2052,2061,2073,2064,2038,2058,1198
546,1711004390963524857,2059,2051,2041,2070,2054,2057,1196
547,1711004390973528235,2062,2077,2084,2061,2049,2054,1194
548,1711004390983526475,2056,2072,2044,2044,2029,2043,1194
549,1711004390993528011,2052,2043,2060,2052,2040,2056,1195
550,1711004391003534947,2064,2072,2068,2064,2061,2054,1196
551,1711004391013522756,2053,2047,2058,2062,2047,2054,1196
552,1711004391023527928,2057,2040,2044,2062,2046,2056,1196
553,1711004391033526929,2063,2096,2066,2059,2034,2052,1196
554,1711004391043542782,2057,2047,2044,2059,2057,2054,1193
555,1711004391053533627,2050,2043,2061,2057,2032,2051,1195
556,1711004391063541335,2055,2055,2012,2042,2051,2045,1193
557,1711004391073529114,2060,2074,2092,2048,2046,2060,1197
558,1711004391083527152,2058,2052,2045,2064,2072,2051,1195
559,1711004391093549669,2061,2070,2053,2067,2047,2044,1194
560,1711004391103559630,2060,2070,2028,2061,2057,2056,1195
561,1711004391113529334,2052,2059,2065,2054,2044,2053,1195
562,1711004391123530390,2060,2069,2048,2056,2044,2052,1195
563,1711004391133529230,2057,2057,2067,2053,2042,2049,1195
564,1711004391143568877,2060,2058,2046,2057,2064,2051,1195
565,1711004391153560064,2050,2049,2076,2059,2056,2061,1196
566,1711004391163524559,2052,2041,2064,2061,2081,2062,1195
567,1711004391173527957,2059,2082,2080,2036,2040,2053,1196
568,1711004391183525115,2060,2052,2044,2061,2073,2053,1194
569,1711004391193542731,2056,2059,2074,2052,2036,2052,1193
570,1711004391203564074,2052,2044,2031,2053,2050,2050,1194
571,1711004391213530914,2056,2038,2048,2051,2032,2043,1193
572,1711004391223556906,2054,2032,2024,2056,2054,2052,1196
573,1711004391233526981,2056,2050,2065,2058,2047,2056,1197
574,1711004391243561079,2052,2048,2026,2056,2061,2060,1196
575,1711004391253567183,2054,2047,2061,2059,2054,2060,1193
576,1711004391263545234,2060,2078,2047,2067,2075,2051,1196
577,1711004391273556498,2043,2038,2065,2057,2038,2042,1194
578,1711004391283556901,2060,2066,2040,2056,2064,2054,1195
579,1711004391293554980,2050,2042,2068,2053,2040,2056,1197
580,1711004391303583718,2065,2065,2044,2060,2077,2052,1196
581,1711004391313542342,2052,2061,2054,2057,2043,2056,1195
582,1711004391323551411,2056,2065,2044,2056,2068,2054,1196
583,1711004391333552016,2058,2010,2048,2058,2045,2059,1195
584,1711004391343552268,2064,2060,2052,2058,2061,2053,1196
585,1711004391353563201,2051,2051,2056,2056,2050,2047,1192
586,1711004391363545211,2056,2056,2040,2068,2057,2041,1193
587,1711004391373547427,2052,2049,2057,2059,2044,2049,1195
588,1711004391383547600,2064,2032,2046,2060,2065,2059,1198
589,1711004391393548424,2053,2038,2061,2058,2062,2061,1195
590,1711004391403556462,2059,2048,2009,2057,2064,2060,1196
591,1711004391413546495,2053,2035,2062,2059,2048,2056,1194
592,1711004391423549544,2047,2042,2040,2061,2057,2050,1197
593,1711004391433545319,2064,2069,2069,2058,2040,2062,1196
594,1711004391443548637,2060,2040,2032,2077,2072,2068,1196
595,1711004391453553610,2048,2021,2049,2059,2048,2056,1196
596,1711004391463542201,2064,2068,2085,2064,2066,2052,1194
597,1711004391473548865,2051,2092,2065,2053,2058,2056,1194
598,1711004391483544130,2060,2076,2077,2060,2066,2047,1195
599,1711004391493552668,2057,2108,2072,2056,2040,2060,1196
600,1711004391503544064,2052,2076,2091,2060,2061,2053,1194
601,1711004391513542905,2057,2053,2059,2057,2052,2058,1196
602,1711004391523544060,2057,2080,2056,2057,2059,2050,1197
603,1711004391533541618,2051,2053,2064,2056,2043,2056,1196
604,1711004391543547502,2058,2057,2045,2053,2064,2053,1196
605,1711004391553557734,2065,2061,2092,2060,2047,2057,1197
606,1711004391563544370,2056,2064,2056,2061,2062,2050,1196
607,1711004391573557408,2052,2049,2059,2046,2052,2045,1193
608,1711004391583549676,2060,2083,2060,2058,2076,2059,1196
609,1711004391593547815,2048,2043,2058,2049,2054,2058,1193
610,1711004391603550553,2053,2098,2030,2056,2057,2058,1197
611,1711004391613542430,2049,2049,2050,2056,2052,2050,1196
612,1711004391623548885,2057,2056,2036,2065,2057,2050,1196
613,1711004391633546994,2052,2045,2058,2054,2052,2055,1193
614,1711004391643554771,2066,2101,2069,2052,2061,2049,1197
615,1711004391653559724,2049,2018,2029,2052,2047,2056,1196
616,1711004391663536713,2060,2047,2045,2055,2054,2060,1196
617,1711004391673544590,2050,2053,2061,2054,2072,2058,1197
618,1711004391683542870,2056,2057,2044,2054,2052,2056,1197
619,1711004391693541139,2056,2050,2064,2057,2040,2056,1195
620,1711004391703541973,2058,2057,2045,2060,2061,2059,1197
621,1711004391713540823,2042,1997,2041,2057,2052,2056,1195
622,1711004391723539373,2068,2068,2044,2046,2037,2053,1197
623,1711004391733542882,2061,2093,2078,2060,2054,2059,1197
624,1711004391743571620,2056,2051,2028,2056,2058,2052,1193
625,1711004391753776201,2042,2019,2044,2058,2043,2055,1195
626,1711004391763524856,2053,2056,2045,2061,2072,2053,1194
627,1711004391773526241,2052,2041,2058,2056,2042,2054,1193
628,1711004391783531284,2059,2062,2051,2061,2066,2046,1191
629,1711004391793531426,2054,2065,2081,2056,2055,2059,1198
630,1711004391803530898,2053,2069,2044,2056,2060,2052,1195
631,1711004391813530861,2051,2048,2041,2058,2034,2050,1194
632,1711004391823531694,2056,2049,2042,2056,2048,2050,1194
633,1711004391833533100,2070,2050,2080,2057,2040,2056,1196
634,1711004391843533063,2064,2048,2052,2054,2057,2045,1193
635,1711004391853625931,2053,2051,2065,2051,2038,2052,1196
636,1711004391863529461,2056,2056,2043,2060,2050,2047,1195
637,1711004391873534363,2056,2074,2083,2055,2043,2053,1197
638,1711004391883535658,2058,2078,2060,2052,2045,2052,1198
639,1711004391893535841,2050,2052,2058,2055,2041,2054,1197
640,1711004391903576491,2057,2057,2034,2059,2064,2050,1196
641,1711004391913541046,2064,2098,2096,2057,2054,2060,1194
642,1711004391923520550,2065,2040,2036,2058,2059,2064,1197
643,1711004391933520683,2055,2036,2056,2060,2052,2056,1198
644,1711004391943520635,2056,2044,2040,2061,2068,2054,1198
645,1711004391953577266,2057,2045,2052,2053,2040,2053,1195
646,1711004391963513547,2063,2052,2038,2056,2060,2054,1193
647,1711004391973520603,2047,2020,2048,2053,2037,2048,1194
648,1711004391983522880,2074,2059,2052,2053,2065,2056,1197
649,1711004391993576825,2056,2080,2069,2061,2049,2057,1196
650,1711004392003520400,2053,2050,2025,2056,2057,2050,1198
651,1711004392013521616,2047,2025,2052,2056,2064,2055,1196
652,1711004392023522720,2056,2047,2040,2061,2069,2056,1196
653,1711004392033523744,2060,2040,2057,2049,2046,2062,1196
654,1711004392043549406,2061,2061,2044,2060,2064,2054,1195
655,1711004392053541954,2047,2044,2056,2057,2043,2056,1197
656,1711004392063578206,2053,2055,2042,2056,2059,2051,1195
657,1711004392073526079,2047,2051,2072,2057,2060,2056,1197
658,1711004392083518558,2068,2068,2039,2058,2064,2058,1199
659,1711004392093569557,2052,2050,2067,2056,2056,2046,1193
660,1711004392103548339,2060,2052,2037,2057,2060,2050,1197
661,1711004392113547591,2056,2060,2069,2058,2046,2052,1197
662,1711004392123513889,2056,2070,2073,2060,2063,2053,1194
663,1711004392133550651,2052,2027,2045,2052,2041,2053,1196
664,1711004392143576073,2058,2058,2051,2046,2042,2050,1196
665,1711004392153561487,2069,2080,2108,2053,2061,2058,1196
666,1711004392163519089,2045,2065,2040,2049,2058,2048,1197
667,1711004392173550361,2052,2044,2054,2053,2051,2056,1197
668,1711004392183550915,2053,2058,2027,2057,2072,2053,1198
669,1711004392193526370,2052,2038,2056,2042,2021,2051,1196
670,1711004392203503149,2051,2053,2036,2056,2055,2045,1195
671,1711004392213548248,2052,2045,2054,2058,2049,2056,1197
672,1711004392223504797,2060,2069,2036,2059,2060,2054,1196
673,1711004392233549775,2051,2053,2049,2060,2056,2055,1198
674,1711004392243556170,2053,2059,2068,2054,2056,2054,1196
675,1711004392253546765,2050,2043,2056,2052,2045,2052,1195
676,1711004392263519686,2047,2016,2041,2052,2054,2052,1197
677,1711004392273551228,2053,2028,2046,2054,2043,2057,1196
678,1711004392283516876,2063,2109,2076,2057,2065,2056,1196
679,1711004392293537127,2049,2045,2065,2053,2047,2051,1196
680,1711004392303549252,2051,2058,2042,2057,2064,2053,1196
681,1711004392313553403,2058,2060,2066,2064,2050,2056,1197
682,1711004392323515283,2047,2026,2021,2044,2045,2050,1198
683,1711004392333553007,2060,2046,2062,2052,2045,2047,1194
684,1711004392343535115,2059,2057,2042,2056,2064,2055,1197
685,1711004392353527674,2062,2076,2082,2054,2040,2053,1198
686,1711004392363532205,2058,2049,2033,2053,2054,2053,1198
687,1711004392373533460,2052,2045,2060,2053,2042,2052,1194
688,1711004392383534595,2056,2048,2032,2057,2057,2048,1194
689,1711004392393563242,2057,2048,2056,2055,2047,2052,1197
690,1711004392403530712,2053,2051,2007,2057,2060,2053,1196
691,1711004392413531648,2049,2045,2065,2054,2050,2050,1197
692,1711004392423529065,2049,2054,2046,2058,2060,2052,1197
693,1711004392433529638,2052,2044,2059,2056,2047,2057,1197
694,1711004392443526925,2056,2053,2042,2049,2050,2052,1197
695,1711004392453529704,2053,2057,2069,2055,2044,2061,1196
696,1711004392463529476,2052,2056,2038,2052,2057,2056,1197
697,1711004392473530420,2052,2045,2062,2054,2047,2061,1196
698,1711004392483529892,2058,2052,2038,2057,2056,2047,1195
699,1711004392493534032,2058,2073,2104,2061,2059,2058,1199
700,1711004392503529606,2057,2059,2042,2056,2060,2053,1197
701,1711004392513535620,2063,2070,2099,2064,2056,2062,1195
702,1711004392523534150,2061,2090,2064,2059,2061,2053,1196
703,1711004392533533391,2049,2060,2062,2052,2034,2050,1195
704,1711004392543519517,2050,2042,2040,2053,2060,2050,1196
705,1711004392553523919,2049,2045,2056,2050,2047,2054,1194
706,1711004392563531034,2068,2058,2046,2057,2065,2052,1198
707,1711004392573530486,2049,2044,2076,2058,2044,2055,1193
708,1711004392583530399,2061,2069,2032,2054,2066,2054,1196
709,1711004392593532505,2054,2052,2064,2057,2049,2057,1196
710,1711004392603528480,2050,2028,2037,2057,2056,2049,1197
711,1711004392613522742,2058,2074,2076,2059,2040,2052,1194
712,1711004392623513617,2060,2059,2037,2057,2067,2054,1193
713,1711004392633523258,2052,2050,2053,2052,2044,2053,1197
714,1711004392643529702,2060,2084,2056,2060,2066,2056,1196
715,1711004392653532451,2064,2059,2073,2053,2046,2052,1197
716,1711004392663526051,2061,2073,2058,2054,2054,2048,1195
717,1711004392673526223,2064,2110,2095,2050,2045,2055,1197
718,1711004392683522469,2056,2049,2035,2060,2061,2050,1197
719,1711004392693521530,2049,2052,2072,2052,2041,2049,1196
720,1711004392703519108,2054,2050,2028,2054,2057,2050,1197
721,1711004392713523829,2044,2030,2070,2045,2041,2049,1196
722,1711004392723517851,2054,2064,2084,2055,2057,2050,1195
723,1711004392733520779,2054,2058,2083,2062,2053,2056,1197
724,1711004392743545538,2058,2056,2037,2064,2079,2052,1197
725,1711004392753514883,2058,2034,2063,2054,2051,2057,1197
726,1711004392763514795,2062,2065,2049,2060,2062,2050,1197
727,1711004392773517011,2050,2051,2066,2053,2045,2054,1196
728,1711004392783517185,2059,2057,2057,2061,2088,2056,1198
729,1711004392793513240,2052,2040,2062,2058,2058,2054,1197
730,1711004392803515316,2046,2031,2033,2055,2053,2048,1194
731,1711004392813521441,2073,2082,2084,2066,2059,2056,1198
732,1711004392823522435,2056,2047,2037,2059,2062,2056,1196
733,1711004392833520654,2052,2061,2073,2054,2060,2056,1200
734,1711004392843521298,2057,2053,2042,2061,2069,2057,1196
735,1711004392853524557,2056,2063,2072,2053,2044,2057,1196
736,1711004392863521193,2059,2067,2050,2058,2056,2053,1195
737,1711004392873524131,2053,2045,2056,2052,2035,2057,1197
738,1711004392883525627,2057,2035,2025,2058,2056,2055,1197
739,1711004392893545717,2059,2056,2060,2060,2050,2055,1195
740,1711004392903535430,2057,2052,2041,2056,2069,2052,1197
741,1711004392913526696,2058,2066,2079,2054,2041,2046,1194
742,1711004392923526899,2051,2053,2045,2057,2061,2052,1196
743,1711004392933527372,2062,2061,2070,2054,2047,2057,1196
744,1711004392943523688,2058,2053,2041,2056,2072,2053,1197
745,1711004392953515626,2049,2041,2060,2066,2073,2061,1196
746,1711004392963523353,2059,2052,2063,2056,2057,2055,1198
747,1711004392973520780,2056,2052,2066,2058,2058,2060,1197
748,1711004392983520703,2056,2054,2045,2059,2086,2050,1195
749,1711004392993522960,2052,2053,2068,2055,2037,2052,1196
750,1711004393003519616,2056,2056,2048,2058,2058,2053,1195
751,1711004393013509289,2059,2065,2078,2055,2044,2056,1195
752,1711004393023509151,2052,2047,2039,2064,2066,2051,1196
753,1711004393033508783,2050,2032,2056,2055,2052,2056,1196
754,1711004393043530637,2061,2031,2028,2061,2078,2058,1197
755,1711004393053525770,2057,2061,2088,2052,2046,2060,1196
756,1711004393063513500,2066,2072,2057,2057,2060,2054,1197
757,1711004393073516227,2062,2069,2064,2048,2031,2050,1196
758,1711004393083513825,2059,2043,2034,2059,2066,2052,1197
759,1711004393093524819,2054,2051,2062,2056,2058,2060,1196
760,1711004393103505344,2056,2056,2035,2062,2061,2052,1196
761,1711004393113515436,2064,2082,2086,2059,2069,2061,1196
762,1711004393123513544,2048,2025,2029,2064,2059,2053,1195
763,1711004393133511664,2056,2040,2096,2064,2050,2056,1196
764,1711004393143514271,2059,2060,2075,2061,2062,2052,1195
765,1711004393153532368,2061,2052,2076,2057,2048,2055,1196
766,1711004393163517562,2052,2037,2024,2055,2056,2049,1196
767,1711004393173507987,2056,2062,2069,2054,2040,2057,1194
768,1711004393183516085,2060,2050,2040,2051,2040,2046,1194
769,1711004393193532869,2056,2068,2053,2053,2036,2051,1196
770,1711004393203556997,2056,2054,2045,2049,2050,2047,1195
771,1711004393213518317,2057,2094,2106,2057,2053,2056,1194
772,1711004393223518129,2054,2047,2040,2057,2064,2054,1197
773,1711004393233516909,2052,2040,2058,2058,2048,2051,1197
774,1711004393243542119,2053,2050,2044,2057,2056,2049,1197
775,1711004393253512566,2063,2046,2049,2054,2048,2056,1195
776,1711004393263520052,2056,2092,2057,2057,2061,2049,1196
777,1711004393273516007,2049,2040,2059,2052,2031,2056,1194
778,1711004393283517632,2056,2070,2065,2064,2084,2060,1198
779,1711004393293515812,2050,2044,2053,2053,2044,2052,1196
780,1711004393303525072,2060,2064,2048,2068,2060,2056,1195
781,1711004393313518372,2053,2057,2072,2059,2056,2060,1197
782,1711004393323524195,2056,2052,2046,2057,2055,2048,1196
783,1711004393333519399,2065,2081,2074,2056,2052,2053,1195
784,1711004393343535402,2058,2120,2065,2058,2058,2046,1192
785,1711004393353528421,2049,2042,2059,2056,2064,2056,1196
786,1711004393363509067,2059,2076,2085,2065,2068,2053,1197
787,1711004393373519469,2052,2047,2057,2056,2048,2057,1195
788,1711004393383515113,2055,2060,2038,2058,2060,2054,1197
789,1711004393393527880,2059,2059,2063,2056,2046,2055,1195
790,1711004393403546328,2051,2027,2024,2063,2067,2053,1196
791,1711004393413516213,2057,2058,2054,2056,2040,2051,1196
792,1711004393423514532,2052,2045,2037,2059,2061,2050,1197
793,1711004393433514474,2050,2053,2062,2050,2046,2059,1197
794,1711004393443562309,2047,2052,2029,2060,2080,2053,1197
795,1711004393453515231,2057,2032,2074,2056,2036,2061,1196
796,1711004393463523980,2055,2034,2040,2053,2056,2049,1198
797,1711004393473513693,2056,2053,2065,2054,2044,2052,1197
798,1711004393483516802,2052,2043,2027,2050,2056,2047,1194
799,1711004393493521864,2064,2064,2106,2074,2082,2057,1196
800,1711004393503523249,2049,2058,2043,2056,2074,2054,1195
801,1711004393513527670,2059,2050,2058,2056,2047,2052,1194
802,1711004393523518315,2050,2033,2034,2059,2064,2056,1196
803,1711004393533521293,2060,2088,2082,2051,2051,2062,1196
804,1711004393543550481,2060,2046,2029,2051,2054,2056,1195
805,1711004393553526828,2053,2040,2050,2057,2056,2058,1197
806,1711004393563518245,2056,2066,2046,2059,2062,2051,1196
807,1711004393573520982,2048,2037,2046,2058,2048,2055,1193
808,1711004393583516306,2064,2046,2056,2049,2045,2052,1194
809,1711004393593525947,2060,2048,2048,2052,2052,2048,1198
810,1711004393603518936,2058,2040,2034,2057,2062,2058,1196
811,1711004393613529769,2047,2017,2049,2049,2042,2056,1196
812,1711004393623516045,2064,2049,2038,2056,2058,2054,1195
813,1711004393633514646,2051,2040,2058,2047,2043,2054,1196
814,1711004393643520169,2056,2054,2064,2056,2061,2053,1194
815,1711004393653546191,2070,2095,2102,2056,2052,2052,1196
816,1711004393663543017,2053,2065,2051,2056,2064,2051,1198
817,1711004393673522491,2047,2053,2064,2054,2045,2052,1196
818,1711004393683514959,2054,2049,2038,2045,2058,2047,1194
819,1711004393693516624,2056,2040,2052,2060,2047,2057,1195
820,1711004393703520544,2064,2062,2045,2062,2064,2057,1195
821,1711004393713516470,2051,2053,2072,2054,2043,2047,1194
822,1711004393723517304,2057,2032,2021,2053,2060,2053,1196
823,1711004393733543486,2053,2068,2083,2062,2061,2056,1198
824,1711004393743540923,2050,2044,2036,2056,2056,2050,1197
825,1711004393753515548,2056,2058,2060,2059,2054,2059,1196
826,1711004393763520930,2058,2044,2037,2057,2051,2054,1197
827,1711004393773523528,2058,2046,2081,2061,2047,2056,1196
828,1711004393783516978,2063,2038,2044,2060,2050,2047,1194
829,1711004393793520708,2054,2073,2089,2053,2044,2057,1194
830,1711004393803525980,2056,2060,2044,2057,2061,2052,1197
831,1711004393813525361,2056,2077,2086,2062,2056,2059,1197
832,1711004393823517629,2059,2072,2036,2043,2056,2050,1198
833,1711004393833518113,2052,2062,2068,2054,2051,2053,1195
834,1711004393843525169,2056,2056,2046,2064,2058,2047,1192
835,1711004393853509982,2057,2056,2064,2050,2036,2046,1194
836,1711004393863524793,2051,2047,2033,2052,2060,2053,1197
837,1711004393873518323,2058,2067,2117,2062,2070,2056,1196
838,1711004393883518045,2058,2057,2052,2058,2060,2054,1196
839,1711004393893518608,2051,2050,2066,2054,2047,2053,1196
840,1711004393903544812,2056,2035,2028,2058,2065,2052,1196
841,1711004393913522171,2065,2076,2081,2066,2066,2053,1194
842,1711004393923519258,2060,2049,2030,2060,2062,2052,1194
843,1711004393933522326,2052,2053,2067,2054,2047,2054,1197
844,1711004393943544261,2053,2041,2029,2053,2060,2052,1196
845,1711004393953525107,2068,2080,2099,2060,2052,2057,1196
846,1711004393963519438,2050,2047,2030,2063,2072,2053,1196
847,1711004393973518879,2054,2052,2065,2055,2051,2061,1195
848,1711004393983519353,2054,2084,2042,2054,2061,2048,1197
849,1711004393993527381,2069,2115,2112,2058,2046,2058,1197
850,1711004394003525179,2048,2035,2049,2047,2068,2053,1196
851,1711004394013517296,2047,2056,2080,2058,2048,2058,1196
852,1711004394023512911,2056,2056,2043,2058,2056,2052,1196
853,1711004394033513495,2056,2068,2078,2054,2040,2054,1197
854,1711004394043536450,2064,2076,2041,2063,2077,2052,1198
855,1711004394053528978,2050,2049,2084,2052,2044,2064,1196
856,1711004394063506779,2060,2053,2040,2060,2058,2052,1197
857,1711004394073516280,2052,2053,2060,2054,2046,2062,1198
858,1711004394083519228,2053,2042,2026,2058,2058,2055,1195
859,1711004394093517076,2049,2030,2039,2040,2021,2041,1196
860,1711004394103511538,2052,2049,2063,2061,2064,2053,1197
861,1711004394113511060,2055,2100,2070,2048,2047,2047,1194
862,1711004394123508958,2056,2053,2048,2056,2068,2053,1197
863,1711004394133517447,2045,2046,2063,2053,2057,2054,1198
864,1711004394143533339,2061,2073,2071,2050,2061,2050,1197
865,1711004394153513894,2050,2048,2058,2059,2070,2056,1197
866,1711004394163522184,2056,2041,2034,2062,2062,2050,1196
867,1711004394173522406,2037,2021,2038,2052,2047,2056,1195
868,1711004394183518511,2057,2053,2040,2062,2068,2046,1192
869,1711004394193519996,2049,2031,2052,2060,2048,2064,1197
870,1711004394203540168,2065,2064,2057,2061,2053,2051,1197
871,1711004394213518439,2048,2042,2060,2054,2045,2054,1196
872,1711004394223517730,2053,2054,2042,2042,2035,2046,1194
873,1711004394233520918,2055,2050,2064,2046,2029,2045,1194
874,1711004394243521080,2057,2053,2039,2065,2079,2054,1196
875,1711004394253516675,2056,2049,2062,2037,2023,2048,1197
876,1711004394263515696,2065,2052,2046,2049,2050,2051,1196
877,1711004394273518183,2044,2044,2077,2033,2036,2049,1197
878,1711004394283516552,2061,2085,2084,2068,2060,2057,1197
879,1711004394293519450,2060,2077,2081,2056,2047,2055,1196
880,1711004394303519824,2052,2045,2040,2062,2074,2052,1197
881,1711004394313527701,2053,2047,2060,2058,2050,2060,1197
882,1711004394323528104,2056,2053,2040,2060,2062,2058,1197
883,1711004394333528146,2044,2051,2059,2051,2032,2051,1195
884,1711004394343540353,2072,2071,2072,2062,2060,2055,1197
885,1711004394353522701,2047,2045,2056,2053,2045,2055,1195
886,1711004394363509990,2063,2056,2031,2063,2064,2056,1196
887,1711004394373517736,2056,2040,2065,2057,2038,2052,1197
888,1711004394383517037,2061,2072,2063,2063,2064,2057,1196
889,1711004394393523223,2056,2044,2061,2056,2043,2052,1197
890,1711004394403532242,2057,2056,2060,2050,2040,2049,1194
891,1711004394413520412,2056,2052,2017,2051,2038,2059,1196
892,1711004394423518140,2060,2064,2046,2056,2053,2048,1195
893,1711004394433518073,2051,2046,2044,2051,2076,2059,1196
894,1711004394443520169,2054,2076,2069,2062,2068,2050,1196
895,1711004394453522977,2049,2034,2060,2050,2029,2056,1196
896,1711004394463519001,2061,2046,2029,2059,2074,2054,1198
897,1711004394473519465,2052,2050,2052,2065,2053,2057,1196
898,1711004394483535087,2060,2068,2068,2060,2073,2056,1197
899,1711004394493529349,2044,2030,2050,2044,2029,2046,1193
900,1711004394503529311,2065,2066,2058,2061,2064,2056,1197
901,1711004394513525676,2053,2057,2094,2061,2052,2057,1198
902,1711004394523523586,2048,2046,2037,2056,2046,2042,1194
903,1711004394533524039,2053,2054,2054,2049,2048,2053,1197
904,1711004394543532467,2062,2070,2082,2061,2065,2053,1196
905,1711004394553519024,2053,2060,2068,2060,2055,2058,1194
906,1711004394563532482,2056,2074,2041,2047,2058,2051,1195
907,1711004394573524780,2049,2042,2060,2056,2051,2059,1194
908,1711004394583525684,2054,2027,2059,2052,2055,2053,1197
909,1711004394593535154,2053,2038,2044,2058,2066,2057,1195
910,1711004394603524476,2057,2057,2057,2060,2061,2057,1196
911,1711004394613523778,2049,2047,2058,2046,2040,2050,1197
912,1711004394623524632,2049,2058,2040,2056,2050,2047,1194
913,1711004394633524995,2060,2078,2101,2053,2041,2054,1195
914,1711004394643524687,2061,2054,2047,2056,2052,2053,1193
915,1711004394653522465,2056,2054,2067,2050,2051,2054,1195
916,1711004394663524111,2054,2050,2045,2052,2052,2048,1195
917,1711004394673528291,2056,2039,2066,2057,2048,2057,1196
918,1711004394683547320,2057,2058,2048,2054,2024,2050,1196
919,1711004394693529809,2052,2055,2088,2064,2054,2057,1197
920,1711004394703532287,2058,2067,2045,2061,2058,2056,1194
921,1711004394713535475,2040,2016,2022,2052,2045,2045,1193
922,1711004394723531580,2066,2067,2053,2060,2066,2057,1196
923,1711004394733531542,2054,2063,2082,2054,2057,2056,1196
924,1711004394743532506,2062,2056,2049,2056,2056,2053,1195
925,1711004394753545955,2051,2053,2074,2056,2053,2056,1195
926,1711004394763535488,2059,2056,2045,2056,2055,2056,1195
927,1711004394773534137,2053,2056,2062,2057,2051,2053,1194
928,1711004394783516967,2055,2088,2047,2037,2038,2047,1194
929,1711004394793572074,2050,2036,2081,2068,2045,2059,1197
930,1711004394803492326,2059,2048,2053,2057,2053,2060,1196
931,1711004394813514901,2048,2094,2114,2057,2040,2054,1197
932,1711004394823508721,2060,2048,2045,2060,2068,2056,1196
933,1711004394833510387,2046,2039,2054,2056,2057,2057,1195
934,1711004394843517063,2059,2062,2045,2052,2049,2062,1197
935,1711004394853537183,2052,2073,2058,2050,2044,2053,1196
936,1711004394863511476,2056,2041,2022,2061,2061,2054,1193
937,1711004394873516649,2057,2075,2058,2054,2042,2060,1196
938,1711004394883521961,2056,2056,2072,2061,2056,2050,1196
939,1711004394893521213,2056,2063,2085,2054,2052,2057,1197
940,1711004394903522497,2059,2059,2056,2060,2065,2056,1194
941,1711004394913541326,2054,2052,2053,2056,2040,2057,1194
942,1711004394923514627,2058,2059,2052,2058,2059,2052,1196
943,1711004394933515011,2050,2033,2079,2057,2054,2055,1198
944,1711004394943521826,2054,2034,2032,2061,2058,2051,1196
945,1711004394953541005,2048,2040,2060,2057,2038,2043,1193
946,1711004394963513415,2061,2055,2054,2060,2066,2045,1195
947,1711004394973521763,2058,2067,2108,2066,2059,2057,1192
948,1711004394983520003,2053,2051,2051,2058,2045,2054,1194
949,1711004394993521057,2053,2044,2050,2053,2047,2056,1196
950,1711004395003523674,2053,2047,2040,2048,2046,2048,1195
951,1711004395013520661,2061,2028,2062,2061,2049,2057,1197
952,1711004395023515624,2062,2058,2054,2052,2047,2050,1197
953,1711004395033517851,2053,2060,2047,2038,2020,2050,1199
954,1711004395043525328,2064,2051,2043,2064,2072,2050,1195
955,1711004395053533465,2053,2062,2082,2050,2044,2053,1196
956,1711004395063520162,2050,2044,2057,2054,2045,2045,1193
957,1711004395073514644,2058,2056,2071,2067,2075,2061,1197
958,1711004395083519206,2053,2044,2041,2052,2050,2048,1198
959,1711004395093518176,2056,2053,2063,2059,2075,2051,1196
960,1711004395103522577,2050,2038,2032,2056,2058,2058,1194
961,1711004395113512670,2053,2061,2061,2057,2047,2056,1196
962,1711004395123518243,2055,2048,2047,2064,2056,2056,1196
963,1711004395133522554,2056,2040,2064,2054,2047,2056,1196
964,1711004395143524100,2064,2040,2043,2065,2044,2050,1195
965,1711004395153519624,2053,2047,2045,2053,2043,2050,1197
966,1711004395163516159,2057,2071,2069,2069,2076,2058,1196
967,1711004395173527884,2063,2072,2068,2060,2067,2054,1192
968,1711004395183518298,2058,2053,2038,2060,2046,2057,1194
969,1711004395193519704,2056,2080,2078,2049,2037,2049,1194
970,1711004395203534795,2054,2083,2058,2063,2060,2052,1196
971,1711004395213519117,2056,2059,2078,2052,2044,2056,1197
972,1711004395223520742,2061,2058,2047,2058,2058,2056,1197
973,1711004395233520254,2052,2059,2089,2050,2029,2056,1196
974,1711004395243520597,2059,2089,2064,2058,2070,2053,1194
975,1711004395253517254,2049,2033,2046,2052,2047,2053,1194
976,1711004395263518097,2058,2051,2046,2056,2044,2052,1196
977,1711004395273515074,2051,2045,2056,2056,2045,2054,1197
978,1711004395283513954,2056,2066,2050,2058,2049,2053,1198
979,1711004395293516161,2049,2038,2048,2061,2058,2057,1197
980,1711004395303529038,2060,2056,2038,2058,2058,2057,1196
981,1711004395313533309,2048,2057,2053,2051,2044,2054,1196
982,1711004395323519104,2054,2057,2027,2064,2063,2056,1197
983,1711004395333517523,2055,2082,2083,2054,2056,2052,1196
984,1711004395343545529,2052,2046,2047,2055,2065,2051,1198
985,1711004395353511386,2056,2050,2056,2063,2063,2056,1197
986,1711004395363521338,2053,2052,2042,2045,2054,2046,1195
987,1711004395373519046,2056,2054,2068,2056,2047,2058,1194
988,1711004395383520601,2067,2082,2069,2064,2068,2054,1198
989,1711004395393518740,2058,2059,2053,2056,2032,2056,1195
990,1711004395403517650,2056,2048,2040,2058,2058,2054,1194
991,1711004395413528965,2052,2060,2054,2048,2035,2052,1195
992,1711004395423519269,2049,2021,2013,2043,2048,2049,1196
993,1711004395433517097,2057,2059,2056,2062,2068,2059,1193
994,1711004395443538460,2062,2085,2080,2056,2057,2053,1196
995,1711004395453528623,2056,2048,2056,2057,2053,2060,1196
996,1711004395463506864,2057,2057,2056,2070,2076,2066,1198
997,1711004395473519882,2053,2054,2060,2056,2048,2049,1197
998,1711004395483520345,2056,2045,2034,2066,2085,2056,1198
999,1711004395493520768,2050,2041,2052,2050,2036,2053,1197
1000,1711004395503515982,2061,2037,2018,2059,2054,2053,1197
1001,1711004395513520172,2061,2114,2114,2060,2053,2056,1196
1002,1711004395523518903,2054,2051,2040,2056,2057,2052,1196
1003,1711004395533519145,2061,2057,2058,2054,2036,2050,1194
1004,1711004395543523686,2056,2045,2035,2061,2059,2058,1196
1005,1711004395553525783,2056,2062,2074,2056,2036,2056,1196
1006,1711004395563509524,2055,2054,2085,2060,2059,2060,1196
1007,1711004395573520848,2057,2051,2056,2056,2043,2051,1193
1008,1711004395583552050,2044,2028,2042,2042,2056,2050,1195
1009,1711004395593557783,2058,2056,2082,2047,2036,2050,1194
1010,1711004395603542056,2056,2066,2052,2059,2064,2054,1195
1011,1711004395613524655,2050,2048,2056,2060,2050,2053,1196
1012,1711004395623531260,2055,2052,2060,2066,2076,2064,1196
1013,1711004395633535370,2056,2066,2069,2056,2043,2054,1197
1014,1711004395643604765,2056,2088,2067,2058,2054,2057,1195
1015,1711004395653556145,2056,2041,2054,2052,2045,2050,1197
1016,1711004395663533995,2056,2059,2050,2060,2090,2056,1198
1017,1711004395673524820,2059,2057,2053,2049,2065,2054,1196
1018,1711004395683519642,2061,2053,2040,2056,2056,2056,1197
1019,1711004395693528673,2050,2047,2049,2053,2051,2052,1196
1020,1711004395703526601,2061,2046,2042,2057,2059,2053,1196
1021,1711004395713517466,2057,2052,2061,2056,2052,2057,1198
1022,1711004395723515875,2058,2097,2073,2054,2052,2056,1195
1023,1711004395733516719,2060,2053,2100,2058,2043,2061,1196
1024,1711004395743530238,2060,2067,2049,2057,2062,2053,1195
1025,1711004395753521223,2053,2045,2050,2056,2051,2050,1194
1026,1711004395763533609,2059,2048,2040,2058,2060,2053,1196
1027,1711004395773543590,2063,2081,2074,2058,2047,2054,1193
1028,1711004395783521260,2054,2042,2068,2058,2058,2050,1196
1029,1711004395793520952,2052,2051,2056,2061,2060,2059,1194
1030,1711004395803549750,2064,2123,2087,2059,2054,2053,1192
1031,1711004395813520176,2051,2033,2052,2055,2042,2056,1195
1032,1711004395823528153,2064,2039,2026,2053,2072,2048,1196
1033,1711004395833524999,2052,2049,2047,2051,2041,2053,1196
1034,1711004395843544499,2056,2064,2058,2057,2059,2054,1194
1035,1711004395853528982,2053,2058,2056,2054,2050,2054,1194
1036,1711004395863517282,2058,2053,2052,2056,2049,2053,1196
1037,1711004395873533606,2047,2046,2060,2055,2057,2050,1197
1038,1711004395883528548,2049,2056,2057,2050,2047,2048,1197
1039,1711004395893528621,2045,2033,2027,2056,2053,2057,1197
1040,1711004395903554272,2056,2044,2038,2056,2056,2055,1195
1041,1711004395913542282,2048,2051,2045,2056,2041,2054,1196
1042,1711004395923530662,2058,2058,2049,2060,2063,2056,1198
1043,1711004395933527258,2056,2061,2065,2057,2041,2050,1196
1044,1711004395943545174,2058,2046,2040,2055,2045,2053,1197
1045,1711004395953538013,2052,2057,2056,2056,2053,2057,1195
1046,1711004395963525662,2059,2056,2053,2060,2056,2056,1196
1047,1711004395973518301,2058,2034,2030,2056,2048,2056,1197
1048,1711004395983511741,2056,2041,2065,2059,2066,2053,1196
1049,1711004395993511753,2052,2067,2059,2055,2044,2051,1195
1050,1711004396003518939,2049,2029,2034,2062,2076,2056,1195
1051,1711004396013533679,2059,2052,2057,2047,2043,2053,1194
1052,1711004396023515027,2057,2056,2071,2059,2052,2053,1197
1053,1711004396033517324,2054,2062,2057,2062,2060,2059,1194
1054,1711004396043517126,2056,2049,2044,2052,2051,2047,1194
1055,1711004396053553557,2062,2062,2065,2057,2047,2054,1196
1056,1711004396063546426,2052,2015,2028,2053,2060,2053,1196
1057,1711004396073524356,2060,2049,2056,2057,2055,2055,1198
1058,1711004396083528065,2058,2078,2068,2051,2046,2052,1196
1059,1711004396093515124,2051,2045,2085,2051,2038,2053,1195
1060,1711004396103543440,2053,2047,2039,2060,2060,2053,1197
1061,1711004396113519888,2056,2053,2068,2054,2047,2056,1198
1062,1711004396123518317,2051,2060,2047,2048,2051,2050,1196
1063,1711004396133518630,2056,2046,2036,2049,2033,2049,1198
1064,1711004396143517510,2053,2034,2033,2066,2082,2051,1197
1065,1711004396153519686,2059,2060,2078,2052,2043,2052,1197
1066,1711004396163512255,2053,2052,2044,2057,2065,2047,1193
1067,1711004396173522277,2052,2037,2053,2065,2047,2053,1195
1068,1711004396183517730,2058,2046,2048,2061,2066,2056,1195
1069,1711004396193515819,2053,2051,2040,2059,2065,2059,1197
1070,1711004396203529147,2061,2082,2054,2056,2053,2056,1196
1071,1711004396213534509,2048,2050,2044,2044,2048,2052,1198
1072,1711004396223521817,2060,2050,2044,2061,2074,2053,1196
1073,1711004396233517261,2057,2047,2056,2050,2034,2056,1197
1074,1711004396243518547,2054,2049,2043,2053,2056,2056,1198
1075,1711004396253547704,2052,2051,2044,2054,2052,2056,1197
1076,1711004396263515776,2056,2060,2044,2066,2061,2054,1196
1077,1711004396273521669,2047,2006,2024,2058,2048,2053,1198
1078,1711004396283521782,2064,2039,2050,2062,2068,2058,1200
1079,1711004396293522826,2046,2037,2048,2054,2044,2049,1198
1080,1711004396303538758,2064,2060,2052,2065,2066,2050,1196
1081,1711004396313521850,2050,2055,2076,2056,2073,2053,1196
1082,1711004396323518596,2065,2080,2060,2056,2054,2053,1194
1083,1711004396333517596,2051,2050,2057,2060,2069,2052,1196
1084,1711004396343517368,2056,2052,2045,2057,2053,2051,1194
1085,1711004396353530104,2050,2040,2046,2050,2036,2053,1194
1086,1711004396363515018,2064,2098,2069,2057,2054,2053,1196
1087,1711004396373523647,2044,2056,2060,2052,2052,2052,1194
1088,1711004396383521636,2054,2048,2045,2056,2058,2054,1193
1089,1711004396393522039,2056,2061,2063,2050,2045,2058,1196
1090,1711004396403525317,2047,2047,2047,2062,2048,2051,1197
1091,1711004396413523286,2052,2056,2061,2057,2049,2056,1195
1092,1711004396423521785,2057,2067,2066,2060,2062,2053,1196
1093,1711004396433519713,2052,2088,2073,2054,2046,2056,1197
1094,1711004396443534885,2056,2040,2024,2056,2058,2051,1194
1095,1711004396453521012,2057,2053,2059,2057,2052,2061,1194
1096,1711004396463513930,2057,2062,2075,2064,2054,2049,1197
1097,1711004396473523391,2056,2060,2058,2058,2037,2057,1197
1098,1711004396483515027,2055,2049,2032,2050,2020,2045,1193
1099,1711004396493515981,2062,2065,2053,2053,2048,2054,1196
1100,1711004396503526052,2053,2039,2045,2054,2058,2056,1196
1101,1711004396513516276,2049,2043,2053,2054,2047,2051,1196
1102,1711004396523519676,2053,2053,2041,2056,2058,2051,1195
1103,1711004396533518456,2060,2061,2058,2052,2034,2056,1194
1104,1711004396543524900,2060,2046,2044,2054,2060,2056,1196
1105,1711004396553517218,2055,2056,2058,2049,2042,2053,1197
1106,1711004396563513212,2049,2068,2049,2053,2068,2053,1196
1107,1711004396573519477,2052,2047,2047,2051,2047,2053,1195
1108,1711004396583514740,2057,2081,2053,2053,2053,2052,1196
1109,1711004396593519142,2056,2064,2088,2057,2052,2060,1197
1110,1711004396603517691,2054,2098,2073,2056,2080,2057,1196
1111,1711004396613516271,2050,2037,2045,2052,2041,2053,1198
1112,1711004396623516433,2060,2069,2064,2059,2062,2056,1196
1113,1711004396633516616,2056,2056,2056,2054,2040,2057,1195
1114,1711004396643524643,2057,2057,2068,2059,2066,2060,1195
1115,1711004396653519836,2056,2048,2064,2056,2049,2054,1196
1116,1711004396663512025,2053,2057,2040,2053,2057,2052,1196
1117,1711004396673515063,2054,2052,2039,2060,2089,2061,1196
1118,1711004396683513312,2052,2045,2046,2057,2054,2052,1198
1119,1711004396693525647,2058,2046,2064,2056,2051,2053,1196
1120,1711004396703516793,2060,2048,2040,2052,2042,2056,1198
1121,1711004396713518979,2054,2045,2064,2058,2057,2056,1195
1122,1711004396723512900,2062,2064,2060,2058,2054,2053,1197
1123,1711004396733514737,2050,2046,2058,2056,2049,2053,1196
1124,1711004396743516031,2068,2058,2069,2061,2061,2056,1197
1125,1711004396753524870,2058,2090,2110,2064,2066,2060,1195
1126,1711004396763511447,2056,2050,2044,2057,2058,2052,1197
1127,1711004396773509045,2054,2046,2067,2047,2038,2050,1194
1128,1711004396783514337,2057,2032,2031,2064,2056,2056,1197
1129,1711004396793517656,2064,2059,2055,2058,2054,2057,1198
1130,1711004396803522689,2056,2056,2044,2064,2067,2053,1195
1131,1711004396813507532,2053,2053,2060,2053,2046,2053,1196
1132,1711004396823524507,2056,2055,2050,2057,2047,2047,1193
1133,1711004396833514339,2058,2057,2076,2064,2056,2052,1196
1134,1711004396843513811,2071,2129,2097,2066,2086,2058,1197
1135,1711004396853528270,2052,2061,2084,2050,2052,2056,1198
1136,1711004396863521430,2053,2066,2060,2061,2065,2052,1197
1137,1711004396873521022,2053,2047,2054,2057,2053,2054,1195
1138,1711004396883516766,2051,2058,2041,2056,2054,2052,1198
1139,1711004396893516238,2061,2057,2062,2056,2056,2053,1197
1140,1711004396903534224,2060,2083,2068,2050,2056,2050,1197
1141,1711004396913514890,2053,2053,2065,2056,2047,2053,1195
1142,1711004396923517507,2054,2047,2052,2064,2065,2060,1196
1143,1711004396933515675,2056,2063,2061,2056,2036,2050,1195
1144,1711004396943517923,2065,2068,2052,2061,2056,2052,1195
1145,1711004396953531702,2043,2050,2053,2050,2040,2050,1196
1146,1711004396963520302,2064,2070,2056,2055,2054,2054,1196
1147,1711004396973526246,2052,2075,2079,2054,2047,2047,1193
1148,1711004396983473908,2069,2066,2046,2056,2052,2052,1198
1149,1711004396993515430,2051,2038,2045,2046,2045,2049,1196
1150,1711004397003526533,2060,2060,2073,2064,2064,2056,1196
1151,1711004397013518681,2056,2059,2068,2062,2066,2049,1195
1152,1711004397023517311,2052,2042,2033,2059,2052,2051,1194
1153,1711004397033519888,2057,2066,2060,2058,2068,2058,1195
1154,1711004397043533657,2052,2016,2045,2056,2058,2048,1196
1155,1711004397053552324,2065,2048,2042,2056,2048,2058,1195
1156,1711004397064427781,2050,2044,2020,2048,2042,2054,1196
1157,1711004397073517192,2052,2049,2047,2050,2044,2056,1196
1158,1711004397083526542,2053,2047,2053,2053,2052,2055,1196
1159,1711004397093523589,2060,2061,2072,2056,2056,2056,1195
1160,1711004397103523040,2056,2044,2047,2061,2074,2057,1196
1161,1711004397113537791,2052,2055,2059,2053,2050,2050,1196
1162,1711004397123522464,2061,2053,2050,2061,2057,2057,1196
1163,1711004397133521505,2050,2046,2056,2049,2045,2053,1196
1164,1711004397143535764,2056,2036,2036,2049,2040,2053,1197
1165,1711004397153525437,2056,2056,2047,2052,2045,2052,1196
1166,1711004397163518255,2058,2056,2049,2064,2052,2051,1195
1167,1711004397173519430,2050,2047,2056,2054,2050,2051,1194
1168,1711004397183517729,2064,2073,2060,2066,2058,2059,1196
1169,1711004397193521518,2053,2076,2068,2055,2039,2046,1194
1170,1711004397203537751,2060,2072,2060,2060,2056,2054,1196
1171,1711004397213522445,2056,2053,2065,2059,2050,2054,1198
1172,1711004397223518901,2060,2064,2058,2057,2066,2056,1196
1173,1711004397233517501,2052,2064,2062,2049,2041,2048,1196
1174,1711004397243527882,2055,2053,2053,2050,2056,2056,1194
1175,1711004397253530720,2043,2030,2031,2053,2050,2052,1193
1176,1711004397263517267,2064,2056,2070,2060,2050,2054,1194
1177,1711004397273513231,2057,2045,2061,2052,2046,2049,1195
1178,1711004397283529775,2054,2054,2050,2062,2061,2057,1196
1179,1711004397293526611,2050,2025,2044,2057,2047,2053,1196
1180,1711004397303522617,2064,2064,2044,2061,2057,2056,1196
1181,1711004397313517600,2051,2048,2045,2055,2050,2052,1198
1182,1711004397323515288,2058,2058,2073,2054,2058,2054,1195
1183,1711004397333515330,2054,2052,2044,2050,2036,2050,1193
1184,1711004397343529509,2054,2029,2039,2055,2047,2056,1195
1185,1711004397353529431,2053,2047,2051,2049,2055,2054,1193
1186,1711004397363519515,2051,2065,2054,2053,2042,2052,1195
1187,1711004397373518425,2057,2053,2064,2052,2051,2050,1194
1188,1711004397383519008,2059,2051,2049,2054,2049,2052,1196
1189,1711004397393520183,2054,2051,2049,2059,2064,2055,1198
1190,1711004397403515798,2064,2076,2097,2054,2056,2054,1197
1191,1711004397413519507,2055,2027,2040,2059,2052,2052,1195
1192,1711004397423519198,2060,2072,2046,2060,2058,2056,1196
1193,1711004397433519561,2056,2045,2056,2058,2047,2056,1194
1194,1711004397443527479,2045,2045,2052,2061,2056,2052,1195
1195,1711004397453518364,2053,2052,2053,2048,2078,2058,1197
1196,1711004397463528114,2053,2055,2061,2051,2056,2052,1194
1197,1711004397473521925,2053,2048,2046,2053,2052,2053,1194
1198,1711004397483521857,2060,2043,2057,2063,2075,2058,1196
1199,1711004397493523051,2054,2061,2088,2060,2052,2050,1194
1200,1711004397503527573,2056,2066,2074,2062,2064,2056,1197
1201,1711004397513531974,2057,2080,2071,2056,2056,2054,1195
1202,1711004397523525704,2061,2073,2049,2061,2053,2057,1196
1203,1711004397533526147,2046,2040,2047,2044,2039,2053,1196
1204,1711004397543537121,2056,2057,2064,2060,2069,2056,1196
1205,1711004397553520461,2051,2042,2054,2049,2054,2041,1193
1206,1711004397563526084,2052,2041,2043,2052,2052,2056,1196
1207,1711004397573525425,2052,2042,2045,2056,2049,2054,1195
1208,1711004397583528182,2059,2068,2064,2054,2057,2056,1196
1209,1711004397593528516,2051,2054,2059,2049,2047,2054,1196
1210,1711004397603526675,2053,2042,2043,2054,2045,2053,1195
1211,1711004397613529403,2058,2053,2050,2056,2044,2051,1196
1212,1711004397623529645,2055,2055,2042,2059,2095,2056,1197
1213,1711004397633511954,2062,2072,2075,2053,2056,2052,1195
1214,1711004397643543877,2056,2056,2052,2062,2056,2053,1197
1215,1711004397653530323,2052,2067,2057,2056,2050,2057,1198
1216,1711004397663511349,2052,2034,2058,2048,2033,2054,1197
1217,1711004397673531400,2053,2044,2047,2050,2049,2049,1197
1218,1711004397683531091,2057,2057,2052,2056,2055,2054,1197
1219,1711004397693553457,2057,2078,2080,2058,2066,2057,1195
1220,1711004397703532650,2061,2064,2090,2053,2056,2058,1196
1221,1711004397713532642,2050,2034,2052,2050,2044,2053,1194
1222,1711004397723515021,2060,2054,2052,2064,2061,2057,1196
1223,1711004397733516436,2057,2047,2056,2044,2036,2050,1194
1224,1711004397743547357,2053,2057,2041,2053,2046,2040,1193
1225,1711004397753512443,2056,2042,2059,2057,2052,2053,1195
1226,1711004397763532493,2059,2065,2051,2053,2046,2052,1195
1227,1711004397773518870,2058,2064,2063,2060,2074,2056,1194
1228,1711004397783516267,2062,2060,2064,2061,2055,2056,1196
1229,1711004397793518484,2057,2086,2069,2057,2048,2052,1197
1230,1711004397803539406,2052,2050,2041,2052,2056,2054,1195
1231,1711004397813516585,2059,2038,2046,2052,2056,2050,1196
1232,1711004397823517479,2052,2042,2074,2056,2061,2052,1197
1233,1711004397833518904,2053,2047,2049,2053,2063,2056,1195
1234,1711004397843521311,2056,2056,2045,2056,2045,2053,1195
1235,1711004397853542503,2045,2036,2054,2051,2057,2052,1195
1236,1711004397863539770,2058,2040,2058,2061,2062,2062,1194
1237,1711004397873520767,2053,2046,2057,2048,2041,2053,1197
1238,1711004397883520969,2057,2072,2052,2057,2058,2054,1197
1239,1711004397893526874,2053,2049,2049,2052,2047,2052,1196
1240,1711004397903520173,2053,2041,2052,2057,2047,2059,1194
1241,1711004397913545784,2063,2048,2058,2044,2037,2048,1195
1242,1711004397923520118,2057,2065,2065,2060,2060,2053,1197
1243,1711004397933520340,2056,2052,2041,2058,2068,2059,1196
1244,1711004397943529089,2062,2124,2089,2062,2052,2059,1195
1245,1711004397953550833,2050,2051,2048,2050,2045,2053,1194
1246,1711004397963514947,2059,2047,2056,2059,2070,2056,1196
1247,1711004397973522383,2056,2043,2055,2056,2060,2058,1193
1248,1711004397983519941,2052,2067,2085,2055,2038,2056,1195
1249,1711004397993551825,2050,2050,2049,2054,2057,2056,1196
1250,1711004398003523373,2056,2061,2052,2060,2049,2048,1193
1251,1711004398013516462,2054,2072,2047,2052,2049,2047,1193
1252,1711004398023515933,2055,2046,2048,2057,2055,2057,1194
1253,1711004398033516256,2056,2052,2053,2050,2068,2056,1196
1254,1711004398043528992,2062,2067,2063,2059,2053,2054,1195
1255,1711004398054146900,2052,2037,2049,2050,2035,2053,1194
1256,1711004398063521312,2056,2042,2052,2068,2073,2059,1194
1257,1711004398073521044,2050,2043,2052,2062,2040,2053,1196
1258,1711004398083517810,2062,2077,2074,2057,2037,2052,1198
1259,1711004398093525427,2052,2046,2054,2057,2056,2053,1196
1260,1711004398103519388,2056,2069,2063,2056,2043,2052,1194
1261,1711004398113521374,2058,2037,2056,2053,2064,2056,1195
1262,1711004398123519122,2047,2037,2045,2055,2042,2047,1195
1263,1711004398133522241,2058,2051,2045,2063,2056,2058,1194
1264,1711004398143532693,2058,2051,2041,2064,2076,2056,1196
1265,1711004398153527626,2053,2047,2062,2050,2020,2050,1196
1266,1711004398163521266,2056,2053,2078,2060,2044,2052,1194
1267,1711004398173518653,2054,2088,2068,2053,2056,2057,1192
1268,1711004398183521040,2051,2041,2045,2052,2051,2054,1196
1269,1711004398193522004,2060,2087,2084,2061,2056,2048,1197
1270,1711004398203520964,2045,2059,2051,2055,2051,2053,1196
1271,1711004398213520245,2060,2064,2069,2053,2048,2056,1195
1272,1711004398223518684,2058,2061,2055,2053,2053,2051,1195
1273,1711004398233521201,2063,2056,2063,2054,2045,2057,1195
1274,1711004398243521163,2052,2035,2043,2050,2058,2052,1195
1275,1711004398253519483,2053,2045,2072,2056,2047,2048,1195
1276,1711004398263521569,2055,2045,2037,2053,2044,2048,1195
1277,1711004398273516141,2057,2064,2059,2054,2052,2054,1197
1278,1711004398283513970,2052,2041,2039,2054,2053,2057,1196
1279,1711004398293543158,2053,2052,2047,2054,2052,2054,1195
1280,1711004398303534694,2059,2065,2056,2049,2045,2059,1196
1281,1711004398313529276,2047,2058,2061,2052,2049,2052,1196
1282,1711004398323519990,2059,2058,2048,2064,2061,2057,1196
1283,1711004398333518440,2056,2055,2042,2056,2057,2049,1196
1284,1711004398343520335,2057,2055,2051,2056,2055,2056,1197
1285,1711004398353532010,2053,2054,2053,2058,2056,2056,1198
1286,1711004398363554866,2058,2096,2074,2065,2086,2060,1195
1287,1711004398373519961,2060,2060,2042,2054,2039,2050,1195
1288,1711004398383519503,2056,2090,2062,2058,2055,2052,1196
1289,1711004398393517982,2052,2050,2058,2053,2053,2056,1195
1290,1711004398403522503,2058,2050,2056,2056,2064,2056,1195
1291,1711004398413518548,2054,2092,2065,2054,2050,2053,1196
1292,1711004398423518971,2051,2059,2060,2052,2042,2052,1196
1293,1711004398433519324,2059,2081,2103,2060,2056,2060,1197
1294,1711004398443536049,2062,2052,2046,2061,2053,2054,1197
1295,1711004398453531282,2053,2060,2057,2056,2052,2045,1194
1296,1711004398463517999,2060,2061,2068,2057,2050,2053,1195
1297,1711004398473516859,2054,2044,2056,2056,2055,2056,1195
1298,1711004398483515679,2059,2084,2076,2059,2041,2056,1197
1299,1711004398493545738,2047,2049,2047,2058,2055,2054,1196
1300,1711004398503528027,2056,2056,2052,2058,2052,2056,1195
1301,1711004398513519663,2054,2026,2041,2052,2049,2055,1195
1302,1711004398523515818,2053,2031,2046,2060,2053,2053,1196
1303,1711004398533517173,2051,2045,2045,2053,2050,2048,1195
1304,1711004398543500644,2069,2089,2092,2060,2055,2056,1197
1305,1711004398553513280,2051,2055,2065,2056,2047,2053,1196
1306,1711004398563523832,2055,2066,2051,2065,2053,2053,1198
1307,1711004398573513946,2054,2050,2052,2050,2060,2056,1195
1308,1711004398583513848,2056,2078,2080,2058,2057,2056,1194
1309,1711004398593522357,2054,2068,2065,2058,2048,2054,1198
1310,1711004398603511920,2056,2050,2053,2060,2058,2056,1196
1311,1711004398613518354,2056,2046,2056,2056,2048,2054,1195
1312,1711004398623518687,2067,2073,2081,2058,2060,2056,1195
1313,1711004398633520232,2047,2046,2045,2053,2055,2051,1194
1314,1711004398643523891,2050,2036,2041,2054,2050,2053,1197
1315,1711004398653517421,2057,2064,2065,2047,2043,2052,1196
1316,1711004398663520500,2058,2065,2090,2052,2047,2050,1195
1317,1711004398673518278,2057,2044,2068,2053,2059,2052,1198
1318,1711004398683518270,2059,2058,2056,2062,2054,2054,1196
1319,1711004398693536958,2064,2116,2084,2058,2054,2059,1197
1320,1711004398703515579,2053,2045,2050,2052,2066,2052,1197
1321,1711004398713520901,2048,2053,2076,2057,2054,2050,1196
1322,1711004398723545500,2058,2040,2064,2052,2051,2053,1196
1323,1711004398733520295,2050,2044,2045,2052,2047,2054,1197
1324,1711004398744134334,2057,2049,2061,2056,2057,2056,1195
1325,1711004398753536251,2054,2078,2054,2059,2073,2058,1197
1326,1711004398763536443,2056,2061,2079,2057,2054,2052,1195
1327,1711004398773521076,2048,2040,2041,2051,2056,2053,1195
1328,1711004398783521329,2056,2054,2056,2061,2063,2056,1196
1329,1711004398793523035,2057,2045,2053,2052,2059,2054,1198
1330,1711004398803530601,2060,2056,2057,2058,2050,2053,1196
1331,1711004398813522969,2050,2047,2082,2069,2052,2057,1193
1332,1711004398823525125,2060,2056,2060,2056,2050,2054,1197
1333,1711004398833525288,2054,2034,2037,2052,2053,2053,1196
1334,1711004398843549837,2062,2048,2072,2057,2054,2058,1198
1335,1711004398853533237,2058,2061,2069,2064,2064,2051,1194
1336,1711004398863525896,2056,2054,2080,2058,2052,2053,1196
1337,1711004398873525768,2060,2055,2046,2052,2045,2052,1197
1338,1711004398883527082,2058,2053,2054,2058,2052,2056,1195
1339,1711004398893527606,2054,2059,2045,2049,2047,2052,1196
1340,1711004398903532217,2048,2049,2056,2057,2053,2053,1195
1341,1711004398913543982,2056,2049,2056,2056,2060,2056,1196
1342,1711004398923515200,2056,2049,2076,2061,2062,2056,1196
1343,1711004398933513028,2055,2053,2048,2059,2060,2059,1196
1344,1711004398943525464,2058,2074,2066,2051,2039,2053,1195
1345,1711004398953538030,2053,2049,2041,2047,2038,2053,1194
1346,1711004398963506943,2060,2058,2057,2057,2053,2058,1196
1347,1711004398973517886,2052,2045,2047,2056,2059,2052,1194
1348,1711004398983515183,2062,2096,2095,2060,2070,2058,1197
1349,1711004398993527028,2058,2052,2068,2056,2054,2056,1195
1350,1711004399003523493,2060,2078,2073,2057,2052,2052,1195
1351,1711004399013514428,2053,2058,2052,2052,2052,2054,1195
1352,1711004399023519691,2060,2056,2058,2061,2079,2059,1196
1353,1711004399033512990,2059,2058,2041,2056,2058,2052,1197
1354,1711004399043590670,2049,2048,2045,2052,2052,2053,1198
1355,1711004399053532181,2058,2061,2060,2055,2067,2058,1196
1356,1711004399063550468,2057,2072,2056,2061,2044,2053,1196
1357,1711004399073523649,2052,2049,2031,2050,2053,2050,1196
1358,1711004399083518672,2062,2047,2050,2056,2050,2052,1196
1359,1711004399093581865,2060,2053,2050,2058,2057,2051,1196
1360,1711004399103520460,2042,2057,2060,2059,2050,2050,1196
1361,1711004399113521635,2058,2056,2047,2052,2041,2054,1196
1362,1711004399123520575,2056,2033,2044,2057,2048,2059,1196
1363,1711004399133521338,2050,2056,2092,2049,2040,2048,1196
1364,1711004399143556999,2052,2052,2062,2058,2056,2054,1196
1365,1711004399153514140,2055,2055,2088,2058,2052,2051,1197
1366,1711004399163511908,2051,2054,2052,2054,2050,2055,1193
1367,1711004399173518844,2050,2045,2068,2055,2044,2052,1195
1368,1711004399183519167,2056,2060,2074,2059,2047,2054,1197
1369,1711004399193555879,2060,2042,2046,2053,2049,2050,1195
1370,1711004399203540492,2061,2070,2068,2052,2044,2047,1192
1371,1711004399213520546,2050,2044,2040,2045,2043,2053,1196
1372,1711004399223519286,2056,2059,2049,2050,2044,2057,1196
1373,1711004399233518346,2060,2073,2106,2056,2046,2050,1198
1374,1711004399243548295,2058,2044,2053,2057,2068,2057,1196
1375,1711004399253516928,2054,2047,2062,2056,2042,2052,1197
1376,1711004399263518263,2060,2094,2072,2056,2053,2052,1196
1377,1711004399273519618,2058,2056,2044,2061,2061,2056,1195
1378,1711004399283519480,2072,2060,2066,2053,2050,2054,1196
1379,1711004399293534330,2059,2059,2058,2056,2065,2058,1195
1380,1711004399303517921,2056,2061,2068,2058,2057,2053,1198
1381,1711004399313520498,2056,2045,2037,2056,2048,2052,1198
1382,1711004399323516393,2067,2061,2067,2062,2056,2059,1198
1383,1711004399333516645,2054,2057,2065,2045,2043,2047,1193
1384,1711004399343574197,2054,2042,2076,2057,2052,2051,1197
1385,1711004399353523172,2057,2049,2055,2060,2064,2052,1198
1386,1711004399363522984,2056,2056,2052,2056,2046,2052,1195
1387,1711004399373523558,2056,2056,2050,2050,2064,2054,1195
1388,1711004399383529170,2059,2056,2057,2053,2052,2050,1194
1389,1711004399393543650,2052,2057,2042,2052,2044,2051,1194
1390,1711004399403520178,2059,2074,2073,2052,2059,2056,1193
1391,1711004399413492167,2054,2043,2050,2052,2050,2052,1196
1392,1711004399423514211,2052,2037,2060,2054,2045,2056,1194
1393,1711004399433515145,2057,2056,2047,2056,2047,2055,1196
1394,1711004399443545765,2054,2058,2064,2057,2051,2060,1194
1395,1711004399453536450,2044,2045,2048,2046,2054,2054,1197
1396,1711004399463524680,2054,2056,2053,2052,2046,2056,1196
1397,1711004399473518120,2056,2052,2045,2054,2053,2054,1197
1398,1711004399483517661,2055,2039,2070,2051,2048,2050,1197
1399,1711004399493588167,2069,2086,2072,2056,2053,2056,1196
1400,1711004399503530670,2054,2044,2056,2058,2063,2057,1196
1401,1711004399513522457,2052,2034,2049,2057,2064,2056,1196
1402,1711004399523522970,2052,2048,2049,2065,2052,2054,1196
1403,1711004399533523663,2057,2064,2052,2050,2054,2053,1194
1404,1711004399543528836,2056,2048,2054,2054,2061,2056,1194
1405,1711004399553522537,2054,2050,2044,2053,2070,2056,1194
1406,1711004399563515746,2053,2072,2073,2056,2056,2061,1194
1407,1711004399573514466,2054,2038,2050,2052,2052,2053,1194
1408,1711004399583517735,2059,2051,2064,2052,2048,2054,1197
1409,1711004399593537554,2060,2056,2056,2054,2056,2053,1195
1410,1711004399603536024,2057,2058,2056,2054,2050,2045,1192
1411,1711004399613519515,2062,2098,2081,2061,2059,2049,1197
1412,1711004399623511221,2053,2046,2053,2054,2047,2052,1197
1413,1711004399633516363,2055,2056,2040,2048,2056,2046,1193
1414,1711004399643595055,2054,2052,2050,2064,2074,2052,1196
1415,1711004399653526807,2054,2047,2033,2057,2056,2053,1197
1416,1711004399663525718,2047,2028,2040,2056,2043,2053,1193
1417,1711004399673519448,2067,2059,2049,2043,2041,2051,1195
1418,1711004399683512447,2055,2047,2053,2056,2046,2052,1194
1419,1711004399693510886,2046,2056,2053,2048,2050,2052,1197
1420,1711004399703522110,2056,2070,2073,2050,2041,2053,1196
1421,1711004399713524897,2053,2053,2059,2053,2055,2050,1196
1422,1711004399723511284,2058,2058,2058,2059,2057,2049,1194
1423,1711004399733511216,2056,2068,2052,2053,2052,2053,1195
1424,1711004399743532929,2050,2039,2030,2056,2056,2053,1195
1425,1711004399753513124,2053,2050,2044,2055,2053,2055,1196
1426,1711004399763536170,2057,2059,2070,2050,2047,2056,1195
1427,1711004399773532956,2056,2033,2041,2052,2058,2054,1194
1428,1711004399783525173,2057,2046,2051,2058,2055,2055,1196
1429,1711004399793524104,2057,2052,2040,2060,2077,2056,1196
1430,1711004399803537251,2061,2051,2060,2059,2056,2059,1194
1431,1711004399813527515,2056,2073,2075,2053,2051,2058,1198
1432,1711004399823523629,2056,2057,2056,2065,2058,2053,1195
1433,1711004399833524183,2056,2056,2052,2056,2073,2056,1196
1434,1711004399843543101,2057,2059,2062,2060,2051,2056,1196
1435,1711004399853531080,2060,2040,2081,2054,2047,2053,1198
1436,1711004399863511776,2056,2045,2060,2056,2050,2055,1195
1437,1711004399873533630,2056,2079,2032,2048,2048,2052,1197
1438,1711004399883517251,2052,2038,2048,2059,2063,2059,1195
1439,1711004399893523635,2057,2077,2061,2058,2064,2054,1196
1440,1711004399903555839,2053,2050,2044,2056,2050,2057,1197
1441,1711004399913535141,2053,2054,2057,2050,2043,2051,1194
1442,1711004399923522480,2060,2075,2078,2058,2052,2054,1195
1443,1711004399933519787,2061,2047,2052,2056,2060,2056,1195
1444,1711004399943519879,2054,2055,2050,2059,2058,2059,1193
1445,1711004399953534711,2051,2065,2049,2051,2050,2050,1195
1446,1711004399963516518,2054,2052,2052,2059,2049,2053,1194
1447,1711004399973516180,2053,2042,2039,2054,2055,2053,1192
1448,1711004399983509079,2065,2052,2053,2061,2055,2064,1197
1449,1711004399993511836,2053,2054,2058,2052,2053,2051,1195
1450,1711004400003520535,2058,2061,2092,2064,2066,2057,1194
1451,1711004400013517560,2051,2037,2028,2048,2044,2056,1197
1452,1711004400023514647,2054,2052,2066,2057,2050,2052,1196
1453,1711004400033517565,2063,2039,2045,2053,2047,2050,1196
1454,1711004400043552233,2068,2064,2084,2060,2055,2058,1194
1455,1711004400055294347,2050,2045,2041,2058,2052,2052,1194
1456,1711004400063519585,2057,2026,2068,2064,2056,2059,1196
1457,1711004400073516632,2052,2041,2030,2056,2054,2053,1196
1458,1711004400083518107,2052,2031,2049,2061,2064,2057,1196
1459,1711004400093518791,2056,2049,2047,2050,2043,2051,1196
1460,1711004400103532088,2054,2049,2058,2056,2064,2056,1197
1461,1711004400113527331,2056,2080,2064,2057,2049,2052,1195
1462,1711004400123518095,2050,2047,2084,2050,2052,2060,1195
1463,1711004400133518468,2050,2032,2041,2048,2044,2052,1195
1464,1711004400143545331,2059,2062,2046,2058,2047,2056,1196
1465,1711004400153532639,2052,2038,2041,2049,2056,2052,1196
1466,1711004400163522051,2047,2050,2062,2061,2048,2056,1197
1467,1711004400173519759,2057,2061,2071,2061,2060,2060,1194
1468,1711004400183516595,2052,2055,2056,2056,2058,2055,1195
1469,1711004400193522529,2059,2064,2044,2056,2047,2050,1196
1470,1711004400203525898,2064,2062,2062,2060,2048,2058,1195
1471,1711004400213514799,2062,2055,2047,2052,2047,2058,1196
1472,1711004400223512927,2058,2059,2044,2054,2050,2051,1196
1473,1711004400233513431,2056,2057,2050,2056,2050,2054,1196
1474,1711004400243532439,2053,2057,2049,2056,2059,2056,1196
1475,1711004400253512223,2059,2056,2051,2054,2056,2054,1196
1476,1711004400263517545,2056,2057,2060,2047,2043,2056,1194
1477,1711004400273514281,2055,2052,2046,2041,2043,2048,1198
1478,1711004400283516778,2060,2088,2106,2063,2067,2053,1196
1479,1711004400293533172,2048,2011,2029,2053,2056,2052,1195
1480,1711004400303524668,2059,2042,2044,2051,2046,2050,1195
1481,1711004400313519260,2058,2056,2050,2060,2057,2053,1197
1482,1711004400323519733,2063,2062,2042,2050,2056,2056,1196
1483,1711004400333520076,2056,2061,2050,2053,2047,2053,1196
1484,1711004400343525669,2057,2049,2049,2062,2052,2052,1198
1485,1711004400353522645,2056,2073,2061,2052,2054,2050,1196
1486,1711004400363521265,2052,2034,2056,2058,2061,2052,1196
1487,1711004400373524363,2065,2058,2050,2049,2048,2044,1194
1488,1711004400383522301,2061,2072,2093,2057,2051,2056,1194
1489,1711004400393529998,2053,2072,2068,2057,2055,2052,1198
1490,1711004400403516895,2054,2049,2069,2052,2044,2052,1193
1491,1711004400413521847,2061,2064,2071,2056,2056,2056,1198
1492,1711004400423526929,2056,2056,2061,2053,2056,2052,1196
1493,1711004400433524186,2053,2067,2072,2061,2059,2055,1197
1494,1711004400443531552,2058,2044,2062,2058,2046,2059,1193
1495,1711004400453524270,2062,2060,2040,2055,2049,2052,1193
1496,1711004400463524744,2054,2056,2075,2052,2036,2052,1195
1497,1711004400473524285,2058,2073,2088,2054,2054,2057,1194
1498,1711004400483524888,2053,2046,2054,2056,2064,2056,1195
1499,1711004400493544127,2052,2055,2052,2049,2047,2051,1197
1500,1711004400503526185,2057,2066,2072,2060,2051,2058,1197
1501,1711004400513505969,2067,2093,2092,2053,2050,2054,1198
1502,1711004400523527653,2054,2047,2066,2060,2052,2056,1197
1503,1711004400533527765,2054,2056,2064,2050,2049,2047,1194
1504,1711004400543538979,2060,2057,2068,2056,2042,2053,1194
1505,1711004400553528902,2052,2050,2048,2052,2052,2052,1196
1506,1711004400563526459,2056,2056,2067,2057,2062,2056,1195
1507,1711004400573534968,2056,2050,2046,2053,2040,2046,1192
1508,1711004400583530251,2058,2050,2072,2064,2057,2056,1197
1509,1711004400593539831,2048,2020,2029,2056,2078,2052,1195
1510,1711004400603546005,2056,2065,2061,2062,2060,2053,1194
1511,1711004400613529226,2057,2054,2050,2053,2049,2048,1196
1512,1711004400623531352,2053,2047,2053,2064,2061,2058,1196
1513,1711004400633514452,2072,2092,2059,2056,2058,2053,1197
1514,1711004400643568457,2057,2046,2052,2057,2027,2052,1194
1515,1711004400653510699,2049,2049,2041,2053,2040,2045,1193
1516,1711004400663533655,2048,2042,2051,2056,2044,2050,1196
1517,1711004400673521615,2050,2045,2036,2052,2051,2049,1195
1518,1711004400683515886,2055,2092,2070,2056,2057,2058,1198
1519,1711004400693520156,2056,2053,2047,2056,2053,2053,1196
1520,1711004400703519026,2056,2052,2071,2067,2057,2057,1195
1521,1711004400713518938,2068,2073,2069,2049,2052,2052,1196
1522,1711004400723516767,2056,2059,2089,2056,2052,2052,1196
1523,1711004400733514835,2061,2055,2071,2059,2059,2054,1197
1524,1711004400743528584,2051,2049,2052,2064,2051,2054,1196
1525,1711004400753519769,2053,2036,2049,2050,2057,2050,1198
1526,1711004400763517697,2060,2053,2058,2061,2053,2054,1194
1527,1711004400773515044,2048,2049,2038,2056,2055,2048,1195
1528,1711004400783514856,2052,2040,2035,2054,2052,2053,1196
1529,1711004400793517784,2058,2044,2058,2057,2052,2052,1194
1530,1711004400803547623,2052,2055,2059,2054,2058,2056,1196
1531,1711004400813516055,2056,2052,2040,2048,2050,2047,1196
1532,1711004400823523051,2056,2049,2067,2056,2044,2059,1195
1533,1711004400833516080,2056,2064,2052,2053,2055,2055,1195
1534,1711004400843517655,2053,2049,2057,2056,2065,2055,1196
1535,1711004400853526794,2049,2033,2050,2052,2050,2052,1196
1536,1711004400863517007,2064,2052,2043,2062,2053,2056,1194
1537,1711004400873520095,2057,2048,2035,2058,2058,2056,1198
1538,1711004400883518184,2055,2058,2075,2058,2052,2054,1196
1539,1711004400893520961,2053,2047,2040,2053,2057,2052,1195
1540,1711004400903528558,2051,2054,2075,2059,2060,2054,1196
1541,1711004400913532067,2059,2056,2030,2052,2052,2053,1196
1542,1711004400923514436,2053,2045,2078,2059,2047,2051,1197
1543,1711004400933513075,2053,2057,2051,2056,2064,2056,1195
1544,1711004400943521263,2057,2068,2057,2060,2052,2055,1197
1545,1711004400953555591,2060,2079,2050,2049,2047,2056,1195
1546,1711004400963509706,2058,2065,2074,2056,2054,2051,1198
1547,1711004400973520789,2046,2057,2036,2044,2041,2047,1193
1548,1711004400983513638,2054,2050,2049,2058,2051,2050,1200
1549,1711004400993512979,2052,2045,2035,2049,2058,2056,1196
1550,1711004401003525525,2060,2056,2093,2062,2058,2059,1197
1551,1711004401013512693,2057,2053,2056,2056,2056,2054,1197
1552,1711004401023517785,2054,2050,2060,2056,2056,2053,1199
1553,1711004401033517436,2056,2049,2048,2056,2054,2053,1197
1554,1711004401043542797,2057,2058,2069,2053,2047,2053,1198
1555,1711004401053523642,2053,2057,2063,2041,2048,2048,1196
1556,1711004401063506783,2054,2067,2084,2059,2052,2053,1196
1557,1711004401073529809,2062,2065,2070,2057,2053,2051,1196
1558,1711004401083529620,2060,2058,2084,2064,2054,2059,1198
1559,1711004401093530765,2053,2053,2037,2053,2056,2056,1198
1560,1711004401103519726,2048,2051,2060,2056,2041,2053,1195
1561,1711004401113520340,2057,2056,2048,2059,2057,2052,1196
1562,1711004401123517627,2063,2078,2100,2059,2050,2057,1196
1563,1711004401133515214,2052,2057,2044,2057,2052,2057,1196
1564,1711004401143516769,2047,2050,2053,2057,2049,2051,1196
1565,1711004401153515920,2062,2052,2034,2064,2080,2058,1196
1566,1711004401163515230,2049,2026,2047,2057,2050,2056,1195
1567,1711004401173518779,2052,2052,2034,2052,2057,2049,1194
1568,1711004401183518170,2058,2056,2056,2055,2050,2050,1194
1569,1711004401193519014,2053,2056,2044,2052,2056,2052,1195
1570,1711004401203532963,2056,2036,2052,2056,2049,2056,1196
1571,1711004401213516914,2059,2068,2048,2049,2053,2051,1195
1572,1711004401223538758,2056,2039,2070,2064,2053,2056,1194
1573,1711004401233519173,2057,2046,2040,2055,2057,2048,1197
1574,1711004401243522061,2065,2076,2053,2057,2043,2052,1196
1575,1711004401253535769,2053,2052,2056,2052,2053,2048,1196
1576,1711004401263512397,2064,2078,2070,2056,2049,2056,1195
1577,1711004401273518180,2055,2058,2047,2053,2057,2052,1197
1578,1711004401283515758,2051,2068,2068,2061,2064,2057,1197
1579,1711004401293523204,2053,2052,2042,2059,2074,2053,1195
1580,1711004401303528136,2056,2056,2065,2062,2052,2056,1197
1581,1711004401313519522,2055,2082,2050,2051,2057,2049,1197
1582,1711004401323517320,2054,2041,2065,2058,2051,2053,1196
1583,1711004401333517562,2052,2060,2061,2056,2057,2053,1196
1584,1711004401343520811,2050,2044,2042,2053,2039,2054,1196
1585,1711004401353510152,2052,2075,2056,2053,2053,2050,1196
1586,1711004401363524181,2052,2050,2057,2057,2045,2058,1197
1587,1711004401373522039,2062,2078,2046,2054,2060,2056,1194
1588,1711004401383517502,2054,2039,2030,2060,2051,2056,1195
1589,1711004401393520210,2057,2043,2033,2056,2070,2056,1195
1590,1711004401403519330,2056,2046,2060,2056,2049,2052,1194
1591,1711004401413522729,2056,2077,2063,2052,2056,2049,1194
1592,1711004401423519625,2056,2029,2065,2059,2044,2053,1198
1593,1711004401433517383,2056,2053,2046,2053,2056,2053,1195
1594,1711004401443537955,2062,2060,2065,2054,2040,2054,1196
1595,1711004401453512639,2063,2073,2048,2058,2072,2053,1195
1596,1711004401463520476,2051,2043,2053,2057,2053,2055,1195
1597,1711004401473518074,2058,2062,2044,2056,2053,2050,1197
1598,1711004401483519198,2059,2062,2080,2058,2051,2058,1196
1599,1711004401493536764,2052,2031,2010,2047,2065,2050,1196
1600,1711004401503521928,2064,2053,2068,2060,2052,2053,1195
1601,1711004401513519756,2064,2047,2026,2056,2052,2053,1196
1602,1711004401523518916,2052,2053,2083,2067,2070,2059,1196
1603,1711004401533521183,2052,2053,2049,2057,2058,2052,1196
1604,1711004401543538988,2057,2039,2052,2052,2034,2058,1197
1605,1711004401553518681,2053,2028,2018,2051,2050,2049,1195
1606,1711004401563514486,2053,2047,2046,2057,2062,2053,1196
1607,1711004401573519447,2053,2049,2037,2053,2051,2050,1194
1608,1711004401583519840,2065,2064,2084,2066,2064,2059,1195
1609,1711004401593538759,2056,2053,2034,2057,2053,2056,1200
1610,1711004401603512140,2066,2073,2062,2053,2056,2056,1196
1611,1711004401613513796,2050,2038,2031,2051,2062,2052,1195
1612,1711004401623513768,2058,2059,2076,2046,2034,2051,1196
1613,1711004401633513920,2060,2064,2046,2051,2047,2047,1194
1614,1711004401643522639,2053,2044,2065,2062,2053,2060,1196
1615,1711004401653516940,2052,2033,2052,2058,2056,2049,1196
1616,1711004401663524738,2058,2052,2056,2055,2037,2050,1196
1617,1711004401673523998,2059,2072,2068,2058,2057,2052,1196
1618,1711004401683523951,2056,2054,2072,2050,2042,2054,1198
1619,1711004401693574048,2059,2043,2034,2050,2045,2051,1195
1620,1711004401703525849,2061,2072,2072,2060,2066,2058,1196
1621,1711004401713525931,2054,2069,2040,2053,2050,2051,1194
1622,1711004401723526815,2065,2060,2076,2053,2033,2052,1197
1623,1711004401733531535,2056,2057,2072,2048,2050,2047,1193
1624,1711004401743540685,2058,2047,2073,2058,2052,2057,1198
1625,1711004401753528524,2060,2056,2047,2057,2061,2055,1196
1626,1711004401763534708,2066,2069,2073,2055,2048,2055,1197
1627,1711004401773527887,2043,2032,2025,2054,2061,2056,1194
1628,1711004401783551254,2057,2053,2045,2069,2050,2054,1195
1629,1711004401793549953,2050,2038,2036,2059,2065,2052,1196
1630,1711004401803524417,2062,2064,2068,2061,2047,2056,1193
1631,1711004401813530301,2054,2056,2042,2054,2052,2049,1195
1632,1711004401823530343,2053,2050,2058,2059,2049,2060,1196
1633,1711004401833517260,2057,2066,2074,2057,2058,2053,1196
1634,1711004401843555345,2050,2026,2052,2057,2046,2056,1194
1635,1711004401853530951,2046,2030,2003,2050,2052,2047,1192
1636,1711004401863529681,2060,2055,2087,2064,2054,2062,1194
1637,1711004401873516538,2057,2053,2033,2057,2062,2051,1196
1638,1711004401883532721,2057,2048,2060,2056,2056,2056,1196
1639,1711004401893541299,2057,2060,2041,2053,2056,2051,1196
1640,1711004401903543325,2057,2060,2080,2064,2056,2057,1196
1641,1711004401913510636,2054,2049,2044,2052,2044,2056,1197
1642,1711004401923517391,2060,2073,2062,2060,2047,2055,1197
1643,1711004401933516891,2053,2056,2036,2057,2070,2052,1196
1644,1711004401943556198,2064,2050,2052,2062,2050,2056,1196
1645,1711004401953537004,2045,2036,2025,2050,2045,2044,1192
1646,1711004401963511918,2054,2055,2068,2053,2041,2052,1196
1647,1711004401973517050,2057,2053,2047,2056,2056,2051,1195
1648,1711004401983518044,2060,2085,2077,2066,2062,2057,1195
1649,1711004401993553524,2056,2057,2033,2053,2069,2052,1197
1650,1711004402003516386,2053,2052,2063,2052,2042,2056,1196
1651,1711004402013517490,2052,2088,2064,2057,2060,2057,1196
1652,1711004402023519356,2056,2050,2058,2058,2053,2060,1195
1653,1711004402033516412,2054,2056,2015,2051,2064,2045,1194
1654,1711004402043560398,2057,2057,2072,2062,2049,2060,1196
1655,1711004402053526225,2054,2041,2032,2053,2049,2052,1197
1656,1711004402063536367,2063,2076,2120,2060,2051,2056,1198
1657,1711004402073517111,2052,2048,2038,2057,2062,2053,1196
1658,1711004402083514829,2052,2052,2064,2060,2053,2058,1197
1659,1711004402093556581,2065,2071,2078,2053,2056,2056,1197
1660,1711004402103522228,2053,2059,2068,2057,2052,2058,1196
1661,1711004402113516690,2053,2053,2040,2058,2061,2050,1196
1662,1711004402123519868,2058,2047,2076,2057,2045,2057,1197
1663,1711004402133517065,2054,2056,2045,2050,2064,2052,1194
1664,1711004402143543898,2055,2056,2066,2058,2052,2052,1196
1665,1711004402153513933,2060,2054,2041,2054,2062,2050,1197
1666,1711004402163521249,2056,2031,2052,2055,2052,2054,1197
1667,1711004402173517485,2060,2064,2053,2049,2061,2056,1193
1668,1711004402183522786,2057,2069,2084,2058,2056,2058,1195
1669,1711004402193542275,2050,2037,2027,2049,2053,2050,1194
1670,1711004402203540163,2053,2036,2065,2056,2045,2060,1194
1671,1711004402213524696,2065,2064,2053,2060,2065,2058,1195
1672,1711004402223519839,2048,2056,2056,2056,2049,2051,1196
1673,1711004402233517256,2053,2056,2035,2062,2052,2053,1196
1674,1711004402243538208,2059,2056,2058,2058,2041,2057,1196
1675,1711004402253523603,2058,2049,2040,2053,2049,2052,1193
1676,1711004402263519357,2051,2046,2059,2050,2040,2050,1197
1677,1711004402273519760,2062,2083,2062,2058,2064,2057,1196
1678,1711004402283519772,2053,2015,2061,2053,2045,2052,1198
1679,1711004402293535513,2052,2047,2037,2049,2050,2048,1197
1680,1711004402303520317,2052,2028,2049,2057,2058,2058,1196
1681,1711004402313511342,2056,2020,2022,2054,2060,2049,1195
1682,1711004402323517706,2058,2060,2059,2056,2046,2057,1193
1683,1711004402333515945,2056,2051,2034,2067,2093,2056,1195
1684,1711004402343523141,2056,2069,2089,2051,2054,2059,1195
1685,1711004402353521390,2056,2058,2042,2057,2061,2052,1196
1686,1711004402363517214,2061,2062,2069,2057,2045,2056,1196
1687,1711004402373517196,2061,2071,2059,2053,2044,2047,1191
1688,1711004402383518110,2052,2037,2072,2060,2051,2058,1197
1689,1711004402393489288,2051,2045,2034,2056,2060,2046,1193
1690,1711004402403540627,2060,2062,2096,2059,2050,2056,1196
1691,1711004402413516804,2057,2072,2051,2056,2059,2050,1198
1692,1711004402423515764,2053,2052,2091,2056,2050,2056,1196
1693,1711004402433516698,2053,2052,2039,2056,2058,2048,1193
1694,1711004402443557498,2054,2052,2053,2056,2049,2056,1197
1695,1711004402453508126,2057,2052,2037,2057,2060,2050,1197
1696,1711004402463510383,2052,2027,2045,2056,2045,2054,1199
1697,1711004402473518069,2064,2041,2045,2056,2061,2054,1197
1698,1711004402483516960,2075,2073,2065,2057,2049,2058,1197
1699,1711004402493527251,2056,2059,2053,2060,2060,2053,1197
1700,1711004402503512245,2056,2060,2094,2057,2046,2056,1197
1701,1711004402513554206,2054,2057,2028,2050,2050,2047,1193
1702,1711004402523522859,2064,2058,2073,2055,2042,2052,1198
1703,1711004402533521067,2052,2050,2036,2059,2056,2053,1195
1704,1711004402543559443,2058,2072,2076,2053,2053,2054,1196
1705,1711004402553526582,2057,2077,2060,2056,2064,2053,1195
1706,1711004402563525382,2052,2045,2051,2048,2042,2056,1195
1707,1711004402573528551,2054,2061,2047,2052,2054,2052,1193
1708,1711004402583528162,2056,2077,2112,2057,2048,2060,1196
1709,1711004402593547621,2060,2041,2055,2056,2057,2052,1197
1710,1711004402603541863,2053,2046,2064,2061,2045,2055,1194
1711,1711004402613532727,2050,2049,2032,2056,2064,2052,1198
1712,1711004402623532658,2049,2077,2061,2053,2038,2052,1197
1713,1711004402633533442,2055,2061,2052,2056,2064,2052,1193
1714,1711004402643541219,2055,2052,2053,2056,2050,2050,1197
1715,1711004402653539178,2058,2068,2056,2054,2061,2049,1198
1716,1711004402663515104,2050,2056,2080,2060,2048,2056,1196
1717,1711004402673513974,2056,2083,2048,2056,2065,2052,1194
1718,1711004402683517263,2052,2050,2058,2055,2050,2056,1197
1719,1711004402693533606,2060,2072,2041,2053,2060,2051,1197
1720,1711004402703519712,2052,2058,2074,2054,2036,2056,1196
1721,1711004402713515556,2054,2046,2031,2061,2070,2050,1194
1722,1711004402723518784,2060,2076,2119,2064,2059,2056,1197
1723,1711004402733517223,2057,2104,2064,2048,2054,2049,1193
1724,1711004402744268293,2062,2040,2078,2061,2056,2058,1197
1725,1711004402753514973,2047,2041,2026,2050,2054,2047,1192
1726,1711004402763514444,2053,2048,2042,2047,2035,2052,1198
1727,1711004402773517492,2047,2034,2029,2053,2063,2052,1194
1728,1711004402783515370,2062,2092,2096,2066,2061,2061,1198
1729,1711004402793532164,2047,2044,2030,2058,2065,2054,1196
1730,1711004402803514754,2053,2052,2065,2053,2043,2056,1197
1731,1711004402813513714,2061,2062,2045,2058,2060,2054,1196
1732,1711004402823515289,2057,2065,2079,2052,2040,2051,1196
1733,1711004402833514870,2060,2069,2107,2064,2069,2053,1197
1734,1711004402843557342,2056,2054,2077,2054,2040,2053,1196
1735,1711004402853548658,2050,2049,2036,2057,2060,2050,1198
1736,1711004402863510458,2058,2074,2084,2056,2046,2059,1196
1737,1711004402873519457,2051,2032,2032,2058,2064,2057,1194
1738,1711004402883516454,2056,2056,2052,2057,2052,2054,1197
1739,1711004402893560710,2066,2061,2048,2056,2061,2052,1195
1740,1711004402903521768,2049,2046,2060,2053,2047,2056,1196
1741,1711004402913523945,2056,2050,2033,2045,2054,2048,1196
1742,1711004402923517324,2053,2063,2086,2060,2045,2054,1196
1743,1711004402933517837,2056,2056,2031,2057,2060,2050,1198
1744,1711004402943534511,2057,2057,2050,2058,2053,2056,1196
1745,1711004402953511679,2053,2047,2044,2059,2064,2048,1197
1746,1711004402963511040,2056,2052,2068,2056,2045,2053,1198
1747,1711004402973519709,2057,2048,2042,2058,2072,2054,1194
1748,1711004402983518308,2057,2047,2052,2060,2047,2056,1198
1749,1711004402993541946,2056,2051,2049,2060,2073,2050,1193
1750,1711004403003521669,2059,2066,2064,2057,2054,2056,1195
1751,1711004403013516852,2053,2061,2056,2062,2081,2058,1195
1752,1711004403023516624,2052,2052,2091,2046,2038,2050,1197
1753,1711004403033516807,2062,2060,2061,2054,2073,2050,1198
1754,1711004403043539552,2060,2037,2056,2056,2045,2057,1195
1755,1711004403053522651,2059,2068,2059,2058,2057,2059,1196
1756,1711004403063555005,2057,2052,2057,2056,2046,2056,1195
1757,1711004403073521604,2056,2050,2043,2053,2063,2051,1198
1758,1711004403083517468,2056,2073,2104,2056,2037,2055,1198
1759,1711004403093543450,2053,2049,2032,2056,2059,2050,1194
1760,1711004403103515278,2060,2086,2083,2061,2045,2061,1196
1761,1711004403113524498,2058,2058,2038,2047,2047,2045,1193
1762,1711004403123518979,2052,2051,2069,2061,2045,2058,1197
1763,1711004403133516827,2060,2052,2033,2058,2060,2052,1195
1764,1711004403143539282,2061,2059,2065,2057,2053,2056,1195
1765,1711004403153509057,2056,2056,2024,2054,2046,2046,1192
1766,1711004403163513177,2061,2086,2069,2065,2053,2060,1196
1767,1711004403173519811,2053,2043,2054,2052,2051,2053,1195
1768,1711004403183516327,2052,2055,2061,2056,2041,2053,1197
1769,1711004403193535486,2057,2064,2065,2060,2065,2051,1197
1770,1711004403203527141,2061,2067,2057,2049,2040,2051,1195
1771,1711004403213532213,2056,2056,2053,2053,2059,2049,1196
1772,1711004403223520062,2056,2057,2065,2056,2040,2052,1195
1773,1711004403233520906,2050,2068,2036,2056,2057,2051,1196
1774,1711004403243526268,2053,2041,2057,2058,2046,2053,1196
1775,1711004403253514849,2056,2048,2047,2049,2050,2053,1195
1776,1711004403263520171,2058,2046,2064,2050,2044,2055,1194
1777,1711004403273527016,2057,2068,2080,2056,2057,2056,1196
1778,1711004403283525895,2050,2057,2075,2056,2052,2056,1197
1779,1711004403293556115,2062,2062,2042,2060,2068,2052,1198
1780,1711004403303524688,2043,2044,2054,2059,2051,2056,1197
1781,1711004403313529930,2055,2037,2038,2054,2058,2052,1197
1782,1711004403323521165,2056,2056,2062,2059,2052,2057,1195
1783,1711004403333521498,2058,2047,2046,2057,2064,2054,1198
1784,1711004403343533363,2043,2046,2072,2051,2040,2052,1197
1785,1711004403353519418,2058,2036,2020,2052,2063,2057,1196
1786,1711004403363525091,2059,2066,2081,2050,2042,2054,1196
1787,1711004403373525534,2050,2014,2024,2050,2050,2050,1194
1788,1711004403383524835,2060,2080,2080,2058,2045,2057,1195
1789,1711004403393510760,2053,2047,2028,2056,2056,2051,1197
1790,1711004403403525190,2057,2053,2065,2057,2047,2063,1197
1791,1711004403413527977,2053,2059,2044,2057,2058,2054,1198
1792,1711004403423527218,2053,2078,2096,2045,2036,2054,1197
1793,1711004403433527249,2053,2050,2036,2058,2061,2051,1197
1794,1711004403443531129,2053,2065,2064,2058,2044,2053,1195
1795,1711004403453505382,2061,2073,2077,2054,2074,2050,1195
1796,1711004403463527066,2053,2041,2056,2053,2046,2052,1196
1797,1711004403473513041,2059,2045,2046,2060,2064,2054,1197
1798,1711004403483528413,2048,2052,2075,2057,2047,2052,1196
1799,1711004403493527734,2056,2076,2056,2051,2057,2053,1196
1800,1711004403503529379,2055,2052,2084,2052,2040,2057,1195
1801,1711004403513529821,2062,2029,2030,2056,2060,2052,1197
1802,1711004403523529933,2052,2053,2080,2052,2043,2052,1196
1803,1711004403533530036,2064,2057,2068,2057,2064,2058,1194
1804,1711004403543531531,2057,2058,2097,2056,2045,2059,1194
1805,1711004403553528808,2067,2065,2050,2057,2058,2048,1197
1806,1711004403563531415,2050,2042,2060,2056,2048,2054,1198
1807,1711004403573514936,2064,2076,2051,2050,2053,2052,1194
1808,1711004403583515279,2053,2038,2059,2052,2040,2056,1196
1809,1711004403593532122,2049,2082,2041,2057,2064,2049,1196
1810,1711004403603510173,2055,2045,2061,2054,2044,2055,1196
1811,1711004403613515755,2054,2041,2026,2053,2065,2056,1199
1812,1711004403623516078,2056,2065,2087,2054,2040,2050,1196
1813,1711004403633514157,2057,2062,2041,2053,2060,2053,1196
1814,1711004403643515712,2056,2055,2073,2058,2044,2055,1195
1815,1711004403653517057,2061,2085,2056,2057,2069,2053,1197
1816,1711004403663518611,2058,2054,2068,2049,2038,2045,1195
1817,1711004403673516038,2057,2047,2034,2044,2056,2049,1196
1818,1711004403683514508,2056,2068,2072,2056,2048,2056,1197
1819,1711004403693515362,2050,2057,2034,2056,2056,2056,1197
1820,1711004403703520754,2050,2040,2066,2057,2043,2054,1195
1821,1711004403713520676,2069,2088,2063,2054,2049,2052,1196
1822,1711004403723520057,2049,2042,2060,2050,2043,2056,1198
1823,1711004403733518276,2063,2089,2088,2059,2064,2056,1195
1824,1711004403744158965,2056,2025,2049,2054,2050,2055,1195
1825,1711004403753542836,2056,2051,2042,2057,2058,2053,1196
1826,1711004403763852417,2057,2056,2068,2057,2044,2051,1193
1827,1711004403773523664,2061,2082,2089,2060,2077,2058,1194
1828,1711004403783521873,2050,2047,2066,2053,2037,2057,1194
1829,1711004403793544057,2058,2119,2072,2054,2065,2053,1195
1830,1711004403803534461,2049,2042,2066,2053,2040,2050,1196
1831,1711004403813526619,2064,2058,2043,2052,2056,2047,1194
1832,1711004403823520568,2053,2047,2068,2057,2038,2053,1196
1833,1711004403833520601,2064,2050,2028,2060,2061,2052,1197
1834,1711004403843553245,2054,2054,2066,2052,2049,2052,1196
1835,1711004403853527248,2056,2041,2011,2058,2064,2054,1196
1836,1711004403863550344,2064,2098,2094,2056,2046,2053,1197
1837,1711004403873525138,2052,2021,2021,2048,2058,2053,1196
1838,1711004403883524740,2060,2029,2078,2061,2047,2057,1196
1839,1711004403893552945,2057,2056,2027,2050,2053,2052,1196
1840,1711004403903551293,2059,2076,2048,2058,2052,2056,1196
1841,1711004403913524575,2051,2064,2056,2058,2069,2050,1197
1842,1711004403923523114,2052,2057,2065,2060,2048,2060,1196
1843,1711004403933523497,2060,2044,2057,2054,2059,2052,1197
1844,1711004403943586069,2049,2032,2081,2061,2045,2056,1197
1845,1711004403953521608,2056,2052,2039,2066,2079,2049,1197
1846,1711004403963505360,2054,2051,2075,2054,2041,2054,1194
1847,1711004403973514048,2056,2049,2033,2054,2056,2042,1193
1848,1711004403983512306,2053,2049,2072,2061,2055,2058,1195
1849,1711004403993512829,2056,2056,2037,2052,2072,2052,1196
1850,1711004404003520085,2053,2074,2076,2057,2045,2054,1197
1851,1711004404013525879,2064,2084,2037,2046,2053,2050,1194
1852,1711004404023520120,2051,2076,2107,2056,2050,2062,1197
1853,1711004404033519220,2057,2052,2050,2056,2064,2053,1198
1854,1711004404043524522,2052,2045,2054,2052,2044,2058,1195
1855,1711004404053519344,2060,2047,2042,2060,2058,2052,1196
1856,1711004404063502835,2056,2053,2052,2053,2049,2054,1196
1857,1711004404073512075,2060,2088,2075,2060,2062,2054,1197
1858,1711004404083509201,2055,2055,2062,2057,2041,2052,1195
1859,1711004404093513772,2058,2089,2077,2057,2061,2054,1198
1860,1711004404103509796,2057,2068,2093,2058,2047,2060,1195
1861,1711004404113524366,2056,2073,2102,2058,2068,2051,1196
1862,1711004404123520601,2049,2042,2054,2060,2051,2055,1196
1863,1711004404133518820,2057,2056,2040,2055,2064,2056,1195
1864,1711004404143540323,2053,2082,2081,2052,2038,2052,1197
1865,1711004404153517812,2052,2055,2077,2059,2063,2052,1194
1866,1711004404163521831,2050,2045,2072,2060,2047,2056,1197
1867,1711004404173517144,2052,2045,2041,2064,2070,2057,1195
1868,1711004404183518159,2052,2048,2048,2056,2036,2049,1197
1869,1711004404193517550,2056,2040,2028,2060,2058,2050,1195
1870,1711004404203533362,2060,2076,2094,2057,2052,2058,1198
1871,1711004404213521472,2055,2058,2062,2056,2064,2052,1196
1872,1711004404223514600,2058,2080,2076,2058,2048,2056,1196
1873,1711004404233514672,2053,2061,2036,2057,2064,2053,1194
1874,1711004404243521267,2053,2046,2067,2057,2042,2052,1197
1875,1711004404253515308,2059,2058,2046,2056,2056,2047,1193
1876,1711004404263514108,2052,2042,2060,2055,2045,2056,1197
1877,1711004404273513900,2064,2076,2071,2064,2069,2054,1197
1878,1711004404283516295,2048,2029,2046,2057,2051,2056,1197
1879,1711004404293538099,2060,2038,2018,2057,2065,2051,1198
1880,1711004404303515308,2061,2042,2060,2058,2050,2056,1197
1881,1711004404313514669,2051,2046,2037,2050,2059,2048,1197
1882,1711004404323516845,2053,2049,2060,2052,2046,2055,1196
1883,1711004404333516206,2064,2085,2116,2069,2064,2056,1195
1884,1711004404343515526,2058,2057,2066,2056,2047,2061,1196
1885,1711004404353521740,2054,2052,2041,2057,2063,2054,1197
1886,1711004404363519759,2047,2026,2058,2052,2041,2056,1197
1887,1711004404373517917,2061,2038,2029,2059,2062,2051,1194
1888,1711004404383517088,2060,2038,2045,2054,2050,2053,1196
1889,1711004404393579910,2059,2054,2040,2057,2058,2056,1196
1890,1711004404403514837,2060,2054,2064,2058,2046,2056,1196
1891,1711004404413516753,2060,2084,2064,2056,2061,2050,1194
1892,1711004404423516344,2052,2052,2057,2057,2041,2057,1197
1893,1711004404433517659,2060,2064,2058,2058,2066,2056,1198
1894,1711004404443516609,2050,2064,2060,2057,2048,2058,1196
1895,1711004404453553361,2058,2074,2046,2058,2060,2057,1197
1896,1711004404463529117,2053,2046,2042,2058,2041,2048,1196
1897,1711004404473528598,2056,2047,2030,2054,2060,2056,1197
1898,1711004404483531385,2059,2050,2065,2056,2045,2050,1195
1899,1711004404493529975,2056,2066,2041,2056,2063,2053,1195
1900,1711004404503512233,2050,2051,2066,2058,2044,2057,1194
1901,1711004404513555989,2061,2061,2057,2052,2056,2056,1196
1902,1711004404523529690,2052,2055,2087,2059,2047,2056,1195
1903,1711004404533523861,2064,2060,2038,2053,2061,2052,1194
1904,1711004404543533612,2058,2062,2110,2058,2052,2057,1196
1905,1711004404553527112,2059,2062,2052,2060,2061,2056,1197
1906,1711004404563524409,2062,2066,2077,2056,2059,2058,1194
1907,1711004404573526014,2060,2046,2043,2047,2052,2047,1191
1908,1711004404583525494,2052,2092,2082,2061,2050,2057,1196
1909,1711004404593538882,2049,2046,2037,2053,2060,2049,1196
1910,1711004404603536890,2049,2046,2038,2058,2041,2050,1196
1911,1711004404613530871,2054,2056,2053,2056,2063,2052,1195
1912,1711004404623531244,2060,2054,2061,2052,2041,2056,1195
1913,1711004404633531397,2054,2044,2035,2060,2060,2057,1197
1914,1711004404643544893,2053,2059,2064,2057,2052,2059,1200
1915,1711004404653534516,2064,2053,2041,2058,2081,2054,1196
1916,1711004404663538165,2056,2038,2063,2057,2050,2056,1197
1917,1711004404673535192,2056,2060,2046,2053,2058,2051,1198
1918,1711004404683535635,2060,2072,2072,2054,2042,2056,1196
1919,1711004404693563219,2059,2049,2040,2060,2069,2056,1198
1920,1711004404703536169,2053,2057,2064,2061,2050,2055,1196
1921,1711004404713537574,2064,2062,2044,2060,2060,2055,1197
1922,1711004404723537907,2042,2048,2064,2057,2064,2056,1198
1923,1711004404733538580,2068,2110,2066,2057,2060,2052,1195
1924,1711004404743550495,2050,2050,2057,2057,2044,2054,1200
1925,1711004404753536069,2061,2046,2029,2052,2062,2056,1195
1926,1711004404763568072,2052,2037,2057,2060,2048,2053,1197
1927,1711004404773540903,2056,2036,2028,2039,2056,2049,1195
1928,1711004404783540755,2059,2056,2060,2054,2043,2058,1197
1929,1711004404793541999,2056,2057,2041,2052,2057,2052,1195
1930,1711004404803540018,2045,2071,2075,2061,2052,2060,1197
1931,1711004404813521644,2060,2090,2053,2060,2066,2052,1195
1932,1711004404823541444,2048,2056,2065,2058,2050,2056,1197
1933,1711004404833520777,2058,2060,2058,2057,2050,2053,1197
1934,1711004404843548772,2051,2050,2058,2057,2048,2057,1196
1935,1711004404853545438,2056,2073,2040,2060,2076,2056,1195
1936,1711004404863524340,2057,2060,2068,2058,2046,2053,1197
1937,1711004404873526917,2054,2044,2029,2060,2064,2056,1195
1938,1711004404883544342,2070,2106,2136,2064,2048,2057,1196
1939,1711004404893524616,2043,2049,2030,2056,2063,2051,1195
1940,1711004404903552512,2068,2065,2061,2050,2043,2056,1197
1941,1711004404913545210,2056,2051,2038,2060,2061,2053,1197
1942,1711004404923530494,2055,2060,2065,2060,2053,2056,1196
1943,1711004404933528863,2056,2056,2045,2056,2062,2057,1195
1944,1711004404943565254,2047,2048,2054,2056,2046,2050,1195
1945,1711004404953523226,2056,2072,2048,2057,2056,2048,1196
1946,1711004404963525182,2053,2054,2060,2057,2048,2053,1197
1947,1711004404973531015,2058,2049,2052,2060,2070,2057,1194
1948,1711004404983528463,2051,2046,2059,2051,2037,2054,1197
1949,1711004404993533103,2057,2057,2037,2054,2061,2056,1197
1950,1711004405003533245,2049,2044,2076,2064,2047,2052,1194
1951,1711004405013513580,2057,2069,2036,2052,2045,2052,1195
1952,1711004405023521447,2062,2045,2065,2059,2047,2056,1197
1953,1711004405033519185,2053,2064,2036,2053,2051,2048,1196
1954,1711004405043816062,2052,2055,2072,2054,2055,2056,1196
1955,1711004405053532915,2056,2054,2043,2050,2054,2050,1196
1956,1711004405063527997,2052,2051,2076,2064,2047,2056,1197
1957,1711004405073523171,2062,2044,2028,2057,2072,2059,1197
1958,1711004405083522211,2052,2048,2057,2052,2045,2048,1199
1959,1711004405093531510,2057,2061,2046,2054,2052,2052,1195
1960,1711004405103529568,2062,2072,2082,2066,2057,2060,1195
1961,1711004405113521104,2058,2051,2073,2056,2056,2052,1197
1962,1711004405123523010,2052,2051,2067,2057,2049,2053,1194
1963,1711004405133521299,2058,2064,2049,2056,2060,2050,1196
1964,1711004405143522793,2046,2040,2057,2056,2049,2056,1196
1965,1711004405153522214,2061,2059,2044,2058,2062,2052,1196
1966,1711004405163520002,2062,2082,2092,2056,2046,2052,1196
1967,1711004405173518462,2048,2032,2008,2048,2058,2047,1193
1968,1711004405183518444,2072,2058,2064,2057,2053,2053,1197
1969,1711004405193554073,2052,2052,2033,2048,2056,2052,1197
1970,1711004405203524589,2052,2054,2086,2058,2052,2054,1195
1971,1711004405213519792,2058,2052,2050,2054,2057,2049,1196
1972,1711004405223519444,2052,2056,2082,2049,2045,2056,1197
1973,1711004405233519576,2056,2048,2056,2058,2060,2053,1194
1974,1711004405243518806,2068,2058,2056,2056,2053,2060,1195
1975,1711004405253515772,2051,2028,2033,2058,2072,2051,1196
1976,1711004405263513811,2058,2068,2127,2056,2041,2054,1197
1977,1711004405273511959,2054,2060,2041,2059,2061,2057,1198
1978,1711004405283512863,2053,2039,2036,2049,2041,2056,1198
1979,1711004405293536139,2058,2070,2048,2056,2054,2050,1196
1980,1711004405303528466,2052,2046,2050,2053,2037,2050,1195
1981,1711004405313523088,2061,2075,2044,2056,2061,2056,1197
1982,1711004405323524163,2056,2054,2069,2056,2043,2056,1197
1983,1711004405333524826,2064,2051,2042,2057,2060,2051,1196
1984,1711004405343533013,2049,2040,2069,2051,2043,2049,1196
1985,1711004405353526012,2067,2052,2049,2061,2062,2060,1195
1986,1711004405363520934,2056,2061,2064,2057,2058,2056,1196
1987,1711004405373520526,2057,2056,2048,2058,2059,2056,1194
1988,1711004405383520097,2061,2061,2074,2061,2080,2057,1196
1989,1711004405393542140,2048,2038,2029,2055,2056,2054,1196
1990,1711004405403517496,2059,2057,2054,2056,2044,2057,1196
1991,1711004405413519862,2058,2090,2054,2056,2058,2048,1195
1992,1711004405423515326,2045,2034,2052,2060,2052,2051,1196
1993,1711004405433515328,2056,2057,2040,2056,2072,2053,1197
1994,1711004405443525248,2054,2064,2069,2056,2049,2056,1196
1995,1711004405453519550,2059,2061,2050,2060,2061,2053,1195
1996,1711004405463518370,2046,2019,2046,2056,2049,2056,1196
1997,1711004405473515016,2064,2065,2092,2060,2069,2056,1196
1998,1711004405483514766,2056,2029,2052,2056,2048,2056,1195
1999,1711004405493524507,2060,2060,2040,2060,2059,2058,1197
2000,1711004405503520592,2052,2047,2056,2052,2041,2053,1197
2001,1711004405513517127,2062,2082,2097,2058,2063,2057,1194
2002,1711004405523520626,2055,2050,2063,2057,2058,2054,1196
2003,1711004405533519916,2058,2077,2077,2058,2063,2056,1196
2004,1711004405543531560,2053,2041,2056,2056,2055,2052,1194
2005,1711004405553517135,2053,2068,2040,2057,2056,2055,1196
2006,1711004405563517388,2057,2062,2096,2057,2040,2052,1196
2007,1711004405573498615,2052,2059,2039,2058,2065,2052,1193
2008,1711004405583517662,2056,2067,2064,2052,2045,2055,1194
2009,1711004405593525629,2062,2048,2034,2045,2052,2049,1197
2010,1711004405603523898,2056,2084,2072,2056,2050,2056,1195
2011,1711004405613520674,2056,2045,2041,2056,2062,2052,1193
2012,1711004405623517120,2057,2085,2085,2052,2040,2050,1196
2013,1711004405633519756,2056,2051,2037,2052,2059,2053,1197
2014,1711004405643531010,2058,2057,2072,2056,2048,2057,1197
2015,1711004405653542383,2052,2044,2030,2051,2064,2057,1196
2016,1711004405663520244,2055,2049,2093,2058,2038,2056,1196
2017,1711004405673518642,2036,2025,2019,2054,2057,2051,1197
2018,1711004405683515127,2068,2096,2113,2061,2047,2058,1195
2019,1711004405693520359,2054,2066,2050,2052,2053,2049,1193
2020,1711004405703518298,2053,2040,2061,2058,2046,2052,1198
2021,1711004405713526385,2054,2049,2042,2058,2053,2048,1195
2022,1711004405723519494,2053,2050,2032,2047,2047,2045,1193
2023,1711004405733521780,2056,2057,2045,2062,2068,2064,1198
2024,1711004405743604920,2062,2060,2085,2062,2057,2060,1197
2025,1711004405753509451,2068,2082,2057,2058,2065,2056,1196
2026,1711004405763519813,2063,2047,2048,2059,2050,2053,1195
2027,1711004405773515446,2062,2053,2040,2053,2064,2050,1195
2028,1711004405783516390,2054,2048,2064,2052,2046,2052,1195
2029,1711004405793513076,2056,2054,2047,2056,2057,2052,1197
2030,1711004405803517496,2057,2053,2062,2062,2053,2054,1196
2031,1711004405813514433,2057,2047,2049,2061,2073,2062,1197
2032,1711004405823511248,2049,2053,2068,2047,2041,2052,1196
2033,1711004405833507844,2053,2047,2039,2056,2060,2053,1196
2034,1711004405843508858,2060,2031,2088,2059,2044,2054,1197
2035,1711004405853515703,2060,2054,2060,2052,2058,2056,1195
2036,1711004405863511748,2060,2048,2062,2058,2050,2062,1198
2037,1711004405873518742,2056,2051,2036,2065,2083,2053,1196
2038,1711004405883515979,2051,2053,2062,2056,2048,2052,1196
2039,1711004405893520340,2054,2040,2045,2053,2056,2052,1197
2040,1711004405903530351,2056,2054,2066,2054,2045,2054,1193
2041,1711004405913526556,2047,2050,2045,2056,2058,2053,1194
2042,1711004405923530154,2059,2086,2109,2066,2052,2054,1196
2043,1711004405933523844,2056,2075,2061,2053,2059,2052,1194
2044,1711004405943563001,2056,2060,2070,2052,2038,2050,1196
2045,1711004405953540961,2052,2040,2037,2056,2053,2057,1197
2046,1711004405963518771,2059,2072,2117,2060,2048,2055,1197
2047,1711004405973518241,2057,2046,2039,2055,2058,2053,1196
2048,1711004405983518023,2060,2061,2079,2062,2056,2060,1196
2049,1711004405993518015,2060,2060,2039,2056,2061,2052,1194
2050,1711004406003524119,2063,2033,2057,2058,2049,2052,1194
2051,1711004406013521365,2052,2029,2037,2055,2052,2054,1196
2052,1711004406023521828,2053,2047,2072,2052,2033,2056,1196
2053,1711004406033517672,2059,2069,2052,2047,2051,2047,1194
2054,1711004406043576717,2058,2050,2061,2057,2043,2053,1197
2055,1711004406053508238,2058,2062,2045,2055,2060,2056,1197
2056,1711004406063517157,2056,2060,2075,2064,2061,2056,1196
2057,1711004406073515035,2059,2072,2076,2061,2067,2053,1195
2058,1711004406083513585,2048,2044,2049,2056,2054,2058,1198
2059,1711004406093512384,2064,2073,2052,2059,2072,2058,1196
2060,1711004406103523467,2058,2075,2065,2056,2045,2052,1194
2061,1711004406113548056,2059,2060,2028,2052,2056,2051,1198
2062,1711004406123514284,2048,2028,2054,2056,2049,2053,1197
2063,1711004406133514587,2060,2064,2062,2056,2061,2050,1196
2064,1711004406143567919,2054,2058,2073,2057,2054,2057,1196
2065,1711004406153527996,2050,2038,2040,2050,2051,2050,1196
2066,1711004406163523089,2056,2050,2051,2057,2049,2058,1197
2067,1711004406173523572,2060,2062,2043,2058,2065,2055,1194
2068,1711004406183522541,2051,2027,2046,2045,2037,2048,1194
2069,1711004406193530238,2056,2046,2027,2054,2059,2053,1195
2070,1711004406203538035,2056,2059,2044,2056,2048,2056,1197
2071,1711004406213525684,2056,2051,2047,2058,2061,2048,1196
2072,1711004406223519773,2056,2050,2063,2056,2050,2056,1196
2073,1711004406233520397,2061,2056,2044,2055,2057,2049,1196
2074,1711004406243518796,2053,2043,2057,2049,2041,2054,1195
2075,1711004406253515913,2061,2061,2042,2054,2056,2052,1195
2076,1711004406263521805,2053,2040,2058,2058,2046,2053,1197
2077,1711004406273521958,2053,2068,2050,2065,2085,2056,1197
2078,1711004406283522621,2061,2066,2085,2058,2047,2052,1197
2079,1711004406293526992,2058,2059,2053,2061,2060,2057,1197
2080,1711004406303518767,2051,2038,2057,2056,2050,2055,1196
2081,1711004406313521935,2057,2046,2045,2051,2059,2048,1195
2082,1711004406323522940,2058,2057,2066,2060,2056,2059,1199
2083,1711004406333523292,2056,2062,2028,2052,2055,2050,1196
2084,1711004406343525698,2052,2016,2044,2061,2058,2057,1196
2085,1711004406353526091,2064,2074,2073,2061,2072,2057,1197
2086,1711004406363527787,2049,2037,2040,2052,2044,2056,1196
2087,1711004406373526146,2056,2056,2064,2053,2056,2052,1193
2088,1711004406383526958,2059,2053,2077,2050,2040,2051,1195
2089,1711004406393537731,2060,2058,2050,2054,2061,2052,1196
2090,1711004406403523677,2052,2043,2064,2057,2043,2053,1194
2091,1711004406413526404,2060,2094,2052,2063,2067,2053,1195
2092,1711004406423525854,2050,2059,2072,2053,2042,2056,1196
2093,1711004406433527089,2059,2065,2079,2057,2055,2056,1196
2094,1711004406443509758,2058,2069,2077,2064,2048,2057,1193
2095,1711004406453527414,2052,2045,2035,2052,2056,2052,1193
2096,1711004406463529981,2054,2054,2070,2059,2052,2053,1195
2097,1711004406473513280,2056,2047,2041,2056,2062,2053,1197
2098,1711004406483514304,2045,2048,2056,2056,2037,2056,1196
2099,1711004406493538222,2050,2032,2034,2055,2057,2051,1197
2100,1711004406503532614,2064,2057,2069,2060,2040,2052,1195
2101,1711004406513532805,2055,2050,2034,2056,2057,2053,1196
2102,1711004406523532817,2052,2054,2079,2053,2050,2057,1194
2103,1711004406533532920,2058,2050,2032,2056,2061,2056,1195
2104,1711004406543538933,2059,2072,2069,2057,2048,2058,1195
2105,1711004406553515089,2056,2045,2033,2052,2049,2048,1195
2106,1711004406563517677,2056,2053,2060,2056,2047,2054,1193
2107,1711004406573518460,2058,2068,2050,2056,2065,2050,1194
2108,1711004406583517450,2048,2052,2054,2058,2047,2054,1194
2109,1711004406593543872,2055,2044,2034,2058,2058,2054,1196
2110,1711004406603539346,2056,2056,2049,2066,2072,2058,1193
2111,1711004406613519430,2055,2045,2043,2056,2061,2052,1196
2112,1711004406623520063,2058,2056,2068,2059,2039,2053,1196
2113,1711004406633518221,2056,2075,2085,2064,2064,2056,1195
2114,1711004406643543561,2052,2042,2053,2056,2044,2056,1196
2115,1711004406653524357,2058,2045,2042,2052,2054,2057,1194
2116,1711004406663518588,2062,2030,2058,2053,2047,2056,1195
2117,1711004406673515904,2051,2032,2026,2054,2056,2050,1194
2118,1711004406683514885,2053,2040,2056,2056,2049,2053,1198
2119,1711004406693520818,2053,2047,2021,2047,2060,2046,1192
2120,1711004406703518115,2061,2070,2100,2061,2047,2053,1195
2121,1711004406713517656,2056,2096,2059,2052,2053,2049,1195
2122,1711004406723515434,2050,2040,2060,2054,2050,2057,1198
2123,1711004406733512400,2059,2038,2036,2057,2060,2052,1195
2124,1711004406743546888,2049,2042,2064,2051,2042,2050,1196
2125,1711004406753513616,2060,2044,2033,2058,2074,2053,1194
2126,1711004406763522555,2056,2047,2060,2055,2055,2053,1198
2127,1711004406773520103,2053,2046,2045,2056,2057,2054,1193
2128,1711004406783520886,2060,2071,2093,2062,2052,2056,1193
2129,1711004406793521338,2056,2084,2052,2056,2056,2054,1195
2130,1711004406803521541,2058,2048,2062,2056,2047,2057,1195
2131,1711004406813507937,2059,2049,2037,2057,2064,2052,1196
2132,1711004406823517097,2058,2052,2061,2063,2049,2054,1195
2133,1711004406833519693,2056,2069,2049,2058,2068,2056,1196
2134,1711004406843518563,2051,2056,2069,2053,2038,2053,1196
2135,1711004406853529757,2058,2070,2040,2055,2058,2056,1196
2136,1711004406863510522,2060,2072,2076,2057,2046,2056,1195
2137,1711004406873512267,2057,2065,2070,2056,2054,2053,1194
2138,1711004406883513070,2050,2047,2057,2056,2052,2057,1197
2139,1711004406893516680,2060,2062,2041,2058,2060,2052,1196
2140,1711004406903525208,2052,2033,2056,2066,2081,2056,1197
2141,1711004406913520410,2048,2046,2042,2060,2066,2052,1195
2142,1711004406923517226,2056,2051,2056,2058,2047,2059,1196
2143,1711004406933517268,2056,2045,2061,2060,2061,2052,1197
2144,1711004406943532169,2056,2065,2089,2050,2044,2059,1195
2145,1711004406953522673,2061,2066,2057,2057,2061,2057,1195
2146,1711004406963522284,2056,2052,2068,2057,2046,2056,1193
2147,1711004406973522877,2053,2047,2033,2056,2063,2053,1195
2148,1711004406983516998,2052,2045,2057,2052,2048,2056,1196
2149,1711004406993519985,2052,2051,2040,2054,2058,2052,1196
2150,1711004407003518424,2058,2065,2065,2057,2051,2051,1195
2151,1711004407013522334,2060,2068,2039,2053,2053,2049,1196
2152,1711004407023519170,2054,2050,2061,2056,2047,2051,1195
2153,1711004407033517689,2054,2051,2038,2054,2056,2051,1195
2154,1711004407043814705,2053,2061,2088,2055,2049,2056,1196
2155,1711004407053524846,2054,2046,2018,2056,2059,2052,1197
2156,1711004407063504159,2053,2058,2065,2056,2047,2056,1196
2157,1711004407073509150,2056,2056,2060,2054,2060,2046,1192
2158,1711004407083511657,2044,2033,2046,2047,2040,2051,1197
2159,1711004407093538119,2066,2077,2070,2057,2068,2052,1198
2160,1711004407103521299,2048,2048,2056,2056,2045,2056,1196
2161,1711004407113520960,2056,2056,2068,2054,2068,2050,1195
2162,1711004407123518668,2056,2068,2072,2058,2054,2056,1197
2163,1711004407133517358,2058,2061,2065,2053,2064,2051,1197
2164,1711004407143525725,2052,2044,2052,2053,2043,2049,1196
2165,1711004407153518123,2057,2064,2054,2057,2058,2051,1196
2166,1711004407163516802,2066,2064,2091,2057,2053,2057,1197
2167,1711004407173520351,2048,2046,2036,2052,2047,2048,1195
2168,1711004407183520924,2057,2057,2081,2058,2045,2058,1196
2169,1711004407193523761,2058,2057,2070,2056,2060,2051,1197
2170,1711004407203532991,2055,2064,2073,2054,2043,2056,1196
2171,1711004407213517693,2054,2047,2040,2064,2068,2054,1198
2172,1711004407223514018,2061,2062,2074,2056,2045,2058,1196
2173,1711004407233515032,2054,2033,2038,2053,2060,2050,1196
2174,1711004407243517760,2062,2075,2070,2056,2036,2050,1196
2175,1711004407253513833,2054,2047,2048,2056,2065,2051,1196
2176,1711004407263514106,2057,2056,2056,2054,2040,2059,1195
2177,1711004407273514650,2052,2056,2064,2053,2057,2056,1196
2178,1711004407283513098,2056,2050,2056,2049,2043,2056,1198
2179,1711004407293521045,2056,2052,2049,2052,2060,2056,1196
2180,1711004407303515336,2061,2048,2079,2062,2042,2053,1195
2181,1711004407313514607,2048,2072,2052,2052,2056,2047,1193
2182,1711004407323513005,2049,2044,2058,2049,2041,2050,1196
2183,1711004407333515372,2058,2055,2050,2052,2056,2056,1196
2184,1711004407343522308,2056,2070,2066,2053,2050,2055,1193
2185,1711004407353535414,2053,2048,2042,2051,2056,2048,1196
2186,1711004407363525116,2053,2039,2054,2064,2063,2060,1195
2187,1711004407373521381,2054,2048,2038,2054,2063,2053,1194
2188,1711004407383519730,2052,2052,2064,2057,2045,2055,1195
2189,1711004407393534049,2049,2090,2058,2056,2059,2049,1195
2190,1711004407403517369,2056,2062,2074,2056,2044,2056,1195
2191,1711004407413514506,2052,2043,2040,2056,2056,2053,1197
2192,1711004407423514467,2056,2050,2058,2058,2046,2050,1195
2193,1711004407433515321,2052,2054,2049,2067,2081,2052,1196
2194,1711004407443521745,2058,2056,2072,2057,2058,2053,1195
2195,1711004407453519854,2057,2057,2049,2060,2063,2056,1194
2196,1711004407463517731,2053,2062,2089,2057,2051,2054,1196
2197,1711004407473518325,2047,2038,2029,2053,2056,2048,1197
2198,1711004407483520020,2057,2063,2069,2061,2045,2056,1197
2199,1711004407493521935,2053,2056,2040,2058,2082,2056,1197
2200,1711004407503521967,2060,2065,2089,2060,2050,2053,1198
2201,1711004407513523773,2052,2084,2069,2056,2060,2049,1196
2202,1711004407523523695,2050,2069,2065,2054,2049,2052,1195
2203,1711004407533523596,2048,2040,2032,2056,2060,2052,1194
2204,1711004407543537925,2057,2050,2072,2053,2043,2053,1196
2205,1711004407553528770,2056,2049,2016,2055,2050,2050,1193
2206,1711004407563525495,2056,2064,2085,2058,2044,2056,1196
2207,1711004407573525868,2050,2044,2038,2057,2060,2050,1193
2208,1711004407583525329,2061,2054,2073,2050,2034,2052,1194
2209,1711004407593530651,2053,2040,2026,2057,2057,2053,1197
2210,1711004407603531294,2056,2025,2069,2056,2050,2058,1195
2211,1711004407613527118,2059,2054,2058,2060,2064,2052,1195
2212,1711004407623527601,2056,2055,2060,2056,2046,2056,1196
