seq,time,data[0],data[1],data[2],data[3],data[4],data[5],data[6]
201,1711003908694349478,2055,2056,2043,2050,2056,2041,1192
202,1711003908704376718,2056,2053,2065,2052,2028,2056,1195
203,1711003908714409420,2056,2056,2043,2056,2061,2051,1196
204,1711003908724377438,2053,2054,2072,2056,2034,2058,1196
205,1711003908734379953,2056,2054,2045,2053,2072,2050,1196
206,1711003908744378319,2053,2053,2066,2056,2043,2056,1197
207,1711003908754378628,2056,2052,2035,2048,2056,2048,1194
208,1711003908764379299,2053,2065,2078,2056,2031,2057,1196
209,1711003908774387163,2058,2060,2049,2064,2067,2051,1197
210,1711003908784383796,2051,2050,2065,2046,2030,2049,1196
211,1711003908794370900,2058,2058,2040,2059,2076,2058,1195
212,1711003908804384866,2056,2052,2064,2052,2037,2053,1196
213,1711003908814385937,2062,2056,2040,2060,2076,2053,1198
214,1711003908824369956,2054,2053,2065,2065,2036,2056,1196
215,1711003908834369915,2057,2054,2037,2061,2097,2056,1197
216,1711003908844368111,2056,2045,2065,2056,2038,2055,1195
217,1711003908854368561,2050,2044,2039,2056,2074,2052,1198
218,1711003908864369422,2056,2050,2066,2066,2042,2060,1194
219,1711003908874372236,2056,2055,2040,2051,2060,2047,1194
220,1711003908884374520,2060,2053,2058,2054,2038,2056,1196
221,1711003908894369439,2052,2059,2041,2058,2074,2057,1198
222,1711003908904367605,2054,2056,2073,2058,2042,2058,1193
223,1711003908914369098,2061,2057,2043,2060,2081,2053,1196
224,1711003908924370068,2056,2051,2064,2051,2056,2054,1196
225,1711003908934372141,2056,2056,2040,2060,2072,2056,1197
226,1711003908944366821,2060,2050,2060,2056,2037,2052,1194
227,1711003908954371278,2060,2060,2033,2059,2069,2052,1196
228,1711003908964374142,2060,2056,2065,2053,2038,2056,1195
229,1711003908974376326,2056,2055,2040,2056,2064,2050,1196
230,1711003908984369071,2058,2056,2066,2056,2031,2053,1197
231,1711003908994371636,2059,2057,2050,2055,2061,2054,1195
232,1711003909004379029,2053,2042,2057,2060,2072,2063,1197
233,1711003909014369189,2061,2059,2045,2057,2072,2055,1197
234,1711003909024362646,2056,2047,2064,2055,2037,2052,1193
235,1711003909034367254,2056,2059,2044,2060,2073,2053,1196
236,1711003909044367663,2056,2053,2068,2053,2038,2053,1194
237,1711003909054369486,2057,2053,2040,2057,2073,2052,1196
238,1711003909064390035,2055,2052,2061,2054,2036,2057,1193
239,1711003909074371930,2062,2057,2041,2056,2073,2058,1200
240,1711003909084371948,2056,2051,2068,2051,2052,2051,1197
241,1711003909094368271,2058,2084,2050,2062,2082,2052,1194
242,1711003909104372949,2056,2056,2064,2054,2037,2056,1193
243,1711003909114371365,2056,2056,2043,2061,2082,2056,1194
244,1711003909124371354,2053,2057,2087,2056,2036,2053,1195
245,1711003909134369169,2060,2057,2042,2064,2084,2060,1196
246,1711003909144375581,2054,2045,2073,2057,2044,2057,1198
247,1711003909154368916,2056,2056,2042,2058,2067,2049,1195
248,1711003909164378524,2055,2054,2067,2054,2040,2056,1196
249,1711003909174371490,2056,2051,2046,2058,2062,2050,1195
250,1711003909184376439,2056,2050,2069,2051,2029,2057,1197
251,1711003909194371528,2056,2052,2037,2060,2072,2051,1197
252,1711003909204364384,2055,2058,2074,2056,2032,2054,1197
253,1711003909214367118,2052,2052,2044,2057,2077,2053,1197
254,1711003909224367759,2055,2040,2056,2053,2038,2054,1195
255,1711003909234377195,2057,2056,2040,2056,2070,2050,1195
256,1711003909244386082,2056,2077,2073,2047,2024,2053,1196
257,1711003909254369850,2064,2063,2041,2058,2076,2047,1194
258,1711003909264371371,2053,2049,2078,2045,2024,2049,1196
259,1711003909274368525,2057,2049,2039,2056,2072,2053,1197
260,1711003909284366631,2055,2054,2062,2053,2029,2056,1196
261,1711003909294367362,2054,2049,2033,2060,2072,2058,1196
262,1711003909304368202,2052,2046,2068,2053,2033,2052,1195
263,1711003909314369023,2052,2057,2040,2054,2066,2048,1200
264,1711003909324368782,2054,2046,2063,2050,2035,2056,1196
265,1711003909334377228,2060,2054,2040,2059,2072,2057,1197
266,1711003909344363470,2058,2053,2067,2058,2040,2060,1196
267,1711003909354358179,2057,2054,2041,2064,2077,2052,1198
268,1711003909364362006,2061,2052,2069,2062,2058,2060,1196
269,1711003909374364319,2058,2055,2044,2060,2068,2053,1197
270,1711003909384366793,2055,2048,2062,2057,2042,2056,1197
271,1711003909394386149,2054,2054,2034,2051,2066,2047,1193
272,1711003909404383824,2056,2070,2065,2062,2049,2056,1199
273,1711003909414370497,2060,2060,2036,2058,2070,2052,1197
274,1711003909424367771,2056,2052,2070,2061,2069,2061,1196
275,1711003909434368101,2057,2056,2043,2056,2064,2048,1198
276,1711003909444394951,2053,2053,2064,2050,2030,2050,1196
277,1711003909454363771,2051,2052,2039,2053,2065,2050,1196
278,1711003909464370663,2056,2056,2069,2057,2054,2056,1196
279,1711003909474377255,2056,2053,2038,2056,2066,2049,1196
280,1711003909484374068,2053,2052,2064,2050,2038,2058,1197
281,1711003909494386050,2060,2056,2046,2053,2082,2047,1193
282,1711003909504374006,2053,2029,2057,2056,2045,2057,1193
283,1711003909514362334,2062,2045,2045,2054,2066,2057,1197
284,1711003909524359897,2055,2052,2071,2056,2041,2055,1196
285,1711003909534363113,2053,2057,2044,2053,2067,2053,1195
286,1711003909544374674,2057,2056,2069,2052,2042,2056,1194
287,1711003909554366728,2058,2054,2041,2059,2073,2058,1196
288,1711003909564369913,2056,2054,2066,2053,2038,2053,1197
289,1711003909574379591,2056,2056,2056,2052,2068,2052,1195
290,1711003909584368730,2053,2046,2061,2044,2017,2053,1197
291,1711003909594363699,2056,2056,2040,2061,2094,2053,1197
292,1711003909604361243,2059,2056,2068,2060,2039,2058,1197
293,1711003909614370140,2056,2054,2044,2059,2067,2052,1196
294,1711003909624367775,2054,2050,2069,2053,2035,2052,1197
295,1711003909634375097,2058,2053,2042,2058,2080,2051,1197
296,1711003909644364246,2052,2056,2068,2058,2043,2052,1197
297,1711003909654366840,2058,2054,2041,2062,2093,2053,1197
298,1711003909664364415,2049,2050,2065,2054,2037,2056,1195
299,1711003909674367399,2056,2063,2047,2055,2072,2050,1196
300,1711003909684383559,2053,2052,2064,2053,2044,2056,1196
301,1711003909694364041,2056,2057,2042,2059,2064,2056,1195
302,1711003909704367136,2055,2056,2076,2052,2047,2059,1195
303,1711003909714369660,2056,2054,2038,2057,2076,2052,1197
304,1711003909724366924,2056,2054,2069,2062,2056,2061,1198
305,1711003909734362094,2057,2061,2050,2057,2073,2053,1197
306,1711003909744362614,2056,2048,2070,2064,2066,2060,1196
307,1711003909754369526,2058,2058,2042,2057,2067,2053,1196
308,1711003909764367702,2056,2050,2066,2063,2045,2056,1195
309,1711003909774373362,2058,2056,2046,2061,2072,2056,1196
310,1711003909784374904,2056,2048,2071,2057,2040,2059,1194
311,1711003909794379422,2056,2055,2042,2055,2070,2052,1198
312,1711003909804373730,2061,2060,2071,2048,2045,2055,1198
313,1711003909814374390,2054,2041,2040,2056,2060,2053,1196
314,1711003909824367857,2053,2037,2060,2053,2039,2056,1197
315,1711003909834374709,2053,2052,2049,2060,2088,2056,1196
316,1711003909844381652,2053,2047,2066,2057,2039,2054,1196
317,1711003909854365670,2066,2067,2046,2062,2058,2048,1198
318,1711003909864387060,2054,2051,2063,2052,2033,2051,1195
319,1711003909874382060,2056,2056,2045,2061,2075,2048,1197
320,1711003909884381989,2058,2073,2091,2056,2039,2053,1197
321,1711003909894363252,2058,2053,2042,2056,2064,2050,1196
322,1711003909904371978,2058,2051,2084,2056,2052,2056,1195
323,1711003909914455967,2056,2050,2057,2056,2069,2054,1196
324,1711003909924367598,2060,2052,2067,2058,2035,2053,1197
325,1711003909934427741,2052,2046,2036,2055,2092,2047,1193
326,1711003909944358760,2056,2020,2060,2059,2033,2049,1197
327,1711003909954341116,2058,2052,2042,2058,2068,2051,1197
328,1711003909964368536,2056,2052,2068,2054,2038,2058,1197
329,1711003909974378344,2058,2058,2040,2062,2076,2052,1197
330,1711003909984372062,2049,2048,2064,2053,2029,2056,1197
331,1711003909994365638,2062,2057,2039,2056,2065,2050,1194
332,1711003910004372320,2052,2052,2069,2045,2028,2052,1197
333,1711003910014366659,2057,2060,2041,2060,2074,2056,1199
334,1711003910024425911,2053,2051,2077,2047,2037,2051,1196
335,1711003910034378258,2056,2056,2042,2057,2070,2044,1193
336,1711003910044366455,2053,2051,2069,2056,2040,2054,1199
337,1711003910054371715,2058,2058,2041,2060,2090,2058,1196
338,1711003910064366183,2053,2052,2072,2055,2028,2058,1197
339,1711003910074436736,2057,2056,2041,2051,2064,2047,1193
340,1711003910084365420,2056,2052,2073,2052,2029,2054,1195
341,1711003910094327436,2057,2056,2044,2060,2089,2059,1197
342,1711003910104378363,2056,2053,2072,2053,2049,2058,1195
343,1711003910114368493,2058,2056,2039,2064,2072,2053,1197
344,1711003910124379654,2057,2053,2066,2060,2037,2060,1196
345,1711003910134372008,2054,2054,2042,2060,2086,2054,1194
346,1711003910144364713,2056,2054,2068,2053,2022,2056,1196
347,1711003910154408676,2056,2056,2038,2064,2078,2056,1196
348,1711003910164367426,2056,2056,2073,2052,2028,2053,1196
349,1711003910174420767,2054,2058,2040,2063,2088,2057,1196
350,1711003910184404916,2053,2054,2070,2054,2030,2053,1197
351,1711003910194407429,2056,2083,2048,2061,2093,2057,1196
352,1711003910204408781,2060,2065,2101,2059,2030,2060,1197
353,1711003910214408390,2060,2053,2040,2058,2083,2055,1195
354,1711003910224412927,2057,2057,2076,2062,2045,2060,1195
355,1711003910234412396,2052,2059,2041,2058,2076,2048,1197
356,1711003910244410942,2052,2053,2068,2056,2029,2057,1196
357,1711003910254409087,2060,2058,2038,2064,2082,2056,1197
358,1711003910264409878,2054,2054,2066,2056,2020,2058,1197
359,1711003910274413073,2056,2056,2037,2056,2073,2049,1195
360,1711003910284409255,2055,2056,2073,2060,2046,2054,1195
361,1711003910294411198,2058,2058,2040,2058,2080,2049,1195
362,1711003910304411518,2052,2069,2082,2061,2032,2061,1194
363,1711003910314411827,2057,2053,2037,2056,2062,2055,1194
364,1711003910324416405,2052,2051,2070,2061,2036,2053,1196
365,1711003910334411645,2056,2056,2035,2066,2109,2053,1196
366,1711003910344396315,2054,2049,2074,2048,2030,2056,1195
367,1711003910354397937,2061,2056,2034,2056,2079,2053,1196
368,1711003910364398668,2051,2020,2062,2052,2030,2061,1196
369,1711003910374401192,2060,2054,2036,2060,2082,2056,1195
370,1711003910384397323,2049,2049,2071,2056,2032,2055,1196
371,1711003910394398885,2056,2053,2036,2066,2105,2050,1197
372,1711003910404397602,2045,2047,2072,2057,2037,2059,1196
373,1711003910414396869,2057,2056,2037,2069,2098,2049,1195
374,1711003910424405495,2057,2056,2076,2050,2044,2058,1198
375,1711003910434391258,2056,2059,2038,2056,2076,2056,1195
376,1711003910444394502,2058,2054,2078,2042,2020,2054,1198
377,1711003910454393039,2056,2057,2038,2056,2057,2052,1195
378,1711003910464392647,2055,2053,2073,2052,2024,2050,1196
379,1711003910474403567,2057,2053,2032,2060,2079,2056,1196
380,1711003910484390341,2050,2055,2068,2052,2026,2053,1197
381,1711003910494394809,2057,2054,2030,2057,2088,2056,1196
382,1711003910504392183,2050,2052,2074,2047,2016,2053,1194
383,1711003910514391821,2056,2056,2041,2058,2078,2052,1197
384,1711003910524479878,2056,2052,2074,2054,2032,2056,1196
385,1711003910534384947,2052,2052,2037,2052,2069,2046,1193
386,1711003910544388632,2051,2026,2070,2052,2034,2060,1196
387,1711003910554393741,2063,2048,2036,2064,2088,2056,1197
388,1711003910564391546,2053,2051,2066,2049,2024,2058,1197
389,1711003910574418616,2052,2051,2035,2062,2094,2056,1198
390,1711003910584389581,2060,2063,2084,2056,2032,2056,1197
391,1711003910594368249,2067,2064,2038,2061,2086,2056,1197
392,1711003910604455924,2052,2052,2073,2052,2024,2054,1198
393,1711003910614390309,2060,2061,2045,2063,2092,2056,1196
394,1711003910624387864,2055,2054,2069,2048,2015,2051,1196
395,1711003910634386440,2057,2052,2040,2059,2082,2046,1195
396,1711003910644383423,2053,2049,2073,2057,2029,2054,1198
397,1711003910654384745,2057,2053,2032,2055,2084,2050,1196
398,1711003910664383722,2045,2049,2067,2045,2018,2054,1196
399,1711003910674402166,2064,2055,2033,2056,2059,2047,1193
400,1711003910684398238,2053,2042,2064,2061,2047,2060,1195
401,1711003910694387687,2065,2060,2034,2057,2077,2050,1194
402,1711003910704396292,2047,2050,2069,2048,2034,2056,1195
403,1711003910714404377,2056,2057,2037,2062,2098,2056,1195
404,1711003910724407632,2056,2046,2073,2052,2026,2056,1197
405,1711003910734425355,2054,2056,2036,2057,2092,2051,1197
406,1711003910744381741,2051,2052,2091,2050,2030,2049,1197
407,1711003910754382773,2058,2056,2035,2059,2088,2050,1197
408,1711003910764384494,2056,2050,2069,2047,2020,2053,1196
409,1711003910774384904,2058,2058,2027,2058,2083,2052,1195
410,1711003910784383742,2053,2051,2072,2054,2026,2055,1196
411,1711003910794400332,2058,2056,2040,2061,2090,2052,1196
412,1711003910804381515,2050,2055,2076,2060,2066,2057,1199
413,1711003910814386584,2059,2051,2035,2062,2080,2054,1198
414,1711003910824385741,2059,2053,2069,2056,2033,2058,1195
415,1711003910834403755,2056,2053,2035,2041,2057,2041,1194
416,1711003910844383165,2054,2056,2074,2052,2027,2057,1195
417,1711003910854385428,2060,2060,2040,2062,2084,2056,1196
418,1711003910864384716,2053,2052,2072,2056,2029,2057,1196
419,1711003910874409763,2060,2061,2056,2062,2082,2052,1195
420,1711003910884381388,2049,2050,2068,2052,2025,2056,1196
421,1711003910894386226,2057,2057,2036,2058,2078,2050,1198
422,1711003910904390744,2060,2056,2070,2057,2032,2058,1194
423,1711003910914388439,2056,2058,2038,2060,2078,2052,1194
424,1711003910924384860,2049,2049,2068,2059,2034,2052,1196
425,1711003910934393957,2058,2056,2050,2056,2073,2049,1193
426,1711003910944388526,2047,2049,2061,2056,2028,2048,1195
427,1711003910954382563,2062,2053,2033,2069,2089,2054,1196
428,1711003910964382172,2054,2054,2073,2054,2024,2056,1197
429,1711003910974376791,2060,2096,2078,2060,2075,2054,1195
430,1711003910984394844,2056,2056,2069,2055,2033,2056,1197
431,1711003910994381207,2059,2056,2040,2063,2081,2052,1195
432,1711003911004383421,2055,2065,2086,2054,2031,2060,1196
433,1711003911014383830,2053,2056,2036,2059,2078,2052,1197
434,1711003911024411432,2056,2054,2073,2056,2028,2057,1198
435,1711003911034384781,2055,2060,2038,2057,2076,2049,1196
436,1711003911044386252,2053,2052,2070,2054,2026,2054,1195
437,1711003911054386151,2058,2056,2031,2049,2072,2045,1191
438,1711003911064405928,2053,2058,2073,2053,2027,2057,1197
439,1711003911074386049,2057,2032,2027,2061,2082,2053,1194
440,1711003911084389866,2056,2045,2065,2056,2022,2054,1195
441,1711003911094384294,2061,2057,2034,2060,2084,2054,1198
442,1711003911104382499,2054,2049,2076,2052,2031,2056,1195
443,1711003911114382689,2061,2063,2043,2062,2080,2052,1199
444,1711003911124388419,2052,2042,2065,2056,2028,2056,1195
445,1711003911134391634,2052,2056,2028,2057,2072,2050,1194
446,1711003911144385542,2052,2050,2070,2050,2030,2058,1197
447,1711003911154386472,2060,2058,2040,2056,2081,2052,1197
448,1711003911164418993,2053,2077,2082,2052,2032,2054,1196
449,1711003911174401489,2058,2060,2054,2061,2078,2053,1197
450,1711003911184381069,2045,2050,2068,2052,2036,2056,1196
451,1711003911194383152,2052,2057,2037,2058,2075,2053,1195
452,1711003911204383352,2050,2049,2072,2052,2029,2054,1196
453,1711003911214383671,2056,2055,2036,2056,2076,2046,1193
454,1711003911224397797,2050,2053,2072,2053,2027,2058,1197
455,1711003911234392346,2056,2059,2041,2061,2085,2051,1196
456,1711003911244383708,2053,2050,2072,2046,2032,2053,1196
457,1711003911254383107,2058,2056,2036,2057,2091,2054,1195
458,1711003911264397393,2052,2063,2084,2056,2032,2056,1196
459,1711003911274384657,2057,2050,2043,2060,2076,2050,1195
460,1711003911284388153,2051,2050,2072,2052,2019,2050,1195
461,1711003911294390096,2065,2059,2037,2060,2080,2053,1194
462,1711003911304385917,2043,2047,2069,2048,2016,2055,1193
463,1711003911314384654,2059,2056,2041,2060,2078,2053,1195
464,1711003911324396274,2052,2052,2073,2056,2030,2056,1196
465,1711003911334384391,2056,2052,2035,2059,2080,2053,1195
466,1711003911344384521,2053,2049,2076,2051,2040,2056,1195
467,1711003911354381974,2057,2056,2036,2057,2101,2056,1197
468,1711003911364382715,2053,2056,2073,2047,2019,2051,1196
469,1711003911374403654,2058,2056,2029,2064,2089,2057,1197
470,1711003911384380138,2053,2049,2068,2065,2066,2059,1196
471,1711003911394380228,2063,2058,2041,2056,2074,2053,1193
472,1711003911404380968,2064,2056,2070,2052,2024,2056,1196
473,1711003911414384363,2059,2056,2037,2059,2085,2052,1196
474,1711003911424402006,2052,2050,2072,2057,2031,2054,1195
475,1711003911434384642,2058,2056,2033,2063,2085,2053,1196
476,1711003911444395071,2054,2054,2076,2050,2027,2056,1196
477,1711003911454386003,2056,2055,2036,2056,2074,2047,1194
478,1711003911464400609,2055,2052,2071,2049,2024,2061,1197
479,1711003911474385610,2058,2052,2031,2053,2065,2049,1196
480,1711003911484381913,2049,2053,2069,2044,2018,2049,1194
481,1711003911494385057,2057,2060,2037,2052,2079,2053,1196
482,1711003911504384225,2056,2052,2074,2049,2030,2056,1196
483,1711003911514431143,2059,2056,2036,2055,2070,2052,1194
484,1711003911524429859,2051,2050,2076,2052,2032,2057,1196
485,1711003911534431291,2056,2059,2042,2065,2090,2057,1197
486,1711003911544447291,2056,2064,2075,2052,2024,2053,1196
487,1711003911554408817,2058,2056,2036,2058,2071,2049,1197
488,1711003911564428974,2057,2054,2067,2054,2029,2056,1196
489,1711003911574404466,2058,2060,2038,2059,2070,2050,1197
490,1711003911584410287,2056,2052,2073,2060,2035,2064,1196
491,1711003911594413041,2060,2062,2051,2065,2074,2056,1195
492,1711003911604413661,2053,2081,2082,2060,2035,2057,1198
493,1711003911614430923,2058,2062,2042,2062,2077,2052,1197
494,1711003911624405935,2049,2047,2070,2048,2019,2053,1195
495,1711003911634408398,2058,2057,2040,2054,2062,2048,1194
496,1711003911644435248,2056,2054,2070,2051,2015,2049,1196
497,1711003911654435929,2057,2056,2041,2071,2107,2056,1193
498,1711003911664384730,2053,2049,2078,2049,2030,2061,1197
499,1711003911674402173,2058,2060,2053,2058,2073,2045,1194
500,1711003911684403404,2053,2050,2071,2054,2031,2056,1198
501,1711003911694398644,2058,2058,2041,2057,2081,2054,1196
502,1711003911704397451,2053,2053,2089,2045,2008,2048,1194
503,1711003911714408621,2056,2056,2035,2064,2080,2050,1196
504,1711003911724392459,2052,2049,2070,2057,2032,2061,1195
505,1711003911734398150,2059,2059,2036,2056,2080,2050,1196
506,1711003911744404219,2052,2053,2068,2056,2032,2056,1195
507,1711003911754404459,2051,2038,2033,2050,2080,2047,1192
508,1711003911764407034,2052,2040,2070,2055,2035,2058,1196
509,1711003911774401862,2065,2058,2036,2058,2080,2052,1193
510,1711003911784382174,2048,2049,2074,2056,2049,2058,1195
511,1711003911794401611,2055,2058,2040,2062,2073,2052,1197
512,1711003911804396710,2051,2050,2072,2052,2029,2053,1196
513,1711003911814395156,2061,2056,2043,2058,2073,2051,1196
514,1711003911824396177,2050,2042,2069,2050,2024,2049,1197
515,1711003911834393922,2060,2062,2025,2056,2074,2050,1194
516,1711003911844390825,2053,2046,2068,2052,2029,2058,1194
517,1711003911854394881,2061,2056,2038,2058,2080,2053,1194
518,1711003911864401964,2056,2050,2072,2052,2033,2058,1197
519,1711003911874400130,2056,2056,2037,2057,2065,2047,1192
520,1711003911884392464,2050,2050,2072,2054,2029,2054,1196
521,1711003911894392032,2060,2056,2040,2059,2076,2052,1193
522,1711003911904391451,2050,2052,2066,2046,2017,2052,1194
523,1711003911914391599,2061,2075,2053,2060,2086,2053,1194
524,1711003911924411236,2050,2067,2077,2050,2033,2056,1196
525,1711003911934495666,2065,2064,2040,2060,2072,2048,1193
526,1711003911944407527,2053,2056,2088,2060,2036,2057,1198
527,1711003911954398319,2055,2058,2036,2061,2084,2054,1194
528,1711003911964402746,2050,2054,2074,2050,2045,2056,1196
529,1711003911974405801,2056,2057,2034,2056,2074,2050,1194
530,1711003911984385652,2053,2050,2070,2052,2018,2053,1196
531,1711003911994391842,2056,2055,2037,2058,2071,2044,1192
532,1711003912004397592,2054,2044,2068,2049,2029,2056,1196
533,1711003912014394356,2062,2057,2034,2061,2077,2056,1195
534,1711003912024395967,2058,2050,2069,2047,2033,2057,1195
535,1711003912034390556,2053,2055,2041,2060,2096,2053,1195
536,1711003912044389343,2052,2054,2068,2050,2024,2056,1196
537,1711003912054391115,2058,2057,2041,2062,2081,2052,1195
538,1711003912064397887,2052,2055,2078,2045,2010,2042,1192
539,1711003912074405671,2059,2060,2047,2060,2075,2048,1195
540,1711003912084386133,2052,2049,2064,2046,2018,2051,1197
541,1711003912094393917,2059,2058,2038,2055,2068,2049,1194
542,1711003912104382404,2052,2049,2069,2058,2034,2062,1196
543,1711003912114379167,2056,2054,2038,2058,2092,2047,1192
544,1711003912124376620,2058,2056,2077,2056,2032,2059,1196
545,1711003912134389675,2056,2056,2046,2066,2080,2058,1195
546,1711003912144377200,2056,2050,2070,2059,2044,2056,1195
547,1711003912154378411,2060,2064,2047,2062,2080,2052,1197
548,1711003912164381687,2053,2045,2072,2050,2033,2057,1195
549,1711003912174375032,2061,2059,2035,2056,2076,2050,1198
550,1711003912184381795,2053,2050,2072,2046,2021,2057,1195
551,1711003912194369220,2057,2056,2036,2060,2077,2047,1192
552,1711003912204378236,2052,2052,2070,2049,2024,2050,1197
553,1711003912214381241,2062,2062,2047,2057,2073,2053,1197
554,1711003912224376240,2053,2080,2084,2052,2031,2053,1196
555,1711003912234385557,2058,2060,2038,2061,2078,2052,1195
556,1711003912244416845,2054,2049,2072,2057,2042,2057,1196
557,1711003912254377970,2060,2073,2047,2060,2074,2053,1195
558,1711003912264386145,2053,2053,2092,2048,2021,2057,1196
559,1711003912274373079,2057,2058,2040,2057,2073,2049,1197
560,1711003912284407343,2053,2050,2065,2047,2033,2057,1196
561,1711003912294375071,2059,2056,2032,2061,2078,2052,1197
562,1711003912304359209,2054,2048,2073,2053,2028,2058,1194
563,1711003912314410236,2065,2060,2040,2062,2081,2052,1194
564,1711003912324379295,2052,2052,2073,2060,2038,2057,1195
565,1711003912334382381,2059,2064,2048,2059,2076,2052,1195
566,1711003912344411114,2044,2047,2067,2050,2025,2052,1194
567,1711003912354379132,2061,2057,2037,2057,2080,2050,1197
568,1711003912364367560,2047,2047,2064,2068,2058,2053,1195
569,1711003912374370634,2060,2061,2035,2057,2080,2051,1196
570,1711003912384379170,2052,2050,2071,2058,2033,2058,1194
571,1711003912394375412,2057,2063,2036,2060,2082,2052,1197
572,1711003912404374839,2053,2053,2072,2050,2026,2056,1197
573,1711003912414371683,2058,2048,2036,2060,2075,2053,1200
574,1711003912424368254,2057,2045,2064,2053,2027,2054,1196
575,1711003912434407729,2055,2046,2029,2057,2068,2047,1192
576,1711003912444404662,2053,2053,2067,2056,2028,2054,1194
577,1711003912454399892,2060,2056,2031,2061,2081,2052,1195
578,1711003912464385143,2052,2056,2074,2054,2030,2056,1194
579,1711003912474383629,2064,2082,2047,2061,2081,2057,1194
580,1711003912484409627,2058,2054,2072,2052,2017,2054,1197
581,1711003912494371304,2064,2060,2043,2058,2074,2056,1196
582,1711003912504393545,2048,2046,2074,2045,2015,2053,1194
583,1711003912514390318,2056,2058,2034,2056,2073,2051,1196
584,1711003912524398752,2051,2049,2069,2048,2031,2057,1195
585,1711003912534375538,2058,2084,2052,2070,2094,2061,1196
586,1711003912544396848,2062,2056,2069,2051,2041,2056,1198
587,1711003912554387037,2062,2060,2039,2060,2082,2056,1198
588,1711003912564398639,2052,2048,2072,2053,2024,2053,1196
589,1711003912574376626,2063,2072,2047,2058,2074,2047,1192
590,1711003912584376484,2056,2054,2077,2050,2028,2058,1197
591,1711003912594382235,2057,2061,2037,2060,2079,2056,1196
592,1711003912604388134,2050,2047,2072,2050,2024,2053,1197
593,1711003912614375911,2057,2085,2054,2058,2077,2052,1197
594,1711003912624372713,2047,2042,2064,2047,2028,2048,1198
595,1711003912634394283,2056,2058,2046,2058,2067,2045,1193
596,1711003912644370618,2051,2044,2068,2051,2033,2058,1197
597,1711003912654398499,2061,2058,2041,2064,2096,2054,1195
598,1711003912664396805,2055,2049,2066,2058,2037,2052,1197
599,1711003912674394720,2060,2074,2044,2062,2084,2054,1196
600,1711003912684391313,2057,2056,2072,2047,2021,2053,1196
601,1711003912694391863,2067,2064,2040,2068,2089,2050,1195
602,1711003912704386752,2053,2066,2084,2054,2024,2059,1193
603,1711003912714384056,2056,2056,2036,2061,2079,2055,1194
604,1711003912724372953,2051,2056,2069,2060,2029,2060,1195
605,1711003912734394654,2058,2060,2049,2062,2082,2056,1196
606,1711003912744393752,2052,2049,2068,2049,2028,2054,1197
607,1711003912754388781,2057,2057,2038,2059,2083,2053,1196
608,1711003912764387117,2050,2050,2065,2056,2030,2053,1194
609,1711003912774392335,2064,2059,2040,2044,2079,2054,1193
610,1711003912784373088,2049,2049,2064,2055,2027,2053,1195
611,1711003912794393837,2054,2055,2031,2057,2082,2051,1194
612,1711003912804374729,2046,2048,2069,2056,2032,2056,1197
613,1711003912814383054,2058,2057,2040,2060,2080,2053,1198
614,1711003912824371952,2048,2047,2068,2056,2028,2056,1198
615,1711003912834379766,2058,2061,2041,2060,2077,2053,1197
616,1711003912844408009,2053,2045,2072,2058,2066,2056,1197
617,1711003912854383380,2061,2047,2037,2060,2072,2046,1193
618,1711003912864370666,2053,2052,2070,2055,2031,2056,1196
619,1711003912874365925,2055,2051,2038,2061,2084,2054,1194
620,1711003912884366355,2054,2051,2072,2046,2021,2052,1196
621,1711003912894396522,2061,2061,2039,2057,2078,2056,1196
622,1711003912904378727,2056,2052,2073,2057,2042,2058,1196
623,1711003912914386391,2058,2052,2039,2060,2070,2052,1196
624,1711003912924378555,2054,2054,2072,2053,2037,2060,1196
625,1711003912934370698,2057,2069,2047,2056,2072,2053,1195
626,1711003912944405093,2048,2051,2070,2059,2059,2054,1196
627,1711003912954373071,2058,2060,2046,2060,2080,2049,1197
628,1711003912964384803,2054,2053,2073,2056,2030,2056,1196
629,1711003912974387176,2060,2057,2040,2058,2071,2049,1196
630,1711003912984386864,2051,2052,2068,2045,2021,2052,1196
631,1711003912994397794,2054,2050,2034,2062,2089,2056,1196
632,1711003913004372525,2046,2056,2061,2051,2025,2052,1196
633,1711003913014375019,2066,2073,2049,2063,2080,2052,1196
634,1711003913024368304,2052,2050,2075,2048,2020,2052,1197
635,1711003913034378183,2061,2060,2041,2058,2076,2050,1194
636,1711003913044373994,2056,2051,2072,2052,2030,2059,1196
637,1711003913054379172,2061,2050,2034,2059,2091,2055,1196
638,1711003913064373210,2054,2056,2095,2056,2026,2055,1196
639,1711003913074371335,2061,2056,2039,2060,2073,2051,1196
640,1711003913084376565,2059,2079,2092,2051,2032,2052,1196
641,1711003913094386752,2054,2056,2036,2064,2080,2054,1196
642,1711003913104378216,2053,2051,2071,2052,2030,2057,1194
643,1711003913114371942,2056,2057,2039,2062,2079,2054,1197
644,1711003913124368164,2049,2047,2065,2052,2030,2050,1196
645,1711003913134372271,2059,2058,2042,2060,2082,2053,1194
646,1711003913144369695,2051,2066,2081,2054,2027,2056,1195
647,1711003913154377279,2050,2030,2025,2061,2079,2051,1197
648,1711003913164377147,2056,2045,2073,2058,2037,2059,1196
649,1711003913174402605,2060,2056,2037,2064,2084,2061,1195
650,1711003913184375832,2052,2052,2070,2061,2069,2062,1196
651,1711003913194394858,2056,2056,2037,2056,2073,2052,1197
652,1711003913204368006,2049,2049,2069,2050,2024,2053,1197
653,1711003913214376641,2062,2057,2039,2060,2076,2054,1196
654,1711003913224374306,2052,2055,2071,2048,2033,2058,1197
655,1711003913234374434,2058,2056,2039,2065,2085,2048,1197
656,1711003913244374364,2053,2040,2057,2053,2030,2057,1196
657,1711003913254369833,2060,2055,2038,2056,2078,2053,1197
658,1711003913264375504,2052,2047,2065,2043,2010,2048,1196
659,1711003913274386173,2052,2064,2043,2059,2073,2053,1197
660,1711003913284391782,2054,2055,2070,2042,2005,2052,1196
661,1711003913294406951,2064,2052,2038,2056,2062,2060,1196
662,1711003913304379547,2057,2049,2070,2051,1973,2055,1195
663,1711003913314377553,2061,2056,2040,2058,2080,2058,1197
664,1711003913324377521,2056,2048,2068,2042,2017,2058,1197
665,1711003913334378162,2068,2060,2045,2062,2072,2044,1193
666,1711003913344389541,2054,2052,2068,2055,2036,2052,1198
667,1711003913354376847,2061,2090,2064,2072,2077,2056,1196
668,1711003913364381685,2056,2042,2054,2060,2032,2056,1197
669,1711003913374379379,2056,2052,2032,2061,2081,2053,1195
670,1711003913384380681,2055,2052,2072,2058,2028,2054,1197
671,1711003913394385098,2052,2056,2036,2054,2072,2046,1191
672,1711003913404355822,2048,2068,2076,2053,2032,2056,1197
673,1711003913414382852,2067,2074,2051,2061,2096,2051,1197
674,1711003913424361861,2052,2065,2080,2052,2025,2052,1196
675,1711003913434381587,2056,2059,2041,2057,2080,2053,1197
676,1711003913444388469,2056,2051,2072,2056,2021,2056,1196
677,1711003913454360355,2060,2059,2046,2068,2098,2057,1194
678,1711003913464383618,2049,2051,2072,2052,2015,2050,1197
679,1711003913474383427,2053,2055,2038,2060,2078,2054,1196
680,1711003913484384047,2051,2051,2067,2052,2020,2048,1195
681,1711003913494392272,2057,2054,2037,2064,2081,2053,1196
682,1711003913504357714,2052,2056,2080,2056,2016,2057,1194
683,1711003913514368715,2059,2058,2045,2059,2065,2056,1196
684,1711003913524368653,2054,2054,2072,2057,2034,2056,1197
685,1711003913534368632,2061,2058,2040,2060,2080,2053,1197
686,1711003913544359875,2057,2056,2076,2052,2030,2057,1197
687,1711003913554356647,2064,2059,2038,2060,2078,2050,1196
688,1711003913564370583,2050,2052,2070,2053,2036,2061,1197
689,1711003913574369650,2058,2058,2035,2060,2084,2056,1196
690,1711003913584365381,2056,2073,2079,2049,2029,2056,1197
691,1711003913594387702,2061,2058,2037,2061,2078,2049,1197
692,1711003913604393783,2050,2064,2077,2049,2025,2052,1197
693,1711003913614372571,2058,2057,2035,2059,2111,2057,1197
694,1711003913624368573,2048,2048,2060,2056,2048,2052,1195
695,1711003913634368382,2058,2055,2034,2062,2078,2056,1198
696,1711003913644371045,2053,2066,2072,2050,2029,2055,1198
697,1711003913654353081,2067,2060,2038,2062,2085,2054,1196
698,1711003913664368959,2053,2063,2092,2057,2031,2056,1197
699,1711003913674366133,2057,2051,2036,2054,2077,2056,1197
700,1711003913684370430,2052,2049,2067,2050,2024,2052,1194
701,1711003913694379096,2064,2058,2045,2064,2080,2052,1197
702,1711003913704371450,2053,2053,2077,2050,2020,2052,1194
703,1711003913714370677,2054,2053,2038,2060,2082,2060,1194
704,1711003913724370827,2047,2024,2061,2052,2020,2049,1196
705,1711003913734370425,2066,2053,2041,2070,2092,2060,1196
706,1711003913744385523,2049,2047,2066,2052,2021,2052,1197
707,1711003913754362357,2057,2050,2041,2060,2081,2053,1198
708,1711003913764367366,2047,2047,2068,2053,2024,2052,1197
709,1711003913774335073,2064,2065,2052,2076,2101,2054,1196
710,1711003913784368957,2051,2052,2070,2055,2024,2056,1195
711,1711003913794377252,2056,2057,2045,2064,2106,2052,1196
712,1711003913804354407,2054,2047,2066,2054,2032,2054,1199
713,1711003913814366369,2052,2060,2040,2059,2075,2049,1198
714,1711003913824388299,2050,2049,2068,2047,2027,2052,1196
715,1711003913834365866,2059,2058,2037,2052,2080,2052,1197
716,1711003913844386223,2050,2048,2068,2049,2024,2054,1197
717,1711003913854356746,2057,2056,2041,2060,2073,2055,1195
718,1711003913864372295,2058,2050,2061,2053,2034,2065,1195
719,1711003913874375640,2068,2048,2037,2066,2094,2060,1197
720,1711003913884370029,2051,2050,2070,2053,2032,2052,1196
721,1711003913894381719,2066,2060,2046,2069,2093,2057,1196
722,1711003913904369686,2057,2052,2069,2053,2042,2056,1197
723,1711003913914371778,2057,2056,2040,2053,2066,2043,1194
724,1711003913924373120,2048,2053,2072,2053,2023,2052,1196
725,1711003913934373359,2062,2071,2057,2060,2075,2054,1194
726,1711003913944371705,2052,2048,2072,2046,2024,2054,1197
727,1711003913954357797,2058,2058,2041,2057,2076,2054,1194
728,1711003913964369509,2048,2049,2066,2049,2024,2056,1195
729,1711003913974370300,2057,2054,2045,2060,2069,2053,1197
730,1711003913984408070,2046,2050,2066,2050,2004,2046,1192
731,1711003913994380136,2056,2053,2043,2060,2076,2056,1196
732,1711003914004356931,2055,2069,2072,2052,2030,2056,1196
733,1711003914014372820,2072,2068,2050,2058,2076,2052,1197
734,1711003914024372558,2056,2046,2058,2049,2026,2054,1197
735,1711003914034371125,2056,2056,2038,2051,2061,2047,1193
736,1711003914044360473,2053,2048,2064,2047,2033,2060,1196
737,1711003914054372385,2061,2061,2055,2062,2072,2050,1197
738,1711003914064369648,2056,2053,2060,2052,2040,2056,1196
739,1711003914074374156,2056,2058,2042,2057,2080,2049,1198
740,1711003914084372642,2052,2060,2071,2049,2022,2050,1196
741,1711003914094385616,2058,2060,2044,2058,2079,2054,1195
742,1711003914104370837,2052,2046,2062,2052,2033,2054,1196
743,1711003914114368711,2052,2056,2040,2065,2072,2046,1193
744,1711003914124365444,2062,2061,2091,2050,2022,2062,1195
745,1711003914134368619,2053,2029,2031,2059,2076,2049,1194
746,1711003914144389147,2056,2040,2062,2051,2030,2056,1198
747,1711003914154358027,2057,2048,2036,2055,2064,2048,1195
748,1711003914164364288,2053,2041,2058,2051,2028,2048,1198
749,1711003914174365779,2058,2060,2045,2056,2077,2048,1198
750,1711003914184364576,2052,2051,2064,2056,2042,2054,1200
751,1711003914194380745,2062,2066,2057,2056,2063,2056,1195
752,1711003914204369493,2060,2053,2066,2056,2034,2059,1197
753,1711003914214368650,2052,2046,2037,2055,2070,2053,1197
754,1711003914224371254,2056,2050,2061,2044,2021,2052,1197
755,1711003914234368838,2061,2060,2043,2056,2066,2049,1198
756,1711003914244371753,2060,2065,2076,2057,2034,2056,1195
757,1711003914254362364,2056,2055,2046,2058,2069,2052,1195
758,1711003914264366982,2058,2055,2062,2050,2047,2056,1195
759,1711003914274370587,2059,2056,2045,2057,2061,2051,1196
760,1711003914284368222,2052,2051,2064,2042,2018,2047,1194
761,1711003914294391845,2056,2056,2042,2052,2068,2053,1195
762,1711003914304375804,2051,2052,2062,2058,2042,2056,1195
763,1711003914314367617,2059,2061,2045,2059,2076,2065,1194
764,1711003914324366785,2054,2052,2072,2053,2044,2061,1197
765,1711003914334368827,2056,2049,2041,2060,2073,2056,1197
766,1711003914344364969,2052,2053,2079,2052,2035,2056,1196
767,1711003914354364387,2058,2056,2056,2056,2051,2057,1196
768,1711003914364362282,2051,2051,2060,2045,2027,2047,1193
769,1711003914374369855,2056,2057,2046,2060,2072,2057,1197
770,1711003914384365055,2056,2056,2060,2054,2041,2056,1196
771,1711003914394396433,2058,2057,2047,2064,2075,2057,1197
772,1711003914404366956,2052,2048,2068,2056,2030,2050,1196
773,1711003914414367276,2056,2054,2045,2061,2076,2051,1197
774,1711003914424368717,2052,2040,2047,2051,2034,2060,1197
775,1711003914434368026,2060,2047,2044,2060,2075,2061,1197
776,1711003914444368986,2056,2052,2062,2062,2043,2054,1196
777,1711003914454368484,2061,2059,2052,2065,2082,2056,1195
778,1711003914464366228,2054,2052,2066,2057,2034,2056,1196
779,1711003914474370235,2053,2058,2046,2060,2072,2052,1197
780,1711003914484371296,2052,2050,2061,2058,2039,2056,1195
781,1711003914494368800,2061,2057,2050,2056,2068,2052,1196
782,1711003914504378788,2050,2049,2065,2045,2025,2045,1193
783,1711003914514372435,2058,2057,2043,2056,2058,2053,1194
784,1711003914524374868,2059,2064,2085,2052,2027,2055,1197
785,1711003914534375108,2058,2061,2042,2063,2084,2050,1196
786,1711003914544377992,2056,2058,2066,2047,2034,2057,1197
787,1711003914554371980,2060,2052,2045,2061,2074,2052,1196
788,1711003914564316102,2048,2047,2056,2044,2036,2057,1196
789,1711003914574372458,2056,2056,2041,2060,2072,2052,1195
790,1711003914584374070,2055,2049,2061,2047,2032,2052,1196
791,1711003914594382866,2061,2061,2059,2062,2072,2054,1196
792,1711003914604380069,2056,2052,2069,2050,2042,2056,1195
793,1711003914614380008,2054,2052,2040,2053,2057,2046,1194
794,1711003914624380037,2056,2055,2062,2053,2037,2056,1195
795,1711003914634378894,2052,2054,2041,2056,2063,2053,1197
796,1711003914644378302,2050,2048,2056,2047,2032,2059,1197
797,1711003914654364985,2061,2061,2050,2065,2074,2053,1195
798,1711003914664362309,2056,2056,2069,2054,2043,2056,1196
799,1711003914674377437,2059,2054,2045,2058,2080,2047,1194
800,1711003914684370863,2053,2030,2056,2052,2025,2049,1197
801,1711003914694396912,2058,2049,2045,2068,2085,2057,1197
802,1711003914704365060,2058,2058,2075,2052,2036,2056,1194
803,1711003914714365930,2066,2064,2048,2056,2063,2049,1195
804,1711003914724368725,2057,2056,2065,2052,2049,2064,1197
805,1711003914734366499,2072,2076,2052,2058,2065,2052,1194
806,1711003914744382479,2077,2059,2065,2054,2034,2064,1198
807,1711003914754359754,2058,2053,2044,2060,2056,2055,1196
808,1711003914764370133,2050,2064,2088,2063,2032,2044,1193
809,1711003914774367607,2056,2053,2043,2062,2076,2052,1195
810,1711003914784365603,2053,2058,2075,2052,2036,2052,1197
811,1711003914794395027,2063,2058,2048,2058,2062,2051,1197
812,1711003914804366712,2055,2054,2075,2043,2013,2051,1197
813,1711003914814367222,2050,2045,2037,2057,2061,2052,1198
814,1711003914824368173,2058,2067,2073,2053,2033,2055,1195
815,1711003914834365176,2056,2053,2037,2059,2074,2053,1197
816,1711003914844370455,2056,2054,2064,2052,2033,2045,1193
817,1711003914854358832,2057,2058,2060,2074,2122,2055,1197
818,1711003914864367457,2053,2057,2076,2053,2045,2052,1196
819,1711003914874365011,2056,2062,2046,2060,2069,2050,1195
820,1711003914884368126,2049,2049,2065,2052,2035,2056,1195
821,1711003914894380228,2059,2061,2051,2064,2082,2055,1193
822,1711003914904395326,2053,2043,2057,2050,2026,2063,1192
823,1711003914914368083,2056,2056,2043,2056,2073,2056,1197
824,1711003914924367931,2053,2051,2065,2056,2041,2059,1197
825,1711003914934369723,2056,2052,2046,2060,2066,2052,1198
826,1711003914944360265,2057,2058,2058,2058,2043,2062,1195
827,1711003914954362869,2058,2042,2036,2052,2064,2050,1195
828,1711003914964369159,2051,2043,2057,2045,2028,2049,1196
829,1711003914974366955,2057,2052,2050,2060,2072,2055,1196
830,1711003914984366763,2052,2042,2056,2053,2044,2057,1195
831,1711003914994385267,2059,2060,2049,2059,2068,2062,1196
832,1711003915004363364,2057,2050,2066,2056,2043,2054,1197
833,1711003915014368984,2058,2056,2060,2056,2073,2054,1199
834,1711003915024367329,2056,2047,2061,2053,2047,2059,1197
835,1711003915034369563,2058,2052,2045,2057,2067,2059,1196
836,1711003915044331489,2056,2053,2067,2053,2042,2056,1197
837,1711003915054364380,2060,2057,2045,2062,2073,2053,1196
838,1711003915064368948,2056,2056,2071,2053,2047,2052,1196
839,1711003915074367924,2059,2068,2064,2059,2067,2058,1196
840,1711003915084366451,2048,2033,2066,2049,2025,2056,1196
841,1711003915094386568,2064,2047,2041,2070,2077,2056,1197
842,1711003915104356520,2054,2052,2064,2040,2029,2054,1192
843,1711003915114362309,2052,2053,2046,2052,2060,2043,1194
844,1711003915124362940,2057,2053,2066,2054,2038,2057,1198
845,1711003915134362878,2058,2052,2052,2058,2074,2052,1197
846,1711003915144389227,2050,2039,2051,2045,2043,2056,1196
847,1711003915154360371,2057,2058,2056,2057,2064,2049,1196
848,1711003915164365370,2046,2045,2057,2053,2042,2054,1197
849,1711003915174364927,2059,2052,2044,2050,2056,2054,1196
850,1711003915184367191,2053,2056,2062,2050,2024,2046,1192
851,1711003915194368853,2056,2053,2043,2059,2075,2054,1197
852,1711003915204372208,2060,2047,2058,2051,2032,2056,1197
853,1711003915214370494,2058,2056,2047,2056,2068,2049,1196
854,1711003915224375071,2052,2071,2076,2056,2035,2054,1197
855,1711003915234368037,2060,2053,2041,2058,2066,2051,1198
856,1711003915244370821,2059,2057,2068,2052,2027,2050,1199
857,1711003915254357434,2056,2056,2041,2057,2082,2051,1196
858,1711003915264370278,2052,2047,2054,2051,2042,2052,1194
859,1711003915274370437,2066,2073,2065,2064,2063,2059,1196
860,1711003915284367190,2049,2050,2057,2056,2031,2053,1195
861,1711003915294388489,2060,2056,2044,2062,2070,2053,1197
862,1711003915304370414,2052,2082,2077,2059,2040,2057,1192
863,1711003915314369140,2056,2052,2057,2065,2080,2057,1197
864,1711003915324369509,2059,2066,2076,2056,2041,2057,1195
865,1711003915334367254,2052,2053,2043,2052,2068,2051,1195
866,1711003915344376199,2056,2056,2066,2052,2025,2062,1199
867,1711003915354367602,2056,2056,2050,2058,2059,2050,1195
868,1711003915364367851,2053,2055,2082,2056,2051,2064,1197
869,1711003915374368472,2052,2054,2043,2053,2069,2051,1195
870,1711003915384391504,2058,2053,2068,2054,2067,2062,1196
871,1711003915394361356,2058,2056,2044,2059,2075,2061,1197
872,1711003915404361194,2056,2052,2064,2051,2037,2052,1195
873,1711003915414341967,2056,2056,2045,2059,2062,2048,1196
874,1711003915424372513,2052,2050,2061,2046,2032,2049,1198
875,1711003915434374296,2061,2052,2052,2052,2068,2053,1197
876,1711003915444369976,2056,2043,2057,2051,2056,2056,1195
877,1711003915454371358,2052,2052,2039,2056,2052,2052,1197
878,1711003915464369944,2052,2046,2056,2053,2036,2050,1197
879,1711003915474371036,2065,2052,2046,2059,2074,2058,1195
880,1711003915484376214,2048,2050,2066,2054,2046,2056,1197
881,1711003915494374519,2061,2056,2046,2058,2069,2052,1196
882,1711003915504362335,2053,2040,2055,2052,2042,2056,1194
883,1711003915514371762,2057,2046,2040,2058,2071,2049,1194
884,1711003915524375598,2056,2056,2080,2061,2042,2060,1196
885,1711003915534372711,2063,2058,2047,2057,2074,2046,1194
886,1711003915544373833,2050,2045,2061,2053,2035,2057,1197
887,1711003915554369112,2058,2065,2052,2059,2059,2058,1196
888,1711003915564374983,2053,2052,2062,2059,2044,2055,1197
889,1711003915574368188,2056,2059,2045,2051,2060,2047,1193
890,1711003915584368398,2056,2054,2089,2058,2056,2057,1195
891,1711003915594370420,2053,2052,2062,2060,2077,2053,1194
892,1711003915604359980,2056,2052,2068,2053,2037,2057,1197
893,1711003915614369175,2064,2035,2038,2059,2074,2057,1197
894,1711003915624366590,2053,2044,2062,2052,2044,2056,1198
895,1711003915634367370,2056,2056,2045,2057,2073,2056,1197
896,1711003915644367329,2051,2047,2057,2049,2041,2057,1194
897,1711003915654395130,2057,2050,2038,2056,2058,2052,1196
898,1711003915664374520,2052,2050,2063,2054,2039,2052,1196
899,1711003915674369780,2056,2054,2047,2056,2067,2051,1196
900,1711003915684365150,2052,2025,2046,2056,2042,2050,1194
901,1711003915694386099,2063,2044,2037,2063,2080,2058,1197
902,1711003915704368675,2052,2049,2065,2055,2040,2056,1192
903,1711003915714366950,2050,2061,2045,2067,2105,2053,1195
904,1711003915724368502,2053,2050,2066,2052,2029,2051,1196
905,1711003915734366427,2057,2057,2045,2060,2070,2045,1195
906,1711003915744380953,2057,2046,2059,2049,2029,2047,1192
907,1711003915754385090,2061,2056,2042,2059,2072,2058,1198
908,1711003915764368086,2044,2019,2042,2046,2036,2047,1194
909,1711003915774367545,2056,2047,2048,2060,2062,2050,1195
910,1711003915784359047,2052,2052,2060,2053,2034,2051,1195
911,1711003915794384224,2056,2057,2046,2056,2072,2057,1197
912,1711003915804372991,2045,2050,2065,2050,2040,2057,1197
913,1711003915814370025,2056,2056,2045,2058,2063,2054,1196
914,1711003915824369472,2056,2054,2066,2053,2035,2056,1195
915,1711003915834368951,2057,2055,2045,2056,2068,2052,1195
916,1711003915844378717,2053,2047,2063,2059,2056,2060,1197
917,1711003915854368047,2060,2076,2065,2064,2074,2044,1192
918,1711003915864368225,2055,2054,2065,2050,2015,2051,1197
919,1711003915874368245,2057,2055,2049,2062,2065,2058,1196
920,1711003915884366179,2060,2056,2065,2052,2033,2054,1197
921,1711003915894373583,2056,2056,2045,2052,2056,2049,1196
922,1711003915904367519,2053,2050,2058,2049,2025,2053,1193
923,1711003915914369953,2052,2056,2043,2056,2073,2050,1198
924,1711003915924370533,2051,2042,2061,2049,2032,2056,1196
925,1711003915934368888,2060,2052,2057,2065,2083,2058,1197
926,1711003915944377674,2054,2050,2062,2055,2040,2061,1196
927,1711003915954368375,2057,2057,2048,2058,2059,2050,1195
928,1711003915964368615,2050,2055,2063,2052,2033,2053,1197
929,1711003915974366529,2054,2057,2048,2062,2075,2048,1194
930,1711003915984327064,2052,2053,2063,2053,2038,2056,1196
931,1711003915994369773,2057,2056,2045,2056,2080,2052,1195
932,1711003916004361387,2053,2051,2067,2047,2021,2052,1198
933,1711003916014370703,2056,2058,2048,2056,2065,2047,1196
934,1711003916024370331,2054,2052,2062,2052,2049,2065,1193
935,1711003916034372684,2058,2056,2044,2062,2072,2058,1196
936,1711003916044371491,2058,2047,2065,2064,2053,2063,1198
937,1711003916054365939,2056,2050,2042,2062,2072,2058,1195
938,1711003916064367391,2053,2045,2061,2054,2035,2056,1196
939,1711003916074367670,2056,2054,2045,2060,2076,2057,1197
940,1711003916084369011,2050,2048,2063,2056,2044,2059,1197
941,1711003916094367858,2056,2059,2047,2061,2076,2054,1196
942,1711003916104392093,2056,2080,2084,2051,2032,2053,1196
943,1711003916114371643,2065,2059,2061,2063,2080,2056,1195
944,1711003916124371371,2056,2054,2065,2052,2037,2051,1196
945,1711003916134372632,2059,2053,2045,2057,2068,2053,1195
946,1711003916144368914,2055,2050,2064,2057,2045,2057,1193
947,1711003916154370346,2059,2057,2046,2058,2072,2056,1197
948,1711003916164373351,2051,2051,2061,2053,2036,2060,1196
949,1711003916174373639,2056,2080,2047,2060,2068,2057,1197
950,1711003916184374440,2056,2056,2052,2056,2038,2056,1195
951,1711003916194395068,2057,2068,2053,2057,2066,2052,1194
952,1711003916204371733,2052,2052,2063,2057,2040,2056,1196
953,1711003916214375208,2056,2052,2042,2056,2066,2053,1198
954,1711003916224375567,2052,2053,2062,2057,2053,2062,1194
955,1711003916234376178,2060,2063,2046,2057,2065,2054,1197
956,1711003916244378320,2052,2054,2068,2049,2031,2056,1196
957,1711003916254373791,2060,2056,2042,2056,2069,2052,1195
958,1711003916264376775,2053,2045,2056,2052,2042,2060,1197
959,1711003916274375873,2059,2053,2040,2064,2081,2056,1197
960,1711003916284381111,2051,2060,2065,2054,2034,2053,1198
961,1711003916294383714,2057,2057,2040,2061,2078,2056,1193
962,1711003916304379946,2056,2072,2072,2051,2028,2054,1197
963,1711003916314379614,2056,2059,2043,2056,2061,2048,1194
964,1711003916324381197,2051,2052,2062,2045,2020,2051,1196
965,1711003916334380664,2057,2054,2040,2060,2072,2053,1196
966,1711003916344379501,2059,2058,2069,2050,2031,2057,1195
967,1711003916354379209,2056,2057,2043,2060,2064,2057,1196
968,1711003916364381763,2053,2045,2068,2052,2039,2052,1197
969,1711003916374381751,2054,2039,2039,2057,2068,2051,1198
970,1711003916384382131,2053,2048,2061,2057,2043,2060,1196
971,1711003916394380597,2059,2056,2048,2058,2065,2052,1198
972,1711003916404365056,2052,2054,2064,2063,2058,2051,1194
973,1711003916414387498,2060,2056,2045,2056,2070,2052,1197
974,1711003916424368200,2052,2052,2065,2051,2035,2052,1197
975,1711003916434579731,2063,2054,2044,2065,2097,2056,1194
976,1711003916444384558,2056,2048,2053,2045,2039,2056,1197
977,1711003916454364729,2053,2056,2044,2060,2069,2047,1194
978,1711003916464368756,2055,2077,2076,2054,2037,2054,1195
979,1711003916474369907,2056,2055,2040,2058,2067,2053,1194
980,1711003916484370056,2047,2053,2065,2057,2037,2059,1197
981,1711003916494397767,2054,2056,2042,2059,2096,2053,1197
982,1711003916504369212,2051,2052,2056,2053,2032,2053,1197
983,1711003916514373669,2061,2056,2043,2064,2084,2055,1197
984,1711003916524372236,2054,2052,2065,2048,2034,2056,1196
985,1711003916534367696,2060,2051,2044,2057,2071,2054,1193
986,1711003916544409133,2059,2051,2060,2054,2041,2057,1197
987,1711003916554362013,2054,2050,2042,2058,2069,2056,1196
988,1711003916564368774,2050,2049,2059,2053,2030,2056,1198
989,1711003916574370918,2058,2064,2053,2058,2065,2052,1198
990,1711003916584370205,2057,2062,2073,2053,2042,2058,1196
991,1711003916594377146,2060,2057,2045,2056,2064,2052,1197
992,1711003916604367828,2047,2048,2055,2052,2021,2053,1196
993,1711003916614370421,2058,2060,2050,2057,2064,2049,1197
994,1711003916624369990,2056,2049,2064,2053,2039,2056,1196
995,1711003916634368575,2057,2056,2045,2052,2062,2049,1196
996,1711003916644380718,2050,2051,2069,2049,2049,2053,1197
997,1711003916654363984,2058,2058,2064,2066,2070,2057,1196
998,1711003916664369223,2052,2049,2064,2052,2037,2056,1196
999,1711003916674369623,2058,2057,2056,2058,2064,2051,1199
1000,1711003916684370554,2050,2055,2073,2053,2033,2051,1201
1001,1711003916694383417,2055,2049,2041,2062,2068,2051,1196
1002,1711003916704365962,2050,2041,2054,2051,2034,2050,1194
1003,1711003916714367905,2059,2061,2042,2060,2076,2056,1197
1004,1711003916724348006,2056,2057,2085,2066,2057,2051,1195
1005,1711003916734369506,2057,2056,2046,2056,2064,2054,1197
1006,1711003916744370416,2052,2049,2062,2051,2035,2052,1197
1007,1711003916754375925,2057,2061,2055,2059,2072,2051,1197
1008,1711003916764358030,2052,2026,2059,2056,2040,2056,1197
1009,1711003916774358670,2057,2041,2044,2060,2074,2058,1197
1010,1711003916784363138,2050,2050,2065,2056,2045,2056,1196
1011,1711003916794413752,2057,2057,2050,2058,2069,2050,1195
1012,1711003916804364648,2052,2051,2067,2051,2033,2053,1196
1013,1711003916814367622,2059,2049,2044,2056,2064,2061,1199
1014,1711003916824366449,2055,2051,2060,2052,2039,2052,1197
1015,1711003916834364664,2050,2050,2038,2058,2066,2045,1194
1016,1711003916844404839,2052,2028,2057,2052,2036,2053,1194
1017,1711003916854371325,2057,2049,2042,2059,2068,2055,1196
1018,1711003916864371534,2052,2047,2065,2051,2032,2056,1196
1019,1711003916874373868,2061,2056,2045,2059,2079,2053,1196
1020,1711003916884353377,2050,2049,2061,2042,2033,2052,1196
1021,1711003916894388203,2059,2046,2036,2061,2113,2058,1196
1022,1711003916904366940,2054,2048,2062,2056,2041,2054,1196
1023,1711003916914367510,2057,2061,2047,2048,2060,2056,1197
1024,1711003916924368040,2056,2044,2060,2050,2032,2052,1195
1025,1711003916934368860,2057,2056,2047,2062,2081,2059,1197
1026,1711003916944415358,2052,2053,2066,2057,2032,2052,1198
1027,1711003916954361464,2060,2058,2042,2067,2085,2053,1198
1028,1711003916964365190,2052,2052,2070,2052,2036,2054,1196
1029,1711003916974373835,2058,2067,2073,2061,2070,2055,1196
1030,1711003916984368705,2057,2058,2079,2050,2036,2052,1195
1031,1711003916994372821,2056,2054,2046,2062,2076,2054,1196
1032,1711003917004366497,2054,2052,2061,2050,2034,2052,1197
1033,1711003917014326120,2058,2081,2054,2056,2070,2047,1195
1034,1711003917024370513,2056,2051,2064,2048,2027,2051,1199
1035,1711003917034371785,2057,2056,2046,2061,2073,2054,1197
1036,1711003917044375029,2048,2048,2062,2051,2040,2052,1195
1037,1711003917054365960,2060,2058,2049,2060,2072,2051,1198
1038,1711003917064367162,2057,2056,2064,2051,2041,2055,1195
1039,1711003917074365317,2057,2059,2057,2059,2072,2054,1195
1040,1711003917084362641,2056,2049,2063,2050,2040,2058,1197
1041,1711003917094382026,2059,2057,2043,2060,2075,2058,1197
1042,1711003917104365804,2052,2053,2060,2053,2032,2054,1193
1043,1711003917114369400,2056,2056,2045,2058,2073,2052,1197
1044,1711003917124370390,2052,2052,2064,2057,2041,2056,1194
1045,1711003917134368185,2059,2080,2058,2060,2080,2059,1196
1046,1711003917144376219,2049,2051,2064,2045,2025,2057,1195
1047,1711003917154378241,2057,2057,2045,2056,2069,2053,1196
1048,1711003917164367961,2057,2053,2068,2056,2040,2061,1195
1049,1711003917174365695,2057,2061,2044,2057,2078,2050,1197
1050,1711003917184365674,2054,2049,2068,2046,2012,2057,1197
1051,1711003917194367176,2053,2053,2037,2056,2054,2047,1193
1052,1711003917204367335,2058,2087,2078,2053,2024,2057,1197
1053,1711003917214370029,2058,2056,2045,2065,2072,2052,1196
1054,1711003917224365920,2053,2056,2067,2052,2048,2062,1195
1055,1711003917234369014,2055,2056,2045,2061,2074,2054,1197
1056,1711003917244365487,2049,2050,2069,2052,1998,2045,1196
1057,1711003917254364243,2060,2056,2040,2056,2076,2053,1196
1058,1711003917264368179,2052,2043,2068,2056,2046,2053,1196
1059,1711003917274371765,2062,2060,2047,2065,2077,2056,1197
1060,1711003917284369408,2056,2080,2088,2056,2041,2054,1196
1061,1711003917294393594,2058,2050,2044,2056,2064,2056,1197
1062,1711003917304371921,2050,2049,2066,2059,2041,2051,1196
1063,1711003917314373163,2056,2059,2045,2060,2076,2056,1196
1064,1711003917324369664,2061,2056,2075,2050,2038,2062,1195
1065,1711003917334368000,2058,2083,2062,2064,2085,2056,1196
1066,1711003917344385823,2052,2048,2062,2052,2036,2052,1197
1067,1711003917354368799,2056,2057,2042,2057,2072,2054,1197
1068,1711003917364361624,2056,2056,2072,2054,2033,2052,1197
1069,1711003917374369789,2071,2064,2051,2060,2074,2055,1195
1070,1711003917384364246,2049,2037,2052,2056,2038,2051,1198
1071,1711003917394404392,2062,2079,2050,2058,2069,2052,1197
1072,1711003917404372971,2055,2051,2062,2056,2042,2050,1197
1073,1711003917414371156,2064,2056,2047,2054,2066,2047,1194
1074,1711003917424371746,2057,2054,2077,2055,2036,2055,1197
1075,1711003917434373989,2060,2056,2045,2054,2074,2056,1197
1076,1711003917444397463,2051,2050,2068,2057,2037,2056,1197
1077,1711003917454369458,2056,2056,2046,2060,2073,2053,1197
1078,1711003917464373595,2050,2053,2065,2056,2041,2056,1195
1079,1711003917474375908,2060,2056,2042,2060,2072,2053,1196
1080,1711003917484374634,2053,2052,2065,2042,2018,2054,1197
1081,1711003917494372980,2057,2054,2044,2056,2069,2052,1197
1082,1711003917504374772,2056,2056,2065,2050,2032,2052,1196
1083,1711003917514377556,2061,2050,2046,2062,2069,2052,1194
1084,1711003917524375401,2060,2056,2072,2066,2064,2061,1195
1085,1711003917534378936,2057,2056,2042,2057,2062,2052,1195
1086,1711003917544393673,2053,2060,2072,2062,2058,2056,1196
1087,1711003917554377220,2060,2056,2040,2061,2069,2050,1196
1088,1711003917564382189,2056,2058,2064,2056,2039,2052,1196
1089,1711003917574382027,2064,2057,2037,2061,2099,2054,1195
1090,1711003917584382216,2049,2044,2056,2061,2042,2050,1196
1091,1711003917594375673,2058,2044,2037,2064,2076,2058,1196
1092,1711003917604383045,2056,2054,2067,2047,2029,2049,1197
1093,1711003917614384387,2057,2056,2046,2060,2060,2049,1200
1094,1711003917624391319,2054,2050,2066,2050,2032,2053,1197
1095,1711003917634382781,2062,2061,2049,2061,2079,2056,1195
1096,1711003917644365217,2050,2044,2061,2052,2039,2054,1196
1097,1711003917654361899,2064,2060,2057,2060,2071,2060,1198
1098,1711003917664365975,2048,2047,2064,2053,2044,2054,1197
1099,1711003917674366566,2056,2056,2046,2061,2072,2050,1196
1100,1711003917684366644,2054,2052,2064,2057,2043,2053,1195
1101,1711003917694364149,2058,2067,2055,2065,2084,2057,1196
1102,1711003917704371301,2054,2052,2063,2054,2039,2056,1196
1103,1711003917714364547,2056,2056,2042,2064,2083,2051,1196
1104,1711003917724368183,2057,2078,2074,2045,2021,2049,1197
1105,1711003917734346891,2060,2052,2046,2059,2068,2055,1196
1106,1711003917744404770,2056,2052,2072,2050,2038,2054,1198
1107,1711003917754359603,2057,2057,2043,2060,2065,2051,1198
1108,1711003917764365051,2053,2052,2069,2060,2052,2056,1198
1109,1711003917774366844,2058,2053,2040,2056,2054,2048,1197
1110,1711003917784367133,2048,2017,2049,2049,2034,2052,1196
1111,1711003917794388202,2058,2044,2034,2056,2068,2054,1196
1112,1711003917804370527,2053,2049,2065,2056,2040,2055,1195
1113,1711003917814373852,2057,2056,2041,2050,2050,2047,1194
1114,1711003917824329597,2052,2044,2062,2058,2033,2053,1196
1115,1711003917834404959,2058,2056,2058,2052,2052,2052,1197
1116,1711003917844369871,2051,2024,2048,2055,2044,2056,1198
1117,1711003917854362917,2060,2045,2040,2056,2085,2058,1197
1118,1711003917864366612,2056,2057,2071,2053,2037,2061,1197
1119,1711003917874367213,2052,2056,2041,2059,2068,2049,1195
1120,1711003917884365578,2052,2050,2063,2057,2036,2056,1196
1121,1711003917894380645,2056,2037,2044,2057,2069,2048,1197
1122,1711003917904364343,2060,2070,2088,2057,2037,2054,1193
1123,1711003917914367808,2053,2055,2037,2057,2069,2052,1194
1124,1711003917924368809,2056,2051,2077,2057,2040,2056,1194
1125,1711003917934371984,2059,2054,2042,2058,2068,2051,1194
1126,1711003917944364738,2059,2052,2067,2054,2040,2058,1197
1127,1711003917954360951,2058,2058,2040,2056,2060,2047,1193
1128,1711003917964371038,2052,2050,2066,2051,2032,2054,1195
1129,1711003917974368052,2058,2056,2045,2060,2070,2049,1194
1130,1711003917984369493,2056,2040,2061,2056,2040,2056,1195
1131,1711003917994378398,2060,2060,2052,2058,2068,2046,1194
1132,1711003918004368870,2056,2053,2064,2056,2041,2056,1194
1133,1711003918014368257,2058,2064,2049,2058,2067,2050,1198
1134,1711003918024325054,2053,2047,2063,2052,2040,2053,1195
1135,1711003918034368234,2059,2057,2055,2062,2081,2058,1195
1136,1711003918044391417,2051,2051,2068,2057,2043,2057,1195
1137,1711003918054369745,2060,2081,2056,2061,2074,2053,1195
1138,1711003918064369653,2060,2058,2080,2057,2039,2057,1194
1139,1711003918074371235,2058,2054,2043,2060,2078,2050,1194
1140,1711003918084389679,2054,2053,2064,2057,2042,2057,1196
1141,1711003918094391912,2060,2086,2061,2053,2068,2054,1196
1142,1711003918104369888,2054,2054,2067,2054,2034,2056,1195
1143,1711003918114371701,2053,2036,2031,2057,2072,2052,1194
1144,1711003918124369896,2053,2047,2062,2054,2041,2059,1196
1145,1711003918134369113,2054,2060,2080,2056,2061,2052,1198
1146,1711003918144376486,2057,2053,2068,2052,2025,2052,1196
1147,1711003918154361426,2058,2056,2045,2054,2056,2052,1197
1148,1711003918164366976,2056,2050,2064,2056,2040,2058,1194
1149,1711003918174367335,2057,2053,2043,2060,2069,2057,1196
1150,1711003918184367985,2056,2056,2070,2056,2040,2056,1196
1151,1711003918194389584,2053,2048,2041,2055,2064,2045,1192
1152,1711003918204373753,2049,2032,2054,2049,2041,2055,1196
1153,1711003918214376096,2056,2060,2039,2056,2072,2054,1197
1154,1711003918224374843,2053,2051,2065,2056,2040,2059,1197
1155,1711003918234373028,2060,2060,2051,2061,2074,2052,1196
1156,1711003918244370642,2059,2052,2064,2049,2040,2054,1193
1157,1711003918254373276,2055,2050,2036,2060,2067,2050,1195
1158,1711003918264369688,2052,2052,2069,2048,2040,2052,1197
1159,1711003918274373013,2058,2060,2042,2056,2070,2056,1195
1160,1711003918284373102,2056,2050,2067,2054,2026,2046,1193
1161,1711003918294387067,2058,2056,2048,2069,2088,2054,1197
1162,1711003918304367568,2054,2053,2076,2057,2040,2054,1195
1163,1711003918314366295,2061,2085,2057,2064,2072,2056,1195
1164,1711003918324367315,2054,2053,2068,2054,2037,2051,1196
1165,1711003918334399666,2056,2053,2040,2057,2052,2045,1192
1166,1711003918344365500,2058,2053,2061,2052,2030,2054,1197
1167,1711003918354356000,2053,2054,2044,2056,2063,2051,1195
1168,1711003918364371779,2052,2052,2069,2061,2065,2056,1193
1169,1711003918374369033,2057,2055,2043,2057,2067,2053,1197
1170,1711003918384367318,2054,2048,2079,2058,2037,2056,1196
1171,1711003918394340806,2060,2084,2047,2056,2072,2052,1197
1172,1711003918404365392,2059,2058,2069,2052,2037,2052,1197
1173,1711003918414364408,2060,2057,2045,2060,2072,2059,1197
1174,1711003918424367834,2057,2056,2070,2052,2055,2058,1197
1175,1711003918434377200,2058,2050,2046,2066,2085,2054,1194
1176,1711003918444358854,2050,2041,2061,2056,2034,2056,1196
1177,1711003918454357901,2061,2054,2037,2057,2065,2056,1196
1178,1711003918464365184,2053,2056,2068,2050,2041,2057,1196
1179,1711003918474354652,2053,2057,2043,2060,2072,2049,1195
1180,1711003918484364280,2056,2056,2069,2049,2028,2056,1195
1181,1711003918494389887,2056,2056,2038,2058,2071,2052,1196
1182,1711003918504359698,2058,2055,2077,2051,2046,2053,1193
1183,1711003918514369917,2060,2054,2042,2057,2056,2049,1196
1184,1711003918524370827,2052,2054,2076,2054,2024,2056,1196
1185,1711003918534370905,2058,2069,2050,2059,2074,2052,1196
1186,1711003918544392676,2048,2047,2070,2052,2036,2057,1195
1187,1711003918554364551,2057,2052,2024,2056,2072,2052,1196
1188,1711003918564369599,2054,2056,2068,2061,2031,2053,1198
1189,1711003918574368656,2057,2063,2050,2059,2077,2055,1195
1190,1711003918584368745,2053,2028,2062,2053,2030,2052,1195
1191,1711003918594390566,2063,2047,2029,2057,2065,2050,1197
1192,1711003918604373341,2050,2050,2062,2056,2038,2052,1198
1193,1711003918614354935,2050,2056,2038,2055,2057,2045,1195
1194,1711003918624368650,2053,2057,2072,2056,2049,2059,1197
1195,1711003918634375592,2058,2059,2044,2054,2061,2052,1196
1196,1711003918644368717,2047,2056,2088,2065,2060,2051,1197
1197,1711003918654362725,2054,2056,2038,2057,2078,2050,1196
1198,1711003918664366310,2053,2050,2070,2056,2030,2053,1196
1199,1711003918674365627,2060,2057,2036,2060,2080,2054,1196
1200,1711003918684364875,2056,2054,2071,2050,2036,2055,1197
1201,1711003918694370855,2056,2057,2031,2061,2084,2053,1196
1202,1711003918704372317,2057,2054,2077,2056,2033,2058,1196
1203,1711003918714368909,2056,2046,2032,2064,2085,2049,1196
1204,1711003918724367785,2052,2051,2072,2053,2028,2056,1196
1205,1711003918734404263,2056,2053,2034,2058,2075,2054,1196
1206,1711003918744370498,2060,2047,2072,2052,2032,2056,1198
1207,1711003918754372430,2058,2056,2041,2058,2070,2051,1197
1208,1711003918764372299,2055,2051,2072,2050,2025,2055,1197
1209,1711003918774370184,2064,2090,2058,2062,2080,2056,1198
1210,1711003918784370963,2047,2046,2065,2048,2047,2059,1197
1211,1711003918794368057,2053,2048,2030,2053,2068,2050,1198
1212,1711003918804373536,2059,2055,2075,2053,2032,2056,1196
1213,1711003918814371260,2056,2044,2031,2058,2080,2053,1196
1214,1711003918824368815,2047,2025,2062,2057,2033,2055,1195
1215,1711003918834369364,2065,2057,2035,2058,2081,2056,1196
1216,1711003918844389220,2056,2054,2078,2059,2049,2059,1197
1217,1711003918854358161,2056,2059,2031,2056,2072,2052,1197
1218,1711003918864364130,2056,2052,2075,2051,2030,2058,1195
1219,1711003918874361023,2053,2058,2036,2064,2074,2044,1193
1220,1711003918884366873,2052,2050,2069,2045,2013,2053,1197
1221,1711003918894375338,2058,2056,2039,2060,2068,2048,1195
1222,1711003918904365859,2056,2061,2081,2056,2028,2060,1193
1223,1711003918914371348,2060,2065,2037,2061,2086,2052,1196
1224,1711003918924344876,2056,2050,2092,2061,2038,2057,1197
1225,1711003918934368741,2057,2059,2032,2057,2074,2052,1194
1226,1711003918944370382,2056,2053,2074,2055,2034,2061,1198
1227,1711003918954366003,2056,2060,2050,2064,2081,2052,1195
1228,1711003918964368917,2052,2049,2071,2051,2030,2056,1196
1229,1711003918974378123,2054,2054,2032,2060,2080,2053,1197
1230,1711003918984371419,2056,2051,2078,2053,2030,2059,1195
1231,1711003918994396546,2060,2067,2041,2061,2084,2050,1197
1232,1711003919004362890,2051,2052,2073,2052,2028,2056,1196
1233,1711003919014367959,2064,2056,2031,2064,2078,2052,1197
1234,1711003919024368689,2052,2055,2080,2049,2026,2053,1197
1235,1711003919034370000,2057,2057,2045,2057,2066,2050,1196
1236,1711003919044397711,2052,2056,2076,2056,2026,2052,1199
1237,1711003919054366070,2060,2057,2032,2048,2067,2048,1197
1238,1711003919064373653,2057,2052,2081,2052,2026,2059,1198
1239,1711003919074373130,2057,2056,2032,2061,2076,2052,1197
1240,1711003919084374061,2056,2053,2092,2070,2052,2056,1197
1241,1711003919094377156,2052,2056,2037,2057,2077,2051,1197
1242,1711003919104367015,2050,2068,2078,2056,2029,2056,1194
1243,1711003919114370089,2063,2060,2037,2060,2078,2051,1195
1244,1711003919124370299,2051,2052,2074,2051,2037,2051,1196
1245,1711003919134374415,2059,2052,2031,2061,2083,2054,1197
1246,1711003919144372360,2053,2057,2074,2050,2026,2051,1196
1247,1711003919154374022,2053,2024,2014,2058,2073,2048,1197
1248,1711003919164373559,2053,2038,2071,2052,2025,2054,1195
1249,1711003919174374079,2052,2061,2038,2065,2112,2050,1195
1250,1711003919184374449,2056,2053,2080,2051,2020,2056,1198
1251,1711003919194377563,2057,2054,2035,2055,2075,2051,1197
1252,1711003919204382952,2052,2041,2072,2051,2028,2052,1197
1253,1711003919214377671,2057,2053,2026,2054,2076,2050,1197
1254,1711003919224378130,2050,2047,2070,2060,2026,2053,1197
1255,1711003919234377387,2051,2049,2036,2057,2074,2052,1196
1256,1711003919244380813,2053,2047,2069,2052,2020,2058,1195
1257,1711003919254359671,2060,2058,2035,2059,2076,2052,1194
1258,1711003919264378586,2055,2053,2072,2053,2016,2054,1197
1259,1711003919274361993,2061,2053,2052,2062,2084,2052,1198
1260,1711003919284379225,2052,2046,2066,2052,2026,2058,1195
1261,1711003919294378842,2059,2059,2033,2057,2081,2052,1196
1262,1711003919304377349,2045,2024,2064,2053,2025,2052,1194
1263,1711003919314363501,2059,2045,2031,2058,2080,2056,1193
1264,1711003919324386012,2056,2049,2073,2053,2029,2057,1196
1265,1711003919334382133,2058,2056,2033,2056,2076,2049,1196
1266,1711003919344391069,2052,2047,2074,2050,2019,2053,1194
1267,1711003919354381409,2059,2061,2032,2062,2082,2052,1194
1268,1711003919364332785,2046,2026,2056,2049,2021,2059,1196
1269,1711003919374366248,2055,2055,2036,2062,2081,2052,1196
1270,1711003919384367128,2053,2045,2066,2047,2024,2056,1199
1271,1711003919394360935,2055,2050,2024,2060,2081,2049,1198
1272,1711003919404370462,2052,2050,2072,2053,2030,2055,1197
1273,1711003919414370250,2056,2056,2034,2057,2080,2055,1197
1274,1711003919424368145,2054,2052,2075,2052,2023,2058,1196
1275,1711003919434368324,2057,2069,2042,2069,2088,2052,1199
1276,1711003919444366960,2055,2056,2077,2056,2034,2053,1196
1277,1711003919454360336,2058,2085,2040,2053,2070,2053,1198
1278,1711003919464371676,2062,2052,2073,2052,2025,2056,1196
1279,1711003919474371144,2060,2057,2036,2061,2077,2056,1197
1280,1711003919484372355,2056,2049,2072,2041,2020,2054,1196
1281,1711003919494393133,2069,2062,2038,2062,2089,2060,1198
1282,1711003919504370669,2053,2061,2083,2052,2032,2058,1196
1283,1711003919514391547,2061,2048,2044,2062,2080,2055,1196
1284,1711003919524372460,2054,2042,2072,2066,2065,2059,1199
1285,1711003919534369093,2065,2056,2030,2058,2078,2053,1196
1286,1711003919544395241,2060,2053,2074,2053,2032,2057,1195
1287,1711003919554362106,2058,2057,2039,2060,2084,2050,1196
1288,1711003919564368607,2047,2054,2084,2051,2029,2061,1197
1289,1711003919574371121,2058,2061,2034,2063,2078,2049,1196
1290,1711003919584374105,2054,2050,2076,2054,2030,2059,1196
1291,1711003919594377310,2057,2080,2045,2060,2081,2053,1198
1292,1711003919604373451,2054,2041,2066,2052,2025,2055,1200
1293,1711003919614368801,2059,2058,2037,2060,2082,2048,1196
1294,1711003919624365493,2056,2055,2072,2049,2022,2054,1196
1295,1711003919634366023,2060,2059,2042,2057,2069,2051,1198
1296,1711003919644371983,2054,2052,2074,2051,2009,2054,1199
1297,1711003919654358185,2060,2059,2029,2058,2069,2053,1197
1298,1711003919664366290,2052,2078,2079,2050,2024,2054,1198
1299,1711003919674366889,2058,2064,2041,2060,2081,2049,1195
1300,1711003919684382878,2054,2053,2078,2056,2034,2056,1197
1301,1711003919694379591,2058,2056,2034,2062,2088,2054,1196
1302,1711003919704364511,2058,2052,2077,2057,2035,2061,1195
1303,1711003919714371643,2058,2057,2040,2058,2081,2049,1196
1304,1711003919724372764,2053,2058,2071,2055,2028,2061,1196
1305,1711003919734372482,2060,2062,2037,2066,2083,2053,1198
1306,1711003919744372491,2053,2064,2097,2060,2033,2058,1196
1307,1711003919754364955,2057,2058,2034,2060,2085,2052,1195
1308,1711003919764370435,2056,2056,2076,2053,2029,2057,1197
1309,1711003919774372827,2061,2060,2032,2061,2083,2056,1196
1310,1711003919784371122,2053,2052,2071,2056,2026,2056,1198
1311,1711003919794385129,2056,2051,2037,2056,2082,2050,1196
1312,1711003919804373996,2062,2052,2075,2053,2024,2052,1195
1313,1711003919814372511,2052,2050,2024,2078,2122,2053,1196
1314,1711003919824368092,2056,2068,2094,2053,2021,2054,1196
1315,1711003919834370535,2058,2056,2028,2061,2090,2052,1195
1316,1711003919844391624,2053,2052,2076,2045,2037,2055,1196
1317,1711003919854375772,2056,2056,2033,2061,2088,2053,1195
1318,1711003919864373737,2057,2083,2092,2054,2030,2061,1196
1319,1711003919874365390,2054,2052,2027,2058,2076,2049,1195
1320,1711003919884365960,2053,2049,2072,2054,2020,2053,1196
1321,1711003919894383883,2060,2058,2037,2056,2077,2053,1196
1322,1711003919904368171,2054,2049,2074,2054,2018,2056,1196
1323,1711003919914369823,2062,2075,2051,2052,2066,2046,1193
1324,1711003919924374621,2049,2045,2074,2052,2011,2054,1197
1325,1711003919934369680,2059,2059,2044,2058,2079,2053,1196
1326,1711003919944372594,2052,2048,2074,2051,2024,2056,1196
1327,1711003919954359028,2056,2056,2033,2061,2085,2050,1197
1328,1711003919964375457,2053,2074,2077,2049,2028,2056,1198
1329,1711003919974371268,2053,2056,2034,2060,2082,2049,1197
1330,1711003919984369824,2051,2050,2075,2053,2028,2056,1195
1331,1711003919994383288,2056,2049,2031,2056,2074,2047,1194
1332,1711003920004376965,2054,2055,2084,2051,2024,2058,1200
1333,1711003920014377234,2054,2048,2027,2056,2096,2054,1197
1334,1711003920024373806,2052,2049,2076,2047,2041,2058,1195
1335,1711003920034397209,2062,2037,2021,2058,2082,2052,1196
1336,1711003920044473613,2059,2044,2072,2052,2012,2052,1194
1337,1711003920054384793,2056,2059,2036,2061,2087,2056,1197
1338,1711003920064362099,2057,2051,2075,2049,2031,2057,1195
1339,1711003920074372807,2063,2056,2040,2062,2081,2054,1199
1340,1711003920084356735,2053,2050,2074,2053,2019,2052,1196
1341,1711003920094382083,2059,2061,2050,2064,2082,2058,1197
1342,1711003920104361362,2053,2052,2075,2061,2059,2060,1195
1343,1711003920114368343,2061,2058,2036,2062,2092,2054,1196
1344,1711003920124369164,2057,2054,2072,2049,2018,2050,1198
1345,1711003920134381817,2060,2056,2034,2064,2088,2056,1195
1346,1711003920144386534,2056,2058,2082,2056,2040,2061,1196
1347,1711003920154358269,2058,2054,2041,2056,2086,2065,1197
1348,1711003920164369499,2053,2052,2074,2045,2018,2051,1195
1349,1711003920174373435,2060,2058,2036,2051,2056,2046,1193
1350,1711003920184369947,2065,2062,2076,2047,2005,2051,1195
1351,1711003920194376428,2058,2061,2034,2056,2073,2047,1193
1352,1711003920204374012,2054,2049,2075,2056,2028,2055,1197
1353,1711003920214370404,2054,2056,2034,2056,2076,2049,1195
1354,1711003920224369020,2049,2049,2078,2050,2025,2056,1196
1355,1711003920234371833,2058,2050,2027,2060,2078,2052,1196
1356,1711003920244392963,2052,2057,2071,2053,2033,2057,1198
1357,1711003920254365038,2057,2060,2031,2054,2066,2048,1196
1358,1711003920264388641,2052,2050,2073,2050,2024,2057,1195
1359,1711003920274383059,2062,2061,2034,2057,2088,2050,1195
1360,1711003920284384030,2055,2054,2070,2039,1999,2056,1198
1361,1711003920294383688,2058,2069,2036,2057,2092,2052,1196
1362,1711003920304378647,2054,2040,2069,2059,2032,2056,1196
1363,1711003920314381682,2058,2046,2028,2057,2079,2052,1196
1364,1711003920324381871,2054,2052,2077,2061,2062,2056,1197
1365,1711003920334381819,2056,2058,2036,2058,2081,2051,1196
1366,1711003920344381908,2053,2048,2072,2053,2026,2056,1196
1367,1711003920354380875,2061,2050,2042,2061,2092,2056,1198
1368,1711003920364339414,2056,2060,2082,2064,2054,2059,1196
1369,1711003920374387995,2057,2042,2026,2064,2084,2053,1198
1370,1711003920384386111,2057,2052,2075,2056,2030,2056,1197
1371,1711003920394391710,2052,2053,2041,2065,2125,2053,1197
1372,1711003920404374085,2055,2051,2080,2053,2021,2056,1198
1373,1711003920414378562,2057,2053,2029,2064,2084,2047,1195
1374,1711003920424381977,2050,2049,2072,2050,2034,2058,1196
1375,1711003920434377648,2054,2051,2031,2057,2084,2050,1196
1376,1711003920444392394,2051,2036,2066,2048,2025,2057,1198
1377,1711003920454378346,2059,2044,2029,2059,2077,2047,1194
1378,1711003920464380419,2054,2052,2080,2052,2026,2057,1197
1379,1711003920474379636,2057,2064,2040,2065,2092,2055,1195
1380,1711003920484380436,2050,2047,2073,2050,2021,2054,1198
1381,1711003920494391946,2058,2062,2044,2062,2077,2050,1196
1382,1711003920504382577,2049,2052,2068,2052,2024,2052,1193
1383,1711003920514381544,2057,2055,2045,2068,2099,2056,1196
1384,1711003920524380711,2053,2040,2078,2056,2032,2062,1196
1385,1711003920534413302,2053,2056,2038,2045,2053,2041,1194
1386,1711003920544382141,2051,2046,2068,2045,2012,2052,1197
1387,1711003920554386127,2053,2054,2032,2067,2118,2052,1196
1388,1711003920564382919,2052,2052,2075,2050,2026,2056,1198
1389,1711003920574382939,2056,2056,2035,2056,2080,2049,1196
1390,1711003920584365925,2056,2064,2080,2053,2029,2058,1196
1391,1711003920594407081,2064,2070,2036,2056,2080,2051,1194
1392,1711003920604375320,2055,2053,2074,2057,2033,2059,1194
1393,1711003920614366041,2054,2056,2035,2057,2089,2052,1198
1394,1711003920624368003,2053,2056,2075,2052,2024,2056,1197
1395,1711003920634367000,2056,2056,2029,2058,2084,2049,1197
1396,1711003920644396114,2058,2050,2075,2050,2019,2056,1198
1397,1711003920654356968,2054,2027,2015,2059,2081,2051,1196
1398,1711003920664316019,2056,2040,2076,2050,2013,2054,1196
1399,1711003920674352927,2055,2049,2025,2060,2099,2052,1198
1400,1711003920684353377,2048,2049,2074,2056,2029,2057,1194
1401,1711003920694376941,2058,2057,2036,2053,2074,2051,1196
1402,1711003920704368723,2050,2051,2078,2062,2028,2052,1196
1403,1711003920714364494,2056,2032,2024,2052,2072,2046,1193
1404,1711003920724357630,2047,2035,2068,2052,2046,2053,1197
1405,1711003920734367387,2057,2061,2042,2058,2071,2049,1196
1406,1711003920744366393,2053,2044,2072,2054,2027,2056,1197
1407,1711003920754366151,2057,2057,2036,2061,2095,2053,1195
1408,1711003920764359949,2052,2053,2082,2057,2032,2054,1196
1409,1711003920774370818,2059,2058,2030,2062,2081,2056,1196
1410,1711003920784373992,2054,2055,2074,2056,2032,2057,1197
1411,1711003920794380183,2061,2082,2050,2055,2081,2052,1196
1412,1711003920804381194,2053,2046,2076,2046,2014,2053,1196
1413,1711003920814371303,2060,2060,2028,2054,2075,2051,1196
1414,1711003920824368326,2058,2042,2077,2050,2020,2052,1194
1415,1711003920834369067,2060,2055,2028,2061,2083,2052,1195
1416,1711003920844391357,2058,2054,2074,2050,2024,2056,1196
1417,1711003920854364415,2060,2056,2032,2062,2082,2048,1196
1418,1711003920864362811,2056,2080,2085,2052,2028,2056,1196
1419,1711003920874365454,2061,2054,2032,2058,2070,2050,1194
1420,1711003920884363329,2052,2041,2084,2057,2037,2055,1196
1421,1711003920894369469,2055,2053,2035,2061,2077,2050,1197
1422,1711003920904367935,2053,2053,2076,2055,2053,2056,1193
1423,1711003920914370969,2059,2059,2035,2058,2080,2049,1195
1424,1711003920924367872,2053,2056,2077,2050,2024,2051,1196
1425,1711003920934366337,2058,2060,2032,2052,2096,2056,1196
1426,1711003920944368741,2050,2042,2064,2050,2020,2053,1195
1427,1711003920954359732,2061,2072,2033,2061,2085,2052,1196
1428,1711003920964363388,2051,2056,2072,2047,2016,2052,1197
1429,1711003920974360982,2058,2058,2040,2072,2106,2054,1195
1430,1711003920984361422,2052,2050,2076,2049,2024,2051,1194
1431,1711003920994370597,2056,2034,2020,2064,2092,2050,1193
1432,1711003921004368522,2057,2035,2068,2053,2036,2066,1193
1433,1711003921014366456,2057,2060,2032,2061,2083,2052,1197
1434,1711003921024370253,2051,2048,2080,2054,2037,2056,1196
1435,1711003921034362717,2054,2056,2033,2058,2080,2052,1196
1436,1711003921044369468,2050,2053,2082,2054,2032,2060,1195
1437,1711003921054365279,2057,2056,2034,2057,2088,2051,1195
1438,1711003921064371710,2060,2057,2088,2056,2032,2056,1195
1439,1711003921074370716,2057,2044,2031,2058,2080,2054,1196
1440,1711003921084394640,2056,2046,2080,2059,2024,2058,1197
1441,1711003921094372266,2058,2058,2034,2061,2081,2054,1196
1442,1711003921104373638,2057,2047,2073,2048,2014,2057,1193
1443,1711003921114336406,2058,2058,2032,2052,2076,2047,1193
1444,1711003921124371561,2052,2048,2089,2050,2015,2055,1196
1445,1711003921134372371,2056,2057,2026,2057,2080,2052,1196
1446,1711003921144360157,2056,2068,2077,2049,2028,2064,1195
1447,1711003921154365986,2063,2063,2029,2051,2062,2052,1198
1448,1711003921164364261,2056,2055,2081,2053,2016,2058,1195
1449,1711003921174363558,2054,2048,2027,2060,2085,2053,1199
1450,1711003921184395348,2056,2056,2077,2051,2024,2057,1196
1451,1711003921194373305,2061,2059,2033,2062,2104,2058,1194
1452,1711003921204369746,2056,2053,2076,2057,2024,2059,1198
1453,1711003921214367420,2058,2056,2034,2060,2081,2050,1198
1454,1711003921224370184,2058,2072,2093,2056,2042,2060,1196
1455,1711003921234389259,2054,2050,2024,2059,2084,2049,1199
1456,1711003921244356726,2056,2049,2070,2054,2032,2058,1196
1457,1711003921254368246,2067,2064,2053,2062,2088,2053,1196
1458,1711003921264369226,2052,2052,2077,2052,2031,2057,1196
1459,1711003921274365107,2057,2056,2030,2060,2081,2052,1196
1460,1711003921284391226,2052,2060,2078,2056,2031,2057,1194
1461,1711003921294371116,2064,2065,2041,2064,2097,2056,1195
1462,1711003921304368790,2051,2054,2094,2056,2028,2055,1194
1463,1711003921314368939,2057,2056,2033,2052,2066,2046,1195
1464,1711003921324369739,2060,2066,2084,2053,2009,2052,1197
1465,1711003921334374427,2057,2058,2039,2060,2076,2050,1195
1466,1711003921344359186,2059,2056,2082,2054,2029,2058,1195
1467,1711003921354368843,2058,2056,2042,2068,2090,2051,1194
1468,1711003921364366778,2058,2052,2082,2053,2029,2054,1197
1469,1711003921374368831,2056,2059,2029,2064,2090,2052,1194
1470,1711003921384371013,2056,2075,2092,2055,2028,2058,1196
1471,1711003921394371703,2059,2058,2029,2055,2082,2052,1194
1472,1711003921404367544,2056,2051,2074,2050,2024,2050,1196
1473,1711003921414368254,2056,2056,2038,2058,2085,2055,1197
1474,1711003921424368012,2050,2068,2086,2056,2029,2057,1198
1475,1711003921434373380,2057,2061,2041,2057,2081,2054,1196
1476,1711003921444360484,2052,2053,2080,2051,2027,2057,1196
1477,1711003921454369130,2055,2053,2030,2062,2110,2057,1196
1478,1711003921464367135,2058,2059,2072,2056,2036,2059,1196
1479,1711003921474408361,2060,2052,2025,2054,2072,2053,1196
1480,1711003921484390415,2052,2051,2076,2050,2018,2054,1198
1481,1711003921494377139,2061,2067,2039,2057,2081,2052,1197
1482,1711003921504370325,2049,2048,2076,2053,2028,2056,1194
1483,1711003921514367989,2061,2056,2034,2060,2082,2052,1196
1484,1711003921524368238,2060,2049,2077,2049,2026,2058,1196
1485,1711003921534372054,2059,2052,2026,2059,2080,2056,1195
1486,1711003921544367063,2054,2049,2085,2056,2030,2061,1197
1487,1711003921554370218,2052,2033,2023,2052,2076,2054,1196
1488,1711003921564369855,2060,2042,2075,2048,2008,2056,1197
1489,1711003921574369152,2055,2057,2036,2064,2080,2052,1198
1490,1711003921584370935,2050,2050,2081,2052,2029,2054,1195
1491,1711003921594372296,2054,2058,2033,2058,2094,2052,1197
1492,1711003921604387032,2057,2059,2076,2055,2020,2052,1197
1493,1711003921614375218,2058,2057,2028,2069,2107,2052,1198
1494,1711003921624368655,2053,2048,2070,2056,2029,2056,1197
1495,1711003921634362903,2060,2059,2032,2057,2080,2052,1195
1496,1711003921644365877,2053,2049,2070,2050,2041,2059,1195
1497,1711003921654369331,2056,2053,2028,2064,2085,2058,1195
1498,1711003921664368008,2056,2049,2074,2053,2031,2057,1196
1499,1711003921674374840,2059,2058,2036,2061,2100,2051,1195
1500,1711003921684387422,2064,2056,2077,2056,2032,2058,1197
1501,1711003921694320192,2068,2056,2029,2059,2084,2052,1196
1502,1711003921704365196,2056,2052,2092,2056,2025,2057,1195
1503,1711003921714368051,2056,2043,2032,2063,2076,2047,1193
1504,1711003921724365926,2054,2047,2074,2049,2036,2060,1196
1505,1711003921734375111,2058,2058,2028,2060,2097,2053,1195
1506,1711003921744391992,2057,2053,2078,2057,2033,2060,1195
1507,1711003921754364488,2056,2052,2034,2060,2083,2052,1195
1508,1711003921764372973,2058,2054,2080,2056,2025,2056,1198
1509,1711003921774370056,2061,2062,2042,2069,2109,2054,1197
1510,1711003921784386436,2054,2046,2076,2047,2002,2049,1196
1511,1711003921794365254,2053,2045,2021,2055,2074,2049,1198
1512,1711003921804370643,2059,2061,2069,2053,2024,2058,1196
1513,1711003921814371163,2056,2056,2030,2059,2074,2052,1198
1514,1711003921824369448,2056,2060,2077,2056,2027,2059,1196
1515,1711003921834629120,2053,2053,2042,2058,2074,2046,1193
1516,1711003921844376118,2056,2060,2085,2056,2033,2058,1198
1517,1711003921854368171,2060,2050,2030,2056,2076,2054,1196
1518,1711003921864373340,2055,2053,2078,2049,2026,2057,1197
1519,1711003921874367657,2056,2056,2033,2064,2085,2052,1196
1520,1711003921884373628,2057,2054,2077,2056,2033,2056,1195
1521,1711003921894366332,2051,2053,2031,2057,2074,2052,1196
1522,1711003921904367463,2054,2051,2096,2058,2047,2052,1194
1523,1711003921914370477,2055,2054,2028,2057,2080,2053,1197
1524,1711003921924367530,2052,2036,2064,2056,2032,2058,1197
1525,1711003921934370124,2060,2051,2030,2061,2082,2052,1196
1526,1711003921944373379,2056,2050,2076,2051,2025,2058,1198
1527,1711003921954368938,2058,2057,2030,2052,2072,2052,1195
1528,1711003921964365841,2057,2049,2076,2055,2036,2061,1195
1529,1711003921974368104,2060,2053,2036,2061,2079,2050,1197
1530,1711003921984368494,2050,2053,2071,2057,2031,2062,1198
1531,1711003921994378591,2060,2064,2031,2061,2081,2053,1194
1532,1711003922004333173,2056,2054,2076,2054,2031,2056,1195
1533,1711003922014372316,2052,2056,2033,2056,2079,2049,1195
1534,1711003922024373507,2052,2050,2073,2049,2033,2052,1197
1535,1711003922034373005,2058,2056,2038,2060,2085,2053,1198
1536,1711003922044381189,2057,2053,2079,2052,2017,2049,1197
1537,1711003922054372030,2056,2049,2017,2056,2076,2052,1197
1538,1711003922064375445,2052,2031,2070,2052,2029,2053,1196
1539,1711003922074375012,2064,2056,2032,2057,2068,2047,1193
1540,1711003922084372938,2052,2050,2072,2056,2026,2058,1197
1541,1711003922094374158,2053,2057,2030,2056,2080,2049,1197
1542,1711003922104375018,2048,2052,2071,2048,2028,2049,1194
1543,1711003922114376460,2057,2058,2034,2063,2081,2052,1197
1544,1711003922124376258,2057,2051,2076,2054,2029,2062,1196
1545,1711003922134406194,2059,2054,2036,2056,2073,2053,1197
1546,1711003922144380623,2057,2076,2079,2052,2027,2054,1197
1547,1711003922154373458,2060,2047,2027,2064,2082,2053,1197
1548,1711003922164376903,2054,2056,2078,2057,2040,2057,1195
1549,1711003922174377402,2058,2056,2032,2057,2083,2053,1195
1550,1711003922184402078,2046,2050,2072,2047,2017,2049,1197
1551,1711003922194375927,2060,2053,2029,2052,2074,2054,1196
1552,1711003922204378340,2060,2056,2076,2051,2024,2064,1195
1553,1711003922214395331,2057,2044,2026,2058,2081,2047,1193
1554,1711003922224381062,2056,2047,2073,2051,2032,2056,1193
1555,1711003922234382043,2058,2062,2039,2060,2080,2051,1197
1556,1711003922244358687,2052,2050,2090,2050,2025,2058,1196
1557,1711003922254381749,2056,2059,2036,2053,2079,2051,1198
1558,1711003922264366098,2047,2049,2069,2045,2015,2054,1197
1559,1711003922274365245,2056,2053,2028,2056,2076,2049,1196
1560,1711003922284384230,2048,2027,2073,2051,2028,2053,1197
1561,1711003922294384269,2062,2057,2034,2060,2084,2055,1194
1562,1711003922304367395,2047,2049,2095,2054,2023,2052,1192
1563,1711003922314367744,2061,2057,2034,2056,2085,2052,1196
1564,1711003922324385586,2052,2048,2081,2053,2027,2061,1194
1565,1711003922334397016,2059,2057,2035,2060,2082,2053,1195
1566,1711003922344358292,2056,2052,2070,2051,2020,2048,1196
1567,1711003922354367798,2060,2080,2042,2052,2070,2048,1196
1568,1711003922364373427,2057,2052,2076,2050,2024,2057,1196
1569,1711003922374367114,2058,2052,2031,2059,2081,2054,1198
1570,1711003922384378694,2048,2054,2081,2053,2030,2053,1196
1571,1711003922394368835,2057,2065,2030,2053,2088,2049,1197
1572,1711003922404362211,2057,2046,2068,2056,2034,2060,1197
1573,1711003922414369042,2061,2046,2029,2056,2076,2047,1196
1574,1711003922424368679,2056,2052,2070,2053,2028,2057,1197
1575,1711003922434391852,2057,2057,2032,2059,2078,2049,1196
1576,1711003922444360161,2060,2057,2080,2054,2024,2060,1196
1577,1711003922454364458,2056,2052,2028,2056,2088,2052,1196
1578,1711003922464364756,2054,2055,2074,2053,2033,2058,1198
1579,1711003922474364544,2058,2064,2034,2057,2078,2047,1192
1580,1711003922484365975,2050,2040,2065,2054,2025,2056,1196
1581,1711003922494366245,2058,2049,2036,2059,2083,2049,1194
1582,1711003922504368257,2054,2074,2084,2056,2024,2057,1194
1583,1711003922514369889,2067,2064,2036,2053,2073,2052,1194
1584,1711003922524372402,2053,2049,2072,2056,2054,2060,1196
1585,1711003922534371358,2056,2056,2033,2061,2081,2047,1194
1586,1711003922544365366,2056,2052,2070,2053,2026,2056,1196
1587,1711003922554366958,2058,2057,2028,2059,2089,2056,1197
1588,1711003922564367728,2053,2049,2069,2056,2030,2060,1197
1589,1711003922574367676,2056,2082,2044,2060,2092,2056,1198
1590,1711003922584380819,2053,2053,2076,2053,2024,2053,1198
1591,1711003922594373734,2062,2065,2046,2063,2082,2056,1196
1592,1711003922604369154,2055,2054,2074,2058,2045,2060,1200
1593,1711003922614369814,2058,2056,2027,2061,2088,2053,1198
1594,1711003922624367759,2056,2052,2075,2048,2022,2053,1198
1595,1711003922634370613,2059,2052,2036,2052,2069,2049,1196
1596,1711003922644360131,2062,2064,2084,2053,2026,2060,1196
1597,1711003922654353026,2059,2055,2030,2056,2078,2052,1197
1598,1711003922664365338,2053,2052,2072,2052,2029,2058,1196
1599,1711003922674365036,2062,2060,2046,2066,2085,2053,1195
1600,1711003922684409239,2057,2058,2085,2056,2031,2060,1196
1601,1711003922694368069,2055,2056,2028,2058,2074,2052,1195
1602,1711003922704369821,2056,2054,2081,2058,2031,2057,1195
1603,1711003922714368918,2056,2046,2029,2052,2069,2053,1195
1604,1711003922724368917,2054,2060,2092,2047,2021,2056,1197
1605,1711003922734367723,2057,2061,2049,2047,2059,2052,1194
1606,1711003922744354406,2052,2050,2074,2058,2034,2057,1196
1607,1711003922754364744,2059,2061,2038,2061,2082,2056,1194
1608,1711003922764368640,2059,2053,2077,2069,2052,2061,1196
1609,1711003922774366234,2057,2061,2033,2057,2088,2052,1196
1610,1711003922784371192,2054,2051,2082,2054,2027,2060,1196
1611,1711003922794364327,2056,2064,2042,2060,2085,2052,1197
1612,1711003922804364987,2052,2052,2073,2057,2029,2056,1197
1613,1711003922814367941,2056,2057,2035,2059,2085,2054,1199
1614,1711003922824366277,2052,2050,2075,2054,2026,2053,1197
1615,1711003922834385292,2056,2057,2032,2064,2094,2051,1197
1616,1711003922844358228,2054,2053,2080,2055,2036,2056,1198
1617,1711003922854363377,2062,2089,2064,2065,2088,2053,1195
1618,1711003922864363646,2049,2047,2072,2052,2023,2053,1198
1619,1711003922874373814,2056,2057,2034,2057,2077,2045,1194
1620,1711003922884375175,2057,2048,2076,2054,2019,2058,1196
1621,1711003922894374121,2057,2047,2029,2055,2072,2046,1194
1622,1711003922904369922,2056,2057,2073,2054,2028,2056,1194
1623,1711003922914367305,2056,2058,2028,2057,2079,2050,1196
1624,1711003922924370390,2058,2083,2083,2052,2030,2058,1197
1625,1711003922934374867,2057,2058,2032,2056,2077,2050,1200
1626,1711003922944365738,2053,2051,2085,2053,2026,2053,1198
1627,1711003922954363382,2057,2057,2029,2061,2081,2056,1195
1628,1711003922964362829,2052,2066,2088,2056,2032,2057,1197
1629,1711003922974374210,2056,2053,2038,2060,2073,2054,1195
1630,1711003922984360212,2051,2027,2068,2052,2025,2056,1198
1631,1711003922994362936,2060,2044,2025,2061,2080,2050,1197
1632,1711003923004358536,2056,2053,2072,2056,2031,2054,1197
1633,1711003923014360418,2052,2054,2031,2052,2075,2047,1196
1634,1711003923024358632,2056,2056,2085,2056,2040,2062,1195
1635,1711003923034365624,2058,2057,2033,2058,2080,2056,1197
1636,1711003923044357778,2052,2052,2077,2056,2030,2057,1196
1637,1711003923054357777,2057,2090,2056,2053,2077,2052,1195
1638,1711003923064353848,2050,2049,2074,2050,2028,2054,1197
1639,1711003923074399172,2056,2055,2028,2063,2084,2051,1197
1640,1711003923084365146,2054,2049,2068,2052,2031,2049,1197
1641,1711003923094364934,2066,2064,2053,2058,2082,2056,1196
1642,1711003923104365274,2051,2050,2072,2054,2033,2057,1194
1643,1711003923114365172,2065,2061,2028,2057,2080,2053,1195
1644,1711003923124450032,2053,2056,2070,2057,2031,2056,1196
1645,1711003923134360510,2056,2057,2037,2059,2080,2053,1198
1646,1711003923144359787,2050,2046,2073,2056,2038,2052,1194
1647,1711003923154373411,2060,2065,2041,2061,2082,2052,1196
1648,1711003923164365916,2048,2052,2074,2057,2036,2054,1197
1649,1711003923174405099,2057,2056,2037,2056,2088,2052,1195
1650,1711003923184364861,2057,2056,2074,2054,2032,2062,1196
1651,1711003923194364178,2059,2045,2027,2059,2078,2054,1196
1652,1711003923204363786,2051,2060,2074,2056,2036,2057,1196
1653,1711003923214364886,2057,2050,2032,2057,2075,2050,1196
1654,1711003923224421562,2057,2054,2077,2053,2024,2056,1198
1655,1711003923234362288,2054,2059,2035,2054,2077,2049,1196
1656,1711003923244371033,2055,2055,2078,2051,2027,2052,1193
1657,1711003923254371513,2055,2027,2017,2057,2081,2053,1197
1658,1711003923264368956,2053,2039,2077,2055,2032,2057,1196
1659,1711003923274373754,2054,2053,2029,2056,2081,2045,1195
1660,1711003923284367911,2056,2049,2066,2053,2026,2056,1196
1661,1711003923294369372,2057,2051,2035,2061,2086,2054,1196
1662,1711003923304372898,2054,2056,2082,2056,2026,2058,1194
1663,1711003923314374019,2051,2058,2034,2051,2066,2047,1194
1664,1711003923324374047,2055,2059,2076,2053,2030,2056,1196
1665,1711003923334383854,2058,2057,2028,2060,2076,2052,1196
1666,1711003923344369636,2052,2049,2068,2056,2025,2058,1197
1667,1711003923354374012,2052,2050,2036,2059,2081,2050,1194
1668,1711003923364373750,2054,2050,2074,2052,2028,2056,1198
1669,1711003923374384940,2059,2064,2039,2058,2072,2048,1195
1670,1711003923384404316,2056,2053,2073,2047,2015,2060,1195
1671,1711003923394372384,2057,2055,2034,2058,2083,2047,1193
1672,1711003923404376460,2053,2051,2074,2060,2031,2052,1195
1673,1711003923414375406,2064,2059,2038,2058,2080,2052,1199
1674,1711003923424375965,2052,2046,2068,2047,2025,2053,1196
1675,1711003923434392676,2058,2052,2035,2056,2077,2050,1195
1676,1711003923444383818,2058,2064,2085,2059,2032,2056,1196
1677,1711003923454380991,2055,2054,2034,2059,2081,2054,1195
1678,1711003923464381250,2054,2089,2092,2051,2025,2052,1195
1679,1711003923474381959,2055,2056,2050,2069,2101,2057,1195
1680,1711003923484387689,2052,2052,2077,2054,2027,2056,1195
1681,1711003923494382537,2056,2060,2033,2057,2076,2052,1198
1682,1711003923504369271,2052,2053,2072,2049,2013,2053,1194
1683,1711003923514367015,2062,2062,2034,2061,2078,2054,1195
1684,1711003923524370891,2047,2049,2076,2057,2025,2050,1195
1685,1711003923534385648,2057,2057,2036,2059,2078,2047,1194
1686,1711003923544360729,2052,2064,2084,2053,2024,2052,1196
1687,1711003923554371668,2053,2030,2021,2056,2076,2046,1193
1688,1711003923564372097,2056,2042,2072,2058,2030,2053,1196
1689,1711003923574373789,2056,2051,2032,2057,2079,2047,1192
1690,1711003923584391832,2056,2049,2076,2053,2027,2056,1194
1691,1711003923594341595,2057,2059,2037,2058,2082,2052,1197
1692,1711003923604371711,2052,2048,2074,2053,2026,2054,1197
1693,1711003923614374083,2053,2052,2027,2056,2077,2049,1198
1694,1711003923624377148,2059,2080,2094,2050,2022,2053,1196
1695,1711003923634371235,2057,2060,2036,2058,2079,2047,1196
1696,1711003923644374199,2049,2043,2070,2049,2024,2058,1196
1697,1711003923654367044,2061,2058,2034,2058,2079,2052,1197
1698,1711003923664371491,2052,2051,2073,2050,2020,2052,1197
1699,1711003923674371069,2059,2058,2033,2060,2088,2052,1195
1700,1711003923684434177,2056,2050,2070,2056,2038,2059,1195
1701,1711003923694374382,2059,2056,2035,2068,2093,2052,1194
1702,1711003923704368149,2050,2056,2082,2056,2026,2053,1196
1703,1711003923714368317,2052,2068,2041,2058,2077,2053,1194
1704,1711003923724366763,2053,2044,2069,2050,2021,2057,1197
1705,1711003923734365900,2060,2060,2032,2050,2068,2047,1193
1706,1711003923744370507,2053,2051,2074,2056,2044,2060,1195
1707,1711003923754363342,2058,2056,2030,2060,2080,2045,1194
1708,1711003923764370063,2052,2032,2060,2054,2031,2061,1195
1709,1711003923774377205,2061,2061,2038,2064,2089,2056,1197
1710,1711003923784358148,2052,2050,2072,2053,2030,2052,1197
1711,1711003923794366863,2055,2060,2041,2060,2084,2052,1195
1712,1711003923804359838,2053,2059,2080,2053,2024,2056,1197
1713,1711003923814367010,2058,2056,2031,2065,2093,2057,1197
1714,1711003923824365465,2053,2050,2074,2050,2024,2056,1195
1715,1711003923834370233,2056,2056,2032,2061,2083,2053,1196
1716,1711003923844358620,2056,2053,2080,2048,2012,2057,1195
1717,1711003923854362636,2060,2060,2035,2055,2077,2051,1197
1718,1711003923864359488,2049,2045,2078,2054,2025,2057,1196
1719,1711003923874366239,2061,2061,2036,2056,2070,2052,1197
1720,1711003923884360226,2047,2052,2072,2049,2021,2056,1195
1721,1711003923894396554,2061,2073,2045,2061,2085,2050,1194
1722,1711003923904365924,2056,2052,2076,2054,2020,2060,1194
1723,1711003923914364860,2057,2061,2047,2062,2080,2056,1195
1724,1711003923924364939,2056,2080,2084,2053,2029,2055,1194
1725,1711003923934366070,2060,2053,2029,2057,2078,2052,1194
1726,1711003923944369716,2054,2056,2084,2057,2025,2056,1196
1727,1711003923954364374,2057,2064,2041,2057,2079,2050,1193
1728,1711003923964365404,2051,2045,2087,2052,2025,2057,1196
1729,1711003923974368078,2060,2060,2026,2059,2083,2050,1197
1730,1711003923984367556,2056,2081,2092,2052,2025,2057,1194
1731,1711003923994371011,2062,2058,2036,2057,2068,2051,1196
1732,1711003924004368414,2052,2052,2078,2050,2020,2052,1196
1733,1711003924014366609,2056,2060,2030,2061,2082,2052,1197
1734,1711003924024366197,2056,2058,2082,2047,2020,2050,1196
1735,1711003924034366205,2056,2057,2036,2060,2077,2049,1197
1736,1711003924044390820,2057,2053,2074,2055,2026,2054,1195
1737,1711003924054367484,2053,2045,2028,2057,2080,2054,1196
1738,1711003924064364067,2058,2043,2078,2056,2025,2055,1196
1739,1711003924074366039,2058,2053,2032,2062,2072,2054,1196
1740,1711003924084368712,2056,2049,2074,2050,2025,2056,1196
1741,1711003924094375754,2058,2059,2040,2058,2081,2051,1198
1742,1711003924104371955,2056,2063,2088,2059,2038,2057,1195
1743,1711003924114370461,2057,2056,2052,2057,2080,2050,1198
1744,1711003924124370649,2048,2024,2064,2050,2026,2053,1198
1745,1711003924134373483,2058,2050,2042,2057,2083,2053,1195
1746,1711003924144371037,2052,2045,2072,2056,2041,2052,1194
1747,1711003924154367960,2057,2060,2040,2056,2076,2047,1194
1748,1711003924164369592,2056,2055,2077,2054,2027,2056,1196
1749,1711003924174373077,2057,2050,2032,2064,2084,2048,1196
1750,1711003924184370751,2059,2058,2074,2057,2031,2058,1196
1751,1711003924194399544,2060,2056,2040,2068,2098,2048,1196
1752,1711003924204368984,2053,2074,2080,2053,2028,2056,1196
1753,1711003924214370305,2059,2069,2038,2057,2081,2051,1197
1754,1711003924224368349,2051,2052,2078,2054,2026,2053,1198
1755,1711003924234369300,2062,2064,2034,2056,2084,2053,1197
1756,1711003924244379829,2054,2048,2069,2052,2032,2061,1196
1757,1711003924254359097,2058,2068,2036,2061,2088,2056,1196
1758,1711003924264358815,2054,2052,2080,2053,2037,2050,1195
1759,1711003924274365697,2058,2084,2048,2057,2075,2049,1196
1760,1711003924284368160,2048,2044,2076,2053,2025,2053,1197
1761,1711003924294379220,2057,2066,2042,2056,2073,2046,1192
1762,1711003924304365111,2052,2050,2076,2055,2029,2056,1194
1763,1711003924314368957,2058,2056,2026,2056,2085,2051,1197
1764,1711003924324367432,2054,2046,2072,2053,2034,2057,1195
1765,1711003924334367481,2056,2053,2026,2058,2094,2060,1195
1766,1711003924344381476,2048,2045,2089,2054,2031,2057,1195
1767,1711003924354361878,2066,2053,2032,2060,2085,2056,1195
1768,1711003924364364932,2052,2052,2078,2056,2033,2060,1194
1769,1711003924374366393,2053,2050,2036,2050,2066,2045,1195
1770,1711003924384366381,2056,2058,2076,2052,2029,2060,1196
1771,1711003924394370147,2056,2053,2030,2059,2084,2052,1197
1772,1711003924404370977,2052,2052,2070,2056,2030,2058,1197
1773,1711003924414371677,2058,2058,2032,2059,2086,2053,1197
1774,1711003924424369921,2056,2048,2074,2054,2029,2054,1196
1775,1711003924434369439,2064,2045,2032,2064,2080,2054,1195
1776,1711003924444369187,2053,2056,2078,2054,2026,2056,1197
1777,1711003924454328288,2049,2048,2029,2056,2075,2048,1195
1778,1711003924464369214,2064,2065,2086,2056,2032,2055,1196
1779,1711003924474368391,2059,2058,2034,2058,2082,2056,1195
1780,1711003924484371886,2051,2030,2072,2060,2028,2058,1197
1781,1711003924494404957,2061,2053,2037,2060,2084,2057,1197
1782,1711003924504366072,2050,2048,2078,2055,2031,2061,1195
1783,1711003924514366742,2057,2058,2035,2058,2076,2052,1195
1784,1711003924524362793,2056,2053,2066,2051,2020,2058,1195
1785,1711003924534356288,2058,2058,2034,2058,2082,2051,1197
1786,1711003924544370965,2052,2049,2070,2054,2021,2056,1196
1787,1711003924554367036,2052,2047,2026,2064,2091,2050,1194
1788,1711003924564370351,2054,2057,2073,2047,2025,2057,1196
1789,1711003924574371882,2057,2052,2025,2058,2068,2052,1195
1790,1711003924584370107,2049,2047,2073,2051,2028,2057,1195
1791,1711003924594393570,2064,2062,2036,2061,2080,2053,1194
1792,1711003924604361608,2059,2056,2075,2052,2024,2054,1196
1793,1711003924614366516,2059,2051,2034,2058,2074,2050,1194
1794,1711003924624368328,2053,2057,2078,2056,2034,2056,1198
1795,1711003924634365510,2057,2056,2025,2058,2088,2049,1197
1796,1711003924644376711,2054,2057,2085,2053,2030,2057,1199
1797,1711003924654374004,2054,2054,2031,2053,2074,2045,1193
1798,1711003924664368592,2052,2048,2080,2052,2026,2058,1196
1799,1711003924674369763,2055,2053,2036,2064,2093,2052,1196
1800,1711003924684367537,2053,2059,2080,2049,2028,2054,1196
1801,1711003924694386862,2056,2072,2040,2057,2084,2051,1196
1802,1711003924704360009,2062,2051,2088,2066,2047,2062,1197
1803,1711003924714371069,2064,2057,2029,2056,2080,2050,1195
1804,1711003924724368693,2053,2058,2083,2053,2032,2054,1196
1805,1711003924734368531,2057,2056,2026,2056,2077,2049,1197
1806,1711003924744383959,2056,2049,2080,2054,2025,2057,1196
1807,1711003924754390790,2061,2056,2029,2058,2073,2047,1193
1808,1711003924764361102,2050,2062,2072,2054,2025,2057,1196
1809,1711003924774367262,2058,2063,2033,2056,2078,2050,1197
1810,1711003924784367090,2057,2044,2072,2052,2026,2056,1197
1811,1711003924794367550,2057,2056,2027,2057,2076,2050,1197
1812,1711003924804369301,2052,2048,2066,2052,2032,2056,1197
1813,1711003924814361064,2057,2053,2032,2058,2079,2050,1198
1814,1711003924824362876,2053,2053,2079,2059,2032,2060,1195
1815,1711003924834368235,2057,2056,2029,2061,2089,2053,1196
1816,1711003924844369175,2052,2053,2077,2056,2029,2052,1198
1817,1711003924854397548,2053,2050,2028,2056,2081,2049,1196
1818,1711003924864363301,2059,2049,2076,2058,2029,2054,1195
1819,1711003924874367818,2057,2053,2031,2066,2098,2052,1197
1820,1711003924884368077,2053,2046,2070,2053,2012,2052,1197
1821,1711003924894368025,2056,2077,2049,2056,2081,2054,1195
1822,1711003924904381169,2049,2046,2067,2048,2012,2053,1196
1823,1711003924914368463,2058,2059,2030,2061,2081,2053,1195
1824,1711003924924370195,2053,2060,2072,2053,2029,2060,1195
1825,1711003924934370624,2054,2052,2033,2057,2068,2049,1198
1826,1711003924944370492,2040,2050,2069,2041,2014,2039,1195
1827,1711003924954388785,2065,2060,2036,2064,2090,2056,1197
1828,1711003924964368866,2049,2025,2066,2054,2024,2056,1196
1829,1711003924974371730,2064,2053,2032,2060,2082,2056,1197
1830,1711003924984372469,2050,2050,2073,2053,2017,2058,1196
1831,1711003924994372839,2058,2069,2041,2056,2076,2051,1198
1832,1711003925004371184,2060,2058,2080,2044,2018,2050,1199
1833,1711003925014373457,2058,2056,2029,2053,2072,2046,1194
1834,1711003925024374046,2052,2053,2073,2057,2054,2057,1197
1835,1711003925034375267,2058,2062,2036,2066,2086,2052,1195
1836,1711003925044383191,2057,2060,2072,2054,2044,2059,1196
1837,1711003925054376577,2065,2062,2030,2056,2081,2052,1198
1838,1711003925064370934,2056,2043,2072,2058,2025,2057,1197
1839,1711003925074374139,2055,2050,2028,2062,2077,2050,1194
1840,1711003925084374437,2054,2045,2069,2063,2033,2049,1195
1841,1711003925094398201,2062,2061,2028,2068,2094,2057,1196
1842,1711003925104376258,2056,2053,2078,2053,2010,2056,1193
1843,1711003925114375214,2058,2057,2033,2065,2099,2056,1196
1844,1711003925124376525,2054,2076,2091,2051,2020,2052,1196
1845,1711003925134376854,2060,2058,2031,2058,2076,2050,1197
1846,1711003925144391160,2056,2054,2078,2053,2037,2057,1194
1847,1711003925154396568,2056,2053,2023,2057,2073,2050,1196
1848,1711003925164382039,2057,2045,2071,2053,2032,2054,1196
1849,1711003925174385374,2064,2053,2032,2058,2090,2056,1197
1850,1711003925184380673,2053,2047,2072,2052,2024,2051,1196
1851,1711003925194410028,2053,2056,2033,2058,2072,2046,1194
1852,1711003925204381181,2054,2049,2072,2050,2024,2057,1197
1853,1711003925214365800,2066,2069,2041,2053,2072,2045,1196
1854,1711003925224365488,2057,2081,2082,2059,2029,2057,1197
1855,1711003925234383361,2057,2056,2034,2056,2081,2052,1197
1856,1711003925244395342,2059,2053,2076,2057,2029,2058,1198
1857,1711003925254381975,2058,2056,2030,2053,2068,2050,1195
1858,1711003925264370511,2056,2053,2084,2056,2020,2059,1195
1859,1711003925274368526,2059,2057,2032,2056,2081,2049,1198
1860,1711003925284368494,2056,2049,2073,2050,2028,2058,1197
1861,1711003925294395654,2056,2053,2028,2056,2070,2051,1196
1862,1711003925304370165,2053,2052,2072,2056,2024,2055,1195
1863,1711003925314368470,2056,2046,2026,2057,2084,2052,1197
1864,1711003925324369881,2057,2046,2080,2054,2032,2056,1194
1865,1711003925334368727,2057,2056,2032,2063,2081,2050,1196
1866,1711003925344394284,2056,2053,2084,2057,2030,2056,1196
1867,1711003925354360137,2059,2058,2029,2056,2070,2048,1196
1868,1711003925364361749,2058,2051,2079,2050,2024,2054,1197
1869,1711003925374370013,2053,2049,2036,2054,2080,2053,1196
1870,1711003925384369210,2056,2060,2074,2056,2030,2056,1195
1871,1711003925394372414,2065,2077,2037,2057,2085,2050,1194
1872,1711003925404360209,2061,2058,2076,2048,2016,2047,1195
1873,1711003925414367943,2061,2058,2029,2066,2080,2047,1196
1874,1711003925424366628,2052,2047,2081,2050,2032,2053,1196
1875,1711003925434363541,2061,2065,2040,2050,2073,2048,1194
1876,1711003925444404227,2055,2052,2077,2055,2030,2056,1197
1877,1711003925454393274,2062,2059,2025,2057,2073,2048,1195
1878,1711003925464365109,2056,2065,2081,2055,2027,2054,1195
1879,1711003925474359928,2056,2053,2029,2054,2077,2049,1194
1880,1711003925484368342,2054,2056,2080,2054,2031,2056,1196
1881,1711003925494375805,2058,2057,2037,2056,2068,2049,1195
1882,1711003925504371816,2056,2064,2080,2052,2030,2051,1194
1883,1711003925514368999,2060,2062,2028,2065,2092,2053,1195
1884,1711003925524373295,2053,2052,2073,2054,2029,2062,1196
1885,1711003925534368484,2056,2085,2045,2056,2082,2052,1195
1886,1711003925544381828,2052,2050,2076,2056,2040,2057,1197
1887,1711003925554372398,2059,2058,2030,2058,2072,2049,1196
1888,1711003925564366926,2060,2053,2079,2058,2021,2054,1196
1889,1711003925574369169,2056,2052,2017,2056,2086,2047,1193
1890,1711003925584370430,2056,2064,2080,2051,2028,2053,1196
1891,1711003925594401307,2055,2049,2028,2052,2076,2048,1196
1892,1711003925604377941,2054,2041,2072,2056,2044,2063,1197
1893,1711003925614372078,2061,2055,2035,2058,2081,2052,1196
1894,1711003925624370384,2052,2050,2075,2056,2030,2058,1195
1895,1711003925634369130,2055,2056,2040,2056,2078,2047,1195
1896,1711003925644375620,2050,2056,2073,2057,2019,2051,1196
1897,1711003925654367153,2061,2058,2036,2057,2079,2052,1197
1898,1711003925664368935,2052,2057,2074,2050,2040,2064,1195
1899,1711003925674368031,2049,2068,2042,2047,2064,2042,1193
1900,1711003925684367068,2047,2051,2076,2052,2018,2051,1197
1901,1711003925694379339,2057,2056,2030,2056,2073,2053,1196
1902,1711003925704373767,2054,2059,2082,2054,2032,2059,1193
1903,1711003925714371461,2056,2053,2033,2059,2078,2052,1194
1904,1711003925724371670,2056,2053,2085,2052,2028,2056,1196
1905,1711003925734383110,2052,2053,2036,2053,2073,2046,1194
1906,1711003925744376897,2053,2052,2090,2057,2028,2058,1195
1907,1711003925754363309,2052,2029,2021,2054,2074,2052,1196
1908,1711003925764371213,2060,2038,2071,2053,2026,2057,1195
1909,1711003925774371763,2057,2050,2028,2048,2058,2048,1195
1910,1711003925784372502,2050,2050,2072,2054,2024,2055,1194
1911,1711003925794393861,2058,2055,2028,2062,2084,2058,1195
1912,1711003925804363803,2051,2049,2077,2056,2033,2058,1197
1913,1711003925814368410,2054,2056,2030,2051,2072,2048,1196
1914,1711003925824368719,2052,2033,2069,2053,2033,2056,1196
1915,1711003925834366753,2061,2049,2024,2060,2082,2054,1196
1916,1711003925844381490,2051,2044,2072,2056,2028,2056,1196
1917,1711003925854352443,2071,2066,2038,2050,2077,2056,1196
1918,1711003925864370716,2052,2045,2074,2053,2026,2054,1197
1919,1711003925874370664,2056,2057,2034,2058,2080,2052,1196
1920,1711003925884368819,2052,2053,2069,2045,2006,2047,1195
1921,1711003925894388735,2056,2056,2030,2056,2078,2053,1196
1922,1711003925904367804,2056,2053,2076,2049,2025,2056,1194
1923,1711003925914371980,2054,2056,2033,2058,2080,2049,1196
1924,1711003925924373111,2053,2048,2075,2054,2030,2058,1195
1925,1711003925934366187,2057,2052,2030,2052,2071,2050,1195
1926,1711003925944369280,2058,2047,2072,2058,2036,2062,1196
1927,1711003925954373297,2057,2060,2037,2060,2079,2051,1196
1928,1711003925964373145,2051,2054,2081,2052,2014,2050,1196
1929,1711003925974390576,2057,2056,2032,2064,2094,2052,1195
1930,1711003925984378692,2056,2080,2084,2056,2029,2054,1194
1931,1711003925994392296,2060,2054,2032,2058,2079,2051,1196
1932,1711003926004370563,2060,2056,2081,2054,2030,2052,1195
1933,1711003926014375260,2061,2056,2029,2055,2077,2049,1195
1934,1711003926024367795,2056,2055,2080,2053,2025,2058,1197
1935,1711003926034367493,2055,2046,2032,2056,2080,2045,1194
1936,1711003926044373392,2056,2047,2079,2054,2031,2060,1197
1937,1711003926054358843,2063,2060,2032,2058,2076,2047,1193
1938,1711003926064369541,2057,2051,2082,2053,2028,2054,1196
1939,1711003926074369900,2059,2072,2037,2057,2080,2052,1195
1940,1711003926084370620,2051,2048,2072,2052,2030,2057,1195
1941,1711003926094384565,2054,2052,2028,2056,2080,2052,1196
1942,1711003926104364816,2051,2051,2073,2058,2036,2055,1192
1943,1711003926114371928,2058,2059,2037,2052,2072,2050,1196
1944,1711003926124371646,2054,2037,2073,2059,2046,2060,1196
1945,1711003926134369590,2056,2030,2021,2061,2085,2048,1196
1946,1711003926144369238,2061,2047,2080,2058,2033,2061,1195
1947,1711003926154364076,2056,2056,2037,2058,2080,2052,1196
1948,1711003926164370477,2054,2046,2079,2058,2028,2053,1196
1949,1711003926174371527,2057,2059,2036,2058,2083,2050,1198
1950,1711003926184372187,2056,2050,2072,2063,2040,2060,1196
1951,1711003926194370222,2057,2059,2033,2053,2081,2050,1197
1952,1711003926204364088,2057,2068,2085,2056,2025,2055,1197
1953,1711003926214368505,2057,2057,2030,2060,2082,2052,1196
1954,1711003926224376509,2056,2059,2074,2056,2029,2059,1197
1955,1711003926234373231,2064,2061,2029,2058,2081,2051,1197
1956,1711003926244371095,2056,2060,2074,2055,2031,2054,1196
1957,1711003926254367757,2054,2057,2030,2056,2078,2049,1195
1958,1711003926264378907,2059,2056,2079,2047,2031,2056,1195
1959,1711003926274372002,2062,2060,2030,2058,2082,2047,1195
1960,1711003926284372421,2050,2054,2077,2054,2029,2056,1198
1961,1711003926294375345,2058,2058,2036,2060,2081,2052,1197
1962,1711003926304379441,2054,2049,2070,2051,2014,2056,1194
1963,1711003926314374149,2062,2053,2031,2060,2084,2052,1196
1964,1711003926324375741,2060,2050,2077,2054,2035,2056,1197
1965,1711003926334376300,2059,2057,2046,2056,2071,2047,1193
1966,1711003926344381328,2055,2050,2077,2052,2032,2058,1199
1967,1711003926354379493,2056,2054,2030,2060,2085,2052,1194
1968,1711003926364374963,2054,2054,2079,2058,2040,2058,1195
1969,1711003926374375442,2063,2086,2048,2050,2080,2052,1195
1970,1711003926384378786,2049,2041,2074,2056,2031,2056,1195
1971,1711003926394408872,2058,2057,2034,2061,2083,2052,1196
1972,1711003926404380176,2050,2048,2072,2048,2024,2053,1196
1973,1711003926414380575,2062,2058,2024,2064,2094,2049,1199
1974,1711003926424380543,2060,2053,2078,2056,2031,2057,1196
1975,1711003926434365964,2056,2056,2029,2058,2079,2050,1194
1976,1711003926444385639,2056,2082,2096,2053,2035,2056,1197
1977,1711003926454380238,2058,2058,2037,2060,2080,2052,1194
1978,1711003926464384714,2050,2045,2076,2049,2014,2050,1192
1979,1711003926474385404,2057,2056,2048,2056,2089,2049,1193
1980,1711003926484386024,2056,2052,2075,2056,2026,2053,1195
1981,1711003926494372456,2058,2065,2040,2056,2069,2052,1195
1982,1711003926504364189,2051,2044,2072,2056,2040,2060,1195
1983,1711003926514364959,2056,2048,2025,2056,2080,2053,1198
1984,1711003926524365619,2052,2050,2076,2053,2032,2053,1196
1985,1711003926534371368,2056,2051,2036,2056,2085,2051,1195
1986,1711003926544375815,2058,2057,2072,2059,2038,2061,1196
1987,1711003926554381844,2058,2058,2032,2056,2076,2047,1193
1988,1711003926564369439,2052,2056,2082,2051,2024,2052,1196
1989,1711003926574370009,2056,2056,2037,2060,2085,2051,1196
1990,1711003926584392690,2054,2057,2088,2064,2056,2063,1197
1991,1711003926594393531,2056,2052,2029,2054,2069,2049,1195
1992,1711003926604365696,2058,2057,2085,2056,2029,2056,1197
1993,1711003926614374631,2055,2057,2035,2055,2075,2047,1194
1994,1711003926624372275,2052,2064,2082,2053,2018,2051,1194
1995,1711003926634374287,2056,2056,2037,2053,2081,2053,1196
1996,1711003926644382581,2052,2076,2088,2057,2025,2051,1197
1997,1711003926654372420,2067,2064,2041,2066,2085,2059,1196
1998,1711003926664373821,2059,2059,2078,2049,2027,2053,1196
1999,1711003926674367097,2054,2050,2028,2058,2075,2052,1196
2000,1711003926684370141,2050,2050,2077,2053,2028,2053,1197
2001,1711003926694382242,2056,2071,2044,2070,2084,2050,1197
2002,1711003926704358085,2056,2059,2077,2056,2022,2055,1194
2003,1711003926714369395,2056,2056,2033,2061,2091,2056,1198
2004,1711003926724371527,2056,2053,2074,2056,2027,2058,1195
2005,1711003926734370002,2056,2084,2042,2053,2066,2050,1194
2006,1711003926744373057,2058,2058,2080,2052,2027,2053,1197
2007,1711003926754359088,2060,2059,2035,2053,2075,2049,1195
2008,1711003926764367673,2056,2052,2079,2053,2022,2052,1195
2009,1711003926774368433,2062,2058,2033,2060,2089,2056,1196
2010,1711003926784372018,2056,2052,2082,2058,2031,2054,1196
2011,1711003926794373940,2056,2051,2048,2056,2076,2048,1194
2012,1711003926804391051,2050,2048,2072,2056,2036,2054,1196
2013,1711003926814377744,2058,2058,2033,2062,2081,2049,1195
2014,1711003926824370068,2056,2049,2078,2051,2019,2056,1197
2015,1711003926834371208,2057,2056,2031,2053,2066,2045,1193
2016,1711003926844370134,2056,2056,2076,2058,2028,2060,1196
2017,1711003926854363931,2052,2054,2026,2052,2078,2050,1196
2018,1711003926864360172,2057,2090,2090,2056,2032,2056,1196
2019,1711003926874363457,2058,2050,2024,2054,2077,2052,1197
2020,1711003926884367583,2057,2052,2074,2057,2034,2061,1196
2021,1711003926894384483,2061,2058,2033,2059,2070,2049,1195
2022,1711003926904374754,2056,2052,2075,2052,2029,2057,1196
2023,1711003926914371526,2061,2058,2033,2056,2080,2050,1196
2024,1711003926924368729,2052,2056,2081,2052,2026,2056,1196
2025,1711003926934369168,2053,2046,2021,2060,2075,2044,1192
2026,1711003926944397150,2056,2059,2077,2051,2029,2052,1196
2027,1711003926954372721,2058,2066,2038,2063,2085,2052,1194
2028,1711003926964372119,2055,2056,2079,2056,2034,2062,1197
2029,1711003926974360796,2051,2046,2027,2057,2080,2049,1195
2030,1711003926984373779,2053,2053,2078,2054,2033,2058,1196
2031,1711003926994372765,2052,2049,2026,2057,2066,2044,1192
2032,1711003927004371411,2053,2054,2073,2051,2026,2056,1198
2033,1711003927014373534,2062,2064,2029,2054,2078,2052,1196
2034,1711003927024367159,2050,2048,2076,2048,2025,2056,1195
2035,1711003927034367328,2053,2054,2026,2052,2060,2043,1194
2036,1711003927044377927,2052,2055,2084,2052,2031,2061,1197
2037,1711003927054363929,2059,2058,2039,2059,2077,2051,1197
2038,1711003927064365069,2054,2054,2076,2050,2026,2057,1198
2039,1711003927074365588,2058,2080,2053,2056,2080,2053,1195
2040,1711003927084368402,2056,2053,2072,2056,2033,2056,1196
2041,1711003927094385091,2054,2064,2042,2056,2079,2053,1196
2042,1711003927104357047,2056,2052,2074,2054,2032,2056,1194
2043,1711003927114362004,2058,2059,2033,2056,2073,2049,1194
2044,1711003927124362824,2053,2051,2079,2052,2029,2056,1195
2045,1711003927134360738,2053,2057,2032,2055,2067,2045,1194
2046,1711003927144365606,2050,2078,2088,2052,2028,2054,1198
2047,1711003927154353842,2056,2056,2035,2051,2070,2050,1196
2048,1711003927164361786,2052,2061,2088,2058,2049,2060,1195
2049,1711003927174363146,2057,2056,2034,2056,2078,2052,1194
2050,1711003927184363876,2055,2053,2080,2054,2030,2056,1196
2051,1711003927194381708,2059,2056,2033,2056,2080,2052,1195
2052,1711003927204367270,2055,2024,2060,2051,2025,2057,1196
2053,1711003927214372257,2057,2042,2024,2060,2080,2054,1196
2054,1711003927224369680,2052,2045,2076,2063,2058,2061,1197
2055,1711003927234368136,2056,2049,2034,2057,2081,2054,1196
2056,1711003927244372702,2064,2059,2081,2052,2026,2053,1197
2057,1711003927254359967,2058,2061,2037,2059,2079,2052,1196
2058,1711003927264370124,2052,2053,2076,2051,2029,2056,1195
2059,1711003927274345456,2058,2082,2044,2054,2078,2048,1197
2060,1711003927284368628,2053,2053,2072,2059,2027,2053,1196
2061,1711003927294392292,2053,2056,2030,2057,2081,2056,1195
2062,1711003927304369426,2056,2053,2075,2052,2028,2056,1196
2063,1711003927314371939,2056,2043,2030,2056,2078,2052,1195
2064,1711003927324369273,2053,2047,2074,2054,2028,2056,1196
2065,1711003927334339915,2057,2088,2032,2058,2082,2050,1194
2066,1711003927344381372,2052,2050,2074,2056,2029,2060,1197
2067,1711003927354370350,2058,2052,2032,2052,2074,2048,1195
2068,1711003927364371901,2052,2050,2074,2057,2033,2056,1197
2069,1711003927374370046,2057,2056,2031,2051,2065,2046,1194
2070,1711003927384370314,2052,2056,2082,2047,2019,2057,1196
2071,1711003927394387756,2057,2090,2047,2058,2080,2049,1195
2072,1711003927404361775,2052,2048,2072,2043,2008,2049,1195
2073,1711003927414366923,2061,2067,2040,2057,2077,2050,1196
2074,1711003927424368845,2053,2052,2072,2056,2027,2056,1197
2075,1711003927434369174,2054,2052,2029,2052,2068,2052,1196
2076,1711003927444371787,2057,2047,2076,2047,2026,2056,1196
2077,1711003927454361226,2065,2053,2032,2054,2077,2050,1194
2078,1711003927464364680,2049,2044,2066,2056,2027,2056,1196
2079,1711003927474368546,2058,2056,2026,2058,2078,2050,1195
2080,1711003927484366220,2052,2053,2074,2052,2028,2056,1194
2081,1711003927494384283,2057,2056,2036,2054,2084,2059,1196
2082,1711003927504369042,2050,2051,2085,2050,2026,2053,1193
2083,1711003927514372667,2053,2052,2028,2060,2080,2053,1197
2084,1711003927524364981,2053,2088,2090,2054,2030,2056,1195
2085,1711003927534368496,2052,2048,2036,2053,2073,2048,1197
2086,1711003927544371470,2056,2052,2072,2057,2030,2060,1195
2087,1711003927554360417,2058,2056,2033,2056,2076,2054,1196
2088,1711003927564354805,2049,2050,2074,2051,2018,2058,1198
2089,1711003927574366606,2057,2058,2039,2059,2083,2052,1197
2090,1711003927584365392,2052,2071,2091,2056,2032,2056,1196
2091,1711003927594368897,2057,2056,2033,2048,2060,2045,1192
2092,1711003927604365027,2053,2050,2070,2049,2025,2056,1198
2093,1711003927614368012,2057,2060,2040,2056,2078,2047,1196
2094,1711003927624368551,2054,2053,2075,2055,2033,2057,1197
2095,1711003927634368459,2058,2057,2035,2057,2080,2052,1194
2096,1711003927644369960,2052,2051,2075,2057,2031,2058,1196
2097,1711003927654367664,2057,2086,2044,2058,2080,2055,1196
2098,1711003927664373123,2050,2054,2074,2053,2027,2056,1196
2099,1711003927674371609,2058,2071,2051,2064,2082,2052,1196
2100,1711003927684371556,2056,2047,2075,2054,2027,2056,1196
2101,1711003927694372868,2053,2057,2034,2056,2077,2052,1196
2102,1711003927704371713,2057,2054,2076,2052,2024,2057,1194
2103,1711003927714369628,2057,2041,2027,2057,2079,2049,1195
2104,1711003927724367793,2058,2052,2074,2056,2035,2060,1197
2105,1711003927734373481,2052,2040,2021,2056,2083,2053,1195
2106,1711003927744372638,2054,2050,2072,2062,2056,2064,1196
2107,1711003927754380221,2056,2052,2036,2058,2085,2049,1197
2108,1711003927764371954,2057,2049,2078,2054,2034,2064,1195
2109,1711003927774386369,2059,2058,2037,2067,2082,2052,1197
2110,1711003927784394834,2052,2022,2065,2052,2028,2059,1195
2111,1711003927794375816,2057,2041,2029,2056,2077,2051,1198
2112,1711003927804384731,2052,2046,2068,2062,2041,2060,1197
2113,1711003927814371103,2056,2049,2028,2056,2075,2048,1196
2114,1711003927824382704,2058,2052,2076,2066,2044,2058,1196
2115,1711003927834374747,2059,2062,2033,2056,2074,2052,1197
2116,1711003927844369235,2060,2052,2091,2060,2028,2058,1196
2117,1711003927854376497,2053,2085,2049,2054,2077,2049,1198
2118,1711003927864370504,2057,2047,2067,2052,2026,2057,1196
2119,1711003927874370342,2057,2057,2032,2062,2077,2047,1194
2120,1711003927884371021,2056,2061,2086,2056,2027,2053,1196
2121,1711003927894379506,2058,2061,2029,2056,2072,2045,1194
2122,1711003927904390345,2054,2061,2084,2055,2036,2054,1192
2123,1711003927914375455,2056,2056,2034,2063,2088,2058,1197
2124,1711003927924373349,2056,2050,2088,2060,2042,2061,1197
2125,1711003927934374209,2057,2057,2032,2059,2086,2053,1197
2126,1711003927944373957,2054,2050,2072,2050,2027,2058,1196
2127,1711003927954387311,2056,2050,2032,2057,2074,2048,1196
2128,1711003927964351260,2050,2049,2076,2051,2028,2056,1198
2129,1711003927974371257,2056,2052,2028,2060,2079,2056,1196
2130,1711003927984371485,2052,2058,2081,2059,2042,2058,1195
2131,1711003927994380822,2059,2052,2029,2060,2076,2050,1194
2132,1711003928004371282,2056,2053,2072,2058,2028,2059,1197
2133,1711003928014381790,2053,2031,2023,2056,2077,2049,1198
2134,1711003928024377320,2054,2045,2071,2056,2032,2060,1197
2135,1711003928034377448,2059,2056,2033,2059,2079,2050,1197
2136,1711003928044379170,2053,2051,2078,2051,2024,2055,1196
2137,1711003928054376433,2058,2056,2032,2054,2074,2046,1194
2138,1711003928064378806,2056,2053,2077,2054,2033,2057,1196
2139,1711003928074379125,2054,2053,2025,2058,2078,2052,1195
2140,1711003928084384253,2052,2042,2076,2050,2022,2053,1198
2141,1711003928094378330,2060,2044,2032,2057,2066,2048,1195
2142,1711003928104381143,2056,2052,2076,2052,2030,2057,1194
2143,1711003928114381101,2060,2058,2032,2060,2083,2053,1198
2144,1711003928124381050,2056,2056,2074,2053,2031,2056,1197
2145,1711003928134381519,2059,2059,2030,2057,2078,2050,1198
2146,1711003928144383331,2054,2056,2081,2060,2035,2058,1195
2147,1711003928154363531,2064,2051,2030,2056,2074,2047,1192
2148,1711003928164363509,2052,2041,2070,2057,2033,2056,1194
2149,1711003928174383466,2054,2052,2029,2058,2077,2052,1196
2150,1711003928184366401,2056,2052,2079,2053,2029,2060,1196
2151,1711003928194365558,2056,2056,2029,2058,2088,2053,1195
2152,1711003928204384863,2052,2048,2079,2056,2030,2058,1196
2153,1711003928214368150,2058,2032,2023,2058,2081,2054,1196
2154,1711003928224367777,2054,2040,2069,2057,2039,2059,1197
2155,1711003928234368347,2057,2068,2041,2056,2085,2049,1197
2156,1711003928244369988,2051,2052,2088,2056,2032,2056,1197
2157,1711003928254365939,2054,2054,2041,2056,2080,2053,1195
2158,1711003928264364464,2054,2053,2076,2058,2038,2060,1197
2159,1711003928274367418,2057,2053,2032,2057,2081,2053,1196
2160,1711003928284370762,2052,2083,2090,2057,2030,2057,1196
2161,1711003928294394966,2052,2050,2028,2057,2068,2048,1197
2162,1711003928304394294,2053,2056,2068,2047,2013,2056,1195
2163,1711003928314371759,2057,2072,2036,2050,2072,2049,1196
2164,1711003928324365396,2056,2056,2076,2056,2033,2061,1197
2165,1711003928334370784,2056,2056,2037,2056,2083,2053,1198
2166,1711003928344370251,2051,2054,2073,2067,2053,2061,1197
2167,1711003928354367724,2054,2039,2023,2060,2082,2052,1199
2168,1711003928364371179,2060,2060,2080,2058,2034,2058,1198
2169,1711003928374369464,2049,2050,2026,2057,2084,2049,1198
2170,1711003928384368841,2056,2054,2075,2059,2037,2053,1196
2171,1711003928394383017,2056,2051,2034,2057,2080,2050,1197
2172,1711003928404372936,2058,2052,2071,2058,2035,2061,1198
2173,1711003928414379757,2056,2056,2036,2057,2076,2046,1194
2174,1711003928424369776,2056,2052,2072,2057,2030,2054,1197
2175,1711003928434377449,2062,2048,2024,2057,2077,2053,1195
2176,1711003928444373209,2056,2048,2072,2053,2029,2056,1196
2177,1711003928454362147,2059,2060,2038,2059,2081,2054,1197
2178,1711003928464362706,2051,2050,2075,2049,2021,2052,1198
2179,1711003928474360429,2060,2057,2030,2064,2081,2052,1196
2180,1711003928484360599,2053,2056,2078,2056,2030,2057,1196
2181,1711003928494387988,2059,2052,2032,2056,2076,2051,1197
2182,1711003928504364583,2053,2073,2080,2057,2030,2056,1194
2183,1711003928514366815,2061,2066,2041,2051,2073,2050,1197
2184,1711003928524370260,2053,2052,2076,2053,2033,2061,1198
2185,1711003928534371520,2058,2056,2033,2060,2080,2057,1196
2186,1711003928544374204,2052,2049,2077,2056,2030,2056,1196
2187,1711003928554360346,2056,2056,2034,2056,2076,2048,1196
2188,1711003928564360655,2051,2053,2074,2053,2027,2056,1197
2189,1711003928574373107,2051,2029,2027,2052,2068,2045,1195
2190,1711003928584368586,2056,2040,2069,2053,2027,2053,1195
2191,1711003928594389815,2055,2060,2034,2054,2074,2054,1195
2192,1711003928604374705,2052,2052,2080,2053,2029,2057,1195
2193,1711003928614370505,2059,2057,2035,2056,2076,2052,1200
2194,1711003928624367798,2053,2056,2076,2059,2046,2059,1197
2195,1711003928634368157,2055,2056,2036,2064,2087,2053,1197
2196,1711003928644370670,2056,2037,2069,2053,2036,2061,1194
2197,1711003928654368423,2056,2052,2028,2057,2074,2048,1197
2198,1711003928664363703,2054,2052,2072,2056,2024,2057,1195
2199,1711003928674361777,2056,2053,2036,2056,2074,2050,1196
2200,1711003928684364722,2057,2063,2096,2054,2033,2058,1196
2201,1711003928694369519,2057,2054,2029,2054,2074,2049,1196
2202,1711003928704373004,2052,2054,2081,2053,2026,2054,1195
2203,1711003928714373022,2060,2058,2036,2073,2100,2054,1197
2204,1711003928724372279,2054,2052,2070,2052,2026,2058,1197
2205,1711003928734366516,2061,2066,2033,2056,2064,2044,1194
2206,1711003928744424144,2056,2050,2073,2053,2030,2057,1198
2207,1711003928754388374,2060,2048,2029,2056,2078,2052,1195
2208,1711003928764359227,2050,2042,2071,2056,2024,2054,1197
2209,1711003928774368493,2057,2056,2035,2057,2079,2052,1196
2210,1711003928784367810,2051,2048,2078,2053,2031,2060,1198
2211,1711003928794366977,2056,2054,2030,2054,2068,2054,1198
2212,1711003928804388416,2053,2052,2067,2056,2021,2056,1197
