seq,time,data[0],data[1],data[2],data[3],data[4],data[5],data[6]
201,1711004264111352959,2051,2040,2058,2058,2033,2066,1193
202,1711004264121348829,2054,2062,2042,2056,2076,2050,1195
203,1711004264131356580,2050,2041,2062,2050,2032,2057,1197
204,1711004264141363932,2059,2074,2047,2053,2068,2052,1195
205,1711004264151356424,2054,2052,2072,2051,2033,2066,1193
206,1711004264161353506,2063,2062,2046,2058,2063,2060,1196
207,1711004264171356098,2045,2021,2060,2056,2040,2047,1193
208,1711004264181360785,2067,2056,2037,2059,2076,2048,1195
209,1711004264191343709,2048,2056,2068,2044,2016,2050,1195
210,1711004264201338216,2057,2051,2017,2054,2059,2046,1192
211,1711004264211339215,2047,2045,2065,2050,2029,2058,1197
212,1711004264221343350,2066,2057,2053,2068,2078,2068,1197
213,1711004264231343908,2045,2063,2084,2046,2028,2047,1194
214,1711004264241339416,2056,2048,2033,2059,2077,2046,1194
215,1711004264251343141,2060,2059,2082,2060,2025,2057,1197
216,1711004264261337838,2063,2052,2037,2051,2065,2049,1196
217,1711004264271343165,2050,2052,2076,2053,2027,2049,1198
218,1711004264281338894,2060,2047,2029,2056,2070,2051,1196
219,1711004264291343771,2049,2047,2072,2052,2028,2040,1194
220,1711004264301337215,2060,2056,2038,2066,2072,2050,1197
221,1711004264311337804,2046,2057,2083,2072,2085,2063,1196
222,1711004264321338823,2060,2064,2033,2043,2040,2055,1196
223,1711004264331338920,2052,2050,2072,2048,2036,2041,1192
224,1711004264341338617,2058,2062,2036,2049,2046,2045,1196
225,1711004264351348432,2056,2056,2075,2046,2018,2047,1193
226,1711004264361336838,2059,2060,2040,2058,2078,2052,1196
227,1711004264371350621,2050,2047,2068,2060,2047,2062,1194
228,1711004264381344046,2056,2054,2027,2056,2069,2052,1195
229,1711004264391345425,2054,2055,2068,2054,2036,2061,1195
230,1711004264401337838,2061,2050,2031,2058,2035,2045,1192
231,1711004264411346732,2056,2055,2073,2047,2028,2072,1195
232,1711004264421344625,2064,2052,2036,2052,2062,2045,1192
233,1711004264431347057,2054,2052,2077,2062,2049,2054,1196
234,1711004264441339831,2060,2060,2044,2051,2053,2037,1193
235,1711004264451348624,2051,2047,2068,2052,2017,2052,1193
236,1711004264461338041,2061,2062,2058,2051,2054,2044,1195
237,1711004264471343329,2054,2056,2074,2057,2028,2060,1195
238,1711004264481337565,2044,2032,2012,2045,2053,2046,1192
239,1711004264491347391,2056,2053,2064,2060,2058,2058,1195
240,1711004264501338301,2069,2064,2058,2072,2114,2058,1196
241,1711004264511353196,2049,2051,2077,2049,2034,2056,1194
242,1711004264521338385,2057,2056,2042,2061,2062,2076,1196
243,1711004264531343282,2053,2052,2071,2056,2048,2066,1196
244,1711004264541338129,2054,2065,2016,2052,2048,2046,1194
245,1711004264551344358,2056,2053,2059,2063,2044,2058,1192
246,1711004264561350567,2056,2064,2042,2050,2056,2052,1196
247,1711004264571331638,2052,2047,2063,2059,2049,2061,1195
248,1711004264581340923,2065,2056,2041,2057,2064,2059,1198
249,1711004264591343505,2060,2067,2080,2061,2041,2060,1196
250,1711004264601337059,2056,2050,2031,2054,2070,2057,1195
251,1711004264611371262,2047,2049,2063,2055,2052,2076,1196
252,1711004264621367542,2047,2072,2042,2060,2081,2052,1195
253,1711004264631337152,2052,2076,2062,2050,2035,2062,1196
254,1711004264641314605,2058,2069,2052,2056,2064,2049,1194
255,1711004264651342727,2049,2049,2065,2053,2040,2036,1193
256,1711004264661347492,2052,2058,2025,2033,2059,2068,1197
257,1711004264671355044,2062,2060,2056,2056,2045,2053,1196
258,1711004264681338710,2057,2049,2034,2066,2080,2061,1195
259,1711004264691345791,2063,2052,2068,2062,2068,2064,1196
260,1711004264701336400,2054,2051,2037,2053,2064,2064,1196
261,1711004264711364591,2061,2052,2065,2062,2056,2042,1195
262,1711004264721335903,2049,2037,2030,2049,2046,2058,1197
263,1711004264731340078,2059,2052,2061,2050,2065,2044,1194
264,1711004264741340276,2048,2047,2040,2052,2045,2050,1197
265,1711004264751354029,2056,2057,2072,2060,2042,2049,1193
266,1711004264761369305,2056,2049,2046,2041,2047,2056,1195
267,1711004264771327252,2050,2050,2072,2054,2048,2046,1192
268,1711004264781333061,2056,2061,2045,2054,2052,2059,1194
269,1711004264791338267,2061,2068,2058,2057,2049,2065,1195
270,1711004264801368362,2058,2046,2038,2056,2076,2050,1195
271,1711004264811349763,2061,2065,2056,2063,2061,2068,1195
272,1711004264821333891,2053,2049,2038,2042,2062,2049,1196
273,1711004264831329790,2046,2050,2064,2044,2017,2038,1192
274,1711004264841338253,2061,2053,2012,2046,2040,2052,1197
275,1711004264851365512,2052,2033,2042,2048,2038,2038,1192
276,1711004264861329080,2057,2042,2038,2060,2073,2081,1194
277,1711004264871332163,2057,2042,2054,2056,2053,2061,1196
278,1711004264881334946,2059,2046,2031,2053,2045,2052,1197
279,1711004264891339251,2053,2050,2056,2047,2039,2039,1193
280,1711004264901351080,2061,2053,2024,2062,2062,2068,1196
281,1711004264911346820,2058,2049,2073,2056,2040,2070,1198
282,1711004264921322951,2054,2045,2019,2056,2066,2047,1192
283,1711004264931333789,2057,2044,2053,2041,2025,2061,1195
284,1711004264941328677,2057,2069,2052,2051,2056,2037,1192
285,1711004264951374371,2036,2038,2062,2061,2052,2056,1192
286,1711004264961340253,2058,2056,2040,2043,2028,2051,1192
287,1711004264971329830,2060,2049,2060,2040,2001,2047,1193
288,1711004264981328946,2056,2053,2032,2048,2058,2062,1196
289,1711004264991334934,2050,2047,2063,2053,2034,2047,1192
290,1711004265001368345,2063,2035,2034,2052,2051,2056,1193
291,1711004265011348044,2059,2036,2072,2058,2045,2052,1193
292,1711004265021334856,2062,2049,2037,2028,2050,2048,1193
293,1711004265031337067,2072,2064,2059,2048,2022,2046,1192
294,1711004265041328087,2058,2059,2040,2049,2056,2044,1194
295,1711004265051398578,2060,2055,2082,2068,2065,2056,1197
296,1711004265062152868,2067,2057,2031,2056,2069,2061,1198
297,1711004265071347035,2049,2043,2054,2037,2022,2050,1194
298,1711004265081334899,2059,2056,2041,2053,2073,2058,1194
299,1711004265091338803,2059,2050,2070,2054,2054,2057,1196
300,1711004265101333660,2061,2060,2051,2050,2026,2050,1196
301,1711004265111353065,2064,2069,2086,2052,2026,2052,1197
302,1711004265121343142,2064,2053,2055,2058,2068,2049,1196
303,1711004265131345735,2048,2044,2048,2051,2043,2061,1196
304,1711004265141339259,2056,2051,2037,2054,2074,2056,1197
305,1711004265151354295,2052,2052,2064,2053,2045,2052,1195
306,1711004265161344143,2056,2061,2029,2054,2072,2068,1194
307,1711004265171348478,2052,2041,2061,2081,2089,2052,1196
308,1711004265181329269,2062,2080,2040,2053,2066,2049,1196
309,1711004265191340397,2050,2047,2056,2061,2060,2052,1195
310,1711004265201375091,2060,2061,2068,2056,2048,2052,1196
311,1711004265211362343,2058,2072,2076,2050,2015,2047,1193
312,1711004265221385204,2049,2048,2040,2042,2031,2046,1194
313,1711004265231342530,2057,2053,2071,2045,2022,2029,1192
314,1711004265241337437,2059,2052,2042,2036,2047,2033,1192
315,1711004265251367642,2049,2029,2054,2058,2045,2056,1196
316,1711004265261337932,2059,2062,2042,2057,2064,2056,1198
317,1711004265271338561,2044,2051,2091,2055,2046,2079,1195
318,1711004265281334871,2066,2049,2053,2051,2060,2052,1195
319,1711004265291338024,2048,2046,2040,2053,2043,2058,1194
320,1711004265301335917,2061,2061,2063,2059,2070,2037,1192
321,1711004265311342317,2049,2055,2070,2041,2001,2044,1191
322,1711004265321338186,2055,2049,2055,2056,2054,2044,1193
323,1711004265331345467,2053,2036,2047,2052,2040,2050,1197
324,1711004265341339543,2066,2086,2058,2056,2065,2058,1195
325,1711004265351358225,2054,2058,2081,2064,2054,2073,1193
326,1711004265361349806,2043,2064,2036,2051,2050,2045,1193
327,1711004265371344644,2054,2061,2089,2078,2120,2038,1193
328,1711004265381339220,2062,2088,2055,2061,2063,2048,1198
329,1711004265391345560,2056,2050,2067,2050,2034,2048,1196
330,1711004265401357129,2054,2065,2032,2052,2040,2044,1193
331,1711004265411332520,2060,2047,2070,2058,2041,2056,1196
332,1711004265421342104,2069,2072,2050,2042,1998,2057,1196
333,1711004265431338915,2047,2044,2049,2054,2045,2068,1194
334,1711004265441347649,2053,2059,2024,2052,2066,2048,1195
335,1711004265451387562,2050,2062,2072,2051,2048,2059,1196
336,1711004265461335751,2070,2064,2050,2048,2050,2056,1196
337,1711004265471350646,2041,2042,2049,2054,2057,2056,1196
338,1711004265481340384,2068,2061,2044,2043,2040,2046,1193
339,1711004265491357233,2053,2056,2068,2060,2058,2056,1198
340,1711004265501351569,2054,2046,2040,2068,2069,2043,1193
341,1711004265511344904,2061,2062,2068,2077,2094,2073,1196
342,1711004265521338499,2056,2062,2056,2054,2084,2043,1194
343,1711004265531339498,2058,2044,2021,2058,2035,2068,1196
344,1711004265541383178,2058,2070,2030,2065,2088,2065,1195
345,1711004265551403153,2059,2062,2068,2064,2049,2045,1192
346,1711004265561334339,2050,2064,2035,2084,2147,2056,1195
347,1711004265571351379,2054,2046,2061,2071,2068,2059,1196
348,1711004265581342008,2047,2029,2025,2055,2069,2051,1195
349,1711004265591345993,2068,2056,2068,2056,2044,2049,1196
350,1711004265601340610,2060,2051,2026,2096,2193,2052,1194
351,1711004265611343312,2055,2064,2058,2059,2047,2046,1193
352,1711004265621338029,2063,2092,2060,2058,2051,2049,1195
353,1711004265631342555,2047,2055,2057,2056,2043,2045,1193
354,1711004265641362359,2061,2064,2038,2064,2113,2051,1196
355,1711004265651343010,2057,2081,2084,2089,2130,2080,1197
356,1711004265661344079,2040,2040,2036,2065,2084,2049,1197
357,1711004265671344447,2068,2064,2065,2057,2038,2069,1198
358,1711004265681341919,2047,2035,2032,2040,2024,2042,1193
359,1711004265691370290,2047,2041,2049,2054,2031,2064,1194
360,1711004265701359537,2056,2058,2030,2048,2104,2056,1198
361,1711004265711334656,2057,2046,2061,2047,2046,2082,1195
362,1711004265721339724,2062,2104,2056,2053,2058,2052,1195
363,1711004265731345141,2046,2046,2084,2053,2044,2063,1197
364,1711004265741349356,2062,2047,2035,2055,2064,2056,1195
365,1711004265751350325,2051,2056,2068,2072,2098,2050,1196
366,1711004265761344341,2053,2068,2039,2076,2097,2056,1198
367,1711004265771342374,2047,2041,2056,2044,2027,2046,1194
368,1711004265781342361,2052,2058,2030,2052,2064,2039,1193
369,1711004265791353039,2055,2052,2062,2067,2046,2056,1195
370,1711004265801356212,2052,2061,2045,2072,2057,2068,1195
371,1711004265811343565,2042,2016,2056,2046,2003,2046,1194
372,1711004265821343332,2068,2074,2056,2068,2076,2068,1196
373,1711004265831345703,2050,2048,2061,2057,2056,2058,1194
374,1711004265841353666,2060,2052,2027,2065,2074,2043,1193
375,1711004265851350998,2068,2103,2104,2057,2054,2096,1196
376,1711004265861340365,2050,2041,2025,2043,2058,2033,1194
377,1711004265871343297,2052,2055,2072,2056,2042,2045,1193
378,1711004265881342423,2059,2057,2042,2053,2049,2057,1195
379,1711004265891349975,2053,2054,2072,2057,2041,2062,1196
380,1711004265901357025,2038,2033,2019,2066,2090,2046,1192
381,1711004265911345510,2051,2044,2060,2052,2034,2049,1196
382,1711004265921347811,2056,2062,2045,2061,2096,2056,1197
383,1711004265931348460,2056,2048,2073,2052,2043,2045,1193
384,1711004265941362443,2056,2052,2032,2050,2044,2060,1195
385,1711004265951357871,2053,2061,2089,2062,2039,2060,1194
386,1711004265961355024,2052,2074,2072,2064,2066,2050,1195
387,1711004265971345212,2054,2060,2101,2056,2050,2057,1195
388,1711004265981330401,2047,2057,2033,2050,2033,2028,1194
389,1711004265991347030,2064,2074,2092,2057,2070,2056,1193
390,1711004266001358940,2057,2069,2064,2059,2074,2063,1196
391,1711004266011345701,2050,2022,2062,2052,2005,2024,1196
392,1711004266021330329,2059,2052,2042,2051,2088,2028,1193
393,1711004266031348431,2060,2052,2060,2057,2053,2046,1192
394,1711004266041352386,2053,2056,2046,2051,2043,2038,1194
395,1711004266051356350,2061,2078,2101,2056,2033,2052,1196
396,1711004266061326220,2053,2059,2044,2058,2076,2062,1196
397,1711004266071323562,2059,2050,2088,2061,2062,2119,1195
398,1711004266081327016,2060,2050,2032,2068,2128,2038,1194
399,1711004266091292528,2053,2061,2071,2058,2053,2074,1195
400,1711004266101325267,2061,2064,2026,2061,2085,2056,1194
401,1711004266111351634,2053,2037,2052,2051,2036,2077,1198
402,1711004266121326463,2056,2047,2038,2045,2046,2017,1191
403,1711004266131327853,2050,2052,2062,2059,2069,2052,1195
404,1711004266141334302,2054,2052,2047,2051,2047,2034,1195
405,1711004266151336142,2059,2054,2089,2049,2025,2035,1192
406,1711004266161327013,2049,2055,2037,2052,2061,2047,1193
407,1711004266171336728,2057,2052,2068,2060,2042,2058,1195
408,1711004266181333359,2056,2076,2060,2059,2075,2037,1192
409,1711004266191340600,2056,2044,2073,2066,2079,2065,1195
410,1711004266201358330,2057,2080,2057,2053,2017,2108,1197
411,1711004266211353548,2044,2060,2050,2041,2008,2017,1192
412,1711004266221335481,2054,2041,2032,2058,2065,2059,1196
413,1711004266231336581,2064,2052,2076,2054,2010,2080,1196
414,1711004266241334003,2058,2060,2046,2050,2036,2093,1196
415,1711004266251339951,2054,2050,2066,2047,2030,2048,1196
416,1711004266261327795,2053,2035,2032,2050,2034,2072,1196
417,1711004266271334094,2056,2072,2089,2057,2031,2052,1196
418,1711004266281331045,2054,2053,2039,2050,2048,2079,1196
419,1711004266291336724,2053,2037,2082,2060,2093,2093,1196
420,1711004266301347831,2057,2064,2023,2072,2066,2059,1196
421,1711004266311360854,2051,2047,2069,2054,2050,2059,1197
422,1711004266321329391,2064,2066,2046,2057,2081,2096,1196
423,1711004266331333415,2053,2034,2058,2072,2085,2057,1195
424,1711004266341343632,2058,2065,2056,2059,2060,2024,1194
425,1711004266352419763,2052,2042,2060,2048,2025,2053,1194
426,1711004266361346331,2056,2089,2070,2048,2016,2072,1197
427,1711004266371333314,2057,2057,2067,2043,1981,2047,1193
428,1711004266381325396,2052,2038,2036,2056,2065,2045,1193
429,1711004266391325002,2065,2031,2034,2049,2048,2073,1195
430,1711004266401352111,2061,2045,2025,2069,2090,2094,1194
431,1711004266411331749,2052,2052,2061,2046,2024,2046,1193
432,1711004266421331426,2058,2064,2053,2064,2068,2041,1195
433,1711004266431332956,2053,2046,2059,2060,2080,2089,1195
434,1711004266441334436,2063,2068,2046,2068,2138,2090,1195
435,1711004266451329674,2050,2053,2070,2045,1989,2038,1194
436,1711004266461331374,2053,2045,2033,2044,1985,2020,1193
437,1711004266471332484,2060,2064,2068,2056,2039,2044,1196
438,1711004266481326960,2059,2054,2037,2069,2060,2052,1196
439,1711004266491325544,2048,2056,2062,2047,1960,2078,1198
440,1711004266501328487,2050,2053,2037,2052,2064,2041,1193
441,1711004266511351968,2061,2047,2060,2046,2035,2038,1192
442,1711004266521331426,2052,2058,2042,2056,2074,2053,1195
443,1711004266531350269,2047,2050,2076,2058,2060,2076,1195
444,1711004266541337522,2052,2045,2019,2044,2019,2054,1196
445,1711004266551342479,2055,2072,2063,2064,2047,2061,1195
446,1711004266561338829,2057,2032,2031,2059,2077,2060,1196
447,1711004266571337023,2060,2043,2068,2053,2027,2043,1192
448,1711004266581333744,2052,2058,2040,2039,2072,2053,1197
449,1711004266591334392,2056,2045,2064,2059,2062,2093,1195
450,1711004266601336904,2054,2057,2043,2060,2083,2102,1196
451,1711004266611356919,2055,2053,2066,2053,2049,2069,1196
452,1711004266621327059,2052,2031,2045,2058,2045,2042,1192
453,1711004266631337887,2059,2063,2069,2058,2033,2046,1193
454,1711004266641331041,2054,2061,2050,2070,2069,2052,1194
455,1711004266651340196,2044,2035,2063,2043,2001,2045,1193
456,1711004266661356193,2051,2048,2037,2054,2113,2077,1196
457,1711004266671330281,2053,2048,2067,2069,2090,2042,1192
458,1711004266681326441,2061,2050,2056,2059,2083,2052,1196
459,1711004266691377555,2051,2041,2065,2059,2042,2057,1198
460,1711004266701332997,2063,2058,2063,2045,2075,2072,1196
461,1711004266711338545,2048,2050,2065,2052,2041,2056,1196
462,1711004266721331048,2065,2077,2044,2057,2076,2058,1197
463,1711004266731332658,2054,2049,2059,2081,2041,2058,1196
464,1711004266741332796,2066,2070,2052,2072,2111,2112,1198
465,1711004266751408156,2048,2069,2067,2062,2047,2040,1192
466,1711004266761346085,2057,2053,2044,2062,2070,2059,1194
467,1711004266771332056,2056,2050,2066,2051,2051,2049,1197
468,1711004266781321914,2057,2045,2036,2053,2069,2064,1196
469,1711004266791340095,2054,2057,2076,2052,2028,2064,1197
470,1711004266801370600,2057,2058,2034,2065,2075,2054,1196
471,1711004266811351942,2045,2032,2065,2061,2025,2094,1196
472,1711004266821340477,2061,2054,2046,2069,2092,2056,1196
473,1711004266831330925,2056,2045,2068,2060,2039,2055,1197
474,1711004266841338377,2085,2085,2046,2059,2068,2044,1195
475,1711004266851422614,2049,2072,2089,2067,2036,2075,1199
476,1711004266861330146,2057,2058,2042,2062,2070,2052,1197
477,1711004266871344239,2062,2050,2072,2056,2026,2085,1196
478,1711004266881331051,2058,2056,2040,2065,2073,2050,1195
479,1711004266891339324,2053,2066,2081,2052,2022,2054,1195
480,1711004266901333340,2060,2051,2038,2076,2088,2050,1197
481,1711004266911352674,2052,2033,2054,2053,2040,2050,1196
482,1711004266921333855,2057,2030,2041,2064,2066,2042,1194
483,1711004266931338722,2059,2040,2060,2055,2049,2048,1194
484,1711004266941359368,2053,2050,2045,2041,2050,2045,1194
485,1711004266951328647,2054,2049,2068,2064,2065,2044,1191
486,1711004266961334956,2057,2057,2029,2060,2065,2053,1196
487,1711004266971330976,2056,2065,2076,2034,2044,2054,1196
488,1711004266981326694,2050,2046,2046,2065,2085,2064,1195
489,1711004266991337873,2054,2056,2058,2088,2051,2072,1197
490,1711004267001337950,2064,2045,2044,2057,2097,2064,1196
491,1711004267011354448,2068,2078,2091,2059,2072,2080,1197
492,1711004267021337493,2056,2053,2041,2060,2056,2012,1193
493,1711004267031340025,2063,2076,2083,2082,2046,2053,1197
494,1711004267041342256,2057,2051,2038,2052,2075,2092,1196
495,1711004267051351962,2060,2045,2062,2060,2032,2050,1195
496,1711004267061332763,2053,2031,2027,2056,2065,2056,1198
497,1711004267071338721,2056,2047,2080,2060,2038,2013,1194
498,1711004267081335282,2052,2050,2040,2076,2123,2049,1198
499,1711004267091340479,2053,2040,2061,2058,2069,2050,1198
500,1711004267101331208,2063,2052,2050,2056,2084,2060,1196
501,1711004267111339872,2053,2062,2073,2056,2059,2040,1193
502,1711004267121337885,2057,2050,2038,2072,2120,2056,1197
503,1711004267131342560,2052,2050,2070,2065,2045,2056,1198
504,1711004267141340975,2060,2063,2041,2051,2080,2046,1193
505,1711004267151377781,2056,2042,2068,2056,2024,2048,1192
506,1711004267161339917,2053,2061,2034,2052,2044,2051,1194
507,1711004267171348410,2037,2041,2053,2056,2045,2064,1194
508,1711004267181345261,2057,2066,2046,2069,2068,2052,1196
509,1711004267191349066,2054,2052,2064,2056,2041,2064,1195
510,1711004267201347911,2059,2066,2053,2064,2067,2045,1194
511,1711004267211352286,2049,2058,2069,2055,2014,2042,1194
512,1711004267221334029,2056,2069,2046,2049,2058,2051,1196
513,1711004267231343924,2051,2059,2072,2049,2047,2056,1198
514,1711004267241337950,2052,2039,2030,2058,2066,2061,1196
515,1711004267251353417,2062,2068,2083,2061,2048,2056,1197
516,1711004267261367911,2051,2050,2041,2062,2056,2045,1195
517,1711004267271339684,2048,2045,2061,2057,2044,2028,1195
518,1711004267281377223,2069,2052,2038,2050,2045,2047,1195
519,1711004267291347253,2058,2048,2061,2057,2052,2054,1196
520,1711004267301375884,2064,2080,2060,2045,2056,2061,1196
521,1711004267311348920,2053,2053,2069,2056,2043,2052,1198
522,1711004267321343136,2061,2072,2068,2062,2096,2057,1197
523,1711004267331348434,2046,2049,2064,2057,2052,2040,1193
524,1711004267341340606,2052,2054,2042,2047,2054,2053,1197
525,1711004267351420405,2051,2041,2064,2059,2055,2066,1195
526,1711004267361357211,2049,2053,2046,2058,2048,2050,1197
527,1711004267371344755,2061,2054,2072,2058,2044,2057,1197
528,1711004267381328721,2056,2060,2067,2058,2049,2047,1196
529,1711004267391333968,2054,2066,2063,2051,2033,2054,1196
530,1711004267401380214,2056,2064,2038,2065,2075,2057,1196
531,1711004267411351936,2056,2055,2069,2056,2023,2072,1195
532,1711004267421335472,2053,2055,2044,2049,2044,2046,1193
533,1711004267431336652,2053,2066,2077,2051,2024,2052,1197
534,1711004267441327702,2053,2038,2029,2052,2060,2056,1198
535,1711004267451367475,2057,2050,2064,2052,2032,2056,1194
536,1711004267461330612,2057,2061,2053,2056,2064,2059,1197
537,1711004267471337873,2071,2054,2050,2073,2060,2045,1195
538,1711004267481327570,2050,2053,2040,2052,2054,2042,1193
539,1711004267491337025,2054,2058,2073,2044,2040,2063,1196
540,1711004267501354145,2055,2048,2046,2065,2095,2056,1196
541,1711004267511344783,2057,2069,2084,2064,2054,2069,1195
542,1711004267521332528,2053,2051,2039,2061,2077,2049,1196
543,1711004267531337504,2058,2089,2079,2056,2032,2068,1195
544,1711004267541327452,2057,2076,2051,2057,2064,2058,1198
545,1711004267551330475,2074,2052,2068,2061,2072,2052,1195
546,1711004267561328278,2057,2056,2045,2063,2065,2057,1196
547,1711004267571344626,2051,2043,2045,2050,2029,2056,1196
548,1711004267581330406,2054,2051,2039,2057,2075,2031,1192
549,1711004267591335984,2058,2065,2061,2034,2021,2037,1192
550,1711004267601340159,2059,2042,2041,2060,2066,2054,1195
551,1711004267611335467,2060,2056,2063,2054,2036,2054,1194
552,1711004267621325535,2057,2041,2037,2060,2070,2052,1196
553,1711004267631341513,2056,2063,2057,2060,2017,2058,1195
554,1711004267641331731,2062,2047,2025,2060,2063,2061,1198
555,1711004267651374619,2056,2046,2060,2060,2049,2058,1196
556,1711004267661343718,2057,2056,2053,2053,2065,2053,1197
557,1711004267671344066,2047,2014,2062,2053,2040,2049,1198
558,1711004267681342149,2059,2050,2021,2064,2076,2056,1196
559,1711004267691337267,2052,2068,2064,2047,2044,2068,1197
560,1711004267701337615,2049,2052,2044,2053,2064,2057,1197
561,1711004267711339926,2046,2056,2066,2057,2038,2053,1195
562,1711004267721334012,2055,2058,2040,2068,2097,2058,1196
563,1711004267731335062,2064,2056,2066,2056,2051,2035,1193
564,1711004267741337553,2067,2060,2046,2056,2062,2057,1196
565,1711004267751340386,2052,2092,2090,2060,2040,2053,1195
566,1711004267761338098,2046,2014,2001,2054,2064,2052,1196
567,1711004267771344597,2058,2048,2072,2045,2008,2061,1197
568,1711004267781333233,2070,2053,2038,2050,2057,2067,1196
569,1711004267791331036,2052,2053,2070,2037,2032,2046,1194
570,1711004267801330412,2060,2053,2049,2060,2078,2048,1196
571,1711004267811361829,2053,2048,2068,2056,2040,2049,1197
572,1711004267821332911,2060,2052,2061,2058,2065,2049,1196
573,1711004267831335643,2053,2061,2080,2057,2045,2054,1196
574,1711004267841328126,2061,2078,2043,2056,2082,2052,1198
575,1711004267851339635,2047,2052,2054,2043,2024,2047,1192
576,1711004267861352827,2054,2060,2030,2037,2025,2044,1196
577,1711004267871340411,2058,2050,2056,2056,2049,2058,1198
578,1711004267881335248,2060,2055,2046,2057,2065,2052,1196
579,1711004267891335805,2052,2084,2076,2052,2032,2057,1195
580,1711004267901345481,2056,2057,2044,2060,2080,2053,1198
581,1711004267911343945,2064,2047,2067,2056,2042,2060,1196
582,1711004267921323814,2050,2060,2030,2052,2063,2074,1195
583,1711004267931330274,2052,2059,2077,2065,2053,2049,1197
584,1711004267941327455,2056,2051,2027,2052,2057,2052,1196
585,1711004267951342802,2052,2042,2065,2044,2029,2052,1196
586,1711004267961326879,2053,2050,2042,2053,2056,2051,1196
587,1711004267971335803,2062,2033,2059,2048,2039,2051,1196
588,1711004267981327464,2060,2064,2053,2052,2069,2046,1192
589,1711004267991334204,2057,2047,2066,2057,2037,2050,1196
590,1711004268001337186,2054,2056,2041,2057,2062,2052,1196
591,1711004268011332866,2053,2066,2073,2058,2050,2053,1196
592,1711004268021328664,2072,2057,2048,2054,2053,2056,1195
593,1711004268031334542,2056,2056,2064,2053,2037,2063,1197
594,1711004268041333888,2056,2047,2017,2056,2061,2048,1197
595,1711004268051330288,2056,2056,2076,2058,2042,2060,1197
596,1711004268061338882,2052,2044,2032,2054,2066,2042,1194
597,1711004268071344951,2041,2056,2077,2053,2037,2043,1194
598,1711004268081325691,2056,2052,2039,2068,2116,2049,1195
599,1711004268091281795,2054,2060,2066,2059,2049,2061,1195
600,1711004268101352326,2048,2032,2038,2067,2087,2052,1197
601,1711004268111336393,2056,2068,2078,2049,2037,2052,1198
602,1711004268121337021,2048,2052,2041,2053,2056,2024,1193
603,1711004268131335214,2060,2072,2080,2058,2055,2058,1197
604,1711004268141349719,2057,2045,2032,2054,2073,2047,1193
605,1711004268151284522,2052,2053,2048,2052,2028,2056,1196
606,1711004268161338822,2047,2052,2034,2053,2081,2052,1194
607,1711004268171339671,2051,2070,2107,2056,2048,2054,1195
608,1711004268181330771,2055,2052,2031,2050,2062,2047,1193
609,1711004268191342341,2054,2054,2068,2058,2047,2054,1197
610,1711004268201344151,2068,2065,2056,2053,2052,2045,1192
611,1711004268211376730,2050,2048,2080,2060,2040,2050,1195
612,1711004268221343403,2061,2055,2043,2058,2070,2054,1197
613,1711004268231344232,2055,2039,2064,2056,2040,2054,1197
614,1711004268241344950,2058,2042,2038,2053,2054,2040,1193
615,1711004268251369815,2048,2047,2062,2058,2058,2060,1196
616,1711004268261340206,2056,2052,2041,2050,2045,2045,1194
617,1711004268271345242,2045,2018,2055,2051,2025,2046,1193
618,1711004268281338457,2060,2050,2029,2048,2040,2043,1194
619,1711004268291349915,2062,2073,2073,2042,2042,2052,1196
620,1711004268301344862,2052,2069,2040,2057,2065,2060,1196
621,1711004268311334621,2056,2060,2073,2056,2039,2060,1196
622,1711004268321336040,2049,2052,2066,2056,2059,2048,1199
623,1711004268331338692,2051,2053,2076,2057,2043,2051,1196
624,1711004268341371391,2062,2065,2052,2056,2084,2056,1197
625,1711004268351379373,2050,2045,2070,2056,2047,2052,1195
626,1711004268361338012,2056,2066,2079,2058,2065,2052,1197
627,1711004268371339071,2053,2059,2060,2056,2038,2055,1195
628,1711004268381327907,2052,2051,2037,2050,2070,2064,1195
629,1711004268391376937,2054,2060,2068,2061,2036,2056,1194
630,1711004268401337229,2058,2064,2024,2063,2072,2062,1198
631,1711004268411338318,2056,2047,2065,2051,2036,2051,1196
632,1711004268421328426,2060,2047,2033,2056,2065,2057,1197
633,1711004268431329835,2056,2049,2058,2051,2053,2041,1192
634,1711004268441351965,2051,2043,2020,2056,2061,2052,1197
635,1711004268451333847,2054,2046,2044,2058,2047,2055,1196
636,1711004268461330689,2056,2058,2060,2056,2061,2046,1194
637,1711004268471337398,2055,2050,2056,2053,2029,2041,1194
638,1711004268481330573,2045,2030,2040,2062,2075,2057,1196
639,1711004268491358042,2060,2052,2064,2049,2042,2057,1195
640,1711004268501332690,2068,2065,2054,2057,2070,2051,1196
641,1711004268511291590,2049,2046,2058,2054,2043,2052,1195
642,1711004268521321353,2064,2063,2026,2064,2060,2060,1197
643,1711004268531290992,2052,2050,2072,2058,2038,2046,1194
644,1711004268541330304,2053,2062,2044,2060,2070,2056,1199
645,1711004268551341893,2050,2029,2050,2054,2044,2050,1195
646,1711004268561347281,2065,2073,2080,2057,2057,2053,1197
647,1711004268571348620,2044,2054,2068,2048,2047,2056,1196
648,1711004268581344420,2058,2051,2042,2062,2069,2061,1197
649,1711004268591356109,2052,2052,2061,2061,2052,2054,1196
650,1711004268601336618,2056,2075,2056,2058,2065,2052,1194
651,1711004268611345734,2060,2059,2058,2047,2024,2046,1192
652,1711004268621341412,2049,2051,2033,2046,2047,2052,1195
653,1711004268631346879,2054,2041,2066,2056,2040,2056,1197
654,1711004268641347026,2054,2054,2065,2056,2067,2051,1197
655,1711004268651397139,2054,2042,2058,2058,2043,2053,1197
656,1711004268661342793,2052,2064,2057,2048,2030,2065,1196
657,1711004268671334654,2061,2065,2066,2057,2036,2058,1196
658,1711004268681332337,2053,2044,2033,2053,2058,2050,1196
659,1711004268691381798,2056,2065,2074,2060,2048,2056,1196
660,1711004268701334245,2056,2026,2033,2046,2052,2040,1193
661,1711004268711346826,2074,2069,2113,2057,2029,2054,1195
662,1711004268721334239,2060,2062,2058,2059,2059,2047,1193
663,1711004268731335067,2051,2056,2069,2052,2037,2045,1194
664,1711004268741371744,2057,2052,2039,2053,2064,2048,1196
665,1711004268751339921,2056,2069,2102,2065,2062,2059,1195
666,1711004268761333987,2073,2056,2058,2073,2077,2086,1197
667,1711004268771336759,2044,2015,2038,2048,2035,2049,1197
668,1711004268781336706,2066,2058,2056,2061,2061,2053,1194
669,1711004268791337214,2056,2056,2076,2059,2041,2058,1196
670,1711004268801397736,2056,2059,2065,2056,2061,2061,1198
671,1711004268811335956,2045,2056,2062,2060,2051,2058,1196
672,1711004268821344549,2063,2074,2046,2057,2066,2053,1196
673,1711004268831338795,2058,2069,2077,2056,2049,2057,1196
674,1711004268841338952,2052,2048,2047,2062,2070,2059,1197
675,1711004268851344139,2057,2079,2086,2071,2066,2052,1197
676,1711004268861338866,2053,2047,2028,2062,2072,2056,1195
677,1711004268871340697,2049,2050,2052,2048,2029,2045,1192
678,1711004268881340915,2055,2052,2040,2056,2061,2046,1195
679,1711004268891352894,2057,2048,2056,2056,2056,2052,1196
680,1711004268901342622,2054,2072,2047,2056,2068,2052,1195
681,1711004268911374690,2052,2045,2061,2056,2057,2055,1197
682,1711004268921350341,2056,2028,2040,2059,2085,2059,1197
683,1711004268931350608,2056,2053,2051,2057,2036,2056,1197
684,1711004268941326699,2055,2050,2024,2053,2062,2047,1194
685,1711004268951346194,2052,2050,2068,2055,2045,2060,1194
686,1711004268961342995,2075,2066,2056,2042,2050,2047,1195
687,1711004268971343553,2046,2053,2070,2053,2033,2045,1193
688,1711004268981344792,2051,2037,2040,2056,2064,2041,1192
689,1711004268991375538,2048,2037,2050,2053,2032,2050,1196
690,1711004269001341340,2065,2060,2046,2060,2061,2050,1196
691,1711004269011378487,2055,2061,2069,2052,2032,2055,1194
692,1711004269021327718,2048,2038,2043,2057,2076,2058,1196
693,1711004269031321794,2050,2053,2060,2056,2045,2053,1196
694,1711004269041363700,2047,2050,2036,2057,2064,2056,1198
695,1711004269051351594,2056,2052,2056,2049,2046,2047,1195
696,1711004269061325502,2053,2047,2048,2061,2069,2056,1196
697,1711004269071330238,2048,2041,2054,2058,2052,2057,1196
698,1711004269081331056,2059,2050,2045,2059,2072,2055,1194
699,1711004269091349679,2052,2044,2049,2057,2040,2053,1197
700,1711004269101317164,2062,2052,2050,2056,2062,2054,1195
701,1711004269111326008,2045,2056,2078,2060,2047,2056,1196
702,1711004269121325835,2056,2064,2037,2067,2074,2056,1196
703,1711004269131334398,2064,2067,2063,2059,2040,2070,1196
704,1711004269141353832,2056,2057,2047,2056,2064,2041,1192
705,1711004269151352607,2053,2072,2069,2052,2049,2055,1195
706,1711004269161331924,2056,2056,2047,2058,2064,2053,1195
707,1711004269171336030,2056,2047,2054,2060,2045,2053,1195
708,1711004269181330917,2061,2054,2035,2053,2050,2043,1192
709,1711004269191357113,2053,2053,2058,2064,2058,2072,1196
710,1711004269201326923,2056,2043,2035,2053,2070,2068,1195
711,1711004269211338763,2064,2080,2094,2047,2066,2062,1196
712,1711004269221333129,2064,2060,2041,2062,2068,2051,1195
713,1711004269231335631,2049,2048,2063,2058,2048,2056,1196
714,1711004269241339174,2053,2047,2038,2058,2066,2056,1197
715,1711004269251340144,2056,2045,2064,2050,2017,2043,1195
716,1711004269261328228,2057,2052,2041,2043,2050,2047,1195
717,1711004269271343614,2056,2053,2081,2066,2054,2063,1196
718,1711004269281333071,2072,2068,2015,2047,2045,2046,1195
719,1711004269291344810,2052,2058,2111,2066,2047,2059,1198
720,1711004269301328066,2056,2052,2033,2059,2077,2054,1197
721,1711004269311335146,2049,2052,2064,2052,2030,2044,1195
722,1711004269321330014,2054,2051,2040,2054,2061,2052,1196
723,1711004269331341543,2054,2047,2070,2055,2043,2052,1196
724,1711004269341334416,2052,2082,2067,2070,2091,2051,1197
725,1711004269351339171,2049,2041,2038,2054,2042,2054,1195
726,1711004269361334850,2053,2061,2045,2061,2088,2054,1194
727,1711004269371362360,2051,2078,2080,2054,2040,2053,1198
728,1711004269381338251,2056,2038,2021,2058,2070,2048,1196
729,1711004269391327598,2053,2049,2056,2054,2047,2051,1195
730,1711004269401321303,2057,2044,2036,2058,2065,2049,1195
731,1711004269411373269,2048,2075,2085,2056,2044,2071,1195
732,1711004269421342888,2056,2061,2040,2067,2076,2060,1196
733,1711004269431348405,2052,2058,2077,2057,2042,2051,1196
734,1711004269441338714,2064,2052,2028,2061,2064,2052,1193
735,1711004269451351926,2051,2048,2069,2061,2062,2054,1198
736,1711004269461341704,2069,2092,2091,2060,2058,2049,1196
737,1711004269471345007,2052,2056,2064,2050,2047,2060,1197
738,1711004269481345986,2058,2067,2056,2056,2066,2053,1195
739,1711004269491354860,2050,2047,2057,2052,2069,2058,1196
740,1711004269501343916,2048,2047,2025,2060,2067,2047,1194
741,1711004269511351938,2060,2054,2062,2051,2040,2058,1196
742,1711004269521354170,2057,2062,2076,2062,2061,2052,1196
743,1711004269531386628,2051,2050,2056,2057,2050,2054,1196
744,1711004269541348583,2058,2068,2055,2057,2056,2053,1196
745,1711004269551343651,2056,2053,2072,2060,2053,2059,1193
746,1711004269561359098,2049,2037,2047,2062,2065,2047,1196
747,1711004269571350729,2053,2050,2074,2048,2057,2043,1194
748,1711004269581342259,2054,2051,2037,2053,2060,2051,1194
749,1711004269591350832,2053,2078,2086,2051,2042,2053,1194
750,1711004269601346852,2056,2045,2024,2062,2062,2060,1197
751,1711004269611342090,2059,2047,2093,2053,2034,2050,1196
752,1711004269621348860,2057,2024,2031,2046,2041,2056,1196
753,1711004269631338968,2057,2045,2048,2057,2044,2054,1196
754,1711004269641343825,2061,2062,2047,2054,2069,2076,1197
755,1711004269651358400,2069,2070,2080,2059,2057,2056,1196
756,1711004269661332707,2059,2067,2056,2056,2038,2049,1196
757,1711004269671346231,2056,2052,2067,2049,2033,2055,1196
758,1711004269681338162,2050,2030,2045,2070,2079,2054,1196
759,1711004269691350432,2052,2045,2063,2057,2041,2054,1199
760,1711004269701335160,2059,2071,2047,2054,2064,2052,1195
761,1711004269711330789,2053,2040,2052,2061,2062,2058,1195
762,1711004269721328061,2049,2042,2055,2060,2062,2050,1195
763,1711004269731328699,2056,2055,2064,2053,2040,2052,1194
764,1711004269741340058,2052,2049,2052,2048,2057,2054,1194
765,1711004269751352619,2048,2045,2050,2054,2048,2056,1195
766,1711004269761338649,2069,2067,2053,2051,2069,2065,1194
767,1711004269771337213,2048,2054,2066,2060,2059,2057,1196
768,1711004269781334255,2058,2065,2029,2057,2053,2047,1193
769,1711004269791351825,2054,2053,2056,2046,2036,2049,1195
770,1711004269801337495,2058,2065,2050,2048,2052,2045,1195
771,1711004269811332312,2060,2052,2100,2054,2022,2049,1195
772,1711004269821322881,2042,2034,2039,2056,2065,2045,1192
773,1711004269831325834,2053,2056,2081,2068,2080,2057,1196
774,1711004269841335149,2056,2050,2044,2050,2046,2052,1194
775,1711004269851342349,2053,2047,2051,2054,2040,2047,1195
776,1711004269861326596,2057,2081,2045,2047,2058,2043,1195
777,1711004269871338777,2045,2074,2053,2048,2040,2047,1194
778,1711004269881329697,2051,2037,2044,2056,2063,2051,1196
779,1711004269891335445,2069,2058,2064,2064,2053,2056,1196
780,1711004269901337706,2056,2045,2035,2054,2064,2050,1196
781,1711004269911325921,2054,2061,2104,2058,2043,2058,1196
782,1711004269921327991,2053,2021,2025,2049,2057,2048,1196
783,1711004269931334180,2065,2066,2080,2055,2044,2058,1196
784,1711004269941368993,2056,2056,2038,2073,2105,2057,1197
785,1711004269951369421,2059,2056,2061,2058,2033,2069,1194
786,1711004269961331025,2061,2064,2049,2053,2062,2050,1197
787,1711004269971339098,2060,2045,2049,2054,2043,2056,1196
788,1711004269981334847,2056,2055,2049,2054,2064,2054,1196
789,1711004269991335585,2065,2081,2062,2050,2018,2045,1192
790,1711004270001344449,2054,2070,2064,2048,2041,2049,1196
791,1711004270011344976,2050,2037,2056,2056,2043,2048,1196
792,1711004270021337670,2060,2050,2056,2058,2068,2057,1195
793,1711004270031340262,2060,2056,2076,2043,2029,2025,1194
794,1711004270041341461,2054,2064,2067,2054,2057,2049,1195
795,1711004270051364572,2053,2043,2049,2053,2045,2055,1195
796,1711004270061325144,2054,2061,2036,2061,2089,2049,1196
797,1711004270071346011,2053,2055,2064,2059,2037,2057,1195
798,1711004270081337532,2058,2052,2062,2059,2062,2056,1197
799,1711004270091341646,2080,2076,2077,2057,2046,2060,1195
800,1711004270101353676,2049,2028,2024,2058,2060,2051,1196
801,1711004270111338465,2052,2044,2053,2046,2018,2042,1195
802,1711004270121332521,2064,2064,2053,2073,2081,2052,1195
803,1711004270131331586,2056,2056,2060,2048,2034,2061,1195
804,1711004270141347773,2060,2049,2044,2050,2060,2056,1196
805,1711004270151333242,2056,2089,2063,2052,2053,2057,1194
806,1711004270161337087,2046,2047,2038,2054,2065,2051,1192
807,1711004270171342564,2062,2047,2076,2057,2074,2060,1196
808,1711004270181324257,2064,2064,2085,2058,2062,2053,1196
809,1711004270191355884,2062,2062,2085,2072,2066,2054,1197
810,1711004270201338227,2059,2058,2054,2056,2054,2050,1194
811,1711004270211342222,2049,2035,2048,2053,2053,2061,1196
812,1711004270221340115,2057,2053,2020,2049,2053,2053,1194
813,1711004270231340392,2058,2052,2065,2054,2046,2056,1195
814,1711004270241349827,2045,2042,2037,2059,2055,2054,1195
815,1711004270251337481,2059,2056,2064,2059,2055,2065,1197
816,1711004270261328451,2060,2061,2064,2052,2060,2062,1196
817,1711004270271343877,2052,2037,2072,2060,2043,2049,1194
818,1711004270281326581,2059,2039,2024,2054,2056,2053,1196
819,1711004270291338200,2057,2053,2070,2056,2033,2053,1194
820,1711004270301342135,2060,2042,2033,2053,2068,2053,1198
821,1711004270311337102,2057,2052,2089,2056,2051,2061,1195
822,1711004270321346487,2061,2056,2045,2056,2061,2050,1196
823,1711004270331335854,2055,2060,2068,2056,2043,2058,1196
824,1711004270341374835,2054,2041,2034,2061,2058,2049,1195
825,1711004270351326300,2065,2084,2090,2042,2027,2047,1189
826,1711004270361328882,2045,2043,2040,2057,2057,2051,1195
827,1711004270371329720,2059,2064,2090,2053,2045,2050,1198
828,1711004270381325770,2052,2047,2044,2056,2064,2049,1196
829,1711004270391341046,2064,2058,2070,2056,2062,2056,1198
830,1711004270401333348,2070,2062,2058,2053,2044,2043,1192
831,1711004270411337042,2050,2084,2077,2056,2048,2056,1195
832,1711004270421328994,2060,2062,2058,2052,2060,2057,1194
833,1711004270431336885,2049,2053,2072,2056,2047,2053,1197
834,1711004270441364305,2056,2056,2043,2045,2050,2053,1195
835,1711004270451343262,2055,2062,2070,2053,2037,2022,1194
836,1711004270461329723,2056,2040,2028,2052,2058,2047,1194
837,1711004270471347394,2059,2088,2087,2045,2050,2053,1195
838,1711004270481331782,2056,2057,2057,2056,2060,2051,1197
839,1711004270491350073,2053,2068,2068,2057,2046,2054,1197
840,1711004270501322438,2056,2052,2043,2064,2080,2064,1194
841,1711004270511319108,2048,2031,2072,2060,2046,2053,1196
842,1711004270521330988,2056,2038,2034,2047,2058,2047,1194
843,1711004270531328620,2056,2046,2065,2056,2040,2051,1195
844,1711004270541358454,2053,2053,2041,2053,2049,2049,1196
845,1711004270551326430,2058,2049,2065,2059,2046,2064,1194
846,1711004270561330705,2057,2060,2041,2053,2062,2054,1195
847,1711004270571333217,2052,2059,2090,2062,2052,2058,1196
848,1711004270581326151,2052,2052,2027,2053,2060,2055,1195
849,1711004270591350634,2050,2049,2057,2045,2032,2046,1192
850,1711004270601328870,2060,2079,2067,2069,2086,2057,1197
851,1711004270611337543,2057,2028,2046,2051,2033,2052,1196
852,1711004270621327261,2065,2038,2036,2042,2045,2048,1197
853,1711004270631337858,2064,2050,2071,2061,2057,2056,1195
854,1711004270641365528,2065,2038,2050,2057,2063,2056,1195
855,1711004270651297695,2049,2040,2044,2058,2058,2059,1196
856,1711004270661335604,2053,2049,2037,2053,2075,2052,1196
857,1711004270671335201,2057,2056,2069,2056,2052,2056,1195
858,1711004270681332403,2058,2050,2036,2057,2064,2053,1196
859,1711004270691338441,2056,2045,2065,2052,2051,2061,1194
860,1711004270701333408,2056,2047,2040,2059,2077,2056,1196
861,1711004270711330290,2054,2042,2058,2056,2043,2056,1197
862,1711004270721328884,2061,2084,2044,2057,2064,2056,1195
863,1711004270731335614,2043,2045,2052,2056,2055,2064,1197
864,1711004270741336312,2055,2041,2031,2056,2054,2051,1197
865,1711004270751348593,2059,2054,2057,2060,2050,2051,1194
866,1711004270761321318,2059,2045,2042,2060,2069,2053,1196
867,1711004270771330673,2052,2042,2065,2057,2043,2060,1196
868,1711004270781328325,2058,2053,2046,2052,2033,2047,1195
869,1711004270791328362,2057,2050,2090,2057,2045,2058,1197
870,1711004270801336354,2053,2084,2037,2057,2061,2046,1195
871,1711004270811325941,2053,2055,2069,2055,2042,2056,1197
872,1711004270821337490,2059,2058,2042,2059,2061,2041,1194
873,1711004270831333139,2058,2063,2088,2062,2058,2049,1197
874,1711004270841333176,2056,2048,2050,2059,2062,2057,1196
875,1711004270851332893,2049,2034,2056,2056,2036,2052,1195
876,1711004270861318823,2056,2065,2058,2050,2051,2050,1196
877,1711004270871338287,2057,2046,2054,2056,2046,2056,1197
878,1711004270881330018,2066,2058,2042,2059,2064,2047,1193
879,1711004270891335897,2056,2056,2069,2067,2072,2062,1196
880,1711004270901334711,2056,2064,2045,2057,2064,2056,1196
881,1711004270911338596,2056,2094,2064,2056,2049,2057,1193
882,1711004270921327221,2051,2048,2037,2042,2061,2045,1192
883,1711004270931327999,2056,2053,2064,2056,2032,2050,1195
884,1711004270941355949,2048,2049,2065,2051,2057,2046,1192
885,1711004270951293798,2060,2057,2063,2056,2043,2056,1194
886,1711004270961333631,2047,2048,2036,2056,2061,2047,1192
887,1711004270971336494,2054,2059,2071,2051,2045,2058,1198
888,1711004270981329457,2044,2032,2017,2049,2053,2049,1197
889,1711004270991334935,2068,2088,2061,2057,2066,2065,1196
890,1711004271001329712,2056,2042,2040,2058,2061,2054,1197
891,1711004271011335490,2051,2050,2060,2047,2025,2044,1192
892,1711004271021330327,2055,2049,2032,2053,2056,2060,1198
893,1711004271031342056,2051,2074,2067,2069,2056,2059,1194
894,1711004271041347564,2059,2050,2031,2053,2056,2044,1192
895,1711004271051333524,2054,2060,2083,2051,2040,2056,1197
896,1711004271061325476,2062,2061,2056,2057,2068,2054,1196
897,1711004271071333407,2057,2065,2088,2059,2046,2054,1196
898,1711004271081328104,2057,2049,2055,2052,2062,2057,1195
899,1711004271091331979,2064,2074,2104,2074,2065,2061,1197
900,1711004271101330293,2048,2050,2038,2054,2060,2048,1195
901,1711004271111330410,2057,2052,2065,2064,2047,2056,1197
902,1711004271121331028,2052,2052,2029,2052,2033,2040,1194
903,1711004271131339411,2060,2112,2108,2059,2044,2060,1196
904,1711004271141357372,2056,2070,2038,2046,2039,2045,1193
905,1711004271151372488,2056,2050,2055,2050,2038,2054,1195
906,1711004271161334703,2049,2072,2042,2049,2044,2049,1196
907,1711004271171335812,2056,2049,2064,2053,2100,2057,1196
908,1711004271181332954,2062,2080,2033,2056,2073,2053,1197
909,1711004271191333742,2053,2088,2081,2057,2031,2052,1195
910,1711004271201330613,2038,2062,2056,2054,2047,2043,1192
911,1711004271211336722,2055,2056,2056,2057,2048,2058,1195
912,1711004271221329435,2053,2048,2047,2057,2054,2047,1193
913,1711004271231335283,2053,2021,2043,2059,2042,2056,1194
914,1711004271241355739,2061,2044,2033,2058,2085,2058,1195
915,1711004271251327652,2053,2046,2056,2061,2054,2059,1196
916,1711004271261331396,2058,2069,2056,2058,2067,2054,1197
917,1711004271271334279,2048,2049,2059,2061,2061,2060,1196
918,1711004271281328906,2058,2050,2042,2050,2058,2047,1193
919,1711004271291334333,2049,2047,2052,2057,2044,2056,1195
920,1711004271301330062,2060,2078,2068,2056,2063,2052,1196
921,1711004271311343133,2056,2047,2053,2054,2038,2055,1197
922,1711004271321333081,2044,2040,2025,2053,2049,2052,1195
923,1711004271331338980,2058,2072,2069,2056,2045,2056,1196
924,1711004271341331783,2059,2058,2040,2063,2078,2058,1197
925,1711004271351353492,2063,2066,2095,2061,2052,2058,1195
926,1711004271361334242,2060,2098,2060,2059,2064,2057,1196
927,1711004271371335381,2044,2035,2058,2057,2050,2052,1196
928,1711004271381329487,2061,2065,2046,2059,2072,2049,1196
929,1711004271391335876,2056,2033,2052,2050,2049,2050,1197
930,1711004271401344249,2057,2058,2047,2053,2062,2052,1194
931,1711004271411321222,2057,2049,2062,2059,2057,2056,1196
932,1711004271421327300,2057,2051,2044,2054,2061,2042,1193
933,1711004271431331485,2057,2064,2067,2061,2047,2054,1196
934,1711004271441328667,2060,2049,2034,2065,2082,2056,1196
935,1711004271451344945,2056,2059,2061,2063,2051,2060,1195
936,1711004271461326938,2050,2074,2047,2060,2064,2056,1198
937,1711004271471336674,2052,2033,2045,2054,2060,2056,1197
938,1711004271481328905,2060,2054,2046,2057,2062,2052,1195
939,1711004271491336266,2053,2055,2061,2052,2037,2044,1192
940,1711004271501333949,2051,2060,2021,2056,2062,2060,1194
941,1711004271511344075,2047,2058,2067,2060,2060,2059,1195
942,1711004271521332901,2068,2067,2066,2057,2060,2060,1197
943,1711004271531338018,2056,2066,2096,2064,2049,2063,1195
944,1711004271541382740,2053,2054,2041,2057,2062,2056,1196
945,1711004271551342490,2057,2092,2088,2056,2041,2056,1192
946,1711004271561333160,2051,2053,2048,2053,2059,2050,1195
947,1711004271571339659,2048,2054,2072,2049,2036,2048,1196
948,1711004271581331841,2068,2064,2048,2056,2072,2054,1194
949,1711004271591333882,2043,2039,2058,2056,2040,2052,1196
950,1711004271601327406,2054,2062,2036,2056,2058,2056,1196
951,1711004271611337303,2068,2074,2137,2061,2053,2057,1196
952,1711004271621326910,2053,2020,2024,2053,2056,2049,1196
953,1711004271631343348,2060,2078,2091,2052,2043,2056,1196
954,1711004271641312737,2054,2042,2045,2062,2086,2061,1196
955,1711004271651328173,2047,2047,2057,2045,2034,2056,1197
956,1711004271661335534,2061,2070,2046,2050,2049,2052,1197
957,1711004271671336163,2058,2050,2052,2053,2043,2056,1197
958,1711004271681331190,2056,2067,2058,2049,2045,2050,1195
959,1711004271691334863,2046,2033,2054,2056,2053,2056,1196
960,1711004271701395426,2058,2052,2036,2052,2082,2052,1195
961,1711004271711293309,2061,2047,2056,2054,2042,2053,1195
962,1711004271721334174,2052,2056,2049,2056,2065,2053,1197
963,1711004271731337547,2058,2068,2070,2049,2034,2052,1197
964,1711004271741334718,2056,2050,2042,2056,2064,2053,1195
965,1711004271751351587,2053,2046,2060,2052,2032,2051,1195
966,1711004271761339120,2052,2032,2052,2052,2062,2053,1197
967,1711004271771337234,2059,2056,2072,2053,2041,2054,1196
968,1711004271781334406,2053,2046,2045,2053,2056,2046,1193
969,1711004271791336176,2046,2037,2045,2036,2012,2040,1193
970,1711004271801438457,2054,2050,2043,2069,2108,2062,1196
971,1711004271811350557,2046,2062,2066,2058,2044,2055,1195
972,1711004271821338822,2064,2064,2084,2056,2057,2052,1194
973,1711004271831337907,2048,2054,2049,2053,2043,2056,1194
974,1711004271841337534,2056,2060,2053,2060,2082,2050,1197
975,1711004271851342600,2052,2038,2064,2057,2050,2058,1194
976,1711004271861334852,2057,2049,2040,2056,2052,2061,1198
977,1711004271871369645,2051,2050,2060,2053,2045,2055,1196
978,1711004271881346138,2045,2037,2036,2058,2056,2043,1194
979,1711004271891338861,2057,2064,2074,2054,2040,2047,1193
980,1711004271901339179,2064,2058,2029,2056,2069,2056,1194
981,1711004271911344446,2056,2046,2061,2056,2049,2053,1195
982,1711004271921341878,2064,2076,2056,2056,2061,2050,1196
983,1711004271931341383,2049,2059,2066,2061,2043,2056,1196
984,1711004271941344156,2049,2024,2040,2053,2056,2050,1196
985,1711004271951347319,2058,2069,2068,2049,2033,2047,1191
986,1711004271961338990,2049,2049,2063,2048,2054,2047,1194
987,1711004271971340691,2060,2060,2057,2057,2045,2056,1193
988,1711004271981344725,2053,2060,2062,2057,2072,2060,1197
989,1711004271991358498,2063,2078,2071,2056,2048,2057,1196
990,1711004272001344188,2052,2052,2042,2056,2047,2046,1193
991,1711004272011346690,2053,2043,2072,2058,2053,2056,1195
992,1711004272021349813,2057,2043,2045,2056,2068,2056,1197
993,1711004272031350631,2058,2052,2066,2060,2049,2054,1195
994,1711004272041350337,2052,2043,2034,2047,2035,2042,1194
995,1711004272051382485,2062,2070,2079,2061,2052,2068,1197
996,1711004272061355711,2052,2044,2033,2068,2069,2054,1196
997,1711004272071366950,2058,2040,2045,2062,2051,2056,1193
998,1711004272081350095,2051,2041,2041,2060,2066,2055,1196
999,1711004272091349481,2050,2044,2048,2040,2045,2056,1196
1000,1711004272101332455,2072,2048,2052,2056,2061,2053,1195
1001,1711004272111350777,2064,2082,2074,2047,2032,2042,1195
1002,1711004272121328201,2052,2051,2040,2054,2062,2050,1194
1003,1711004272131332897,2059,2074,2064,2053,2049,2058,1196
1004,1711004272141333294,2056,2061,2068,2054,2040,2053,1197
1005,1711004272151367656,2059,2057,2030,2055,2043,2052,1195
1006,1711004272161331796,2052,2036,2026,2060,2053,2048,1195
1007,1711004272171351159,2053,2066,2080,2060,2045,2061,1197
1008,1711004272181338472,2059,2088,2040,2056,2061,2048,1197
1009,1711004272191335744,2053,2056,2057,2056,2046,2048,1196
1010,1711004272201329159,2064,2057,2042,2056,2060,2048,1198
1011,1711004272211340116,2050,2054,2060,2051,2046,2044,1194
1012,1711004272221376843,2057,2073,2052,2062,2062,2055,1197
1013,1711004272231355530,2048,2047,2059,2056,2036,2056,1197
1014,1711004272241339717,2056,2048,2040,2057,2060,2050,1197
1015,1711004272251363218,2053,2049,2063,2063,2067,2060,1195
1016,1711004272261343528,2049,2065,2051,2048,2064,2056,1198
1017,1711004272271336371,2048,2069,2049,2053,2051,2056,1197
1018,1711004272281339203,2056,2050,2051,2051,2056,2050,1197
1019,1711004272291342026,2057,2051,2079,2056,2038,2056,1197
1020,1711004272301338255,2058,2049,2037,2056,2066,2051,1195
1021,1711004272311341790,2052,2076,2100,2057,2047,2056,1195
1022,1711004272321340243,2049,2071,2052,2059,2072,2053,1196
1023,1711004272331338667,2056,2084,2070,2050,2045,2056,1195
1024,1711004272341336059,2057,2052,2032,2050,2057,2056,1193
1025,1711004272351367977,2053,2063,2062,2053,2050,2053,1194
1026,1711004272361344810,2056,2050,2051,2045,2042,2052,1195
1027,1711004272371340027,2053,2049,2051,2062,2047,2059,1197
1028,1711004272381343331,2056,2047,2037,2054,2060,2053,1198
1029,1711004272391328840,2054,2045,2066,2060,2046,2060,1195
1030,1711004272401322766,2056,2047,2044,2056,2059,2049,1196
1031,1711004272411346468,2053,2047,2068,2057,2043,2059,1194
1032,1711004272421337998,2057,2048,2032,2052,2068,2056,1196
1033,1711004272431343305,2058,2046,2069,2044,2026,2047,1195
1034,1711004272441368781,2052,2026,2032,2048,2057,2047,1194
1035,1711004272451378356,2061,2052,2089,2061,2053,2056,1194
1036,1711004272461376510,2050,2015,2022,2043,2046,2045,1196
1037,1711004272471334177,2057,2060,2037,2057,2045,2053,1197
1038,1711004272481325978,2056,2043,2025,2050,2060,2045,1194
1039,1711004272491334460,2050,2031,2060,2060,2060,2057,1196
1040,1711004272501325581,2064,2050,2048,2052,2064,2059,1196
1041,1711004272511342039,2054,2057,2093,2056,2053,2060,1197
1042,1711004272521333720,2053,2017,2010,2057,2064,2056,1198
1043,1711004272531333778,2065,2072,2054,2049,2035,2045,1194
1044,1711004272541322713,2065,2056,2042,2053,2059,2052,1196
1045,1711004272551350503,2053,2060,2088,2060,2040,2052,1194
1046,1711004272561321855,2058,2042,2031,2054,2064,2048,1196
1047,1711004272571334917,2054,2056,2066,2057,2044,2056,1195
1048,1711004272581324815,2056,2031,2040,2052,2066,2056,1196
1049,1711004272591329931,2071,2056,2068,2056,2054,2056,1196
1050,1711004272601386045,2057,2085,2047,2056,2064,2051,1194
1051,1711004272611336177,2054,2057,2089,2056,2045,2058,1196
1052,1711004272621334171,2051,2056,2046,2056,2064,2052,1197
1053,1711004272631331142,2052,2041,2064,2048,2024,2045,1195
1054,1711004272641351608,2039,2030,2027,2063,2072,2053,1196
1055,1711004272651359870,2046,2045,2045,2051,2057,2056,1196
1056,1711004272661339178,2057,2052,2024,2056,2061,2054,1195
1057,1711004272671333023,2050,2051,2053,2053,2037,2052,1197
1058,1711004272681327780,2052,2047,2037,2052,2058,2049,1195
1059,1711004272691334941,2047,2042,2050,2050,2039,2050,1197
1060,1711004272701331812,2053,2068,2064,2069,2078,2052,1196
1061,1711004272711337860,2050,2074,2053,2057,2046,2057,1195
1062,1711004272721328409,2067,2045,2034,2057,2056,2053,1194
1063,1711004272731338896,2056,2046,2061,2054,2048,2051,1196
1064,1711004272741335146,2074,2074,2044,2060,2068,2054,1197
1065,1711004272751344811,2054,2058,2046,2056,2049,2056,1194
1066,1711004272761343486,2066,2063,2031,2056,2066,2054,1197
1067,1711004272771321631,2057,2045,2050,2045,2029,2053,1196
1068,1711004272781331307,2066,2072,2097,2064,2070,2056,1195
1069,1711004272791336403,2056,2063,2071,2056,2046,2053,1195
1070,1711004272801342942,2056,2053,2057,2047,2064,2050,1196
1071,1711004272811358729,2062,2064,2060,2048,2021,2046,1192
1072,1711004272821332817,2051,2037,2044,2049,2056,2049,1194
1073,1711004272831336181,2053,2047,2071,2056,2041,2057,1197
1074,1711004272841333933,2052,2048,2033,2053,2062,2043,1194
1075,1711004272851320655,2056,2052,2060,2045,2027,2056,1197
1076,1711004272861328607,2058,2066,2066,2062,2066,2060,1197
1077,1711004272871324195,2063,2054,2060,2056,2047,2056,1196
1078,1711004272881326537,2065,2064,2056,2057,2065,2053,1197
1079,1711004272891339469,2051,2053,2064,2044,2041,2053,1196
1080,1711004272901329577,2056,2057,2043,2054,2049,2050,1196
1081,1711004272911332630,2062,2069,2098,2057,2047,2055,1196
1082,1711004272921336574,2057,2044,2054,2069,2082,2050,1194
1083,1711004272931331531,2044,2050,2056,2053,2035,2052,1195
1084,1711004272941332771,2065,2080,2067,2062,2067,2058,1196
1085,1711004272951353287,2056,2092,2096,2061,2047,2056,1195
1086,1711004272961318147,2056,2061,2063,2062,2054,2052,1193
1087,1711004272971326649,2047,2059,2078,2058,2045,2048,1195
1088,1711004272981330434,2065,2061,2073,2056,2074,2051,1192
1089,1711004272991335220,2054,2045,2062,2058,2050,2060,1194
1090,1711004273001330859,2056,2053,2053,2061,2061,2060,1195
1091,1711004273011338200,2063,2100,2102,2068,2056,2050,1194
1092,1711004273021330041,2061,2071,2056,2054,2062,2051,1197
1093,1711004273031335458,2050,2064,2061,2056,2046,2050,1194
1094,1711004273041335165,2045,2048,2022,2054,2060,2049,1196
1095,1711004273051355921,2057,2055,2064,2056,2042,2053,1195
1096,1711004273061327464,2062,2099,2104,2056,2060,2055,1196
1097,1711004273071333663,2049,2052,2064,2053,2040,2052,1195
1098,1711004273081332638,2052,2038,2030,2053,2064,2051,1197
1099,1711004273091334929,2068,2071,2060,2050,2032,2052,1196
1100,1711004273101336870,2052,2044,2046,2048,2072,2056,1197
1101,1711004273111332639,2066,2056,2096,2063,2054,2056,1195
1102,1711004273121334890,2064,2062,2056,2049,2056,2049,1195
1103,1711004273131339455,2052,2037,2042,2058,2049,2052,1196
1104,1711004273141335745,2055,2037,2039,2052,2050,2045,1193
1105,1711004273151360439,2056,2056,2070,2059,2048,2057,1194
1106,1711004273161330058,2052,2088,2054,2055,2044,2052,1197
1107,1711004273171338611,2053,2050,2056,2053,2040,2053,1197
1108,1711004273181335853,2061,2060,2064,2060,2066,2058,1197
1109,1711004273191338255,2048,2040,2104,2057,2040,2057,1196
1110,1711004273201351046,2070,2040,2043,2060,2070,2054,1196
1111,1711004273211338870,2042,2047,2052,2057,2047,2050,1196
1112,1711004273221341842,2062,2064,2052,2057,2051,2057,1196
1113,1711004273231341498,2044,2024,2052,2061,2060,2060,1197
1114,1711004273241346104,2059,2046,2061,2062,2073,2057,1198
1115,1711004273251335591,2052,2059,2065,2064,2046,2057,1196
1116,1711004273261343583,2053,2042,2047,2056,2062,2050,1200
1117,1711004273271343961,2047,2050,2064,2060,2045,2059,1197
1118,1711004273281344158,2069,2099,2050,2061,2069,2053,1195
1119,1711004273291344636,2056,2038,2057,2063,2044,2052,1196
1120,1711004273301344884,2056,2068,2053,2056,2066,2061,1194
1121,1711004273311345141,2059,2062,2056,2058,2066,2069,1197
1122,1711004273321329589,2056,2051,2040,2045,2059,2052,1198
1123,1711004273331334184,2064,2051,2055,2056,2046,2058,1196
1124,1711004273341369127,2053,2041,2034,2050,2066,2053,1196
1125,1711004273351837905,2073,2049,2058,2058,2052,2056,1193
1126,1711004273361359242,2058,2033,2044,2064,2080,2051,1193
1127,1711004273371337698,2049,2034,2046,2053,2046,2056,1194
1128,1711004273381332455,2058,2035,2042,2056,2072,2051,1196
1129,1711004273391333815,2053,2058,2064,2061,2052,2056,1196
1130,1711004273401349382,2058,2058,2047,2056,2061,2046,1193
1131,1711004273411341043,2046,2050,2065,2050,2043,2051,1197
1132,1711004273421342653,2056,2041,2047,2057,2066,2052,1196
1133,1711004273431356085,2060,2072,2078,2056,2045,2047,1194
1134,1711004273441342617,2043,2064,2037,2053,2056,2054,1196
1135,1711004273451354576,2053,2045,2060,2052,2040,2049,1195
1136,1711004273461338613,2052,2066,2046,2057,2048,2046,1195
1137,1711004273471338138,2052,2025,2048,2059,2049,2057,1195
1138,1711004273481335951,2059,2057,2051,2061,2093,2058,1197
1139,1711004273491340106,2060,2054,2064,2063,2054,2058,1195
1140,1711004273501337879,2052,2065,2046,2052,2052,2046,1192
1141,1711004273511357764,2052,2045,2053,2060,2056,2061,1196
1142,1711004273521338324,2061,2072,2060,2063,2066,2056,1197
1143,1711004273531346406,2050,2025,2049,2054,2051,2057,1196
1144,1711004273541383373,2064,2056,2037,2054,2055,2060,1196
1145,1711004273551338726,2049,2042,2056,2054,2040,2054,1195
1146,1711004273561322882,2050,2033,2037,2049,2064,2052,1197
1147,1711004273571335142,2049,2036,2058,2060,2046,2057,1196
1148,1711004273581331583,2057,2050,2037,2053,2059,2053,1196
1149,1711004273591345055,2053,2051,2080,2061,2042,2057,1196
1150,1711004273601333049,2056,2053,2034,2054,2065,2060,1197
1151,1711004273611326394,2058,2082,2061,2054,2042,2059,1196
1152,1711004273621325790,2058,2085,2084,2056,2062,2048,1196
1153,1711004273631329584,2051,2040,2059,2060,2045,2053,1195
1154,1711004273641337766,2048,2048,2038,2049,2056,2044,1193
1155,1711004273651338835,2054,2056,2065,2056,2045,2057,1197
1156,1711004273661326669,2060,2053,2043,2054,2057,2052,1197
1157,1711004273671343588,2052,2029,2068,2056,2046,2060,1194
1158,1711004273681329538,2062,2032,2043,2056,2058,2056,1196
1159,1711004273691338031,2060,2040,2047,2050,2024,2051,1197
1160,1711004273701404604,2059,2064,2032,2058,2056,2056,1197
1161,1711004273711340590,2050,2059,2062,2049,2026,2045,1194
1162,1711004273721329867,2056,2072,2039,2056,2056,2049,1195
1163,1711004273731330515,2042,2047,2058,2048,2032,2056,1195
1164,1711004273741332195,2061,2055,2040,2057,2064,2056,1195
1165,1711004273751339135,2057,2061,2092,2064,2048,2057,1194
1166,1711004273761335575,2056,2088,2068,2053,2061,2046,1193
1167,1711004273771332346,2049,2052,2060,2052,2061,2054,1196
1168,1711004273781332323,2070,2056,2048,2050,2063,2054,1195
1169,1711004273791336588,2069,2086,2062,2060,2048,2057,1194
1170,1711004273801330834,2064,2056,2040,2056,2077,2052,1197
1171,1711004273811349065,2054,2032,2061,2061,2037,2059,1196
1172,1711004273821318244,2061,2057,2044,2062,2076,2057,1197
1173,1711004273831321066,2052,2064,2064,2052,2045,2051,1194
1174,1711004273841332004,2052,2053,2073,2067,2080,2056,1197
1175,1711004273851337933,2057,2054,2084,2056,2041,2054,1194
1176,1711004273861346265,2062,2052,2050,2052,2060,2050,1197
1177,1711004273871330552,2046,2057,2056,2054,2047,2053,1195
1178,1711004273881329567,2052,2052,2030,2056,2085,2046,1193
1179,1711004273891338561,2058,2058,2072,2058,2045,2050,1196
1180,1711004273901329000,2060,2064,2070,2054,2062,2047,1192
1181,1711004273911340679,2053,2058,2056,2061,2051,2051,1196
1182,1711004273921349663,2057,2057,2042,2057,2062,2057,1197
1183,1711004273931335623,2056,2040,2061,2057,2047,2056,1195
1184,1711004273941330561,2056,2060,2014,2052,2074,2055,1196
1185,1711004273951335988,2057,2061,2057,2058,2045,2059,1195
1186,1711004273961321097,2056,2050,2045,2057,2054,2061,1195
1187,1711004273971326564,2056,2058,2079,2056,2043,2054,1196
1188,1711004273981328905,2056,2061,2062,2053,2063,2057,1196
1189,1711004273991337759,2051,2072,2065,2056,2048,2055,1196
1190,1711004274001322767,2056,2068,2058,2050,2057,2051,1194
1191,1711004274011340017,2042,2049,2059,2056,2039,2050,1195
1192,1711004274021335115,2062,2068,2065,2059,2068,2057,1194
1193,1711004274031335482,2056,2056,2063,2052,2036,2055,1198
1194,1711004274041332814,2065,2069,2052,2047,2040,2046,1192
1195,1711004274051339373,2046,2045,2066,2053,2038,2053,1196
1196,1711004274061346114,2066,2083,2061,2051,2060,2051,1196
1197,1711004274071327675,2048,2045,2074,2057,2076,2068,1194
1198,1711004274081326520,2056,2058,2048,2053,2064,2053,1195
1199,1711004274091332138,2052,2047,2072,2057,2044,2052,1195
1200,1711004274101326654,2056,2067,2054,2066,2079,2054,1196
1201,1711004274111354554,2053,2051,2065,2056,2046,2057,1197
1202,1711004274121329844,2056,2054,2050,2055,2062,2054,1196
1203,1711004274131345060,2056,2049,2060,2051,2042,2056,1195
1204,1711004274141334887,2049,2048,2032,2045,2056,2048,1196
1205,1711004274151337910,2057,2077,2047,2058,2038,2057,1193
1206,1711004274161337767,2056,2067,2060,2061,2066,2064,1197
1207,1711004274171328095,2058,2052,2061,2058,2055,2056,1196
1208,1711004274181329224,2060,2052,2038,2057,2064,2047,1192
1209,1711004274191336064,2045,2047,2067,2061,2042,2058,1193
1210,1711004274201329979,2066,2056,2040,2056,2060,2052,1194
1211,1711004274211339585,2052,2058,2090,2056,2044,2050,1196
1212,1711004274221346184,2064,2088,2041,2070,2085,2046,1194
1213,1711004274231336502,2058,2082,2117,2056,2041,2049,1196
1214,1711004274241331570,2055,2030,2029,2044,2033,2049,1195
1215,1711004274251336506,2065,2057,2072,2050,2044,2054,1195
1216,1711004274261336804,2049,2050,2040,2046,2052,2049,1197
1217,1711004274271329407,2058,2052,2063,2043,2032,2060,1194
1218,1711004274281330706,2053,2044,2025,2052,2058,2053,1194
1219,1711004274291335482,2054,2043,2050,2053,2043,2049,1195
1220,1711004274301330430,2057,2057,2037,2052,2061,2051,1195
1221,1711004274311343011,2052,2047,2054,2050,2025,2057,1196
1222,1711004274321331956,2069,2060,2029,2066,2073,2053,1195
1223,1711004274331332795,2048,2041,2056,2053,2044,2056,1194
1224,1711004274341346458,2057,2040,2027,2056,2053,2053,1196
1225,1711004274351341716,2045,2037,2072,2053,2032,2048,1195
1226,1711004274362049777,2051,2031,2026,2058,2059,2057,1196
1227,1711004274371341489,2054,2041,2044,2059,2074,2061,1196
1228,1711004274381342778,2052,2052,2038,2056,2059,2053,1196
1229,1711004274391346162,2052,2056,2056,2060,2056,2052,1196
1230,1711004274401341500,2053,2057,2033,2052,2050,2044,1196
1231,1711004274411348590,2059,2054,2084,2066,2042,2057,1194
1232,1711004274421338738,2052,2053,2040,2048,2045,2052,1196
1233,1711004274431336852,2056,2051,2053,2059,2040,2057,1197
1234,1711004274441329825,2058,2061,2052,2061,2076,2062,1195
1235,1711004274451343418,2054,2051,2068,2058,2041,2051,1195
1236,1711004274461334869,2059,2053,2040,2060,2064,2054,1197
1237,1711004274471332671,2050,2051,2059,2059,2036,2054,1196
1238,1711004274481328721,2053,2049,2040,2051,2057,2053,1195
1239,1711004274491337835,2060,2056,2066,2056,2043,2054,1196
1240,1711004274501326661,2046,2061,2061,2060,2064,2048,1197
1241,1711004274511337528,2056,2048,2066,2056,2038,2046,1193
1242,1711004274521337004,2061,2059,2033,2053,2054,2049,1196
1243,1711004274531363532,2056,2045,2059,2050,2035,2052,1195
1244,1711004274541334724,2056,2076,2054,2059,2064,2054,1194
1245,1711004274551327086,2052,2055,2064,2056,2045,2052,1193
1246,1711004274561343163,2054,2047,2038,2064,2071,2057,1197
1247,1711004274571335155,2059,2058,2079,2056,2050,2057,1197
1248,1711004274581330553,2062,2049,2037,2053,2072,2057,1196
1249,1711004274591330860,2056,2057,2088,2059,2050,2057,1194
1250,1711004274601326289,2060,2058,2040,2060,2069,2046,1190
1251,1711004274611338790,2047,2053,2067,2055,2040,2054,1197
1252,1711004274621337775,2065,2058,2050,2059,2069,2047,1195
1253,1711004274631336970,2054,2046,2060,2057,2061,2054,1197
1254,1711004274641335114,2053,2068,2043,2058,2062,2052,1195
1255,1711004274651341473,2056,2056,2075,2051,2044,2054,1197
1256,1711004274661331190,2056,2049,2018,2056,2058,2041,1192
1257,1711004274671330917,2059,2061,2070,2057,2040,2052,1197
1258,1711004274681332015,2056,2047,2033,2056,2065,2051,1196
1259,1711004274691333335,2053,2050,2065,2058,2047,2056,1197
1260,1711004274701350084,2059,2034,2031,2049,2056,2050,1194
1261,1711004274711455922,2051,2050,2069,2055,2048,2056,1196
1262,1711004274721327795,2049,2048,2039,2058,2059,2054,1196
1263,1711004274731337630,2066,2052,2076,2056,2041,2054,1196
1264,1711004274741331466,2052,2048,2040,2053,2064,2052,1195
1265,1711004274751362772,2056,2044,2048,2049,2035,2055,1193
1266,1711004274761332872,2056,2072,2041,2043,2040,2042,1193
1267,1711004274771334813,2058,2056,2097,2057,2056,2056,1197
1268,1711004274781331874,2053,2056,2030,2053,2065,2049,1195
1269,1711004274791334927,2057,2060,2060,2057,2046,2060,1194
1270,1711004274801332970,2053,2052,2034,2060,2070,2052,1197
1271,1711004274811333968,2057,2055,2060,2069,2062,2056,1195
1272,1711004274821332854,2055,2085,2043,2058,2070,2057,1197
1273,1711004274831290500,2041,2045,2053,2056,2042,2056,1195
1274,1711004274841336034,2058,2056,2044,2058,2066,2054,1197
1275,1711004274851336201,2051,2068,2084,2056,2040,2054,1196
1276,1711004274861333373,2061,2076,2055,2058,2066,2058,1195
1277,1711004274871340843,2053,2057,2053,2055,2046,2060,1196
1278,1711004274881336031,2057,2065,2040,2043,2058,2046,1196
1279,1711004274891337000,2058,2052,2057,2057,2039,2052,1197
1280,1711004274901337488,2052,2052,2034,2058,2063,2052,1194
1281,1711004274911332806,2055,2029,2057,2060,2049,2057,1196
1282,1711004274921348763,2068,2061,2028,2061,2073,2058,1196
1283,1711004274931339182,2047,2039,2077,2060,2058,2059,1195
1284,1711004274941339479,2058,2050,2060,2056,2081,2053,1196
1285,1711004274951339797,2064,2046,2054,2066,2062,2062,1193
1286,1711004274961354762,2048,2037,2048,2064,2081,2060,1195
1287,1711004274971320544,2059,2051,2078,2059,2042,2056,1194
1288,1711004274981322475,2053,2050,2035,2064,2073,2047,1193
1289,1711004274991341527,2056,2060,2064,2044,2024,2048,1194
1290,1711004275001341004,2065,2052,2041,2033,2013,2044,1194
1291,1711004275011341492,2045,2031,2053,2052,2038,2064,1195
1292,1711004275021322913,2056,2025,2019,2002,1930,2032,1193
1293,1711004275031365511,2064,2058,2065,2077,2031,2071,1195
1294,1711004275041357723,2053,2048,2034,2057,2041,2022,1194
1295,1711004275052468580,2056,2052,2084,2059,2077,2061,1196
1296,1711004275061344772,2057,2053,2032,2053,2066,2052,1196
1297,1711004275071348766,2057,2049,2063,2057,2044,2053,1197
1298,1711004275081347451,2056,2044,2050,2060,2069,2053,1198
1299,1711004275091349512,2050,2040,2065,2053,2041,2051,1197
1300,1711004275101353567,2060,2060,2057,2057,2072,2053,1197
1301,1711004275111350538,2050,2063,2082,2058,2044,2056,1198
1302,1711004275121351527,2056,2044,2014,2060,2075,2056,1197
1303,1711004275131354669,2054,2047,2061,2046,2032,2049,1196
1304,1711004275141351661,2053,2050,2034,2053,2057,2052,1197
1305,1711004275151371946,2060,2049,2074,2054,2040,2061,1193
1306,1711004275161349561,2062,2048,2039,2073,2109,2059,1194
1307,1711004275171352072,2056,2054,2061,2049,2018,2059,1197
1308,1711004275181336239,2053,2038,2002,2053,2063,2048,1195
1309,1711004275191350523,2052,2074,2092,2061,2053,2057,1196
1310,1711004275201393612,2072,2064,2020,2058,2065,2053,1196
1311,1711004275211364002,2048,2044,2073,2056,2032,2056,1196
1312,1711004275221331778,2060,2082,2055,2066,2080,2065,1196
1313,1711004275231332867,2049,2044,2066,2043,1992,2053,1195
1314,1711004275241334076,2057,2053,2036,2049,2052,2050,1196
1315,1711004275251318924,2049,2057,2077,2052,2040,2056,1195
1316,1711004275261301208,2048,2076,2040,2057,2053,2045,1194
1317,1711004275271332164,2047,2045,2065,2061,2060,2058,1195
1318,1711004275281329415,2060,2050,2032,2056,2056,2047,1193
1319,1711004275291334692,2056,2046,2084,2074,2098,2060,1196
1320,1711004275301333176,2054,2026,2019,2064,2060,2048,1196
1321,1711004275311327632,2052,2042,2077,2079,2077,2057,1193
1322,1711004275321333661,2056,2080,2034,2020,1992,2024,1195
1323,1711004275331335972,2056,2075,2101,2033,2013,2057,1195
1324,1711004275341337031,2055,2053,2034,2044,2021,2053,1196
1325,1711004275351338390,2050,2062,2063,2063,2038,2048,1195
1326,1711004275361326785,2056,2034,2031,2041,2029,2052,1196
1327,1711004275371332472,2055,2049,2080,2041,1997,2056,1194
1328,1711004275381325396,2052,2034,2031,2057,2065,2062,1195
1329,1711004275391358707,2052,2030,2074,2046,2005,2050,1195
1330,1711004275401329898,2052,2045,2036,2054,2066,2060,1192
1331,1711004275411335345,2044,2054,2071,2046,2050,2056,1194
1332,1711004275421329702,2059,2043,2056,2060,2073,2049,1197
1333,1711004275431336823,2058,2052,2082,2053,2038,2052,1197
1334,1711004275441335306,2053,2026,2025,2050,2060,2049,1197
1335,1711004275451295387,2056,2044,2072,2035,2021,2048,1196
1336,1711004275461329519,2056,2051,2009,2076,2096,2060,1196
1337,1711004275471328805,2053,2059,2074,2081,2100,2058,1196
1338,1711004275481326497,2060,2059,2026,2062,2089,2052,1197
1339,1711004275491338116,2066,2050,2066,2049,2052,2056,1197
1340,1711004275501346569,2049,2042,2043,2055,2067,2047,1192
1341,1711004275511337950,2041,2038,2077,2045,2008,2067,1196
1342,1711004275521330723,2055,2065,2056,2040,2068,2056,1196
1343,1711004275531335669,2051,2044,2072,2052,2036,2059,1197
1344,1711004275541331298,2057,2057,2060,2059,2080,2051,1198
1345,1711004275551291509,2059,2056,2068,2048,2011,2048,1194
1346,1711004275561334948,2054,2040,2029,2057,2065,2049,1197
1347,1711004275571337951,2048,2043,2075,2051,2027,2053,1195
1348,1711004275581335042,2063,2036,2030,2058,2075,2060,1195
1349,1711004275591338937,2065,2052,2072,2064,2066,2053,1195
1350,1711004275601325358,2058,2048,2049,2052,2059,2046,1195
1351,1711004275611332618,2076,2070,2079,2051,1989,2053,1197
1352,1711004275621333477,2054,2052,2052,2053,2051,2050,1198
1353,1711004275631347551,2052,2024,2072,2060,2068,2056,1195
1354,1711004275641343269,2065,2058,2034,2060,2073,2053,1195
1355,1711004275651356982,2044,2047,2066,2049,2034,2048,1194
1356,1711004275661331390,2056,2060,2050,2068,2080,2049,1196
1357,1711004275671339663,2051,2065,2092,2058,2062,2059,1196
1358,1711004275681338708,2058,2037,2027,2058,2066,2050,1195
1359,1711004275691343444,2056,2058,2064,2060,2012,2064,1195
1360,1711004275701331388,2069,2061,2018,2058,2047,2052,1197
1361,1711004275711338138,2053,2069,2072,2054,2037,2053,1196
1362,1711004275721331722,2061,2056,2034,2059,2066,2048,1196
1363,1711004275731333703,2059,2065,2069,2056,2048,2061,1196
1364,1711004275741331576,2057,2053,2051,2068,2091,2058,1197
1365,1711004275751348215,2056,2061,2097,2065,2050,2061,1194
1366,1711004275761330758,2056,2040,2039,2063,2101,2046,1192
1367,1711004275771336876,2053,2033,2068,2057,2059,2062,1195
1368,1711004275781325532,2052,2036,2042,2053,2064,2049,1197
1369,1711004275791342642,2058,2042,2064,2072,2084,2060,1196
1370,1711004275801344802,2066,2054,2052,2056,2068,2049,1196
1371,1711004275811328859,2045,2040,2056,2052,2036,2051,1194
1372,1711004275821336751,2058,2056,2029,2062,2068,2057,1196
1373,1711004275831330666,2059,2044,2069,2060,2047,2058,1198
1374,1711004275841326004,2054,2032,2033,2053,2079,2049,1196
1375,1711004275851353152,2056,2095,2075,2060,2042,2059,1197
1376,1711004275861338392,2057,2064,2036,2054,2067,2056,1198
1377,1711004275871352015,2068,2097,2090,2056,2036,2052,1197
1378,1711004275881331803,2051,2047,2041,2054,2063,2064,1197
1379,1711004275891342710,2060,2047,2072,2056,2039,2049,1197
1380,1711004275901356684,2066,2070,2052,2067,2085,2056,1196
1381,1711004275911349257,2051,2066,2070,2053,2037,2058,1194
1382,1711004275921343352,2059,2057,2031,2065,2144,2052,1197
1383,1711004275931352256,2068,2049,2061,2053,1999,2047,1196
1384,1711004275941332746,2057,2068,2062,2060,2068,2052,1196
1385,1711004275951342762,2045,2029,2060,2050,2034,2056,1195
1386,1711004275961325947,2058,2051,2053,2058,2058,2050,1196
1387,1711004275971278373,2060,2047,2078,2069,2071,2059,1197
1388,1711004275981334296,2057,2058,2050,2077,2093,2055,1196
1389,1711004275991337179,2044,2056,2072,2058,2040,2053,1196
1390,1711004276001337006,2056,2073,2043,2057,2068,2050,1195
1391,1711004276011351399,2050,2044,2064,2057,2036,2058,1197
1392,1711004276021359251,2056,2024,2020,2046,2050,2047,1194
1393,1711004276031331927,2052,2030,2064,2062,2040,2058,1196
1394,1711004276041335590,2058,2056,2036,2060,2097,2052,1198
1395,1711004276051365694,2060,2053,2056,2048,2031,2052,1198
1396,1711004276061330695,2058,2072,2080,2056,2066,2053,1200
1397,1711004276071336252,2042,2045,2054,2049,2043,2065,1196
1398,1711004276081329536,2060,2058,2042,2068,2106,2052,1195
1399,1711004276091353068,2053,2053,2068,2044,2035,2052,1196
1400,1711004276101415994,2062,2056,2036,2044,2072,2046,1194
1401,1711004276111344415,2052,2054,2077,2064,2039,2056,1195
1402,1711004276121359150,2062,2056,2042,2057,2070,2055,1197
1403,1711004276131347665,2056,2053,2076,2052,2026,2054,1197
1404,1711004276141346660,2070,2097,2056,2048,2087,2041,1193
1405,1711004276151401261,2040,2037,2053,2047,2018,2050,1194
1406,1711004276161328189,2057,2053,2037,2056,2072,2055,1196
1407,1711004276171346991,2052,2046,2049,2072,2089,2061,1195
1408,1711004276181350545,2060,2057,2043,2062,2074,2053,1196
1409,1711004276191340904,2052,2036,2060,2053,2024,2053,1197
1410,1711004276201348345,2061,2068,2069,2058,2061,2054,1195
1411,1711004276211338643,2068,2051,2054,2042,2027,2053,1197
1412,1711004276221342628,2068,2103,2056,2065,2065,2064,1197
1413,1711004276231347374,2056,2052,2071,2050,2012,2044,1192
1414,1711004276241341409,2056,2064,2047,2014,1992,2026,1194
1415,1711004276251359570,2047,2029,2062,2133,2262,2073,1196
1416,1711004276261345480,2060,2066,2021,2028,1986,2030,1196
1417,1711004276271349104,2049,2050,2066,1994,1777,2039,1195
1418,1711004276281342629,2054,2050,2037,2056,2000,2047,1195
1419,1711004276291348376,2043,2034,2064,1976,1983,2050,1196
1420,1711004276301405492,2062,2074,2056,2116,2214,2054,1198
1421,1711004276311343952,2047,2048,2070,2103,2089,2060,1198
1422,1711004276321327488,2057,2074,2056,2031,2132,2038,1193
1423,1711004276331335580,2056,2080,2094,2058,2057,2064,1197
1424,1711004276341397514,2060,2056,2055,2054,2083,2052,1195
1425,1711004276351394655,2053,2049,2071,2032,1968,2056,1194
1426,1711004276361358534,2057,2056,2034,2056,2053,2061,1195
1427,1711004276371342771,2061,2062,2065,2056,2030,2048,1196
1428,1711004276381329532,2056,2080,2060,2066,2047,2056,1194
1429,1711004276391339929,2048,2046,2067,2069,2040,2057,1196
1430,1711004276401338243,2064,2072,2050,2058,2078,2051,1196
1431,1711004276411391852,2050,2047,2064,2049,2036,2051,1196
1432,1711004276421336473,2046,2035,2028,2047,2031,2040,1193
1433,1711004276431338273,2061,2076,2112,2054,2043,2059,1197
1434,1711004276441334874,2066,2064,2041,2060,2038,2060,1198
1435,1711004276451333258,2052,2043,2072,2027,1986,2034,1194
1436,1711004276461335899,2053,2049,2031,2061,2101,2056,1196
1437,1711004276471336648,2036,2038,2046,2037,1997,2052,1196
1438,1711004276481328419,2060,2061,2040,2057,2096,2056,1196
1439,1711004276491339607,2052,2038,2062,2039,2000,2054,1197
1440,1711004276501337280,2061,2063,2047,2057,2068,2056,1197
1441,1711004276511333890,2049,2045,2072,2056,2041,2054,1197
1442,1711004276521321513,2058,2067,2038,2069,2093,2051,1196
1443,1711004276531330678,2058,2053,2085,2024,1983,2066,1194
1444,1711004276541327679,2049,2052,2037,2053,2046,2054,1196
1445,1711004276551383502,2041,2053,2092,2054,2043,2060,1193
1446,1711004276561332332,2047,2077,2047,2073,2092,2053,1196
1447,1711004276571380160,2056,2033,2068,2042,2018,2049,1196
1448,1711004276581329700,2056,2048,2030,2058,2073,2055,1197
1449,1711004276591338343,2051,2046,2052,2057,2065,2053,1196
1450,1711004276601330957,2056,2057,2049,2036,2031,2043,1194
1451,1711004276611335392,2052,2054,2064,2052,2026,2058,1196
1452,1711004276621331030,2060,2067,2066,2052,2031,2048,1195
1453,1711004276631337159,2050,2045,2062,2040,1912,2013,1194
1454,1711004276641335523,2055,2057,2040,2056,2002,2056,1197
1455,1711004276651323888,2053,2050,2068,2068,2066,2060,1195
1456,1711004276661329756,2058,2063,2043,2030,2045,2044,1194
1457,1711004276671372203,2057,2051,2059,2064,2060,2056,1197
1458,1711004276681383671,2062,2035,2016,2072,2116,2058,1197
1459,1711004276691373248,2055,2047,2064,2067,2043,2064,1194
1460,1711004276701373636,2058,2047,2036,2018,1938,2029,1194
1461,1711004276711375787,2048,2047,2064,2078,2140,2052,1194
1462,1711004276721392445,2050,2047,2030,2050,2001,2037,1193
1463,1711004276731374368,2053,2050,2070,2068,2049,2060,1198
1464,1711004276741372642,2059,2056,2040,2053,2072,2052,1197
1465,1711004276751373180,2055,2081,2082,2044,2029,2054,1193
1466,1711004276761371523,2059,2072,2054,2051,2045,2056,1197
1467,1711004276771374115,2048,2042,2064,2064,2068,2058,1196
1468,1711004276781376056,2062,2052,2033,2072,2056,2050,1196
1469,1711004276791369520,2054,2050,2071,2060,2026,2059,1195
1470,1711004276801367543,2052,2072,2047,2053,2047,2052,1196
1471,1711004276811366738,2042,2047,2070,2051,2029,2059,1195
1472,1711004276821365172,2057,2056,2032,2054,2094,2051,1196
1473,1711004276831365681,2049,2024,2062,2056,2036,2054,1195
1474,1711004276841377580,2058,2073,2050,2064,2084,2056,1196
1475,1711004276851364261,2054,2049,2060,2061,2060,2028,1193
1476,1711004276861365040,2065,2072,2077,2064,2080,2060,1196
1477,1711004276871362873,2051,2050,2063,2040,1994,2056,1196
1478,1711004276881367508,2061,2058,2055,2057,2064,2049,1197
1479,1711004276891362225,2056,2034,2089,2050,2024,2052,1196
1480,1711004276901358785,2050,2053,2023,2045,2045,2067,1197
1481,1711004276911363972,2049,2041,2072,2054,2024,2050,1195
1482,1711004276921360963,2064,2064,2054,2060,2070,2054,1194
1483,1711004276931359768,2049,2061,2070,2050,2031,2055,1196
1484,1711004276941359885,2060,2061,2042,2051,2071,2053,1196
1485,1711004276951359922,2056,2077,2082,2059,2050,2062,1193
1486,1711004276961355030,2064,2059,2033,2053,2062,2049,1195
1487,1711004276971355587,2060,2077,2089,2053,2041,2054,1196
1488,1711004276981353741,2055,2048,2033,2060,2060,2057,1195
1489,1711004276991403032,2052,2035,2051,2053,2046,2056,1195
1490,1711004277001352482,2054,2053,2074,2052,2069,2056,1195
1491,1711004277011371725,2066,2067,2069,2050,2009,2060,1197
1492,1711004277021365560,2056,2068,2045,2069,2114,2062,1196
1493,1711004277031364054,2049,2048,2068,2067,2036,2050,1197
1494,1711004277041406542,2057,2056,2076,2056,2070,2053,1196
1495,1711004277051382413,2050,2065,2063,2048,2033,2051,1196
1496,1711004277061359106,2055,2030,2036,2056,2070,2052,1196
1497,1711004277071359513,2050,2036,2044,2058,2036,2058,1194
1498,1711004277081360101,2062,2060,2045,2053,2072,2057,1196
1499,1711004277091350901,2052,2053,2069,2054,2045,2072,1196
1500,1711004277101350587,2060,2056,2041,2057,2069,2055,1196
1501,1711004277111350584,2042,2037,2065,2060,2032,2060,1196
1502,1711004277121348567,2052,2056,2045,2062,2064,2048,1196
1503,1711004277131348594,2042,2044,2064,2056,2049,2053,1195
1504,1711004277141358850,2062,2065,2048,2058,2081,2052,1196
1505,1711004277151361171,2056,2066,2079,2046,2010,2047,1189
1506,1711004277161352872,2064,2051,2027,2059,2076,2056,1196
1507,1711004277171348110,2056,2047,2066,2068,2056,2068,1194
1508,1711004277181346193,2060,2049,2029,2058,2074,2057,1196
1509,1711004277191367581,2056,2067,2070,2051,2031,2057,1195
1510,1711004277201341418,2053,2060,2033,2046,2036,2045,1193
1511,1711004277211353818,2056,2066,2086,2056,2022,2052,1195
1512,1711004277221346521,2060,2058,2040,2061,2076,2057,1197
1513,1711004277231346318,2058,2047,2064,2058,2040,2059,1195
1514,1711004277241348279,2058,2065,2040,2061,2074,2050,1196
1515,1711004277251346181,2046,2039,2042,2056,2026,2056,1197
1516,1711004277261350266,2056,2062,2033,2049,2039,2046,1193
1517,1711004277271350494,2052,2056,2084,2044,2013,2053,1196
1518,1711004277281351552,2050,2023,2027,2056,2043,2045,1194
1519,1711004277291394881,2057,2070,2091,2061,2040,2057,1195
1520,1711004277301349572,2054,2054,2051,2061,2068,2052,1197
1521,1711004277311350260,2057,2047,2062,2050,2024,2052,1196
1522,1711004277321350036,2060,2071,2046,2051,2076,2045,1196
1523,1711004277331352959,2044,2039,2061,2056,2036,2056,1198
1524,1711004277341352635,2059,2058,2038,2056,2073,2053,1196
1525,1711004277351341871,2045,2035,2060,2052,2056,2058,1197
1526,1711004277361335707,2060,2082,2050,2052,2061,2053,1198
1527,1711004277371337678,2068,2065,2078,2057,2050,2057,1197
1528,1711004277381354797,2061,2061,2046,2083,2136,2065,1195
1529,1711004277391337651,2055,2057,2064,2054,2040,2056,1197
1530,1711004277401337578,2052,2035,2040,2058,2076,2052,1194
1531,1711004277411337926,2056,2049,2053,2057,2040,2051,1195
1532,1711004277421333875,2052,2048,2021,2058,2061,2044,1193
1533,1711004277431335284,2052,2049,2056,2056,2032,2056,1196
1534,1711004277441339789,2060,2095,2053,2050,2068,2049,1196
1535,1711004277451343683,2049,2044,2068,2063,2065,2056,1196
1536,1711004277461339703,2056,2056,2043,2053,2065,2053,1198
1537,1711004277471339109,2052,2047,2066,2049,2032,2049,1196
1538,1711004277481346980,2067,2095,2078,2060,2071,2056,1197
1539,1711004277491347247,2046,2046,2082,2050,2043,2052,1195
1540,1711004277501315063,2065,2074,2036,2066,2089,2056,1197
1541,1711004277511341821,2047,2034,2056,2050,2019,2058,1197
1542,1711004277521342219,2058,2052,2038,2056,2072,2048,1194
1543,1711004277531344880,2062,2044,2059,2068,2072,2053,1196
1544,1711004277541342443,2052,2053,2040,2058,2073,2056,1196
1545,1711004277551341518,2058,2058,2083,2058,2039,2056,1195
1546,1711004277561338209,2057,2063,2096,2046,2052,2045,1195
1547,1711004277571362602,2050,2040,2066,2062,2058,2063,1196
1548,1711004277581355695,2056,2082,2049,2064,2087,2056,1196
1549,1711004277591344200,2052,2053,2081,2052,2043,2056,1197
1550,1711004277601339679,2059,2066,2057,2057,2062,2049,1197
1551,1711004277611343403,2056,2052,2062,2053,2036,2052,1197
1552,1711004277621341396,2058,2062,2035,2058,2064,2051,1196
1553,1711004277631340030,2056,2053,2073,2047,2040,2056,1197
1554,1711004277641354003,2056,2047,2030,2055,2072,2045,1195
1555,1711004277651340725,2055,2082,2057,2054,2032,2052,1196
1556,1711004277661342756,2060,2060,2050,2068,2074,2057,1197
1557,1711004277671362931,2049,2043,2052,2057,2073,2053,1196
1558,1711004277681348190,2057,2058,2041,2062,2074,2058,1197
1559,1711004277691342727,2056,2056,2072,2058,2080,2049,1195
1560,1711004277701337664,2060,2057,2033,2061,2073,2053,1196
1561,1711004277711340506,2060,2053,2073,2063,2039,2056,1196
1562,1711004277721336625,2056,2056,2031,2060,2073,2054,1196
1563,1711004277731335850,2047,2056,2056,2048,2028,2049,1195
1564,1711004277741342450,2059,2074,2044,2053,2063,2049,1197
1565,1711004277751340263,2050,2050,2067,2053,2040,2056,1195
1566,1711004277761348144,2056,2056,2038,2053,2084,2053,1196
1567,1711004277771345295,2049,2053,2068,2054,2036,2055,1197
1568,1711004277781341365,2058,2056,2042,2064,2075,2054,1197
1569,1711004277791324290,2050,2050,2070,2053,2058,2052,1195
1570,1711004277801320629,2056,2054,2038,2058,2056,2043,1194
1571,1711004277811340855,2052,2052,2068,2064,2032,2064,1195
1572,1711004277821334981,2058,2054,2030,2060,2065,2044,1194
1573,1711004277831400843,2051,2045,2068,2054,2036,2056,1196
1574,1711004277841342238,2060,2068,2045,2052,2056,2047,1194
1575,1711004277851350891,2051,2037,2067,2051,2020,2049,1197
1576,1711004277861336821,2057,2061,2063,2064,2076,2055,1197
1577,1711004277871342018,2053,2047,2063,2051,2033,2052,1195
1578,1711004277881346643,2059,2058,2035,2054,2067,2055,1195
1579,1711004277891340739,2050,2046,2056,2040,2026,2052,1197
1580,1711004277901341938,2064,2065,2051,2059,2078,2048,1194
1581,1711004277911342566,2055,2057,2077,2052,2033,2051,1197
1582,1711004277921339958,2060,2040,2030,2064,2067,2058,1196
1583,1711004277931343131,2056,2050,2070,2061,2044,2064,1199
1584,1711004277941342537,2060,2058,2041,2052,2124,2053,1197
1585,1711004277951342594,2054,2057,2080,2055,2040,2060,1195
1586,1711004277961341709,2057,2052,2033,2068,2080,2059,1196
1587,1711004277971385079,2048,2030,2058,2041,2031,2054,1196
1588,1711004277981349257,2060,2060,2032,2064,2082,2051,1196
1589,1711004277991343323,2051,2040,2073,2043,2034,2053,1196
1590,1711004278001344131,2056,2040,2037,2056,2048,2062,1196
1591,1711004278011340591,2053,2065,2069,2060,2037,2070,1197
1592,1711004278021340287,2050,2037,2032,2047,2072,2053,1197
1593,1711004278031340314,2060,2067,2072,2055,2036,2056,1197
1594,1711004278041343026,2061,2085,2042,2044,2075,2052,1196
1595,1711004278051343183,2050,2048,2068,2065,2068,2057,1196
1596,1711004278061343321,2063,2066,2049,2077,2117,2060,1198
1597,1711004278071343839,2053,2054,2066,2054,2034,2053,1198
1598,1711004278081401355,2058,2058,2037,2049,2058,2056,1196
1599,1711004278091373067,2054,2040,2062,2047,2031,2053,1194
1600,1711004278101343438,2060,2072,2036,2063,2074,2053,1196
1601,1711004278111367680,2045,2025,2058,2058,2041,2060,1195
1602,1711004278121336418,2058,2028,2029,2061,2072,2053,1198
1603,1711004278131371302,2056,2062,2108,2069,2100,2056,1194
1604,1711004278141369435,2053,2036,2033,2056,2047,2051,1196
1605,1711004278151371826,2055,2046,2061,2056,2036,2047,1192
1606,1711004278161368928,2062,2073,2064,2059,2080,2057,1197
1607,1711004278171368233,2046,2037,2056,2046,2022,2053,1197
1608,1711004278181366296,2070,2084,2072,2065,2081,2055,1197
1609,1711004278191368497,2057,2056,2066,2051,2043,2054,1194
1610,1711004278201367081,2058,2060,2044,2063,2076,2058,1193
1611,1711004278211364964,2056,2059,2073,2057,2040,2052,1193
1612,1711004278221365562,2060,2062,2052,2064,2088,2057,1195
1613,1711004278231377542,2052,2066,2073,2050,2028,2056,1195
1614,1711004278241366157,2057,2070,2047,2050,2050,2048,1196
1615,1711004278251363198,2051,2051,2062,2043,2040,2058,1196
1616,1711004278261370860,2064,2060,2040,2061,2068,2053,1198
1617,1711004278271363482,2052,2088,2117,2053,2034,2055,1195
1618,1711004278281362958,2052,2025,2027,2062,2076,2056,1197
1619,1711004278291359248,2047,2042,2064,2056,2036,2058,1196
1620,1711004278301325180,2060,2058,2048,2064,2079,2053,1196
1621,1711004278311364511,2053,2045,2064,2049,2030,2052,1194
1622,1711004278321360100,2060,2058,2041,2046,2053,2048,1196
1623,1711004278331357452,2056,2057,2074,2064,2101,2054,1197
1624,1711004278341370714,2058,2060,2049,2060,2066,2052,1196
1625,1711004278351364138,2056,2050,2064,2052,2032,2045,1192
1626,1711004278361355528,2057,2105,2076,2061,2076,2056,1196
1627,1711004278371356877,2053,2054,2050,2053,2049,2057,1196
1628,1711004278381354710,2060,2049,2031,2047,2063,2049,1196
1629,1711004278391363274,2044,2039,2066,2046,2026,2054,1195
1630,1711004278401356518,2058,2042,2052,2056,2045,2047,1193
1631,1711004278411374418,2052,2038,2065,2056,2050,2052,1193
1632,1711004278421358094,2057,2057,2050,2064,2050,2052,1197
1633,1711004278431357480,2061,2094,2068,2064,2042,2055,1195
1634,1711004278441360152,2050,2040,2054,2057,2065,2052,1196
1635,1711004278451354087,2052,2064,2060,2038,2016,2046,1195
1636,1711004278461359634,2061,2062,2047,2064,2078,2056,1197
1637,1711004278471352978,2052,2064,2076,2056,2041,2057,1196
1638,1711004278481358967,2065,2073,2056,2058,2056,2047,1192
1639,1711004278491360106,2046,2026,2040,2048,2037,2053,1196
1640,1711004278501338101,2069,2099,2124,2060,2069,2051,1197
1641,1711004278511363165,2059,2082,2177,2049,2060,2061,1197
1642,1711004278521340379,2045,2031,2027,2053,2053,2050,1196
1643,1711004278531344033,2061,2064,2083,2053,2036,2054,1196
1644,1711004278541344881,2056,2053,2047,2061,2075,2052,1195
1645,1711004278551363774,2053,2054,2065,2042,2024,2050,1193
1646,1711004278561367367,2059,2058,2048,2053,2062,2050,1194
1647,1711004278571365300,2053,2048,2061,2050,2035,2056,1196
1648,1711004278581369335,2056,2049,2021,2053,2053,2047,1193
1649,1711004278591372598,2048,2021,2044,2045,2018,2041,1192
1650,1711004278601338781,2060,2034,2050,2057,2077,2054,1196
1651,1711004278611364907,2053,2037,2046,2052,2043,2054,1194
1652,1711004278621348192,2050,2038,2026,2064,2064,2052,1196
1653,1711004278631347447,2053,2058,2065,2050,2030,2049,1195
1654,1711004278641377902,2057,2051,2048,2058,2061,2056,1196
1655,1711004278651366588,2053,2047,2053,2052,2040,2051,1197
1656,1711004278661366203,2060,2059,2092,2064,2072,2056,1198
1657,1711004278671348927,2065,2061,2069,2054,2041,2059,1196
1658,1711004278681349035,2052,2032,2045,2078,2084,2053,1198
1659,1711004278691353640,2056,2040,2052,2056,2029,2056,1197
1660,1711004278701347626,2058,2059,2044,2053,2061,2053,1197
1661,1711004278711343825,2059,2056,2066,2068,2063,2058,1197
1662,1711004278721336478,2058,2067,2041,2060,2067,2057,1197
1663,1711004278731344940,2049,2035,2044,2054,2032,2050,1197
1664,1711004278741339437,2062,2056,2057,2062,2069,2064,1196
1665,1711004278751348702,2054,2032,2049,2056,2033,2052,1195
1666,1711004278761375660,2064,2080,2048,2060,2059,2055,1197
1667,1711004278771331943,2056,2036,2041,2057,2060,2056,1195
1668,1711004278781331189,2058,2081,2077,2069,2080,2057,1196
1669,1711004278791338720,2047,2033,2062,2051,2043,2061,1196
1670,1711004278801331333,2060,2038,2031,2056,2064,2053,1194
1671,1711004278811340106,2058,2068,2048,2051,2045,2052,1196
1672,1711004278821329403,2060,2058,2044,2052,2057,2048,1195
1673,1711004278831372822,2048,2058,2085,2058,2049,2053,1197
1674,1711004278841375975,2061,2057,2046,2063,2064,2052,1198
1675,1711004278851349251,2061,2076,2066,2058,2042,2054,1197
1676,1711004278861374766,2058,2056,2047,2062,2072,2052,1196
1677,1711004278871375805,2052,2042,2051,2052,2040,2057,1196
1678,1711004278881312332,2056,2050,2037,2052,2058,2053,1197
1679,1711004278891376620,2053,2076,2081,2067,2072,2060,1196
1680,1711004278901374964,2052,2040,2029,2061,2081,2056,1196
1681,1711004278911376634,2056,2049,2067,2053,2033,2053,1197
1682,1711004278921376841,2059,2053,2046,2064,2112,2056,1194
1683,1711004278931377369,2052,2053,2085,2056,2043,2058,1195
1684,1711004278941338312,2056,2038,2047,2058,2063,2049,1197
1685,1711004278951358597,2051,2044,2062,2057,2052,2059,1197
1686,1711004278961360558,2056,2046,2058,2064,2070,2053,1196
1687,1711004278971338562,2060,2062,2067,2056,2033,2050,1200
1688,1711004278981333710,2056,2033,2036,2070,2088,2056,1195
1689,1711004278991410512,2060,2074,2093,2051,2033,2059,1196
1690,1711004279001358371,2056,2056,2042,2061,2063,2056,1196
1691,1711004279011353689,2055,2087,2065,2059,2053,2058,1196
1692,1711004279021360909,2057,2058,2050,2058,2060,2056,1196
1693,1711004279031353512,2049,2043,2056,2053,2070,2053,1194
1694,1711004279041353439,2046,2039,2045,2062,2067,2050,1195
1695,1711004279051371951,2047,2043,2053,2056,2047,2052,1198
1696,1711004279061362639,2060,2088,2045,2049,2056,2054,1197
1697,1711004279071332950,2052,2041,2046,2050,2036,2052,1196
1698,1711004279081367973,2053,2034,2040,2060,2068,2058,1196
1699,1711004279091373791,2052,2046,2065,2058,2041,2051,1197
1700,1711004279101365242,2054,2057,2047,2058,2060,2051,1195
1701,1711004279111333388,2051,2034,2038,2056,2037,2049,1196
1702,1711004279121327684,2065,2066,2042,2057,2057,2054,1197
1703,1711004279131356305,2049,2042,2054,2053,2045,2056,1195
1704,1711004279141332457,2057,2068,2024,2059,2064,2053,1194
1705,1711004279151352301,2059,2068,2064,2048,2049,2056,1193
1706,1711004279161359802,2058,2052,2040,2061,2076,2058,1196
1707,1711004279171356914,2061,2058,2068,2054,2040,2056,1197
1708,1711004279181336041,2053,2072,2033,2060,2060,2052,1195
1709,1711004279191357128,2052,2034,2035,2052,2046,2052,1196
1710,1711004279201351253,2059,2045,2073,2060,2066,2057,1198
1711,1711004279211352382,2052,2072,2078,2053,2047,2056,1196
1712,1711004279221362488,2051,2037,2049,2058,2064,2049,1196
1713,1711004279231344892,2056,2044,2095,2056,2052,2057,1194
1714,1711004279241348205,2051,2056,2050,2060,2072,2058,1196
1715,1711004279251360054,2052,2051,2056,2056,2046,2054,1198
1716,1711004279261352226,2054,2038,2050,2058,2064,2051,1197
1717,1711004279271336733,2054,2049,2061,2056,2046,2055,1197
1718,1711004279281349234,2053,2052,2056,2059,2066,2056,1197
1719,1711004279291354511,2058,2059,2052,2041,2030,2046,1192
1720,1711004279301349137,2060,2057,2069,2079,2102,2058,1196
1721,1711004279311369573,2051,2056,2056,2059,2054,2055,1196
1722,1711004279321344692,2044,2045,2033,2055,2055,2049,1196
1723,1711004279331343476,2059,2064,2080,2062,2063,2068,1196
1724,1711004279341348463,2056,2048,2041,2056,2076,2049,1195
1725,1711004279351352007,2051,2017,2047,2053,2037,2052,1193
1726,1711004279361331625,2064,2082,2065,2064,2060,2054,1197
1727,1711004279371344596,2049,2038,2054,2052,2045,2056,1196
1728,1711004279381329474,2064,2059,2067,2063,2065,2056,1196
1729,1711004279391346994,2056,2049,2060,2051,2041,2049,1194
1730,1711004279401330299,2060,2053,2042,2054,2056,2049,1196
1731,1711004279411333743,2050,2033,2060,2050,2042,2052,1194
1732,1711004279421328690,2059,2049,2052,2056,2058,2052,1195
1733,1711004279431344296,2052,2037,2042,2048,2039,2053,1196
1734,1711004279441350575,2056,2044,2045,2060,2064,2056,1196
1735,1711004279451345221,2051,2045,2052,2049,2040,2050,1196
1736,1711004279461348324,2052,2043,2049,2058,2062,2053,1196
1737,1711004279471336890,2058,2052,2043,2058,2044,2056,1196
1738,1711004279481330775,2068,2050,2035,2056,2053,2047,1192
1739,1711004279491343696,2045,2049,2053,2042,2037,2040,1193
1740,1711004279501339134,2062,2076,2054,2069,2072,2062,1196
1741,1711004279511343459,2050,2024,2024,2056,2048,2057,1196
1742,1711004279521335220,2059,2044,2030,2057,2060,2056,1196
1743,1711004279531334296,2054,2051,2057,2052,2042,2055,1197
1744,1711004279541361424,2057,2056,2036,2061,2076,2057,1196
1745,1711004279551323609,2057,2058,2058,2050,2041,2052,1195
1746,1711004279561334386,2058,2046,2045,2056,2057,2051,1197
1747,1711004279571335786,2053,2056,2056,2044,2040,2050,1194
1748,1711004279581331424,2054,2050,2036,2060,2059,2059,1196
1749,1711004279591335338,2056,2040,2018,2051,2040,2049,1197
1750,1711004279601337840,2057,2022,2031,2058,2060,2056,1195
1751,1711004279611352364,2051,2045,2044,2050,2049,2053,1196
1752,1711004279621331852,2056,2054,2052,2062,2065,2052,1196
1753,1711004279631335085,2054,2067,2074,2054,2040,2058,1197
1754,1711004279641759659,2053,2064,2048,2061,2064,2058,1195
1755,1711004279651360126,2052,2073,2082,2053,2047,2053,1196
1756,1711004279661333202,2054,2053,2041,2056,2065,2053,1196
1757,1711004279671337106,2052,2051,2052,2054,2044,2054,1196
1758,1711004279681334097,2056,2074,2058,2058,2069,2052,1196
1759,1711004279691331569,2056,2047,2052,2056,2056,2056,1195
1760,1711004279701330023,2055,2034,2051,2065,2065,2056,1197
1761,1711004279711335370,2056,2102,2083,2052,2042,2052,1197
1762,1711004279721376535,2064,2070,2117,2061,2064,2056,1197
1763,1711004279731349901,2059,2047,2057,2049,2051,2060,1194
1764,1711004279741344618,2054,2052,2049,2060,2058,2049,1197
1765,1711004279751329366,2049,2053,2064,2047,2041,2052,1194
1766,1711004279761333481,2058,2068,2049,2058,2064,2056,1195
1767,1711004279771336523,2054,2090,2084,2056,2045,2052,1196
1768,1711004279781329827,2048,2037,2040,2058,2072,2053,1195
1769,1711004279791346295,2057,2061,2090,2059,2047,2054,1196
1770,1711004279801331664,2056,2042,2025,2059,2064,2056,1196
1771,1711004279811329848,2055,2056,2063,2056,2042,2056,1197
1772,1711004279821323442,2058,2064,2067,2058,2060,2053,1197
1773,1711004279831329430,2058,2054,2076,2061,2061,2051,1198
1774,1711004279841330689,2052,2065,2052,2057,2056,2053,1196
1775,1711004279851323893,2050,2052,2056,2052,2043,2054,1195
1776,1711004279861334400,2062,2058,2056,2062,2072,2056,1197
1777,1711004279871339186,2057,2058,2075,2056,2041,2055,1196
1778,1711004279881333031,2053,2030,2044,2061,2056,2051,1197
1779,1711004279891339981,2058,2074,2088,2056,2050,2056,1196
1780,1711004279901326041,2053,2054,2042,2059,2061,2053,1197
1781,1711004279911337359,2066,2050,2060,2055,2058,2056,1196
1782,1711004279921331465,2052,2044,2037,2057,2056,2050,1194
1783,1711004279931335440,2060,2032,2052,2052,2045,2056,1196
1784,1711004279941334495,2057,2056,2056,2062,2066,2056,1197
1785,1711004279951340062,2054,2051,2059,2056,2047,2052,1195
1786,1711004279961364566,2054,2055,2052,2054,2053,2053,1195
1787,1711004279971336438,2060,2056,2092,2053,2040,2054,1195
1788,1711004279981330644,2056,2061,2048,2060,2068,2056,1197
1789,1711004279991340270,2050,2031,2047,2056,2054,2052,1194
1790,1711004280001335087,2064,2048,2050,2057,2061,2054,1196
1791,1711004280011347918,2053,2049,2052,2053,2046,2058,1197
1792,1711004280021323549,2057,2074,2062,2062,2063,2053,1196
1793,1711004280031336469,2056,2061,2053,2051,2047,2052,1196
1794,1711004280041353418,2055,2050,2051,2059,2064,2056,1197
1795,1711004280051344148,2059,2074,2061,2056,2047,2050,1199
1796,1711004280061316662,2061,2053,2056,2061,2059,2054,1198
1797,1711004280071340194,2057,2080,2106,2053,2061,2052,1197
1798,1711004280081331173,2056,2059,2058,2053,2048,2055,1195
1799,1711004280091353242,2057,2064,2047,2039,2030,2045,1193
1800,1711004280101324224,2057,2042,2056,2064,2060,2056,1197
1801,1711004280111335242,2050,2048,2054,2056,2043,2051,1199
1802,1711004280121329948,2056,2049,2045,2060,2058,2055,1197
1803,1711004280131334554,2056,2057,2064,2056,2048,2050,1199
1804,1711004280141328960,2060,2086,2094,2064,2064,2056,1198
1805,1711004280151341019,2048,2045,2048,2050,2030,2044,1193
1806,1711004280161333853,2057,2072,2048,2059,2057,2056,1197
1807,1711004280171328109,2053,2048,2044,2057,2049,2053,1196
1808,1711004280181307326,2061,2066,2053,2058,2064,2056,1196
1809,1711004280191335757,2053,2049,2054,2053,2048,2056,1197
1810,1711004280201326085,2058,2032,2046,2061,2058,2055,1197
1811,1711004280211333005,2056,2044,2040,2052,2049,2056,1196
1812,1711004280221329525,2056,2064,2083,2061,2058,2056,1196
1813,1711004280231338179,2052,2046,2054,2048,2046,2050,1196
1814,1711004280241329889,2064,2087,2074,2065,2085,2047,1192
1815,1711004280251328123,2053,2042,2041,2050,2046,2052,1198
1816,1711004280261329282,2051,2051,2053,2055,2056,2050,1194
1817,1711004280271334368,2058,2058,2062,2058,2053,2055,1196
1818,1711004280281327783,2059,2054,2062,2058,2056,2052,1196
1819,1711004280291343950,2057,2054,2053,2051,2047,2054,1194
1820,1711004280301333587,2056,2056,2104,2060,2059,2053,1196
1821,1711004280311324798,2060,2070,2084,2054,2046,2056,1195
1822,1711004280321347768,2059,2048,2043,2056,2058,2052,1197
1823,1711004280331344198,2048,2056,2064,2053,2048,2050,1197
1824,1711004280341334195,2047,2084,2073,2057,2054,2052,1196
1825,1711004280351347287,2051,2041,2045,2048,2041,2049,1193
1826,1711004280361319050,2060,2059,2059,2059,2059,2056,1196
1827,1711004280371345147,2057,2081,2085,2057,2051,2054,1197
1828,1711004280381329694,2056,2057,2048,2057,2061,2049,1197
1829,1711004280391351272,2056,2056,2052,2052,2044,2052,1196
1830,1711004280401330709,2054,2028,2047,2062,2062,2058,1196
1831,1711004280411359831,2059,2053,2061,2056,2046,2050,1196
1832,1711004280421320103,2057,2088,2071,2057,2060,2052,1194
1833,1711004280431342893,2053,2049,2049,2056,2047,2056,1193
1834,1711004280441329344,2056,2052,2049,2055,2057,2053,1197
1835,1711004280451340562,2058,2065,2076,2056,2053,2056,1198
1836,1711004280461349576,2075,2079,2069,2058,2057,2051,1195
1837,1711004280471330556,2053,2054,2060,2056,2047,2054,1195
1838,1711004280481328520,2056,2058,2072,2056,2052,2051,1198
1839,1711004280491346641,2050,2013,2029,2054,2045,2045,1196
1840,1711004280501356847,2068,2096,2072,2056,2056,2056,1196
1841,1711004280511329612,2060,2052,2060,2056,2048,2049,1197
1842,1711004280521344908,2055,2056,2056,2056,2063,2057,1197
1843,1711004280531342029,2060,2059,2053,2054,2054,2053,1198
1844,1711004280541339091,2046,2050,2046,2052,2051,2046,1193
1845,1711004280551330921,2050,2043,2060,2054,2049,2051,1194
1846,1711004280561348532,2073,2092,2097,2062,2061,2058,1197
1847,1711004280571327218,2051,2046,2051,2053,2059,2056,1196
1848,1711004280581329409,2056,2059,2061,2061,2057,2049,1197
1849,1711004280591351277,2056,2056,2054,2052,2057,2053,1197
1850,1711004280601336215,2059,2066,2092,2058,2052,2052,1197
1851,1711004280611298330,2058,2068,2051,2056,2055,2057,1196
1852,1711004280621337211,2065,2052,2052,2060,2061,2056,1196
1853,1711004280631345253,2049,2082,2064,2052,2049,2053,1196
1854,1711004280641329079,2059,2058,2077,2060,2063,2053,1196
1855,1711004280651355867,2054,2060,2057,2050,2045,2059,1198
1856,1711004280661333411,2055,2045,2056,2060,2061,2057,1194
1857,1711004280671353706,2052,2052,2080,2056,2053,2057,1195
1858,1711004280681330649,2056,2060,2058,2055,2074,2052,1194
1859,1711004280691344723,2056,2062,2061,2053,2054,2056,1196
1860,1711004280701333098,2064,2077,2078,2063,2060,2057,1196
1861,1711004280711326822,2052,2064,2051,2055,2052,2053,1197
1862,1711004280721338110,2054,2039,2045,2060,2058,2053,1196
1863,1711004280731348357,2054,2061,2054,2054,2050,2048,1196
1864,1711004280741336281,2053,2049,2063,2058,2056,2056,1196
1865,1711004280751352318,2052,2056,2065,2050,2056,2052,1194
1866,1711004280761340332,2059,2061,2050,2056,2056,2057,1195
1867,1711004280771328086,2060,2082,2089,2056,2047,2056,1195
1868,1711004280781335416,2056,2057,2056,2061,2056,2056,1197
1869,1711004280791340292,2050,2047,2046,2054,2043,2045,1192
1870,1711004280801357802,2046,2053,2058,2058,2056,2056,1194
1871,1711004280811332661,2052,2051,2052,2053,2054,2050,1199
1872,1711004280821325013,2049,2042,2057,2059,2060,2056,1195
1873,1711004280831325371,2050,2036,2043,2054,2051,2053,1195
1874,1711004280841334635,2054,2059,2066,2056,2071,2053,1195
1875,1711004280851345212,2053,2100,2100,2054,2051,2057,1194
1876,1711004280861328968,2056,2055,2057,2057,2054,2057,1197
1877,1711004280871342150,2056,2054,2067,2054,2049,2053,1198
1878,1711004280881334322,2056,2059,2064,2063,2060,2056,1195
1879,1711004280891340390,2048,2032,2051,2048,2048,2053,1196
1880,1711004280901331190,2073,2070,2056,2061,2058,2050,1195
1881,1711004280911294146,2045,2045,2030,2054,2056,2052,1197
1882,1711004280921334038,2057,2057,2052,2056,2056,2061,1196
1883,1711004280931347280,2060,2064,2075,2057,2056,2056,1196
1884,1711004280941355653,2052,2040,2054,2059,2059,2050,1195
1885,1711004280951353396,2051,2036,2047,2053,2050,2049,1195
1886,1711004280961331010,2058,2047,2057,2065,2060,2055,1196
1887,1711004280971333121,2057,2069,2072,2055,2052,2057,1197
1888,1711004280981336233,2058,2056,2057,2060,2056,2053,1197
1889,1711004280991336350,2060,2077,2068,2056,2056,2056,1197
1890,1711004281001337209,2049,2036,2053,2060,2057,2053,1196
1891,1711004281011345571,2047,2051,2018,2057,2053,2053,1197
1892,1711004281021336621,2053,2052,2054,2061,2061,2061,1196
1893,1711004281031340125,2058,2066,2037,2054,2056,2054,1197
1894,1711004281041338639,2059,2061,2057,2058,2055,2053,1195
1895,1711004281051366899,2051,2042,2044,2052,2052,2053,1196
1896,1711004281061349332,2058,2049,2059,2057,2058,2049,1196
1897,1711004281071349489,2056,2056,2049,2056,2052,2058,1198
1898,1711004281081342343,2057,2050,2052,2057,2056,2056,1196
1899,1711004281091349363,2060,2069,2069,2057,2056,2053,1195
1900,1711004281101342055,2055,2052,2044,2056,2054,2057,1197
1901,1711004281111352863,2057,2047,2047,2050,2048,2052,1196
1902,1711004281121339224,2051,2021,2052,2059,2059,2054,1195
1903,1711004281131345232,2061,2047,2053,2056,2056,2054,1193
1904,1711004281141361960,2056,2066,2067,2058,2050,2057,1194
1905,1711004281151347249,2056,2052,2056,2053,2049,2047,1192
1906,1711004281161346585,2059,2052,2056,2054,2052,2052,1194
1907,1711004281171342244,2051,2056,2045,2052,2051,2053,1195
1908,1711004281181346298,2059,2056,2056,2057,2057,2048,1193
1909,1711004281191380129,2053,2054,2022,2054,2057,2050,1195
1910,1711004281201329930,2053,2048,2051,2060,2055,2053,1195
1911,1711004281211350295,2051,2047,2048,2052,2053,2054,1197
1912,1711004281221319915,2058,2037,2042,2057,2050,2053,1196
1913,1711004281231328207,2056,2038,2042,2056,2051,2050,1196
1914,1711004281241350576,2065,2051,2042,2056,2056,2057,1194
1915,1711004281251363558,2050,2061,2050,2049,2046,2047,1195
1916,1711004281261352684,2057,2046,2049,2056,2053,2052,1196
1917,1711004281271296123,2053,2050,2054,2048,2045,2050,1197
1918,1711004281281330766,2058,2052,2057,2059,2058,2058,1198
1919,1711004281291352714,2056,2052,2038,2052,2047,2052,1195
1920,1711004281301332422,2056,2080,2070,2063,2056,2056,1198
1921,1711004281311357707,2047,2041,2048,2048,2051,2048,1196
1922,1711004281321330432,2059,2062,2057,2056,2053,2052,1197
1923,1711004281331351279,2051,2073,2076,2052,2052,2052,1196
1924,1711004281341339793,2065,2060,2094,2062,2056,2052,1193
1925,1711004281351363595,2061,2047,2048,2052,2054,2054,1193
1926,1711004281361338364,2057,2049,2045,2053,2050,2050,1196
1927,1711004281371337369,2060,2039,2045,2056,2053,2051,1196
1928,1711004281381354759,2056,2053,2060,2056,2057,2057,1196
1929,1711004281391375676,2056,2047,2057,2052,2053,2054,1195
1930,1711004281401358349,2056,2084,2075,2054,2053,2053,1194
1931,1711004281411341294,2051,2071,2057,2052,2053,2054,1195
1932,1711004281421331812,2050,2030,2037,2056,2050,2058,1195
1933,1711004281431343501,2056,2081,2060,2057,2053,2052,1194
1934,1711004281441387161,2057,2051,2051,2058,2056,2056,1193
1935,1711004281451362190,2046,2051,2053,2052,2059,2050,1196
1936,1711004281461342840,2056,2046,2060,2057,2056,2053,1197
1937,1711004281471363326,2058,2047,2046,2052,2055,2053,1196
1938,1711004281481339718,2058,2054,2062,2059,2056,2053,1194
1939,1711004281491371435,2064,2075,2082,2058,2050,2050,1195
1940,1711004281501347847,2054,2044,2056,2055,2046,2054,1196
1941,1711004281511367370,2056,2056,2063,2051,2042,2047,1192
1942,1711004281521347650,2056,2054,2056,2060,2056,2056,1194
1943,1711004281531344400,2056,2056,2046,2053,2054,2052,1196
1944,1711004281541347483,2058,2063,2063,2060,2057,2054,1196
1945,1711004281551347871,2058,2032,2052,2054,2049,2054,1193
1946,1711004281561340574,2056,2040,2032,2064,2055,2060,1195
1947,1711004281571350549,2057,2049,2028,2052,2056,2054,1196
1948,1711004281581339124,2061,2057,2080,2064,2066,2058,1196
1949,1711004281591351454,2060,2048,2072,2053,2051,2053,1196
1950,1711004281601336263,2056,2056,2060,2061,2056,2056,1198
1951,1711004281611350606,2053,2071,2061,2053,2050,2052,1195
1952,1711004281621372284,2046,2029,2040,2057,2056,2050,1197
1953,1711004281631350760,2056,2031,2063,2056,2056,2053,1196
1954,1711004281641345687,2052,2054,2072,2057,2058,2062,1195
1955,1711004281651373357,2055,2047,2055,2054,2054,2053,1195
1956,1711004281661349588,2058,2060,2053,2060,2053,2056,1195
1957,1711004281671338083,2054,2056,2048,2054,2050,2050,1195
1958,1711004281681349662,2064,2062,2080,2062,2056,2056,1197
1959,1711004281691358265,2060,2062,2058,2053,2050,2051,1195
1960,1711004281701333845,2053,2052,2040,2058,2049,2056,1194
1961,1711004281711347628,2054,2056,2048,2053,2047,2046,1192
1962,1711004281721326946,2053,2043,2054,2059,2055,2058,1195
1963,1711004281731349425,2050,2050,2024,2058,2052,2053,1197
1964,1711004281741355343,2056,2046,2051,2057,2049,2056,1195
1965,1711004281751416666,2056,2056,2064,2061,2058,2053,1196
1966,1711004281761349085,2054,2054,2074,2058,2057,2056,1197
1967,1711004281771326329,2057,2070,2057,2056,2056,2054,1196
1968,1711004281781318551,2053,2046,2070,2061,2052,2057,1195
1969,1711004281791346200,2057,2053,2056,2057,2054,2056,1196
1970,1711004281801334173,2052,2054,2050,2057,2050,2053,1196
1971,1711004281811354368,2053,2057,2040,2058,2060,2053,1197
1972,1711004281821325230,2057,2056,2082,2057,2056,2058,1196
1973,1711004281831334915,2059,2069,2077,2057,2058,2054,1196
1974,1711004281841333850,2058,2080,2093,2060,2050,2057,1195
1975,1711004281851355899,2064,2069,2063,2054,2056,2053,1197
1976,1711004281861338533,2057,2076,2049,2058,2050,2053,1196
1977,1711004281871352155,2046,2023,2035,2054,2056,2058,1197
1978,1711004281881330561,2057,2049,2056,2058,2056,2052,1197
1979,1711004281891336438,2051,2052,2051,2052,2049,2047,1196
1980,1711004281901333119,2052,2051,2070,2060,2047,2054,1195
1981,1711004281911352672,2060,2038,2042,2054,2054,2049,1196
1982,1711004281921331930,2053,2036,2056,2059,2052,2056,1196
1983,1711004281931338360,2048,2020,2041,2053,2066,2050,1196
1984,1711004281941356521,2064,2041,2056,2054,2050,2054,1198
1985,1711004281951362929,2057,2057,2049,2053,2059,2052,1194
1986,1711004281961358428,2056,2053,2064,2056,2044,2052,1197
1987,1711004281971349557,2056,2061,2065,2054,2057,2051,1198
1988,1711004281981326791,2057,2062,2057,2059,2054,2056,1198
1989,1711004281991333571,2052,2056,2058,2053,2061,2053,1196
1990,1711004282001361781,2059,2069,2074,2062,2054,2056,1196
1991,1711004282011342051,2041,2046,2032,2053,2053,2056,1197
1992,1711004282021339332,2056,2060,2085,2058,2049,2057,1196
1993,1711004282031353516,2055,2060,2052,2052,2052,2052,1196
1994,1711004282041354244,2058,2062,2070,2056,2051,2057,1196
1995,1711004282051376282,2052,2055,2059,2056,2058,2053,1196
1996,1711004282061337195,2050,2032,2040,2060,2052,2056,1197
1997,1711004282071329727,2056,2074,2047,2051,2056,2053,1198
1998,1711004282081330766,2057,2061,2101,2058,2057,2055,1198
1999,1711004282091352013,2053,2045,2045,2046,2052,2052,1195
2000,1711004282101330088,2056,2053,2061,2058,2047,2062,1194
2001,1711004282111340595,2056,2056,2045,2045,2049,2044,1195
2002,1711004282121332837,2057,2100,2078,2061,2052,2054,1194
2003,1711004282131336671,2052,2049,2062,2055,2057,2053,1196
2004,1711004282141344693,2062,2063,2074,2063,2057,2060,1195
2005,1711004282151328979,2056,2068,2040,2053,2053,2052,1194
2006,1711004282161328045,2056,2053,2067,2060,2054,2056,1195
2007,1711004282171325477,2059,2082,2073,2050,2048,2052,1195
2008,1711004282181333749,2056,2056,2059,2058,2047,2052,1197
2009,1711004282191348905,2060,2062,2065,2052,2054,2048,1196
2010,1711004282201364832,2057,2065,2056,2064,2054,2057,1194
2011,1711004282211332968,2055,2041,2032,2052,2053,2045,1194
2012,1711004282221343394,2057,2046,2064,2059,2053,2055,1196
2013,1711004282231352288,2049,2036,2032,2056,2054,2051,1195
2014,1711004282241354018,2059,2072,2090,2064,2066,2053,1196
2015,1711004282251346470,2061,2049,2049,2057,2060,2053,1197
2016,1711004282261340906,2057,2088,2072,2061,2052,2056,1198
2017,1711004282271330193,2048,2045,2042,2053,2059,2057,1197
2018,1711004282281335710,2058,2068,2062,2058,2053,2052,1199
2019,1711004282291352779,2060,2059,2044,2053,2056,2053,1198
2020,1711004282301344831,2059,2057,2070,2058,2052,2057,1197
2021,1711004282311329548,2060,2060,2064,2054,2056,2053,1195
2022,1711004282321343391,2057,2073,2070,2057,2052,2060,1197
2023,1711004282331346764,2057,2051,2051,2059,2053,2053,1196
2024,1711004282341339949,2061,2049,2064,2060,2060,2064,1196
2025,1711004282351361447,2058,2065,2064,2058,2060,2052,1193
2026,1711004282361329182,2056,2051,2063,2057,2052,2056,1195
2027,1711004282371342414,2056,2056,2040,2055,2052,2050,1195
2028,1711004282381343973,2051,2044,2072,2061,2054,2057,1197
2029,1711004282391352396,2056,2059,2052,2056,2058,2049,1197
2030,1711004282401323017,2055,2070,2061,2061,2050,2058,1196
2031,1711004282411359723,2052,2052,2041,2052,2053,2048,1195
2032,1711004282421320135,2052,2047,2040,2057,2050,2053,1197
2033,1711004282431334349,2056,2075,2037,2046,2053,2051,1197
2034,1711004282441347049,2065,2067,2056,2057,2049,2050,1197
2035,1711004282451345584,2056,2053,2032,2054,2061,2054,1198
2036,1711004282461356842,2056,2056,2069,2053,2044,2054,1196
2037,1711004282471335327,2061,2062,2054,2056,2062,2057,1198
2038,1711004282481332539,2056,2034,2054,2056,2051,2053,1197
2039,1711004282491361140,2056,2041,2033,2056,2064,2056,1196
2040,1711004282501334386,2056,2055,2059,2058,2047,2057,1194
2041,1711004282511331226,2052,2043,2044,2053,2054,2047,1195
2042,1711004282521331814,2059,2074,2070,2060,2054,2057,1196
2043,1711004282531376436,2054,2048,2028,2052,2057,2056,1198
2044,1711004282541334353,2059,2049,2065,2061,2049,2057,1195
2045,1711004282551333758,2052,2081,2059,2050,2057,2053,1195
2046,1711004282561342622,2059,2062,2072,2054,2049,2052,1197
2047,1711004282571337709,2057,2051,2037,2059,2064,2053,1198
2048,1711004282581333778,2054,2040,2062,2056,2047,2053,1197
2049,1711004282591337392,2055,2050,2060,2056,2058,2056,1196
2050,1711004282601345965,2056,2038,2059,2062,2055,2056,1194
2051,1711004282611319011,2052,2081,2040,2050,2056,2052,1195
2052,1711004282621329036,2050,2053,2077,2061,2055,2056,1196
2053,1711004282631349192,2053,2052,2037,2056,2072,2054,1197
2054,1711004282641333779,2058,2055,2056,2056,2047,2056,1195
2055,1711004282651359965,2048,2039,2036,2055,2058,2052,1197
2056,1711004282661327150,2060,2052,2062,2060,2049,2056,1195
2057,1711004282671327337,2052,2054,2041,2057,2058,2052,1195
2058,1711004282681326382,2057,2052,2066,2058,2047,2056,1196
2059,1711004282691345274,2060,2046,2044,2056,2059,2056,1196
2060,1711004282701331785,2060,2073,2064,2049,2043,2056,1196
2061,1711004282711337904,2052,2049,2040,2056,2056,2053,1194
2062,1711004282721334575,2056,2059,2070,2059,2060,2053,1196
2063,1711004282731337948,2057,2058,2032,2056,2058,2051,1198
2064,1711004282741339307,2058,2043,2056,2061,2049,2056,1196
2065,1711004282751346577,2052,2050,2041,2052,2048,2045,1193
2066,1711004282761335362,2060,2068,2083,2062,2056,2062,1194
2067,1711004282771346480,2046,2021,2032,2052,2059,2050,1197
2068,1711004282781331599,2061,2047,2059,2059,2051,2056,1196
2069,1711004282791340704,2059,2056,2045,2051,2057,2051,1197
2070,1711004282801333907,2054,2053,2072,2060,2048,2056,1197
2071,1711004282811321771,2061,2069,2036,2052,2070,2048,1195
2072,1711004282821337016,2056,2081,2064,2058,2045,2054,1196
2073,1711004282831321213,2056,2056,2036,2062,2064,2056,1196
2074,1711004282841337751,2052,2056,2058,2060,2054,2056,1196
2075,1711004282852202771,2053,2041,2033,2054,2056,2052,1196
2076,1711004282861325722,2064,2050,2044,2061,2048,2059,1196
2077,1711004282871349473,2052,2054,2029,2049,2051,2046,1196
2078,1711004282881321156,2061,2079,2092,2060,2049,2059,1196
2079,1711004282891329349,2062,2067,2039,2056,2062,2052,1198
2080,1711004282901335457,2054,2030,2056,2061,2049,2054,1197
2081,1711004282911353218,2052,2028,2037,2053,2054,2048,1195
2082,1711004282921323849,2055,2052,2068,2056,2044,2055,1195
2083,1711004282931334796,2054,2048,2036,2053,2060,2056,1196
2084,1711004282941340564,2064,2064,2076,2056,2046,2053,1197
2085,1711004282951352292,2058,2057,2041,2058,2063,2050,1195
2086,1711004282961325799,2054,2056,2061,2056,2044,2062,1196
2087,1711004282971333040,2057,2056,2049,2055,2057,2049,1196
2088,1711004282981332696,2063,2078,2096,2058,2048,2056,1196
2089,1711004282991332893,2050,2047,2037,2050,2056,2048,1193
2090,1711004283001331497,2056,2049,2065,2057,2048,2057,1196
2091,1711004283011329690,2050,2042,2031,2056,2056,2047,1193
2092,1711004283021346318,2057,2054,2078,2057,2052,2062,1196
2093,1711004283031333290,2046,2036,2036,2056,2061,2052,1193
2094,1711004283041334630,2053,2066,2077,2056,2045,2053,1196
2095,1711004283051365214,2056,2044,2021,2052,2057,2054,1197
2096,1711004283061333491,2056,2056,2064,2061,2048,2054,1197
2097,1711004283071335843,2052,2047,2027,2051,2052,2043,1194
2098,1711004283081336230,2060,2052,2059,2058,2047,2053,1196
2099,1711004283091391532,2052,2050,2036,2053,2059,2050,1195
2100,1711004283101324491,2059,2069,2065,2060,2046,2058,1197
2101,1711004283111335599,2056,2034,2034,2052,2055,2048,1196
2102,1711004283121322370,2055,2032,2059,2058,2047,2050,1195
2103,1711004283131277301,2060,2045,2036,2054,2056,2051,1198
2104,1711004283141368040,2057,2064,2075,2054,2047,2056,1196
2105,1711004283151396391,2054,2056,2056,2057,2065,2052,1193
2106,1711004283161346984,2064,2068,2054,2055,2047,2056,1195
2107,1711004283171325420,2045,2042,2024,2049,2060,2047,1194
2108,1711004283181337760,2059,2080,2072,2057,2044,2054,1197
2109,1711004283191362794,2053,2066,2036,2053,2061,2054,1196
2110,1711004283201329387,2055,2053,2067,2056,2038,2048,1198
2111,1711004283211352408,2049,2025,2022,2056,2060,2051,1196
2112,1711004283221332116,2056,2040,2062,2054,2045,2057,1198
2113,1711004283231327143,2053,2056,2038,2054,2062,2047,1193
2114,1711004283241390099,2056,2069,2083,2063,2050,2057,1196
2115,1711004283251336504,2054,2056,2042,2054,2059,2056,1198
2116,1711004283261327594,2061,2056,2074,2060,2058,2057,1198
2117,1711004283271332840,2052,2041,2040,2053,2064,2053,1197
2118,1711004283281335893,2060,2047,2073,2058,2041,2052,1197
2119,1711004283291351220,2054,2050,2020,2052,2063,2053,1197
2120,1711004283301325527,2050,2041,2056,2059,2060,2056,1198
2121,1711004283311340132,2052,2024,2024,2052,2058,2049,1197
2122,1711004283321328366,2061,2057,2067,2052,2052,2052,1196
2123,1711004283331327852,2056,2096,2052,2052,2068,2056,1196
2124,1711004283341351473,2048,2050,2058,2057,2051,2062,1196
2125,1711004283351335219,2049,2069,2045,2056,2062,2053,1194
2126,1711004283361317923,2054,2051,2061,2056,2047,2054,1196
2127,1711004283371332186,2052,2032,2047,2052,2059,2052,1196
2128,1711004283381347653,2060,2059,2061,2064,2046,2056,1197
2129,1711004283391345065,2056,2060,2018,2047,2058,2051,1197
2130,1711004283401325764,2053,2033,2056,2058,2048,2056,1198
2131,1711004283411346802,2060,2046,2026,2052,2057,2051,1199
2132,1711004283421326730,2061,2052,2060,2048,2041,2052,1196
2133,1711004283431330634,2050,2065,2029,2050,2059,2044,1196
2134,1711004283441350579,2052,2048,2044,2053,2044,2055,1197
2135,1711004283451337350,2054,2051,2047,2053,2064,2053,1198
2136,1711004283461324422,2056,2061,2072,2060,2045,2055,1196
2137,1711004283471334177,2058,2108,2068,2053,2060,2052,1197
2138,1711004283481326971,2052,2048,2065,2057,2048,2052,1198
2139,1711004283491351714,2058,2056,2026,2054,2059,2052,1197
2140,1711004283501333637,2056,2068,2064,2058,2041,2063,1197
2141,1711004283511342080,2054,2057,2053,2057,2063,2053,1197
2142,1711004283521329242,2067,2060,2064,2056,2046,2056,1197
2143,1711004283531326794,2056,2057,2026,2049,2056,2049,1197
2144,1711004283541336048,2053,2049,2078,2062,2044,2052,1197
2145,1711004283551360561,2053,2063,2016,2057,2067,2052,1194
2146,1711004283561370717,2053,2047,2061,2058,2044,2059,1195
2147,1711004283571344434,2057,2057,2045,2051,2063,2053,1197
2148,1711004283581324012,2052,2052,2077,2058,2046,2058,1196
2149,1711004283591348294,2052,2048,2034,2053,2068,2049,1196
2150,1711004283601327322,2053,2049,2067,2058,2046,2054,1196
2151,1711004283611344301,2065,2112,2065,2049,2057,2049,1195
2152,1711004283621333627,2061,2081,2100,2061,2047,2058,1197
2153,1711004283631340527,2057,2052,2066,2056,2066,2049,1197
2154,1711004283641331316,2053,2053,2077,2060,2041,2057,1198
2155,1711004283651359436,2058,2056,2038,2054,2063,2050,1197
2156,1711004283661330718,2056,2068,2072,2058,2039,2050,1196
2157,1711004283671327910,2050,2043,2025,2053,2067,2049,1196
2158,1711004283681327826,2064,2051,2072,2064,2049,2062,1197
2159,1711004283691335828,2061,2056,2033,2056,2066,2052,1196
2160,1711004283701354400,2053,2052,2068,2056,2047,2056,1196
2161,1711004283711342545,2061,2065,2043,2056,2061,2055,1196
2162,1711004283721314608,2059,2056,2081,2059,2042,2057,1196
2163,1711004283731333411,2053,2052,2046,2054,2061,2051,1197
2164,1711004283741352694,2054,2045,2068,2056,2044,2055,1196
2165,1711004283751342261,2056,2064,2021,2052,2062,2053,1195
2166,1711004283761355443,2056,2066,2065,2057,2040,2057,1198
2167,1711004283771332926,2057,2049,2028,2057,2065,2052,1197
2168,1711004283781328805,2053,2052,2064,2060,2046,2059,1194
2169,1711004283791341286,2052,2057,2044,2058,2063,2051,1196
2170,1711004283801331865,2061,2053,2089,2059,2045,2057,1194
2171,1711004283811340668,2064,2051,2026,2053,2064,2050,1194
2172,1711004283821333030,2056,2040,2081,2061,2046,2061,1197
2173,1711004283831344950,2053,2047,2041,2060,2063,2053,1197
2174,1711004283841331261,2052,2064,2070,2058,2041,2053,1195
2175,1711004283851358479,2056,2040,2024,2054,2069,2055,1196
2176,1711004283861334570,2052,2048,2065,2056,2040,2056,1197
2177,1711004283871335218,2056,2054,2033,2051,2057,2048,1196
2178,1711004283881330836,2052,2080,2073,2056,2042,2054,1197
2179,1711004283891332065,2053,2049,2043,2050,2068,2051,1197
2180,1711004283901331771,2049,2057,2077,2060,2046,2054,1198
2181,1711004283911359881,2056,2056,2052,2053,2067,2053,1197
2182,1711004283921559207,2054,2061,2112,2064,2046,2058,1196
2183,1711004283931342372,2056,2050,2027,2056,2081,2047,1194
2184,1711004283941335846,2052,2053,2066,2065,2044,2058,1194
2185,1711004283951336214,2060,2061,2036,2057,2062,2052,1194
2186,1711004283961336371,2045,2021,2058,2056,2054,2053,1197
2187,1711004283971344212,2062,2064,2037,2053,2064,2049,1196
2188,1711004283981341113,2044,2046,2073,2060,2044,2058,1195
2189,1711004283991336401,2054,2049,2044,2056,2068,2052,1195
2190,1711004284001336608,2056,2056,2076,2056,2040,2054,1197
2191,1711004284011378103,2052,2049,2025,2050,2064,2049,1194
2192,1711004284021341040,2053,2052,2085,2061,2030,2058,1196
2193,1711004284031340936,2048,2076,2034,2056,2064,2052,1196
2194,1711004284041339190,2048,2040,2069,2056,2038,2055,1197
2195,1711004284051340309,2068,2080,2044,2053,2064,2050,1197
2196,1711004284061338161,2045,2040,2053,2059,2040,2061,1196
2197,1711004284071337887,2058,2058,2027,2056,2068,2052,1196
2198,1711004284081344186,2051,2038,2082,2060,2044,2056,1197
2199,1711004284091322702,2057,2050,2024,2053,2060,2044,1193
2200,1711004284101321366,2057,2077,2097,2056,2043,2050,1198
2201,1711004284111337443,2065,2083,2080,2061,2075,2057,1197
2202,1711004284121348360,2058,2050,2075,2057,2037,2056,1198
2203,1711004284131354759,2056,2056,2042,2056,2069,2053,1196
2204,1711004284141348835,2058,2071,2075,2058,2041,2056,1195
2205,1711004284151351206,2056,2065,2058,2060,2070,2057,1194
2206,1711004284161359599,2050,2040,2054,2053,2035,2052,1194
2207,1711004284171349766,2057,2053,2020,2052,2072,2048,1195
2208,1711004284181345325,2047,2028,2065,2053,2038,2052,1194
2209,1711004284191352756,2056,2037,2036,2056,2069,2052,1196
2210,1711004284201356409,2056,2054,2083,2053,2032,2058,1196
2211,1711004284211349543,2050,2055,2032,2058,2068,2048,1197
2212,1711004284221346334,2053,2052,2077,2060,2043,2062,1194
