seq,time,data[0],data[1],data[2],data[3],data[4],data[5],data[6]
201,1711442505086563875,2059,2056,2064,2057,2061,2056,1195
202,1711442505096569916,2056,2053,2053,2060,2046,2051,1195
203,1711442505106567982,2055,2056,2067,2044,2043,2050,1196
204,1711442505116568092,2053,2055,2056,2066,2062,2051,1198
205,1711442505126566258,2049,2052,2057,2056,2055,2052,1195
206,1711442505136567359,2056,2057,2061,2060,2052,2053,1196
207,1711442505146561177,2056,2057,2068,2056,2056,2053,1196
208,1711442505156561236,2056,2053,2032,2061,2051,2056,1196
209,1711442505166561186,2052,2060,2057,2054,2050,2052,1197
210,1711442505176559982,2054,2052,2059,2058,2058,2060,1197
211,1711442505186561585,2050,2051,2056,2059,2054,2056,1198
212,1711442505196566403,2059,2057,2057,2056,2054,2055,1197
213,1711442505206560121,2053,2052,2054,2054,2058,2058,1197
214,1711442505216560531,2057,2049,2038,2061,2056,2060,1194
215,1711442505226560781,2056,2056,2060,2062,2067,2063,1194
216,1711442505236560941,2053,2053,2066,2064,2064,2059,1195
217,1711442505246560119,2056,2058,2054,2055,2042,2053,1195
218,1711442505256562222,2054,2054,2056,2059,2081,2061,1197
219,1711442505266560158,2050,2051,2050,2056,2064,2044,1194
220,1711442505276560898,2054,2052,2056,2053,2052,2052,1199
221,1711442505286563873,2056,2052,2048,2056,2042,2051,1195
222,1711442505296560777,2056,2051,2044,2062,2058,2057,1196
223,1711442505306569673,2052,2054,2057,2046,2045,2051,1197
224,1711442505316562870,2054,2053,2054,2060,2056,2060,1197
225,1711442505326574431,2056,2056,2054,2056,2059,2060,1194
226,1711442505336568329,2058,2054,2057,2057,2040,2061,1194
227,1711442505346568950,2054,2056,2058,2039,2043,2045,1192
228,1711442505356567977,2060,2056,2065,2069,2052,2054,1196
229,1711442505366592393,2053,2056,2053,2056,2056,2055,1197
230,1711442505376565140,2053,2051,2054,2060,2054,2056,1196
231,1711442505386574988,2055,2054,2057,2056,2052,2054,1195
232,1711442505396564889,2056,2058,2053,2065,2058,2057,1198
233,1711442505406561752,2056,2052,2057,2057,2052,2052,1197
234,1711442505416568915,2055,2054,2064,2061,2057,2057,1200
235,1711442505426564025,2057,2061,2085,2062,2056,2058,1197
236,1711442505436568023,2053,2050,2052,2053,2050,2051,1197
237,1711442505446560798,2053,2051,2052,2047,2050,2052,1197
238,1711442505456568542,2056,2053,2053,2060,2057,2055,1198
239,1711442505466584782,2056,2058,2061,2054,2049,2050,1196
240,1711442505476554335,2056,2052,2036,2061,2057,2056,1198
241,1711442505486561608,2053,2055,2063,2053,2055,2050,1194
242,1711442505496565023,2056,2052,2026,2056,2052,2052,1196
243,1711442505506560755,2058,2062,2084,2063,2053,2053,1196
244,1711442505516577406,2055,2048,2027,2051,2056,2055,1196
245,1711442505526569881,2055,2056,2052,2048,2046,2050,1197
246,1711442505536569329,2058,2052,2048,2053,2055,2056,1197
247,1711442505546567866,2054,2053,2049,2042,2040,2048,1197
248,1711442505556597452,2058,2050,2047,2061,2058,2056,1197
249,1711442505566575309,2056,2067,2056,2056,2050,2052,1196
250,1711442505576555721,2053,2053,2051,2056,2051,2054,1195
251,1711442505586566992,2050,2056,2048,2051,2049,2049,1197
252,1711442505596571299,2060,2053,2057,2058,2056,2056,1199
253,1711442505606568363,2063,2065,2093,2064,2056,2054,1197
254,1711442505616564876,2057,2054,2060,2060,2061,2054,1197
255,1711442505626583912,2055,2053,2053,2065,2061,2054,1198
256,1711442505636570275,2056,2055,2056,2062,2052,2053,1196
257,1711442505646570415,2056,2052,2045,2054,2047,2047,1193
258,1711442505656592035,2054,2055,2068,2069,2047,2053,1196
259,1711442505666573369,2054,2054,2046,2056,2053,2053,1199
260,1711442505676577326,2053,2052,2055,2056,2056,2055,1197
261,1711442505686569160,2059,2052,2052,2060,2064,2054,1195
262,1711442505696568378,2056,2058,2091,2052,2039,2048,1195
263,1711442505706566274,2055,2052,2047,2052,2049,2054,1196
264,1711442505716559660,2058,2059,2060,2060,2056,2056,1196
265,1711442505726565761,2050,2059,2069,2057,2054,2050,1196
266,1711442505736574037,2056,2056,2036,2050,2056,2053,1195
267,1711442505746567554,2053,2052,2049,2057,2062,2050,1197
268,1711442505756605144,2056,2056,2048,2053,2041,2050,1196
269,1711442505766569206,2053,2051,2057,2055,2061,2054,1198
270,1711442505776580136,2056,2056,2046,2057,2051,2053,1195
271,1711442505786562732,2056,2058,2041,2057,2057,2052,1196
272,1711442505796561159,2058,2056,2052,2052,2044,2050,1197
273,1711442505806564154,2058,2052,2040,2048,2058,2053,1195
274,1711442505816563191,2054,2052,2054,2056,2052,2054,1197
275,1711442505826573199,2054,2054,2038,2045,2040,2042,1193
276,1711442505836563721,2055,2053,2044,2059,2064,2056,1195
277,1711442505846565824,2056,2057,2056,2058,2057,2056,1197
278,1711442505856580431,2056,2053,2052,2057,2053,2050,1196
279,1711442505866564411,2056,2054,2064,2045,2053,2052,1195
280,1711442505876571614,2060,2053,2054,2057,2052,2056,1198
281,1711442505886574158,2056,2050,2033,2054,2056,2053,1194
282,1711442505896569288,2057,2056,2046,2057,2055,2054,1195
283,1711442505906578224,2052,2050,2044,2059,2052,2050,1196
284,1711442505916575870,2057,2055,2056,2056,2050,2053,1196
285,1711442505926583944,2056,2053,2056,2052,2048,2052,1197
286,1711442505936578774,2058,2058,2058,2054,2056,2059,1196
287,1711442505946579895,2048,2053,2053,2047,2044,2050,1196
288,1711442505956592559,2051,2056,2046,2061,2050,2049,1196
289,1711442505966574063,2056,2057,2072,2058,2058,2052,1197
290,1711442505976571919,2056,2053,2045,2053,2049,2053,1195
291,1711442505986579783,2054,2057,2050,2060,2054,2053,1196
292,1711442505996581355,2056,2056,2052,2063,2063,2056,1197
293,1711442506006589500,2054,2052,2052,2050,2059,2056,1198
294,1711442506016575713,2057,2058,2056,2060,2052,2054,1193
295,1711442506026580733,2053,2049,2047,2055,2056,2050,1195
296,1711442506036583107,2061,2056,2058,2057,2052,2055,1197
297,1711442506046582225,2052,2052,2031,2061,2058,2056,1197
298,1711442506056590440,2053,2050,2045,2059,2057,2058,1198
299,1711442506066597112,2052,2051,2052,2056,2051,2044,1194
300,1711442506076579048,2057,2056,2052,2056,2048,2053,1196
301,1711442506086583025,2051,2054,2056,2054,2053,2053,1194
302,1711442506096581181,2053,2052,2051,2056,2050,2044,1193
303,1711442506106596120,2058,2064,2094,2058,2057,2060,1197
304,1711442506116578917,2057,2054,2053,2058,2056,2052,1194
305,1711442506126573957,2052,2055,2056,2053,2046,2053,1199
306,1711442506136590989,2057,2058,2057,2064,2064,2061,1196
307,1711442506146591088,2049,2050,2053,2051,2049,2050,1197
308,1711442506156600376,2058,2056,2058,2065,2072,2057,1196
309,1711442506166581830,2055,2053,2056,2053,2056,2056,1197
310,1711442506176587251,2058,2057,2056,2065,2073,2058,1197
311,1711442506186587440,2054,2051,2052,2050,2064,2048,1197
312,1711442506196598100,2056,2054,2057,2068,2062,2057,1198
313,1711442506206589093,2052,2051,2052,2042,2040,2044,1194
314,1711442506216590004,2056,2057,2056,2057,2053,2056,1196
315,1711442506226569796,2054,2055,2056,2059,2059,2059,1197
316,1711442506236590594,2058,2056,2055,2065,2064,2053,1196
317,1711442506246591215,2057,2056,2057,2058,2056,2053,1195
318,1711442506256615712,2057,2056,2032,2059,2051,2049,1197
319,1711442506266584562,2053,2044,2023,2049,2056,2054,1198
320,1711442506276584842,2053,2052,2052,2045,2040,2049,1197
321,1711442506286574923,2060,2060,2078,2059,2075,2058,1194
322,1711442506296575705,2055,2050,2036,2059,2049,2050,1197
323,1711442506306582848,2055,2047,2026,2045,2045,2052,1196
324,1711442506316588879,2057,2057,2036,2066,2062,2058,1195
325,1711442506326596072,2060,2051,2020,2068,2062,2056,1193
326,1711442506336627942,2057,2052,2064,2053,2048,2047,1193
327,1711442506346574591,2053,2051,2054,2042,2038,2050,1194
328,1711442506356620828,2056,2050,2047,2053,2060,2057,1198
329,1711442506366597724,2056,2064,2069,2062,2064,2056,1196
330,1711442506376587925,2058,2056,2048,2057,2064,2058,1196
331,1711442506386576113,2060,2057,2055,2052,2047,2050,1197
332,1711442506396577846,2051,2052,2044,2064,2063,2061,1198
333,1711442506406579107,2058,2069,2134,2059,2049,2056,1196
334,1711442506416578547,2053,2052,2064,2053,2052,2048,1196
335,1711442506426580059,2056,2050,2035,2065,2065,2056,1193
336,1711442506436576282,2054,2053,2054,2054,2041,2047,1196
337,1711442506446576772,2054,2047,2050,2045,2042,2047,1195
338,1711442506456611787,2057,2056,2066,2065,2059,2056,1197
339,1711442506466583294,2054,2047,2002,2052,2045,2046,1194
340,1711442506476577482,2059,2056,2056,2055,2055,2049,1197
341,1711442506486575158,2056,2056,2068,2056,2058,2056,1196
342,1711442506496577742,2054,2056,2050,2054,2052,2057,1194
343,1711442506506575096,2051,2051,2058,2053,2053,2052,1195
344,1711442506516581078,2059,2064,2080,2065,2061,2056,1195
345,1711442506526584854,2053,2051,2034,2061,2058,2054,1197
346,1711442506536574955,2056,2053,2049,2059,2074,2056,1198
347,1711442506546587609,2054,2055,2052,2056,2040,2050,1195
348,1711442506556618597,2062,2070,2092,2068,2065,2058,1196
349,1711442506566572640,2052,2049,2047,2049,2045,2052,1196
350,1711442506576575175,2056,2048,2040,2056,2053,2049,1196
351,1711442506586576597,2058,2053,2084,2059,2059,2060,1196
352,1711442506596579001,2054,2058,2068,2052,2052,2057,1197
353,1711442506606577678,2057,2058,2065,2064,2047,2059,1197
354,1711442506616611953,2058,2062,2083,2057,2054,2057,1194
355,1711442506626586845,2054,2049,2054,2046,2041,2046,1194
356,1711442506636576876,2056,2052,2053,2034,2037,2053,1197
357,1711442506646581554,2056,2052,2049,1998,2052,2052,1197
358,1711442506656624636,2055,2052,2041,2059,2050,2056,1197
359,1711442506666586132,2055,2053,2046,2062,2056,2057,1196
360,1711442506676564892,2060,2059,2046,2066,2056,2056,1199
361,1711442506686571915,2052,2052,2052,2056,2056,2052,1194
362,1711442506696567486,2056,2054,2047,2063,2057,2057,1197
363,1711442506706529294,2057,2064,2085,2061,2047,2047,1195
364,1711442506716568197,2056,2056,2051,2050,2048,2056,1197
365,1711442506726553138,2056,2060,2073,2061,2057,2054,1198
366,1711442506736561624,2060,2064,2076,2062,2077,2060,1195
367,1711442506746556985,2054,2053,2068,2096,2052,2054,1197
368,1711442506756585518,2056,2053,2050,2077,2044,2053,1197
369,1711442506766586389,2053,2053,2054,2064,2046,2053,1196
370,1711442506776574116,2056,2055,2049,2060,2064,2059,1197
371,1711442506786564267,2053,2060,2078,2069,2074,2058,1196
372,1711442506796563395,2056,2055,2046,2043,2042,2052,1198
373,1711442506806565338,2058,2053,2062,2060,2058,2056,1196
374,1711442506816560830,2054,2051,2047,2046,2041,2045,1192
375,1711442506826566019,2053,2051,2052,2048,2041,2050,1195
376,1711442506836567201,2052,2053,2056,2057,2052,2055,1196
377,1711442506846564586,2059,2056,2049,2061,2057,2056,1196
378,1711442506856589072,2056,2051,2047,2057,2059,2057,1196
379,1711442506866580956,2054,2054,2064,2056,2056,2056,1196
380,1711442506876554666,2054,2054,2051,2064,2059,2056,1195
381,1711442506886560748,2059,2056,2050,2052,2050,2050,1194
382,1711442506896557681,2057,2054,2049,2064,2058,2053,1195
383,1711442506906561067,2054,2056,2044,2057,2061,2056,1195
384,1711442506916569593,2061,2070,2122,2064,2053,2054,1196
385,1711442506926566517,2053,2056,2062,2061,2052,2052,1197
386,1711442506936598608,2057,2058,2047,2072,2062,2054,1196
387,1711442506946567238,2050,2050,2053,2062,2068,2058,1195
388,1711442506956579180,2057,2061,2071,2055,2052,2054,1196
389,1711442506966606251,2055,2051,2037,2053,2050,2052,1197
390,1711442506976580301,2053,2050,2037,2052,2049,2053,1197
391,1711442506986558680,2056,2058,2052,2066,2068,2057,1196
392,1711442506996556586,2058,2053,2051,2044,2045,2050,1199
393,1711442507006556715,2060,2062,2078,2075,2056,2057,1196
394,1711442507016561235,2060,2058,2041,2057,2049,2056,1197
395,1711442507026568939,2052,2048,2052,2049,2037,2048,1195
396,1711442507036559070,2058,2063,2092,2051,2056,2057,1195
397,1711442507046563558,2054,2052,2053,2057,2058,2060,1197
398,1711442507056587644,2055,2056,2058,2052,2045,2052,1196
399,1711442507066588786,2053,2050,2046,2057,2054,2052,1197
400,1711442507076563609,2060,2056,2041,2073,2068,2060,1197
401,1711442507086566604,2051,2050,2018,2055,2052,2050,1196
402,1711442507096564290,2057,2050,2032,1990,2049,2053,1196
403,1711442507106564500,2054,2054,2048,2059,2050,2056,1197
404,1711442507116566553,2062,2056,2056,2060,2060,2056,1196
405,1711442507126562747,2056,2059,2068,2062,2059,2052,1197
406,1711442507136566514,2057,2057,2074,2060,2054,2050,1199
407,1711442507146563027,2058,2070,2096,2065,2058,2056,1196
408,1711442507156551475,2055,2053,2057,2055,2056,2056,1194
409,1711442507166570301,2055,2052,2042,2052,2056,2053,1197
410,1711442507176565191,2056,2054,2046,2064,2058,2056,1197
411,1711442507186574228,2056,2052,2052,2062,2057,2056,1196
412,1711442507196562896,2053,2048,2052,2061,2057,2056,1200
413,1711442507206564980,2060,2076,2116,2100,2056,2061,1196
414,1711442507216577073,2068,2072,2104,2077,2059,2059,1199
415,1711442507226571493,2052,2049,2043,2046,2034,2047,1196
416,1711442507236564459,2056,2053,2056,2058,2058,2056,1199
417,1711442507246562485,2054,2056,2076,2046,2052,2057,1196
418,1711442507256561032,2058,2060,2076,2060,2053,2056,1197
419,1711442507266581221,2057,2056,2046,2055,2056,2056,1197
420,1711442507276573627,2054,2052,2045,2073,2061,2055,1196
421,1711442507286580630,2056,2054,2052,2055,2060,2056,1195
422,1711442507296566242,2056,2054,2053,2066,2091,2060,1195
423,1711442507306565871,2053,2048,2038,2052,2050,2052,1197
424,1711442507316584737,2053,2055,2074,2042,2056,2047,1193
425,1711442507326584887,2053,2060,2056,2059,2058,2053,1197
426,1711442507336554821,2053,2053,2057,2075,2072,2061,1197
427,1711442507346551895,2056,2051,2050,2105,2059,2048,1196
428,1711442507356564258,2056,2049,2046,2058,2061,2052,1195
429,1711442507366642596,2052,2051,2046,2049,2048,2053,1196
430,1711442507376568366,2059,2056,2060,2060,2058,2058,1195
431,1711442507386569107,2056,2053,2058,2050,2048,2053,1196
432,1711442507396558657,2056,2060,2081,2052,2058,2058,1198
433,1711442507406565570,2056,2050,2039,2044,2039,2053,1198
434,1711442507416567734,2057,2058,2081,2056,2048,2048,1198
435,1711442507426570199,2060,2066,2083,2061,2046,2057,1198
436,1711442507436566572,2053,2049,2048,2056,2060,2055,1196
437,1711442507446562695,2058,2054,2058,2057,2056,2054,1195
438,1711442507456592611,2054,2057,2072,2058,2056,2056,1197
439,1711442507466584836,2054,2056,2056,2067,2051,2056,1197
440,1711442507476553176,2056,2064,2084,2074,2057,2056,1197
441,1711442507486562835,2053,2047,2043,2060,2052,2051,1196
442,1711442507496513080,2057,2052,2050,2054,2056,2053,1196
443,1711442507506563536,2052,2054,2052,2054,2033,2043,1193
444,1711442507516565159,2058,2056,2050,2061,2064,2058,1196
445,1711442507526571561,2060,2069,2085,2062,2053,2060,1197
446,1711442507536569978,2060,2062,2088,2058,2058,2058,1196
447,1711442507546554749,2053,2050,2041,2043,2052,2056,1196
448,1711442507556569897,2057,2056,2050,2057,2036,2039,1194
449,1711442507566572462,2055,2058,2058,2059,2056,2047,1194
450,1711442507576566831,2054,2049,2041,2057,2061,2060,1194
451,1711442507586569447,2059,2062,2085,2108,2059,2056,1198
452,1711442507596564658,2056,2049,2042,2080,2064,2061,1197
453,1711442507606566190,2049,2047,2042,2056,2053,2053,1197
454,1711442507616566861,2056,2057,2057,2054,2057,2056,1194
455,1711442507626571020,2053,2053,2061,2054,2050,2050,1194
456,1711442507636578574,2059,2060,2079,2054,2059,2053,1197
457,1711442507646563926,2052,2048,2020,2050,2042,2049,1196
458,1711442507656585527,2056,2053,2038,2076,2057,2054,1196
459,1711442507666585697,2056,2063,2073,2062,2057,2056,1196
460,1711442507676556832,2058,2058,2058,2064,2061,2057,1196
461,1711442507686573063,2052,2050,2050,2060,2052,2053,1192
462,1711442507696562783,2056,2049,2045,2050,2048,2054,1195
463,1711442507706565849,2053,2053,2047,2053,2044,2050,1195
464,1711442507716568203,2056,2056,2052,2050,2032,2047,1193
465,1711442507726567281,2052,2052,2054,2042,2040,2041,1193
466,1711442507736572251,2057,2060,2066,2060,2056,2059,1197
467,1711442507746562493,2053,2056,2054,2059,2053,2054,1197
468,1711442507756582150,2064,2057,2051,2064,2059,2059,1197
469,1711442507766572571,2052,2049,2049,2056,2048,2053,1196
470,1711442507776564566,2057,2056,2060,2032,2051,2056,1196
471,1711442507786562893,2052,2056,2060,2066,2048,2056,1197
472,1711442507796563344,2052,2051,2056,2064,2056,2056,1197
473,1711442507806563805,2056,2048,2040,2061,2057,2053,1196
474,1711442507816569345,2054,2050,2038,2041,2028,2043,1193
475,1711442507826558193,2056,2054,2056,2056,2056,2056,1196
476,1711442507836576418,2052,2052,2060,2054,2052,2049,1195
477,1711442507846565978,2052,2056,2064,2057,2044,2053,1197
478,1711442507856567762,2056,2053,2047,2061,2063,2055,1195
479,1711442507866575226,2056,2060,2090,2060,2054,2056,1195
480,1711442507876582930,2055,2050,2040,2041,2043,2050,1197
481,1711442507886575757,2054,2053,2051,2064,2049,2054,1193
482,1711442507896575777,2056,2056,2059,2062,2052,2049,1196
483,1711442507906576368,2056,2053,2074,2080,2038,2045,1195
484,1711442507916579514,2056,2053,2054,2068,2059,2050,1197
485,1711442507926602136,2055,2053,2047,2054,2052,2052,1195
486,1711442507936585905,2056,2053,2050,2052,2053,2052,1196
487,1711442507946578151,2054,2050,2047,2053,2048,2052,1196
488,1711442507956613258,2054,2050,2052,2056,2053,2053,1196
489,1711442507966568282,2056,2053,2053,2062,2056,2056,1196
490,1711442507976569374,2056,2058,2057,2072,2065,2054,1197
491,1711442507986592097,2053,2056,2060,2050,2049,2051,1197
492,1711442507996570226,2055,2052,2056,2060,2061,2059,1197
493,1711442508006571408,2054,2050,2056,2051,2065,2052,1195
494,1711442508016581507,2061,2055,2044,2057,2049,2052,1195
495,1711442508026571789,2053,2051,2044,2056,2056,2055,1195
496,1711442508036576658,2054,2056,2064,2055,2053,2054,1195
497,1711442508046570156,2056,2060,2043,2058,2050,2054,1195
498,1711442508056594703,2054,2056,2057,2050,2042,2051,1197
499,1711442508066571549,2056,2057,2074,2062,2052,2056,1196
500,1711442508076587580,2058,2056,2060,2060,2060,2056,1196
501,1711442508086573754,2054,2050,2012,2053,2051,2054,1195
502,1711442508096539369,2056,2051,2053,2054,2057,2053,1196
503,1711442508106574566,2052,2056,2061,2060,2053,2051,1196
504,1711442508116575328,2058,2055,2074,2063,2061,2057,1196
505,1711442508126572512,2052,2047,2029,2056,2056,2056,1194
506,1711442508136575949,2052,2052,2052,2040,2043,2052,1196
507,1711442508146585487,2057,2056,2053,2047,2048,2053,1195
508,1711442508156582872,2057,2056,2052,2047,2048,2054,1196
509,1711442508166579166,2056,2057,2068,2066,2063,2056,1194
510,1711442508176575328,2056,2054,2056,2058,2061,2058,1196
511,1711442508186554950,2052,2048,2044,2052,2052,2051,1196
512,1711442508196558978,2054,2051,2044,2065,2052,2047,1196
513,1711442508206577433,2050,2047,2050,2059,2056,2056,1197
514,1711442508216579447,2059,2066,2114,2067,2065,2058,1195
515,1711442508226583365,2050,2053,2049,2057,2060,2056,1197
516,1711442508236561915,2056,2058,2057,2067,2062,2057,1198
517,1711442508246552036,2056,2056,2080,2074,2079,2057,1195
518,1711442508256597403,2056,2056,2049,2044,2061,2058,1196
519,1711442508266548139,2056,2052,2051,1988,2049,2049,1195
520,1711442508276552677,2057,2056,2062,2054,2060,2053,1195
521,1711442508286555523,2052,2052,2049,2056,2050,2050,1195
522,1711442508296555183,2052,2052,2051,2052,2058,2056,1196
523,1711442508306553991,2056,2059,2089,2065,2056,2057,1197
524,1711442508316566324,2056,2052,2050,2054,2052,2055,1196
525,1711442508326583397,2058,2058,2076,2045,2036,2046,1195
526,1711442508336557238,2055,2052,2050,2058,2058,2051,1197
527,1711442508346575512,2054,2050,2040,2053,2047,2052,1198
528,1711442508356591643,2058,2056,2035,2052,2052,2051,1195
529,1711442508366567287,2059,2056,2058,2063,2059,2058,1197
530,1711442508376554824,2054,2056,2063,2046,2035,2050,1197
531,1711442508386568159,2052,2052,2045,2054,2046,2050,1197
532,1711442508396562419,2054,2048,2032,2049,2051,2052,1198
533,1711442508406567178,2053,2052,2053,2064,2060,2056,1197
534,1711442508416568370,2056,2050,2047,2048,2056,2056,1194
535,1711442508426560155,2056,2053,2045,2054,2053,2053,1195
536,1711442508436564663,2057,2055,2044,2063,2053,2056,1198
537,1711442508446574683,2054,2053,2056,2049,2052,2050,1197
538,1711442508456571527,2056,2053,2052,2056,2053,2050,1196
539,1711442508466565456,2056,2055,2043,2056,2047,2045,1193
540,1711442508476566408,2060,2056,2050,2045,2053,2051,1195
541,1711442508486561719,2057,2054,2058,2056,2052,2055,1196
542,1711442508496566158,2058,2066,2109,2057,2053,2052,1195
543,1711442508506561218,2052,2051,2047,2047,2040,2049,1196
544,1711442508516594632,2057,2064,2078,2059,2052,2053,1196
545,1711442508526575255,2052,2048,2048,2056,2056,2057,1196
546,1711442508536568212,2054,2053,2045,2043,2036,2042,1194
547,1711442508546568042,2056,2052,2063,2055,2060,2059,1196
548,1711442508556569475,2058,2060,2070,2058,2066,2056,1193
549,1711442508566566580,2056,2052,2056,2057,2057,2056,1196
550,1711442508576574264,2052,2051,2056,2058,2050,2054,1196
551,1711442508586563956,2056,2052,2041,2070,2065,2057,1196
552,1711442508596560038,2057,2056,2085,2059,2052,2056,1197
553,1711442508606562162,2055,2053,2044,2053,2052,2052,1196
554,1711442508616577963,2056,2060,2077,2057,2052,2052,1196
555,1711442508626578012,2057,2068,2100,2058,2057,2057,1195
556,1711442508636578634,2052,2050,2042,2049,2044,2047,1193
557,1711442508646559267,2056,2052,2049,2063,2053,2052,1194
558,1711442508656606558,2056,2052,2043,2050,2056,2054,1196
559,1711442508666571621,2061,2061,2064,2065,2049,2049,1196
560,1711442508676598963,2056,2049,2033,2051,2050,2052,1196
561,1711442508686569979,2053,2053,2052,2068,2062,2058,1194
562,1711442508696567925,2052,2050,2044,2053,2056,2053,1197
563,1711442508706564038,2056,2055,2056,2054,2053,2057,1194
564,1711442508716566362,2056,2053,2048,2056,2064,2057,1197
565,1711442508726567956,2061,2059,2072,2066,2059,2055,1197
566,1711442508736559680,2056,2053,2045,2058,2052,2053,1198
567,1711442508746568728,2055,2059,2094,2057,2052,2056,1198
568,1711442508756558549,2058,2051,2033,2068,2065,2059,1197
569,1711442508766578646,2059,2060,2085,2062,2050,2046,1194
570,1711442508776578487,2056,2056,2072,2056,2059,2057,1196
571,1711442508786558088,2052,2056,2053,2057,2048,2049,1197
572,1711442508796555915,2056,2052,2042,2052,2049,2053,1197
573,1711442508806562677,2058,2060,2070,2056,2054,2056,1196
574,1711442508816564621,2058,2056,2058,2058,2054,2054,1197
575,1711442508826573558,2056,2059,2073,2064,2064,2061,1196
576,1711442508836560764,2058,2052,2048,2051,2050,2049,1195
577,1711442508846568640,2057,2058,2054,2057,2048,2050,1198
578,1711442508856568078,2056,2048,2036,2052,2053,2053,1196
579,1711442508866574782,2060,2067,2079,2064,2058,2057,1198
580,1711442508876568109,2056,2049,2043,2048,2049,2047,1194
581,1711442508886580363,2053,2052,2042,2056,2052,2052,1196
582,1711442508896567809,2058,2056,2060,2057,2059,2056,1199
583,1711442508906566266,2055,2052,2058,2056,2054,2056,1197
584,1711442508916567649,2052,2052,2056,2058,2056,2052,1197
585,1711442508926572508,2056,2051,2040,2053,2062,2060,1196
586,1711442508936585343,2057,2052,2047,2055,2060,2058,1198
587,1711442508946574583,2054,2050,2037,2056,2056,2052,1197
588,1711442508956566497,2058,2060,2074,2062,2061,2056,1196
589,1711442508966576517,2053,2053,2053,2061,2059,2050,1194
590,1711442508976565285,2059,2064,2072,2060,2060,2062,1196
591,1711442508986565476,2057,2049,2041,2056,2053,2055,1196
592,1711442508996563933,2056,2056,2076,2056,2060,2056,1198
593,1711442509006562151,2056,2052,2050,2051,2045,2049,1198
594,1711442509016576658,2056,2056,2073,2058,2059,2056,1197
595,1711442509026587620,2057,2056,2068,2056,2046,2049,1196
596,1711442509036566029,2051,2050,2047,2051,2054,2054,1197
597,1711442509046560138,2052,2047,2027,2053,2052,2051,1196
598,1711442509056559969,2057,2053,2040,2058,2054,2056,1194
599,1711442509066556934,2057,2052,2041,2056,2056,2056,1196
600,1711442509076574186,2057,2056,2068,2057,2050,2053,1196
601,1711442509086560771,2057,2054,2051,2061,2059,2056,1195
602,1711442509096565712,2050,2050,2047,2057,2058,2056,1198
603,1711442509106561063,2057,2057,2079,2060,2056,2052,1196
604,1711442509116561494,2056,2061,2078,2054,2059,2060,1197
605,1711442509126596041,2056,2056,2056,2065,2056,2058,1195
606,1711442509136572005,2056,2053,2054,2055,2056,2051,1198
607,1711442509146558219,2055,2059,2078,2058,2056,2053,1196
608,1711442509156566035,2055,2050,2056,2051,2061,2056,1195
609,1711442509166569822,2053,2047,2047,2054,2049,2053,1197
610,1711442509176575944,2054,2052,2058,2057,2059,2052,1197
611,1711442509186571266,2056,2055,2056,2064,2061,2056,1198
612,1711442509196567800,2057,2053,2047,2064,2066,2056,1198
613,1711442509206562851,2052,2049,2047,2056,2063,2059,1197
614,1711442509216576297,2057,2049,2032,2057,2056,2060,1196
615,1711442509226574103,2056,2049,2020,2066,2065,2058,1195
616,1711442509236569094,2058,2056,2059,2059,2056,2052,1199
617,1711442509246575998,2056,2054,2045,2056,2053,2056,1196
618,1711442509256574415,2058,2056,2061,2050,2059,2057,1198
619,1711442509266565920,2051,2047,2035,2045,2039,2049,1195
620,1711442509276588724,2060,2056,2044,2053,2052,2048,1197
621,1711442509286561492,2053,2053,2066,2056,2058,2056,1192
622,1711442509296571221,2057,2058,2057,2060,2058,2056,1196
623,1711442509306566302,2061,2057,2058,2061,2057,2048,1195
624,1711442509316566032,2055,2056,2053,2045,2052,2051,1195
625,1711442509326573777,2055,2053,2047,2058,2052,2054,1197
626,1711442509336561675,2057,2053,2037,2052,2056,2056,1197
627,1711442509346561164,2057,2059,2036,2067,2057,2058,1196
628,1711442509356560604,2056,2056,2053,2056,2056,2054,1195
629,1711442509366563650,2056,2051,2052,2056,2053,2056,1197
630,1711442509376587786,2054,2051,2037,2056,2054,2051,1195
631,1711442509386573900,2056,2053,2050,2061,2056,2052,1196
632,1711442509396571666,2054,2053,2045,2054,2056,2054,1198
633,1711442509406570054,2050,2050,2047,2059,2061,2060,1196
634,1711442509416588429,2056,2050,2044,2052,2056,2054,1196
635,1711442509426576958,2054,2052,2062,2045,2040,2052,1198
636,1711442509436571047,2053,2054,2060,2052,2047,2046,1194
637,1711442509446571569,2056,2052,2050,2072,2064,2061,1196
638,1711442509456575055,2054,2050,2043,2047,2052,2052,1199
639,1711442509466571690,2058,2056,2057,2062,2058,2059,1198
640,1711442509476572031,2057,2056,2056,2057,2060,2058,1196
641,1711442509486580266,2049,2050,2050,2052,2046,2050,1194
642,1711442509496573555,2058,2058,2059,2062,2055,2057,1197
643,1711442509506573585,2052,2052,2047,2055,2054,2056,1196
644,1711442509516587271,2056,2055,2047,2049,2056,2056,1197
645,1711442509526581140,2054,2049,2052,2052,2050,2054,1196
646,1711442509536567125,2053,2052,2061,2052,2052,2046,1192
647,1711442509546575580,2053,2054,2044,2056,2056,2056,1196
648,1711442509556574479,2057,2059,2066,2052,2053,2052,1194
649,1711442509566577506,2055,2052,2050,2054,2056,2053,1196
650,1711442509576571815,2053,2053,2054,2057,2058,2054,1197
651,1711442509586570733,2052,2050,2031,2056,2054,2049,1197
652,1711442509596577136,2053,2048,2036,2059,2056,2052,1200
653,1711442509606584710,2054,2049,2029,2060,2060,2059,1197
654,1711442509616578219,2053,2056,2058,2056,2054,2051,1195
655,1711442509626582107,2054,2052,2044,2056,2047,2051,1197
656,1711442509636581235,2060,2065,2093,2058,2058,2053,1198
657,1711442509646572500,2056,2057,2076,2053,2050,2053,1196
658,1711442509656571749,2057,2056,2070,2052,2053,2052,1195
659,1711442509666580786,2053,2052,2047,2056,2055,2058,1196
660,1711442509676583221,2054,2056,2053,2047,2056,2056,1197
661,1711442509686582471,2052,2049,2054,2056,2061,2055,1194
662,1711442509696581468,2054,2057,2066,2065,2059,2050,1196
663,1711442509706567072,2054,2050,2045,2057,2050,2054,1196
664,1711442509716569097,2056,2050,2042,2054,2052,2056,1196
665,1711442509726567033,2055,2053,2053,2051,2040,2056,1197
666,1711442509736573295,2055,2056,2046,2053,2053,2054,1196
667,1711442509746583455,2056,2053,2046,2051,2052,2059,1196
668,1711442509756565711,2052,2054,2054,2050,2053,2053,1198
669,1711442509766570842,2052,2050,2050,2056,2056,2054,1196
670,1711442509776593656,2056,2058,2073,2057,2052,2053,1195
671,1711442509786584148,2056,2057,2028,2057,2046,2056,1197
672,1711442509796564531,2053,2050,2053,2049,2060,2054,1197
673,1711442509806566326,2056,2051,2050,2056,2048,2053,1194
674,1711442509816602664,2054,2057,2057,2048,2051,2049,1196
675,1711442509826576876,2054,2052,2047,2051,2041,2050,1197
676,1711442509836562760,2054,2053,2056,2046,2052,2056,1196
677,1711442509846570795,2053,2050,2041,2050,2049,2047,1194
678,1711442509856568031,2056,2052,2049,2050,2053,2050,1197
679,1711442509866570567,2052,2053,2053,2054,2054,2057,1198
680,1711442509876576507,2053,2053,2056,2061,2064,2056,1198
681,1711442509886584053,2057,2066,2105,2052,2050,2056,1197
682,1711442509896562913,2056,2050,2041,2055,2052,2052,1196
683,1711442509906563454,2055,2059,2064,2052,2054,2057,1196
684,1711442509916563475,2052,2052,2057,2060,2051,2052,1197
685,1711442509926573705,2061,2057,2056,2056,2057,2059,1198
686,1711442509936599454,2052,2047,2029,2054,2053,2052,1196
687,1711442509946568526,2057,2064,2093,2064,2056,2056,1197
688,1711442509956568076,2056,2056,2055,2057,2057,2052,1195
689,1711442509966577754,2056,2056,2051,2057,2055,2054,1198
690,1711442509976565051,2055,2056,2043,2045,2050,2055,1197
691,1711442509986575501,2060,2056,2046,2050,2053,2052,1196
692,1711442509996565041,2057,2057,2064,2049,2050,2049,1199
693,1711442510006566004,2056,2049,2038,2050,2049,2054,1196
694,1711442510016562418,2054,2053,2053,2050,2048,2053,1196
695,1711442510026570855,2054,2053,2052,2057,2057,2057,1196
696,1711442510036580965,2053,2052,2047,2051,2045,2042,1193
697,1711442510046567309,2053,2053,2047,2057,2050,2048,1197
698,1711442510056562881,2056,2055,2043,2054,2055,2056,1196
699,1711442510066562481,2057,2054,2057,2056,2052,2054,1195
700,1711442510076571289,2053,2052,2045,2056,2060,2054,1197
701,1711442510086571059,2056,2053,2042,2051,2045,2050,1196
702,1711442510096596448,2056,2056,2051,2053,2060,2060,1195
703,1711442510106565039,2056,2054,2048,2056,2052,2053,1195
704,1711442510116565301,2060,2061,2068,2059,2057,2056,1198
705,1711442510126600969,2052,2045,2041,2061,2061,2057,1196
706,1711442510136583026,2056,2058,2088,2053,2052,2057,1196
707,1711442510146561866,2062,2073,2120,2069,2060,2060,1196
708,1711442510156570042,2058,2051,2062,2057,2057,2057,1197
709,1711442510166564793,2058,2060,2078,2065,2057,2056,1196
710,1711442510176578550,2056,2054,2076,2044,2039,2044,1193
711,1711442510186572088,2053,2052,2047,2053,2050,2054,1197
712,1711442510196566168,2062,2070,2096,2056,2056,2056,1197
713,1711442510206562943,2056,2054,2043,2051,2050,2054,1197
714,1711442510216565448,2052,2054,2055,2048,2050,2049,1197
715,1711442510226590657,2057,2055,2045,2061,2056,2058,1194
716,1711442510236569637,2053,2053,2061,2053,2056,2056,1197
717,1711442510246570109,2052,2050,2050,2056,2056,2056,1197
718,1711442510256570320,2052,2052,2045,2047,2051,2054,1197
719,1711442510266570832,2056,2049,2030,2057,2053,2055,1197
720,1711442510276584559,2057,2058,2065,2053,2057,2055,1197
721,1711442510286566355,2056,2054,2052,2056,2053,2056,1196
722,1711442510296563160,2058,2061,2078,2057,2057,2056,1194
723,1711442510306566878,2057,2060,2065,2060,2054,2055,1196
724,1711442510316566367,2061,2068,2098,2063,2060,2056,1197
725,1711442510326589101,2057,2050,2027,2053,2052,2053,1196
726,1711442510336947140,2056,2056,2054,2049,2054,2054,1196
727,1711442510346533136,2052,2053,2053,2056,2052,2054,1196
728,1711442510356564727,2056,2057,2054,2056,2052,2044,1194
729,1711442510366563896,2056,2057,2085,2060,2060,2060,1195
730,1711442510376564999,2057,2053,2056,2051,2056,2056,1196
731,1711442510386596670,2056,2053,2049,2053,2051,2053,1195
732,1711442510396562756,2056,2050,2043,2052,2054,2052,1196
733,1711442510406564290,2055,2053,2049,2060,2057,2057,1197
734,1711442510416561686,2057,2053,2050,2058,2056,2051,1197
735,1711442510426594367,2058,2061,2089,2052,2047,2054,1198
736,1711442510436590842,2055,2064,2089,2057,2056,2054,1197
737,1711442510446559333,2053,2051,2045,2064,2056,2053,1197
738,1711442510456572368,2058,2062,2082,2054,2057,2054,1197
739,1711442510466555918,2053,2051,2047,2056,2052,2052,1196
740,1711442510476560207,2055,2056,2056,2059,2065,2058,1196
741,1711442510486592018,2056,2052,2045,2072,2048,2046,1192
742,1711442510496573834,2060,2057,2046,2053,2057,2053,1197
743,1711442510506564838,2058,2062,2076,2058,2045,2050,1196
744,1711442510516563686,2056,2054,2042,2058,2058,2053,1196
745,1711442510526583935,2054,2056,2061,2056,2052,2054,1197
746,1711442510536581651,2057,2060,2076,2058,2064,2058,1196
747,1711442510546561153,2058,2056,2072,2060,2056,2056,1196
748,1711442510556562547,2055,2057,2072,2058,2057,2057,1196
749,1711442510566556647,2059,2064,2098,2062,2053,2056,1197
750,1711442510576566206,2053,2050,2045,2054,2056,2054,1197
751,1711442510586585874,2057,2058,2064,2060,2056,2055,1200
752,1711442510596560667,2054,2056,2064,2056,2058,2056,1198
753,1711442510606567280,2056,2053,2049,2057,2056,2060,1197
754,1711442510616565587,2060,2053,2047,2057,2059,2050,1196
755,1711442510626590214,2052,2053,2047,2057,2051,2053,1195
756,1711442510637962315,2053,2056,2048,2053,2063,2056,1198
757,1711442510646582201,2057,2053,2054,2056,2056,2052,1195
758,1711442510656579005,2057,2049,2040,2057,2047,2051,1195
759,1711442510666568336,2054,2053,2052,2056,2054,2047,1194
760,1711442510676566043,2059,2056,2060,2068,2056,2052,1193
761,1711442510686573397,2053,2053,2054,2047,2042,2044,1192
762,1711442510696558871,2056,2061,2084,2060,2052,2053,1198
763,1711442510706576735,2058,2052,2048,2060,2066,2059,1196
764,1711442510716567888,2058,2050,2015,2060,2058,2060,1197
765,1711442510726592295,2056,2058,2056,2058,2056,2051,1197
766,1711442510736607906,2052,2051,2049,2058,2052,2052,1194
767,1711442510746568702,2056,2066,2111,2057,2051,2050,1197
768,1711442510756576348,2049,2046,2042,2056,2056,2056,1196
769,1711442510766567442,2054,2057,2076,2058,2053,2053,1197
770,1711442510776566831,2058,2056,2048,2055,2050,2052,1197
771,1711442510786567894,2054,2055,2048,2057,2061,2058,1197
772,1711442510796551444,2055,2056,2074,2059,2057,2057,1197
773,1711442510806567123,2053,2055,2048,2053,2050,2052,1196
774,1711442510816563197,2056,2063,2074,2056,2052,2053,1197
775,1711442510826564650,2056,2062,2056,2054,2056,2056,1196
776,1711442510836568368,2053,2050,2048,2056,2052,2056,1196
777,1711442510846572647,2060,2058,2065,2053,2056,2053,1200
778,1711442510856564663,2056,2053,2057,2065,2061,2056,1198
779,1711442510866567980,2056,2052,2045,2054,2054,2053,1197
780,1711442510876562410,2057,2068,2109,2058,2056,2058,1195
781,1711442510886565818,2052,2052,2046,2058,2056,2050,1197
782,1711442510896570326,2056,2056,2075,2057,2052,2052,1195
783,1711442510906564636,2053,2053,2056,2052,2053,2056,1196
784,1711442510916569386,2055,2056,2060,2057,2052,2053,1199
785,1711442510926562764,2056,2053,2045,2058,2056,2053,1195
786,1711442510936611237,2056,2049,2037,2056,2048,2049,1196
787,1711442510946587322,2055,2060,2067,2057,2058,2052,1196
788,1711442510956557727,2057,2057,2073,2056,2050,2056,1195
789,1711442510966563930,2056,2058,2054,2056,2058,2056,1195
790,1711442510976566465,2058,2056,2066,2062,2053,2058,1198
791,1711442510986565204,2057,2057,2057,2055,2057,2055,1196
792,1711442510996570283,2060,2050,2035,2060,2056,2058,1194
793,1711442511006562991,2056,2056,2054,2052,2055,2053,1196
794,1711442511016562431,2057,2052,2054,2060,2054,2053,1196
795,1711442511026564497,2056,2052,2058,2044,2041,2045,1194
796,1711442511036577122,2056,2052,2035,2061,2055,2057,1198
797,1711442511046578114,2057,2062,2088,2060,2058,2056,1198
798,1711442511056571002,2053,2052,2057,2056,2052,2051,1197
799,1711442511066563188,2056,2054,2064,2048,2046,2046,1193
800,1711442511076565743,2056,2055,2056,2061,2060,2056,1196
801,1711442511086569261,2054,2052,2047,2061,2061,2054,1196
802,1711442511096574943,2053,2052,2042,2053,2053,2056,1194
803,1711442511106570115,2053,2053,2050,2053,2057,2056,1197
804,1711442511116564756,2056,2053,2047,2059,2048,2048,1197
805,1711442511126562753,2060,2052,2036,2055,2054,2053,1197
806,1711442511136585407,2058,2058,2065,2056,2046,2052,1193
807,1711442511146570329,2058,2054,2081,2055,2060,2057,1195
808,1711442511156568917,2056,2058,2072,2056,2042,2046,1194
809,1711442511166573978,2056,2052,2034,2049,2056,2052,1195
810,1711442511176566235,2059,2052,2050,2054,2048,2052,1197
811,1711442511186564422,2054,2056,2043,2056,2054,2052,1197
812,1711442511196571887,2057,2057,2049,2061,2055,2052,1196
813,1711442511206569584,2057,2064,2112,2057,2062,2060,1198
814,1711442511216565006,2056,2054,2046,2056,2053,2054,1196
815,1711442511226563183,2056,2051,2022,2056,2058,2051,1196
816,1711442511236576189,2056,2049,2047,2043,2034,2047,1194
817,1711442511246591599,2056,2052,2028,2054,2057,2053,1195
818,1711442511256573346,2057,2050,2046,2061,2056,2058,1195
819,1711442511266575080,2056,2056,2064,2054,2060,2058,1195
820,1711442511276567938,2058,2064,2070,2063,2058,2059,1193
821,1711442511286584129,2054,2053,2041,2054,2057,2055,1195
822,1711442511296571496,2056,2053,2053,2056,2054,2056,1197
823,1711442511306564283,2056,2048,2037,2052,2057,2052,1197
824,1711442511316566278,2053,2050,2040,2052,2048,2052,1198
825,1711442511326580165,2052,2049,2055,2056,2056,2052,1198
826,1711442511336598902,2054,2057,2076,2064,2054,2054,1197
827,1711442511346622538,2055,2048,2046,2045,2056,2053,1195
828,1711442511356577443,2058,2064,2105,2052,2045,2057,1197
829,1711442511366574549,2058,2056,2053,2053,2046,2041,1192
830,1711442511376569931,2054,2052,2049,2060,2058,2060,1197
831,1711442511386593516,2052,2049,2006,2057,2064,2060,1197
832,1711442511396569702,2057,2053,2058,2056,2057,2052,1197
833,1711442511406569062,2055,2049,2027,2052,2056,2056,1196
834,1711442511416571558,2055,2056,2067,2056,2055,2055,1197
835,1711442511426572140,2056,2051,2040,2050,2057,2056,1199
836,1711442511436591819,2053,2052,2056,2057,2053,2054,1197
837,1711442511446580708,2056,2054,2059,2053,2057,2056,1198
838,1711442511456567324,2054,2048,2029,2057,2048,2054,1196
839,1711442511466570230,2053,2048,2028,2053,2053,2054,1195
840,1711442511476584348,2053,2053,2062,2056,2054,2056,1194
841,1711442511486572957,2062,2057,2077,2058,2057,2058,1195
842,1711442511496596784,2057,2056,2053,2053,2052,2056,1196
843,1711442511506574453,2058,2062,2090,2053,2050,2052,1196
844,1711442511516575015,2060,2052,2047,2057,2056,2057,1194
845,1711442511526614320,2056,2058,2075,2057,2054,2053,1197
846,1711442511536579875,2052,2054,2053,2054,2050,2054,1197
847,1711442511546584335,2056,2057,2062,2056,2053,2050,1195
848,1711442511556574747,2053,2056,2059,2060,2056,2056,1197
849,1711442511566576492,2052,2046,2032,2044,2040,2046,1193
850,1711442511576575692,2056,2052,2052,2059,2046,2047,1194
851,1711442511586576935,2055,2057,2056,2049,2056,2056,1198
852,1711442511596576064,2056,2062,2102,2062,2056,2058,1194
853,1711442511606577648,2056,2052,2056,2044,2047,2052,1196
854,1711442511616577358,2057,2056,2041,2058,2056,2056,1196
855,1711442511626578572,2052,2050,2047,2052,2056,2056,1196
856,1711442511636593591,2054,2052,2046,2058,2053,2053,1197
857,1711442511646590146,2054,2060,2077,2060,2064,2056,1196
858,1711442511656585488,2056,2047,2042,2062,2053,2056,1198
859,1711442511666562676,2057,2056,2065,2056,2056,2054,1196
860,1711442511676579849,2051,2047,2027,2064,2059,2056,1197
861,1711442511686582185,2056,2048,2041,2038,2046,2048,1198
862,1711442511696580502,2054,2053,2044,2056,2050,2055,1198
863,1711442511706582427,2055,2053,2050,2047,2045,2051,1196
864,1711442511716581796,2055,2056,2058,2054,2053,2052,1197
865,1711442511726591346,2061,2056,2057,2050,2060,2060,1196
866,1711442511736595004,2052,2046,2027,2062,2059,2052,1196
867,1711442511746584455,2055,2056,2057,2052,2053,2052,1197
868,1711442511756565791,2054,2056,2056,2052,2047,2055,1196
869,1711442511766566182,2056,2056,2080,2058,2056,2049,1197
870,1711442511776606640,2057,2052,2040,2057,2053,2054,1197
871,1711442511786561244,2056,2056,2069,2049,2051,2050,1198
872,1711442511796588307,2053,2048,2038,2053,2044,2046,1194
873,1711442511806571246,2056,2058,2054,2061,2063,2056,1196
874,1711442511816570586,2055,2054,2052,2057,2058,2056,1197
875,1711442511826625871,2053,2053,2050,2053,2049,2049,1198
876,1711442511836585215,2059,2059,2060,2058,2054,2058,1197
877,1711442511846564507,2056,2052,2032,2053,2052,2052,1194
878,1711442511856589275,2063,2057,2039,2062,2056,2056,1198
879,1711442511866569408,2057,2060,2064,2050,2052,2052,1197
880,1711442511876596540,2056,2050,2049,2049,2046,2049,1195
881,1711442511886569611,2056,2051,2056,2056,2054,2053,1195
882,1711442511896589790,2057,2060,2059,2057,2052,2056,1195
883,1711442511906568671,2052,2049,2040,2054,2057,2058,1197
884,1711442511916565295,2053,2052,2034,2056,2047,2050,1196
885,1711442511926628676,2053,2052,2052,2044,2046,2052,1197
886,1711442511936569415,2054,2049,2036,2061,2054,2055,1197
887,1711442511946571429,2056,2053,2054,2033,2048,2045,1195
888,1711442511956570779,2058,2053,2031,1996,2049,2056,1197
889,1711442511966565431,2052,2052,2040,2033,2044,2049,1195
890,1711442511976599917,2056,2054,2050,2062,2053,2058,1197
891,1711442511986572065,2053,2058,2056,2064,2060,2056,1198
892,1711442511996565233,2055,2052,2044,2060,2057,2058,1196
893,1711442512006567117,2054,2052,2053,2053,2056,2055,1197
894,1711442512016564263,2057,2046,2025,2052,2046,2047,1195
895,1711442512026596656,2056,2058,2064,2056,2056,2052,1194
896,1711442512036594513,2057,2053,2054,2065,2058,2056,1196
897,1711442512046558957,2059,2057,2060,2051,2049,2054,1195
898,1711442512056560642,2052,2052,2048,2064,2052,2053,1196
899,1711442512066561113,2054,2052,2049,2049,2053,2053,1198
900,1711442512076565984,2053,2050,2047,2063,2056,2051,1194
901,1711442512086570634,2053,2048,2020,2043,2049,2052,1195
902,1711442512096568681,2051,2050,2041,2055,2056,2053,1196
903,1711442512106571769,2056,2053,2036,2058,2059,2054,1197
904,1711442512116567181,2052,2054,2052,2053,2052,2052,1196
905,1711442512126607088,2057,2054,2052,2058,2058,2056,1197
906,1711442512136577453,2057,2062,2066,2062,2051,2048,1197
907,1711442512146570461,2056,2056,2057,2048,2050,2052,1196
908,1711442512156569911,2056,2057,2071,2064,2052,2053,1196
909,1711442512166568831,2062,2056,2067,2056,2062,2056,1196
910,1711442512176614178,2057,2053,2061,2060,2055,2056,1197
911,1711442512186572109,2056,2054,2058,2053,2050,2055,1196
912,1711442512196597920,2056,2052,2034,2056,2047,2053,1198
913,1711442512206585357,2052,2051,2040,2047,2045,2048,1196
914,1711442512216566693,2054,2057,2056,2060,2052,2052,1197
915,1711442512226641957,2058,2052,2051,2056,2053,2054,1196
916,1711442512236585090,2056,2053,2043,2064,2056,2054,1197
917,1711442512246607995,2059,2061,2081,2058,2058,2052,1196
918,1711442512256589371,2058,2056,2052,2057,2058,2056,1195
919,1711442512266577590,2056,2056,2074,2050,2056,2053,1195
920,1711442512276587530,2055,2056,2073,2052,2044,2047,1192
921,1711442512286562954,2051,2053,2055,2038,2042,2047,1194
922,1711442512296563367,2058,2054,2053,2057,2050,2052,1196
923,1711442512306567115,2052,2053,2061,2060,2058,2057,1197
924,1711442512316567597,2053,2053,2049,2056,2053,2056,1196
925,1711442512326576766,2057,2057,2056,2060,2056,2058,1197
926,1711442512336585774,2056,2061,2054,2057,2054,2057,1197
927,1711442512346584743,2056,2056,2066,2049,2050,2052,1194
928,1711442512356569937,2058,2056,2074,2065,2050,2052,1197
929,1711442512366570879,2054,2053,2040,2056,2063,2056,1195
930,1711442512376586860,2054,2056,2077,2060,2053,2053,1196
931,1711442512386555192,2056,2054,2059,2059,2058,2053,1197
932,1711442512396568709,2053,2051,2045,2064,2056,2053,1196
933,1711442512406563941,2058,2061,2089,2056,2051,2048,1196
934,1711442512416564464,2053,2052,2036,2064,2053,2049,1196
935,1711442512426587488,2054,2059,2080,2050,2042,2047,1193
936,1711442512436560168,2059,2048,2040,2056,2047,2051,1196
937,1711442512446559007,2056,2057,2045,2053,2052,2047,1194
938,1711442512456571622,2055,2053,2044,2056,2052,2052,1200
939,1711442512466577144,2053,2053,2058,2051,2057,2054,1195
940,1711442512476597183,2054,2052,2053,2057,2051,2052,1196
941,1711442512486573970,2056,2053,2045,2053,2059,2054,1196
942,1711442512496555276,2060,2061,2084,2064,2056,2058,1197
943,1711442512506567039,2056,2051,2036,2047,2046,2048,1196
944,1711442512516572060,2057,2054,2054,2054,2054,2055,1195
945,1711442512526567323,2058,2054,2050,2052,2057,2050,1195
946,1711442512536566873,2054,2053,2056,2064,2053,2053,1196
947,1711442512546557536,2054,2052,2044,2049,2054,2052,1195
948,1711442512556564351,2056,2053,2054,2064,2059,2058,1196
949,1711442512566566806,2050,2047,2042,2051,2059,2053,1196
950,1711442512576571777,2055,2052,2042,2053,2050,2056,1197
951,1711442512586562491,2058,2053,2054,2057,2059,2053,1198
952,1711442512596563944,2052,2050,2027,2058,2057,2056,1198
953,1711442512606562985,2053,2065,2099,2060,2061,2060,1195
954,1711442512616566101,2056,2052,2052,2056,2056,2055,1193
955,1711442512626562115,2053,2052,2053,2044,2043,2051,1196
956,1711442512636573047,2056,2053,2040,2065,2050,2051,1197
957,1711442512646568730,2057,2058,2081,2049,2050,2049,1196
958,1711442512656562539,2057,2059,2076,2061,2056,2058,1197
959,1711442512666563994,2056,2053,2056,2051,2060,2057,1199
960,1711442512676567321,2057,2056,2046,2063,2059,2057,1193
961,1711442512686614341,2060,2053,2046,2045,2049,2052,1196
962,1711442512696570289,2052,2053,2058,2058,2053,2056,1196
963,1711442512706567345,2058,2072,2129,2056,2052,2052,1196
964,1711442512716566405,2057,2061,2084,2062,2052,2053,1196
965,1711442512726574872,2056,2051,2044,2049,2050,2049,1195
966,1711442512736611131,2054,2056,2047,2055,2052,2053,1196
967,1711442512746572129,2054,2053,2052,2047,2048,2047,1193
968,1711442512756566910,2054,2056,2051,2060,2051,2054,1194
969,1711442512766566881,2057,2056,2079,2054,2057,2056,1196
970,1711442512776564208,2060,2047,2046,2057,2052,2052,1198
971,1711442512786576983,2052,2061,2092,2062,2065,2056,1197
972,1711442512796564831,2057,2055,2051,2055,2051,2050,1196
973,1711442512806565394,2057,2057,2059,2052,2054,2053,1195
974,1711442512816565785,2059,2052,2051,2052,2056,2060,1197
975,1711442512826589351,2063,2073,2136,2064,2064,2060,1196
976,1711442512836565508,2056,2068,2106,2061,2052,2056,1197
977,1711442512846565869,2053,2050,2049,2053,2054,2053,1196
978,1711442512856570069,2058,2049,2046,2056,2053,2055,1197
979,1711442512866572605,2056,2058,2064,2054,2054,2050,1195
980,1711442512876600619,2054,2056,2056,2056,2053,2056,1194
981,1711442512886587566,2056,2051,2045,2056,2057,2052,1197
982,1711442512896564112,2056,2053,2056,2054,2052,2056,1195
983,1711442512906572349,2053,2050,2047,2054,2050,2046,1193
984,1711442512916573403,2056,2056,2066,2062,2054,2056,1196
985,1711442512926577110,2057,2051,2044,2060,2064,2056,1194
986,1711442512936580979,2053,2052,2057,2061,2056,2056,1196
987,1711442512946587042,2052,2050,2034,2055,2054,2052,1196
988,1711442512956573828,2058,2057,2064,2053,2049,2055,1196
989,1711442512966577195,2053,2054,2053,2053,2052,2052,1197
990,1711442512976578630,2057,2060,2060,2060,2051,2055,1196
991,1711442512986569593,2057,2054,2056,2058,2057,2050,1197
992,1711442512996572120,2059,2060,2064,2064,2060,2053,1196
993,1711442513006572372,2055,2054,2058,2056,2064,2056,1194
994,1711442513016572013,2056,2052,2050,2053,2052,2052,1196
995,1711442513026578085,2060,2072,2122,2060,2061,2059,1198
996,1711442513036570553,2057,2054,2058,2053,2049,2053,1196
997,1711442513046570544,2054,2056,2056,2053,2061,2056,1195
998,1711442513056573752,2056,2057,2083,2066,2062,2059,1197
999,1711442513066589894,2053,2052,2036,2052,2058,2053,1195
1000,1711442513076576179,2058,2060,2078,2060,2057,2058,1196
1001,1711442513086576732,2053,2056,2070,2053,2059,2056,1197
1002,1711442513096558919,2056,2052,2030,2057,2056,2059,1196
1003,1711442513106566856,2054,2052,2056,2056,2054,2050,1193
1004,1711442513116564223,2053,2051,2049,2064,2050,2056,1196
1005,1711442513126600342,2056,2054,2047,2056,2053,2053,1196
1006,1711442513136595164,2053,2052,2027,2056,2044,2046,1193
1007,1711442513146573615,2056,2056,2072,2056,2058,2052,1197
1008,1711442513156586130,2057,2060,2056,2060,2055,2059,1196
1009,1711442513166563108,2052,2050,2057,2040,2037,2047,1193
1010,1711442513176566897,2054,2053,2053,2060,2064,2057,1197
1011,1711442513186606093,2057,2057,2060,2056,2053,2052,1197
1012,1711442513196587368,2056,2050,2033,2060,2054,2054,1196
1013,1711442513206563094,2056,2056,2056,2053,2055,2051,1195
1014,1711442513216565650,2056,2054,2056,2057,2053,2049,1196
1015,1711442513226596210,2054,2051,2051,2052,2054,2051,1196
1016,1711442513236567497,2056,2052,2040,2056,2052,2051,1196
1017,1711442513246571425,2051,2050,2044,2049,2052,2052,1195
1018,1711442513256571948,2059,2051,2021,2056,2045,2054,1194
1019,1711442513266564486,2053,2053,2049,2053,2054,2053,1197
1020,1711442513276567102,2056,2052,2057,2044,2042,2049,1193
1021,1711442513286609263,2060,2055,2049,2057,2058,2053,1195
1022,1711442513296562416,2059,2057,2059,2056,2052,2052,1200
1023,1711442513306567157,2056,2056,2052,2054,2054,2053,1197
1024,1711442513316565465,2056,2045,2027,2057,2056,2054,1194
1025,1711442513326581487,2060,2070,2109,2064,2059,2060,1196
1026,1711442513336601406,2056,2050,2056,2062,2054,2053,1197
1027,1711442513346566481,2056,2053,2051,2056,2056,2053,1194
1028,1711442513356576161,2056,2054,2046,2062,2055,2055,1197
1029,1711442513366562516,2056,2053,2072,2046,2045,2047,1191
1030,1711442513376562368,2056,2050,2032,2062,2052,2051,1197
1031,1711442513386569262,2053,2053,2056,2052,2053,2053,1199
1032,1711442513396570015,2057,2064,2107,2056,2057,2056,1197
1033,1711442513406572682,2057,2053,2061,2054,2053,2049,1196
1034,1711442513416565199,2054,2054,2060,2060,2053,2058,1196
1035,1711442513426587403,2058,2061,2064,2056,2064,2056,1195
1036,1711442513436576644,2057,2055,2057,2061,2055,2052,1197
1037,1711442513446562709,2058,2057,2064,2064,2065,2060,1196
1038,1711442513456570756,2057,2056,2047,2061,2058,2058,1195
1039,1711442513466564515,2056,2050,2038,2049,2056,2053,1195
1040,1711442513476561031,2056,2057,2060,2058,2060,2057,1194
1041,1711442513486576371,2060,2067,2108,2057,2057,2050,1195
1042,1711442513496586752,2056,2052,2062,2059,2055,2053,1196
1043,1711442513506569361,2056,2053,2048,2059,2057,2056,1197
1044,1711442513516581555,2054,2052,2046,2058,2056,2053,1197
1045,1711442513526580034,2055,2053,2053,2053,2052,2048,1197
1046,1711442513536752873,2053,2052,2055,2056,2051,2053,1197
1047,1711442513546570138,2058,2060,2078,2052,2057,2053,1197
1048,1711442513556569499,2053,2045,2030,2053,2053,2049,1196
1049,1711442513566566534,2056,2054,2054,2056,2061,2055,1199
1050,1711442513576563721,2053,2052,2048,2056,2053,2056,1196
1051,1711442513586575965,2054,2058,2068,2056,2050,2051,1197
1052,1711442513596567100,2056,2048,2042,2056,2057,2054,1197
1053,1711442513606573934,2056,2046,2034,2051,2056,2052,1196
1054,1711442513616569107,2056,2056,2049,2058,2052,2054,1198
1055,1711442513626590449,2052,2050,2048,2051,2056,2050,1197
1056,1711442513636584849,2056,2051,2047,2057,2049,2051,1195
1057,1711442513646564904,2056,2057,2063,2050,2056,2054,1198
1058,1711442513656555366,2053,2050,2045,2048,2044,2048,1195
1059,1711442513666571569,2058,2063,2104,2060,2060,2057,1196
1060,1711442513676564057,2056,2052,2041,2054,2050,2053,1193
1061,1711442513686577713,2053,2050,2040,2055,2058,2054,1197
1062,1711442513696567516,2058,2056,2056,2056,2049,2050,1197
1063,1711442513706564922,2056,2062,2069,2056,2059,2055,1197
1064,1711442513716564854,2056,2054,2060,2053,2046,2050,1196
1065,1711442513726584783,2057,2054,2061,2058,2060,2053,1197
1066,1711442513736583792,2056,2053,2037,2060,2054,2054,1197
1067,1711442513746561893,2052,2055,2049,2051,2054,2056,1195
1068,1711442513756569358,2054,2047,2040,2058,2053,2054,1195
1069,1711442513766564671,2056,2053,2042,2052,2050,2050,1197
1070,1711442513776563641,2056,2056,2057,2058,2062,2056,1198
1071,1711442513786589010,2055,2050,2053,2062,2068,2056,1200
1072,1711442513796556430,2056,2060,2072,2059,2052,2056,1199
1073,1711442513806576990,2056,2053,2064,2056,2056,2053,1195
1074,1711442513816568355,2056,2052,2049,2056,2052,2053,1197
1075,1711442513826572014,2050,2056,2059,2049,2052,2051,1196
1076,1711442513836571204,2059,2067,2101,2062,2054,2057,1196
1077,1711442513846563521,2052,2047,2035,2037,2029,2041,1193
1078,1711442513856574553,2059,2064,2104,2061,2056,2057,1194
1079,1711442513866561230,2058,2052,2045,2057,2055,2053,1199
1080,1711442513876562944,2059,2064,2078,2059,2055,2048,1194
1081,1711442513886556724,2055,2053,2056,2042,2051,2052,1195
1082,1711442513896570381,2056,2053,2057,2052,2050,2053,1196
1083,1711442513906564812,2058,2052,2049,2051,2053,2056,1197
1084,1711442513916564213,2053,2046,2036,2053,2047,2049,1196
1085,1711442513926574263,2052,2050,2041,2053,2056,2050,1197
1086,1711442513936562512,2058,2050,2047,2052,2036,2044,1194
1087,1711442513946559518,2053,2053,2042,2048,2050,2051,1197
1088,1711442513956573907,2056,2053,2041,2044,2040,2048,1195
1089,1711442513966566445,2051,2050,2040,2052,2057,2058,1197
1090,1711442513976567417,2056,2056,2052,2056,2049,2052,1197
1091,1711442513986560326,2055,2056,2064,2051,2053,2049,1197
1092,1711442513996570155,2053,2054,2049,2057,2052,2053,1197
1093,1711442514006567572,2053,2053,2051,2048,2054,2054,1195
1094,1711442514016567183,2065,2061,2088,2061,2056,2053,1197
1095,1711442514026565001,2052,2054,2053,2058,2064,2056,1197
1096,1711442514036567838,2058,2055,2044,2063,2063,2062,1195
1097,1711442514046554485,2053,2050,2040,2052,2061,2056,1195
1098,1711442514056565246,2058,2052,2040,2058,2057,2060,1196
1099,1711442514066566381,2060,2060,2089,2052,2054,2055,1197
1100,1711442514076568687,2053,2055,2050,2049,2040,2049,1195
1101,1711442514086572947,2056,2058,2061,2057,2058,2056,1196
1102,1711442514096563761,2055,2052,2055,2058,2054,2057,1199
1103,1711442514106569063,2052,2051,2052,2053,2055,2054,1196
1104,1711442514116564375,2058,2053,2060,2053,2051,2050,1197
1105,1711442514126568004,2056,2056,2050,2052,2048,2046,1195
1106,1711442514136565000,2054,2053,2045,2058,2060,2055,1197
1107,1711442514146567657,2059,2064,2105,2064,2064,2058,1196
1108,1711442514156567839,2056,2052,2037,2057,2053,2052,1196
1109,1711442514166563753,2058,2057,2066,2058,2056,2053,1197
1110,1711442514176563544,2052,2052,2041,2055,2052,2050,1196
1111,1711442514186566582,2057,2056,2056,2058,2061,2057,1199
1112,1711442514196562196,2053,2052,2056,2068,2051,2056,1196
1113,1711442514206564552,2057,2054,2075,2058,2051,2048,1195
1114,1711442514216563992,2052,2050,2043,2062,2056,2056,1195
1115,1711442514226575215,2053,2047,2035,2056,2056,2049,1196
1116,1711442514236570789,2058,2056,2056,2061,2052,2051,1196
1117,1711442514246552256,2057,2060,2088,2057,2060,2058,1197
1118,1711442514256568839,2056,2053,2049,2058,2053,2055,1196
1119,1711442514266563671,2057,2056,2064,2056,2059,2056,1196
1120,1711442514276566537,2053,2047,2025,2056,2056,2057,1196
1121,1711442514286566690,2058,2058,2068,2048,2048,2053,1195
1122,1711442514296569467,2056,2053,2046,2058,2058,2057,1194
1123,1711442514306564870,2053,2052,2052,2047,2052,2052,1196
1124,1711442514316562698,2056,2056,2064,2055,2050,2051,1197
1125,1711442514326580974,2057,2055,2057,2056,2048,2046,1189
1126,1711442514337457437,2057,2054,2051,2057,2054,2056,1196
1127,1711442514346567051,2055,2056,2052,2044,2054,2052,1197
1128,1711442514356586330,2056,2052,2060,2056,2052,2056,1196
1129,1711442514366566614,2056,2054,2054,2057,2059,2054,1195
1130,1711442514376566416,2058,2056,2050,2056,2052,2053,1196
1131,1711442514386565094,2052,2054,2054,2047,2048,2049,1200
1132,1711442514396578772,2056,2053,2057,2053,2051,2053,1196
1133,1711442514406564868,2058,2055,2058,2051,2053,2058,1197
1134,1711442514416569558,2057,2054,2050,2057,2047,2052,1197
1135,1711442514426586532,2056,2053,2056,2050,2049,2052,1197
1136,1711442514436569431,2058,2057,2076,2057,2060,2054,1196
1137,1711442514446567098,2056,2053,2053,2056,2061,2056,1197
1138,1711442514456566620,2054,2052,2052,2062,2056,2056,1197
1139,1711442514466563996,2052,2050,2040,2052,2050,2050,1196
1140,1711442514476564048,2056,2059,2082,2064,2055,2056,1194
1141,1711442514486568168,2053,2051,2047,2046,2053,2051,1195
1142,1711442514496574301,2053,2056,2049,2060,2052,2060,1198
1143,1711442514506571177,2052,2053,2052,2052,2052,2052,1198
1144,1711442514516561911,2056,2054,2056,2056,2044,2049,1195
1145,1711442514526564839,2053,2052,2054,2056,2057,2054,1198
1146,1711442514536610968,2060,2072,2081,2070,2054,2053,1197
1147,1711442514546570984,2050,2046,2030,2052,2060,2054,1196
1148,1711442514556563982,2052,2051,2053,2056,2056,2057,1195
1149,1711442514566558373,2054,2056,2052,2050,2045,2046,1193
1150,1711442514576562393,2055,2055,2062,2060,2056,2058,1195
1151,1711442514586558998,2053,2050,2043,2050,2056,2053,1197
1152,1711442514596579589,2057,2056,2032,2058,2052,2055,1195
1153,1711442514606577016,2056,2056,2066,2049,2057,2053,1194
1154,1711442514616578109,2058,2054,2056,2064,2056,2055,1195
1155,1711442514626599902,2055,2052,2045,2056,2059,2054,1197
1156,1711442514636591549,2056,2050,2056,2053,2048,2056,1197
1157,1711442514647042866,2058,2060,2056,2053,2058,2058,1196
1158,1711442514656567056,2056,2053,2053,2066,2058,2058,1196
1159,1711442514666570153,2056,2053,2028,2053,2054,2056,1195
1160,1711442514676574653,2052,2049,2043,2053,2056,2054,1194
1161,1711442514686669265,2056,2055,2050,2056,2056,2051,1195
1162,1711442514696567473,2053,2056,2052,2057,2038,2045,1192
1163,1711442514706570551,2056,2051,2045,2056,2059,2053,1195
1164,1711442514716570262,2052,2053,2051,2059,2061,2058,1195
1165,1711442514726586344,2053,2055,2057,2056,2052,2053,1196
1166,1711442514736617876,2052,2049,2041,2054,2056,2052,1197
1167,1711442514746568204,2056,2058,2066,2049,2048,2050,1195
1168,1711442514756588734,2059,2053,2040,2057,2052,2057,1198
1169,1711442514766579909,2059,2057,2053,2056,2060,2060,1197
1170,1711442514776582766,2056,2052,2049,2058,2054,2056,1197
1171,1711442514786610701,2053,2054,2062,2053,2051,2049,1197
1172,1711442514796579975,2056,2053,2045,2060,2056,2059,1196
1173,1711442514806583613,2053,2046,2022,2053,2046,2036,1193
1174,1711442514816576452,2057,2057,2092,2057,2056,2055,1197
1175,1711442514826607482,2052,2053,2050,2058,2058,2057,1196
1176,1711442514836631709,2054,2055,2067,2053,2047,2052,1196
1177,1711442514846575385,2057,2058,2063,2054,2049,2052,1197
1178,1711442514856571589,2056,2049,2045,2068,2059,2057,1196
1179,1711442514866572573,2053,2051,2043,2054,2052,2051,1200
1180,1711442514876572014,2056,2056,2052,2061,2050,2056,1195
1181,1711442514886576644,2056,2051,2045,2052,2060,2052,1194
1182,1711442514896552851,2052,2056,2051,2060,2056,2052,1196
1183,1711442514906576447,2054,2052,2054,2053,2058,2053,1195
1184,1711442514916573654,2056,2053,2054,2059,2056,2053,1196
1185,1711442514926574467,2053,2052,2026,2053,2056,2056,1197
1186,1711442514936574299,2054,2060,2073,2064,2058,2060,1196
1187,1711442514946571495,2052,2052,2037,2054,2054,2049,1195
1188,1711442514956574693,2056,2053,2060,2044,2046,2054,1196
1189,1711442514966575907,2056,2052,2042,2052,2051,2052,1196
1190,1711442514976575728,2058,2054,2056,2058,2056,2058,1197
1191,1711442514986577303,2056,2055,2070,2054,2056,2056,1199
1192,1711442514996572986,2056,2054,2048,2060,2056,2058,1198
1193,1711442515006575844,2053,2046,2032,2044,2058,2052,1197
1194,1711442515016576426,2051,2047,2020,2056,2045,2046,1195
1195,1711442515026579384,2056,2054,2055,2052,2054,2054,1197
1196,1711442515036577953,2058,2054,2053,2056,2049,2056,1195
1197,1711442515046556154,2057,2062,2081,2052,2056,2055,1195
1198,1711442515056578219,2056,2056,2060,2056,2050,2052,1196
1199,1711442515066580464,2053,2050,2045,2053,2056,2056,1195
1200,1711442515076579956,2057,2060,2078,2058,2051,2053,1194
1201,1711442515086579086,2058,2060,2058,2050,2056,2054,1197
1202,1711442515096578347,2057,2057,2069,2059,2053,2056,1196
1203,1711442515106581715,2056,2052,2054,2056,2056,2052,1196
1204,1711442515116564915,2060,2064,2102,2061,2055,2059,1199
1205,1711442515126565719,2053,2050,2053,2046,2047,2047,1195
1206,1711442515136581962,2056,2053,2056,2050,2050,2054,1195
1207,1711442515146582775,2058,2057,2065,2058,2053,2053,1196
1208,1711442515156558942,2052,2053,2055,2058,2053,2056,1193
1209,1711442515166567740,2050,2050,2057,2048,2054,2054,1196
1210,1711442515176565468,2056,2057,2059,2064,2049,2049,1197
1211,1711442515186566131,2062,2052,2056,2050,2050,2051,1197
1212,1711442515196590409,2054,2049,2040,2064,2057,2054,1196
1213,1711442515206596283,2055,2048,2034,2045,2045,2049,1195
1214,1711442515216566618,2056,2054,2061,2052,2042,2049,1196
1215,1711442515226566841,2052,2051,2041,2052,2055,2053,1198
1216,1711442515236570400,2062,2069,2098,2061,2056,2059,1195
1217,1711442515246559220,2052,2052,2047,2056,2065,2054,1197
1218,1711442515256558411,2060,2057,2049,2058,2056,2060,1197
1219,1711442515266563182,2060,2059,2061,2046,2043,2046,1194
1220,1711442515276565909,2056,2051,2051,2057,2054,2053,1194
1221,1711442515286557716,2054,2053,2051,2045,2052,2053,1196
1222,1711442515296566895,2056,2052,2046,2060,2056,2052,1199
1223,1711442515306563601,2056,2054,2058,2055,2056,2056,1197
1224,1711442515316566759,2056,2054,2060,2065,2061,2061,1197
1225,1711442515326566300,2056,2056,2051,2057,2056,2053,1197
1226,1711442515336573426,2054,2051,2029,2064,2056,2057,1195
1227,1711442515346561355,2054,2052,2058,2050,2051,2055,1196
1228,1711442515356596213,2053,2053,2045,2056,2047,2053,1198
1229,1711442515366569394,2057,2065,2089,2061,2062,2059,1197
1230,1711442515376565098,2057,2054,2056,2054,2051,2056,1196
1231,1711442515386565761,2054,2050,2036,2051,2054,2052,1197
1232,1711442515396553730,2056,2050,2045,2056,2053,2056,1197
1233,1711442515406562739,2056,2052,2045,2058,2057,2055,1196
1234,1711442515416561980,2058,2056,2057,2059,2053,2052,1195
1235,1711442515426560850,2054,2053,2040,2052,2052,2051,1196
1236,1711442515436564840,2056,2064,2077,2056,2049,2052,1197
1237,1711442515446571644,2057,2065,2090,2056,2060,2058,1197
1238,1711442515456567880,2057,2056,2053,2058,2051,2052,1197
1239,1711442515466566058,2056,2056,2056,2057,2059,2052,1196
1240,1711442515476566541,2053,2052,2050,2056,2052,2054,1195
1241,1711442515486567254,2056,2056,2069,2054,2051,2052,1197
1242,1711442515496570562,2050,2048,2045,2053,2042,2049,1196
1243,1711442515506567559,2056,2054,2076,2052,2057,2052,1198
1244,1711442515516568422,2064,2067,2098,2061,2057,2056,1196
1245,1711442515526565419,2052,2056,2053,2048,2045,2047,1194
1246,1711442515536562936,2056,2053,2052,2057,2054,2057,1196
1247,1711442515546552939,2052,2054,2058,2051,2058,2056,1198
1248,1711442515556565104,2060,2065,2096,2054,2056,2058,1195
1249,1711442515566566489,2056,2056,2058,2055,2052,2056,1197
1250,1711442515576548927,2056,2056,2042,2058,2054,2053,1196
1251,1711442515586567144,2053,2050,2050,2048,2052,2054,1199
1252,1711442515596584609,2054,2052,2052,2056,2045,2050,1196
1253,1711442515606575233,2056,2046,2028,2053,2052,2050,1197
1254,1711442515616573062,2056,2051,2052,2053,2045,2049,1197
1255,1711442515626592931,2053,2056,2058,2056,2058,2053,1196
1256,1711442515637287660,2056,2056,2059,2060,2056,2056,1196
1257,1711442515646596962,2055,2053,2047,2055,2056,2052,1193
1258,1711442515656581285,2060,2060,2068,2060,2057,2056,1198
1259,1711442515666578422,2053,2056,2065,2052,2052,2050,1196
1260,1711442515676646833,2056,2052,2044,2056,2054,2052,1196
1261,1711442515686582774,2056,2057,2041,2057,2054,2051,1194
1262,1711442515696588046,2053,2045,2036,2056,2052,2056,1197
1263,1711442515706576225,2058,2056,2052,2060,2059,2057,1197
1264,1711442515716576237,2057,2052,2051,2047,2056,2056,1194
1265,1711442515726629340,2054,2053,2059,2054,2057,2052,1197
1266,1711442515736621227,2054,2054,2041,2056,2049,2053,1197
1267,1711442515746577155,2056,2052,2035,2049,2058,2053,1198
1268,1711442515756576696,2056,2053,2052,2058,2056,2053,1197
1269,1711442515766577250,2057,2056,2054,2055,2056,2054,1197
1270,1711442515776620072,2056,2056,2056,2070,2060,2058,1197
1271,1711442515786623521,2059,2059,2068,2050,2059,2058,1197
1272,1711442515796573047,2053,2052,2051,2056,2052,2056,1195
1273,1711442515806568471,2057,2052,2056,2049,2046,2048,1197
1274,1711442515816561199,2060,2059,2093,2064,2056,2057,1197
1275,1711442515826566421,2056,2052,2053,2064,2059,2056,1196
1276,1711442515836558027,2057,2058,2072,2060,2054,2054,1195
1277,1711442515846568188,2053,2054,2056,2056,2052,2048,1196
1278,1711442515856523626,2057,2056,2052,2052,2048,2054,1197
1279,1711442515866560939,2056,2053,2053,2066,2061,2052,1196
1280,1711442515876569527,2057,2057,2058,2059,2056,2056,1196
1281,1711442515886566804,2054,2055,2056,2053,2056,2055,1196
1282,1711442515896565944,2056,2054,2059,2057,2056,2058,1197
1283,1711442515906567800,2056,2060,2055,2054,2046,2051,1198
1284,1711442515916619490,2058,2059,2040,2053,2048,2048,1197
1285,1711442515926565089,2056,2050,2036,2056,2060,2058,1196
1286,1711442515936562295,2056,2061,2068,2063,2056,2056,1197
1287,1711442515946566054,2056,2054,2058,2054,2060,2053,1197
1288,1711442515956611943,2054,2047,2043,2056,2056,2058,1197
1289,1711442515966563003,2056,2055,2050,2050,2056,2054,1196
1290,1711442515976565118,2057,2052,2053,2056,2056,2052,1197
1291,1711442515986562165,2062,2056,2048,2057,2057,2052,1196
1292,1711442515996561375,2057,2057,2072,2064,2059,2056,1196
1293,1711442516006562159,2056,2058,2084,2058,2056,2051,1195
1294,1711442516016601446,2056,2062,2077,2052,2056,2057,1197
1295,1711442516026607500,2056,2051,2028,2053,2057,2056,1195
1296,1711442516036604366,2055,2055,2076,2056,2054,2052,1195
1297,1711442516046603897,2056,2050,2046,2052,2051,2047,1194
1298,1711442516056616624,2056,2048,2045,2056,2056,2056,1197
1299,1711442516066607489,2053,2050,2036,2052,2056,2056,1198
1300,1711442516076599456,2057,2057,2064,2053,2052,2051,1195
1301,1711442516086601612,2054,2059,2054,2051,2055,2053,1197
1302,1711442516096598919,2056,2050,2050,2064,2057,2053,1196
1303,1711442516106599964,2056,2056,2050,2051,2050,2049,1197
1304,1711442516116603493,2057,2059,2060,2059,2055,2052,1197
1305,1711442516126599788,2055,2054,2066,2053,2057,2052,1197
1306,1711442516136600411,2054,2048,2033,2057,2054,2057,1196
1307,1711442516146597939,2057,2060,2080,2052,2053,2053,1197
1308,1711442516156599524,2060,2053,2059,2059,2056,2056,1198
1309,1711442516166597502,2054,2056,2053,2052,2053,2052,1196
1310,1711442516176594128,2057,2050,2052,2054,2046,2051,1197
1311,1711442516186596004,2060,2060,2068,2056,2055,2054,1200
1312,1711442516196591518,2052,2047,2047,2061,2056,2052,1198
1313,1711442516206590608,2057,2057,2064,2057,2060,2054,1196
1314,1711442516216623323,2056,2054,2056,2059,2061,2059,1197
1315,1711442516226587357,2056,2056,2078,2056,2053,2052,1195
1316,1711442516236588662,2056,2056,2059,2053,2050,2052,1196
1317,1711442516246594014,2056,2061,2064,2058,2049,2049,1198
1318,1711442516256590039,2056,2048,2041,2050,2045,2056,1197
1319,1711442516266591314,2053,2053,2053,2057,2058,2057,1198
1320,1711442516276592348,2056,2053,2060,2062,2056,2053,1195
1321,1711442516286586278,2054,2053,2056,2050,2058,2054,1197
1322,1711442516296590479,2055,2053,2050,2061,2056,2053,1195
1323,1711442516306588107,2059,2056,2054,2044,2048,2053,1196
1324,1711442516316587738,2058,2059,2073,2059,2053,2053,1197
1325,1711442516326598481,2056,2053,2047,2056,2060,2057,1196
1326,1711442516336583224,2058,2056,2058,2062,2055,2052,1196
1327,1711442516346584749,2052,2051,2040,2059,2059,2056,1196
1328,1711442516356582056,2056,2052,2064,2065,2061,2059,1196
1329,1711442516366583271,2052,2053,2043,2060,2053,2053,1197
1330,1711442516376585087,2060,2059,2043,2061,2061,2060,1196
1331,1711442516386578947,2052,2052,2044,2052,2052,2049,1198
1332,1711442516396581896,2060,2064,2073,2050,2054,2053,1196
1333,1711442516406585074,2054,2053,2047,2049,2052,2052,1197
1334,1711442516416593441,2059,2061,2076,2060,2054,2054,1198
1335,1711442516426602922,2052,2052,2050,2052,2055,2053,1196
1336,1711442516436583698,2059,2060,2054,2064,2059,2057,1196
1337,1711442516446584592,2053,2048,2052,2047,2050,2047,1195
1338,1711442516456585085,2056,2052,2045,2060,2056,2051,1197
1339,1711442516466585007,2056,2054,2060,2052,2056,2054,1195
1340,1711442516476848118,2056,2056,2073,2056,2052,2056,1196
1341,1711442516486582386,2056,2054,2053,2046,2042,2051,1197
1342,1711442516496586687,2059,2060,2066,2066,2058,2060,1195
1343,1711442516506576860,2053,2058,2072,2057,2053,2053,1194
1344,1711442516516576342,2058,2061,2081,2060,2053,2053,1195
1345,1711442516526532020,2056,2051,2046,2048,2056,2054,1196
1346,1711442516536575836,2055,2051,2047,2056,2051,2056,1197
1347,1711442516546589835,2054,2053,2044,2051,2053,2048,1196
1348,1711442516556595337,2060,2071,2125,2061,2057,2059,1196
1349,1711442516566576644,2053,2048,2048,2053,2052,2048,1198
1350,1711442516576591224,2055,2054,2065,2055,2057,2056,1200
1351,1711442516586571198,2057,2056,2094,2052,2050,2052,1198
1352,1711442516596573895,2064,2070,2076,2072,2059,2056,1197
1353,1711442516606574348,2050,2053,2056,2053,2052,2047,1196
1354,1711442516616571636,2056,2053,2057,2059,2058,2053,1200
1355,1711442516626578411,2053,2047,2037,2051,2054,2051,1198
1356,1711442516636568384,2054,2054,2051,2056,2052,2054,1196
1357,1711442516646575259,2053,2051,2034,2055,2052,2050,1197
1358,1711442516656572647,2056,2047,2045,2057,2052,2056,1196
1359,1711442516666572749,2053,2056,2057,2052,2056,2057,1200
1360,1711442516676576378,2057,2052,2026,2060,2056,2057,1194
1361,1711442516686570259,2056,2051,2049,2053,2052,2052,1195
1362,1711442516696576924,2053,2054,2050,2057,2050,2052,1195
1363,1711442516706575223,2051,2045,2039,2049,2053,2053,1198
1364,1711442516716585615,2054,2054,2072,2044,2043,2052,1196
1365,1711442516726586760,2056,2054,2037,2053,2056,2052,1199
1366,1711442516736572154,2056,2054,2060,2057,2051,2049,1198
1367,1711442516746575913,2054,2051,2056,2056,2056,2056,1199
1368,1711442516756575505,2060,2063,2068,2061,2051,2056,1197
1369,1711442516766576719,2054,2054,2058,2057,2051,2053,1196
1370,1711442516776580919,2057,2057,2050,2064,2056,2056,1198
1371,1711442516786587715,2052,2048,2052,2049,2055,2053,1197
1372,1711442516796574352,2054,2053,2056,2038,2033,2045,1195
1373,1711442516806577760,2054,2047,2050,2050,2054,2053,1197
1374,1711442516816596768,2056,2056,2061,2061,2054,2052,1197
1375,1711442516826570040,2052,2050,2046,2043,2041,2052,1198
1376,1711442516836577266,2055,2053,2072,2060,2061,2056,1198
1377,1711442516846576888,2056,2053,2068,2049,2046,2049,1197
1378,1711442516856573454,2057,2048,2034,2069,2060,2058,1198
1379,1711442516866574979,2050,2046,2038,2045,2050,2050,1196
1380,1711442516876603204,2052,2052,2053,2066,2056,2056,1193
1381,1711442516886573350,2056,2050,2039,2051,2052,2049,1197
1382,1711442516896575026,2056,2050,2050,2053,2050,2053,1197
1383,1711442516906573235,2056,2056,2057,2045,2041,2045,1194
1384,1711442516916579158,2056,2053,2057,2065,2064,2057,1195
1385,1711442516926580172,2052,2048,2032,2038,2037,2047,1194
1386,1711442516936593420,2052,2049,2035,2049,2036,2044,1194
1387,1711442516946579085,2056,2056,2065,2056,2056,2054,1195
1388,1711442516956577163,2057,2054,2044,2053,2049,2054,1197
1389,1711442516966576123,2056,2056,2051,2052,2056,2056,1197
1390,1711442516976590273,2058,2051,2041,2057,2056,2053,1196
1391,1711442516986571319,2052,2056,2060,2052,2054,2052,1197
1392,1711442516996569589,2056,2047,2014,2054,2067,2053,1196
1393,1711442517006569170,2057,2051,2038,2053,2048,2054,1197
1394,1711442517016569793,2056,2052,2037,2049,2050,2054,1195
1395,1711442517026573824,2053,2056,2056,2056,2056,2053,1196
1396,1711442517036574116,2060,2061,2069,2061,2054,2054,1195
1397,1711442517046577606,2052,2054,2054,2050,2050,2049,1196
1398,1711442517056572368,2059,2056,2058,2059,2052,2057,1197
1399,1711442517066595956,2057,2057,2049,2056,2051,2048,1198
1400,1711442517076571752,2058,2061,2044,2058,2048,2056,1196
1401,1711442517086569000,2061,2062,2090,2051,2053,2056,1198
1402,1711442517096577678,2057,2054,2040,2059,2060,2056,1197
1403,1711442517106575948,2053,2052,2056,2060,2051,2049,1197
1404,1711442517116576040,2056,2053,2046,2057,2054,2055,1197
1405,1711442517126586844,2056,2057,2071,2052,2054,2054,1197
1406,1711442517136573952,2056,2056,2049,2056,2052,2054,1199
1407,1711442517146573523,2053,2059,2069,2058,2055,2053,1196
1408,1711442517156575089,2056,2052,2051,2049,2052,2051,1198
1409,1711442517166578828,2056,2054,2056,2057,2055,2056,1197
1410,1711442517176616563,2056,2053,2062,2056,2050,2052,1196
1411,1711442517186574054,2050,2049,2036,2048,2056,2053,1198
1412,1711442517196575871,2057,2063,2082,2058,2049,2050,1195
1413,1711442517206574210,2050,2050,2047,2051,2056,2052,1197
1414,1711442517216574814,2058,2060,2070,2058,2052,2048,1196
1415,1711442517226582971,2053,2051,2052,2053,2053,2056,1196
1416,1711442517236575580,2059,2063,2089,2064,2058,2055,1199
1417,1711442517246570613,2060,2075,2124,2054,2055,2053,1197
1418,1711442517256602326,2056,2053,2042,2057,2054,2050,1198
1419,1711442517266604893,2054,2050,2045,2054,2054,2056,1197
1420,1711442517276598794,2056,2053,2056,2058,2051,2053,1196
1421,1711442517286577567,2050,2046,2026,2050,2054,2056,1195
1422,1711442517296597447,2054,2056,2044,2060,2056,2053,1197
1423,1711442517306568565,2050,2049,2042,2053,2053,2056,1197
1424,1711442517316593635,2058,2052,2046,2058,2056,2053,1196
1425,1711442517326596973,2056,2054,2049,2052,2050,2052,1198
1426,1711442517336598419,2062,2072,2100,2070,2056,2059,1197
1427,1711442517346601627,2054,2049,2047,2052,2053,2052,1197
1428,1711442517356598905,2053,2056,2044,2061,2056,2056,1196
1429,1711442517366599017,2052,2056,2065,2057,2054,2054,1195
1430,1711442517376597487,2054,2053,2046,2047,2047,2052,1198
1431,1711442517386595055,2054,2052,2054,2060,2056,2052,1198
1432,1711442517396597512,2057,2052,2052,2054,2052,2050,1196
1433,1711442517406595952,2054,2056,2054,2052,2049,2051,1197
1434,1711442517416593590,2060,2056,2051,2056,2048,2050,1197
1435,1711442517426593071,2052,2049,2054,2049,2048,2051,1198
1436,1711442517436591631,2056,2056,2054,2056,2053,2052,1198
1437,1711442517446592565,2056,2053,2049,2046,2046,2053,1198
1438,1711442517456591406,2054,2051,2058,2068,2064,2055,1197
1439,1711442517466594754,2053,2053,2059,2061,2050,2056,1200
1440,1711442517476589457,2056,2056,2059,2053,2045,2055,1193
1441,1711442517486596643,2056,2052,2057,2066,2066,2059,1200
1442,1711442517496598219,2057,2056,2046,2073,2068,2060,1195
1443,1711442517506590547,2052,2046,2032,2044,2047,2047,1194
1444,1711442517516589978,2053,2052,2054,2060,2056,2052,1197
1445,1711442517526586664,2053,2056,2061,2064,2051,2057,1197
1446,1711442517536586326,2055,2052,2056,2057,2048,2049,1198
1447,1711442517546588072,2054,2053,2052,2056,2050,2050,1196
1448,1711442517556588986,2056,2051,2039,2053,2059,2055,1195
1449,1711442517566587977,2050,2046,2039,2052,2053,2053,1198
1450,1711442517576586757,2058,2053,2053,2060,2043,2050,1195
1451,1711442517586588102,2054,2054,2047,2050,2052,2052,1198
1452,1711442517596585419,2050,2048,2035,2064,2056,2053,1196
1453,1711442517606586073,2059,2056,2056,2051,2050,2052,1198
1454,1711442517616584052,2056,2056,2057,2058,2053,2056,1196
1455,1711442517626584826,2052,2052,2048,2055,2056,2056,1195
1456,1711442517636588916,2054,2050,2036,2056,2054,2055,1196
1457,1711442517646596493,2054,2047,2024,2054,2052,2056,1197
1458,1711442517656583130,2065,2069,2146,2066,2059,2060,1196
1459,1711442517666582141,2060,2064,2074,2059,2056,2054,1198
1460,1711442517676597062,2056,2057,2070,2057,2051,2053,1193
1461,1711442517686581455,2050,2044,2029,2054,2054,2053,1195
1462,1711442517696581668,2060,2064,2085,2060,2054,2054,1197
1463,1711442517706577552,2054,2051,2048,2049,2044,2052,1197
1464,1711442517716580019,2056,2053,2045,2056,2049,2055,1195
1465,1711442517726595070,2055,2056,2072,2053,2054,2053,1195
1466,1711442517736567882,2057,2051,2054,2056,2053,2052,1196
1467,1711442517746576691,2054,2061,2081,2050,2050,2052,1196
1468,1711442517756573487,2056,2051,2049,2064,2058,2054,1195
1469,1711442517766577647,2054,2052,2049,2047,2052,2053,1196
1470,1711442517776580305,2056,2054,2052,2057,2054,2052,1197
1471,1711442517786578825,2052,2053,2054,2047,2046,2049,1196
1472,1711442517796567316,2051,2047,2039,2057,2056,2052,1197
1473,1711442517806565615,2056,2062,2080,2062,2048,2054,1196
1474,1711442517816565647,2058,2052,2042,2058,2056,2053,1196
1475,1711442517826572183,2052,2052,2049,2058,2056,2056,1197
1476,1711442517836563538,2054,2052,2058,2050,2044,2048,1196
1477,1711442517846564163,2062,2072,2108,2064,2056,2054,1196
1478,1711442517856564646,2056,2052,2061,2054,2051,2052,1196
1479,1711442517866563056,2060,2068,2088,2059,2057,2053,1196
1480,1711442517876580040,2053,2047,2038,2056,2053,2052,1195
1481,1711442517886563191,2058,2057,2062,2066,2061,2057,1196
1482,1711442517896566329,2058,2056,2056,2070,2060,2064,1196
1483,1711442517906566412,2052,2050,2050,2052,2053,2047,1194
1484,1711442517916564140,2056,2054,2061,2057,2061,2058,1196
1485,1711442517926580424,2057,2059,2070,2058,2057,2058,1195
1486,1711442517936601195,2053,2056,2057,2052,2049,2056,1194
1487,1711442517946563046,2052,2056,2049,2052,2052,2049,1195
1488,1711442517956563499,2054,2052,2052,2060,2056,2060,1196
1489,1711442517966562400,2056,2054,2054,2060,2058,2057,1195
1490,1711442517976566059,2056,2053,2042,2066,2055,2054,1196
1491,1711442517986596189,2052,2048,2040,2056,2052,2052,1199
1492,1711442517996556526,2058,2058,2068,2066,2055,2051,1196
1493,1711442518006597596,2055,2049,2045,2041,2033,2042,1196
1494,1711442518016619200,2056,2061,2092,2061,2061,2058,1196
1495,1711442518026560161,2057,2065,2095,2052,2046,2047,1193
1496,1711442518036600570,2052,2051,2034,2057,2050,2053,1197
1497,1711442518046596535,2053,2056,2064,2059,2057,2062,1196
1498,1711442518056596057,2056,2051,2050,2044,2047,2051,1196
1499,1711442518066594417,2053,2055,2051,2058,2056,2054,1196
1500,1711442518076564663,2060,2056,2045,2060,2056,2056,1196
1501,1711442518086590415,2056,2049,2029,2052,2052,2052,1196
1502,1711442518096563918,2054,2056,2060,2055,2054,2053,1196
1503,1711442518106566966,2053,2052,2052,2056,2052,2053,1196
1504,1711442518116593339,2057,2058,2084,2060,2057,2058,1195
1505,1711442518126585036,2057,2060,2077,2053,2044,2047,1192
1506,1711442518136566744,2052,2051,2046,2054,2050,2052,1195
1507,1711442518146580292,2054,2060,2075,2056,2059,2052,1196
1508,1711442518156557271,2060,2056,2062,2058,2056,2053,1195
1509,1711442518166599434,2057,2056,2053,2054,2050,2056,1195
1510,1711442518176593817,2056,2051,2047,2054,2053,2056,1197
1511,1711442518186568531,2052,2052,2051,2056,2050,2051,1197
1512,1711442518196567382,2058,2052,2061,2058,2054,2052,1197
1513,1711442518206590368,2059,2051,2038,2059,2054,2052,1196
1514,1711442518216590401,2056,2064,2070,2051,2041,2045,1193
1515,1711442518226597608,2056,2056,2061,2056,2037,2050,1196
1516,1711442518236592380,2058,2061,2064,2068,2060,2057,1195
1517,1711442518246586693,2056,2056,2064,2054,2052,2053,1196
1518,1711442518256588900,2054,2052,2050,2058,2056,2058,1196
1519,1711442518266589644,2057,2063,2090,2065,2064,2060,1198
1520,1711442518276574177,2052,2049,2040,2047,2040,2051,1192
1521,1711442518286617602,2051,2047,2037,2049,2052,2052,1196
1522,1711442518296568142,2056,2052,2054,2059,2052,2052,1198
1523,1711442518306572402,2053,2056,2058,2052,2052,2052,1194
1524,1711442518316572094,2053,2050,2041,2057,2052,2050,1198
1525,1711442518326586574,2051,2050,2044,2055,2049,2051,1195
1526,1711442518336582750,2059,2070,2114,2066,2059,2053,1196
1527,1711442518346586129,2055,2054,2041,2058,2053,2054,1196
1528,1711442518356572656,2058,2057,2061,2060,2045,2046,1194
1529,1711442518366573010,2054,2052,2052,2064,2051,2050,1196
1530,1711442518376583563,2054,2049,2044,2054,2051,2053,1196
1531,1711442518386555132,2054,2049,2029,2053,2056,2054,1195
1532,1711442518396575463,2053,2048,2037,2044,2050,2052,1195
1533,1711442518406575996,2056,2056,2070,2057,2060,2057,1197
1534,1711442518416578515,2056,2054,2062,2052,2049,2052,1198
1535,1711442518426585160,2056,2059,2058,2054,2054,2053,1197
1536,1711442518436572849,2059,2062,2097,2054,2049,2056,1197
1537,1711442518446576238,2054,2048,2054,2056,2061,2056,1196
1538,1711442518456583013,2056,2056,2060,2060,2064,2057,1194
1539,1711442518466576645,2055,2056,2043,2059,2056,2054,1196
1540,1711442518476577790,2052,2056,2056,2056,2052,2056,1194
1541,1711442518486581018,2052,2052,2049,2041,2037,2046,1194
1542,1711442518496562335,2053,2050,2037,2048,2044,2047,1193
1543,1711442518506578309,2052,2052,2040,2058,2057,2053,1195
1544,1711442518516585596,2056,2056,2062,2058,2056,2055,1196
1545,1711442518526579927,2051,2053,2047,2048,2041,2047,1195
1546,1711442518536580822,2056,2056,2021,2058,2049,2049,1197
1547,1711442518546580244,2055,2051,2051,2056,2049,2052,1196
1548,1711442518556563385,2060,2063,2097,2060,2056,2053,1196
1549,1711442518566581552,2056,2053,2052,2053,2050,2053,1197
1550,1711442518576562418,2054,2050,2046,2053,2054,2055,1197
1551,1711442518586563924,2052,2052,2064,2047,2049,2049,1199
1552,1711442518596568315,2053,2056,2061,2050,2045,2049,1196
1553,1711442518606561555,2054,2050,2043,2055,2052,2055,1197
1554,1711442518616602044,2056,2052,2040,2056,2052,2053,1196
1555,1711442518626557232,2055,2045,2031,2052,2052,2056,1197
1556,1711442518636567825,2056,2052,2012,2060,2048,2052,1197
1557,1711442518646565704,2054,2054,2052,2060,2056,2053,1195
1558,1711442518656565065,2057,2056,2063,2056,2059,2057,1195
1559,1711442518666569637,2056,2051,2051,2058,2056,2057,1197
1560,1711442518676569149,2055,2065,2058,2056,2054,2056,1195
1561,1711442518686562519,2055,2054,2056,2051,2052,2050,1196
1562,1711442518696557081,2056,2054,2028,2060,2050,2047,1192
1563,1711442518706561252,2054,2057,2081,2050,2046,2053,1193
1564,1711442518716557919,2056,2052,2047,2056,2056,2054,1197
1565,1711442518726593659,2057,2056,2053,2053,2054,2052,1194
1566,1711442518736553045,2054,2052,2054,2050,2051,2056,1197
1567,1711442518746565632,2060,2062,2100,2059,2053,2053,1196
1568,1711442518756561547,2054,2053,2049,2053,2050,2051,1197
1569,1711442518766567220,2054,2053,2048,2057,2052,2047,1194
1570,1711442518776574927,2056,2055,2061,2056,2049,2056,1195
1571,1711442518786560874,2053,2052,2030,2056,2056,2056,1198
1572,1711442518796558162,2056,2054,2030,2057,2056,2056,1198
1573,1711442518806548776,2056,2054,2056,2045,2034,2044,1194
1574,1711442518816555852,2055,2053,2047,2060,2061,2059,1196
1575,1711442518826559272,2056,2052,2052,2059,2060,2058,1195
1576,1711442518836562110,2053,2051,2031,2060,2056,2056,1197
1577,1711442518846563536,2052,2047,2026,2050,2044,2045,1192
1578,1711442518856560472,2062,2061,2045,2062,2056,2057,1197
1579,1711442518866565355,2057,2065,2088,2058,2056,2055,1197
1580,1711442518876568063,2056,2055,2072,2059,2052,2054,1194
1581,1711442518886559519,2053,2044,2035,2053,2057,2056,1197
1582,1711442518896565182,2060,2060,2077,2058,2068,2058,1198
1583,1711442518906560817,2051,2054,2046,2052,2045,2052,1197
1584,1711442518916559708,2056,2051,2040,2058,2060,2057,1196
1585,1711442518926567445,2053,2052,2044,2059,2061,2058,1196
1586,1711442518936569852,2057,2060,2053,2056,2056,2054,1198
1587,1711442518946556670,2058,2060,2055,2056,2053,2056,1197
1588,1711442518956562254,2056,2048,2032,2052,2060,2057,1198
1589,1711442518966557939,2056,2050,2039,2056,2052,2053,1196
1590,1711442518976569773,2056,2052,2056,2056,2053,2056,1197
1591,1711442518986551622,2056,2056,2065,2063,2060,2056,1197
1592,1711442518996567655,2058,2050,2047,2056,2054,2052,1194
1593,1711442519006564943,2057,2052,2042,2053,2053,2057,1196
1594,1711442519016581657,2057,2056,2066,2057,2056,2053,1197
1595,1711442519026573816,2053,2052,2056,2050,2045,2053,1196
1596,1711442519036555554,2056,2056,2069,2056,2052,2056,1195
1597,1711442519046567119,2056,2052,2040,2056,2044,2054,1196
1598,1711442519056566831,2057,2056,2065,2057,2057,2054,1197
1599,1711442519066568368,2055,2058,2058,2058,2052,2051,1195
1600,1711442519076578119,2055,2056,2070,2060,2059,2054,1194
1601,1711442519086553756,2053,2052,2028,2054,2053,2051,1196
1602,1711442519096549351,2056,2057,2056,2056,2053,2054,1195
1603,1711442519106567859,2053,2049,2041,2057,2056,2049,1196
1604,1711442519116564936,2059,2053,2048,2056,2047,2052,1196
1605,1711442519126583004,2056,2051,2038,2056,2052,2053,1195
1606,1711442519136566165,2055,2055,2049,2053,2056,2054,1196
1607,1711442519146566668,2053,2050,2042,2045,2042,2044,1194
1608,1711442519156563626,2058,2050,2045,2064,2062,2057,1195
1609,1711442519166567476,2064,2074,2109,2060,2056,2052,1196
1610,1711442519176594010,2064,2057,2060,2056,2056,2056,1200
1611,1711442519186565518,2056,2057,2046,2053,2056,2054,1200
1612,1711442519196572084,2056,2053,2046,2053,2053,2051,1198
1613,1711442519206568630,2054,2054,2050,2061,2053,2056,1198
1614,1711442519216566700,2056,2052,2061,2041,2043,2049,1196
1615,1711442519226599906,2053,2052,2066,2057,2052,2050,1198
1616,1711442519236590852,2057,2051,2056,2057,2056,2052,1197
1617,1711442519246556660,2058,2054,2051,2049,2056,2056,1198
1618,1711442519256566552,2058,2060,2083,2065,2059,2060,1197
1619,1711442519266565713,2056,2051,2051,2053,2048,2046,1194
1620,1711442519276563351,2053,2052,2046,2056,2056,2054,1194
1621,1711442519286567573,2054,2053,2052,2056,2053,2058,1197
1622,1711442519296553719,2054,2047,2028,2060,2061,2056,1195
1623,1711442519306564213,2053,2052,2042,2057,2050,2052,1198
1624,1711442519316561580,2059,2060,2052,2061,2053,2049,1197
1625,1711442519326592743,2053,2052,2052,2056,2052,2055,1196
1626,1711442519337637145,2058,2051,2011,2056,2056,2055,1195
1627,1711442519346568613,2055,2052,2058,2058,2060,2056,1196
1628,1711442519356565851,2056,2053,2041,2061,2061,2058,1197
1629,1711442519366569140,2056,2055,2062,2053,2051,2053,1197
1630,1711442519376581867,2056,2052,2056,2053,2042,2052,1196
1631,1711442519386556853,2053,2056,2058,2061,2057,2057,1197
1632,1711442519396558659,2061,2069,2108,2062,2059,2057,1196
1633,1711442519406572008,2056,2051,2052,2056,2056,2056,1198
1634,1711442519416560990,2056,2057,2044,2057,2060,2054,1198
1635,1711442519426585159,2056,2050,2052,2056,2053,2052,1196
1636,1711442519436562749,2051,2050,2039,2056,2057,2054,1196
1637,1711442519446574996,2059,2063,2064,2068,2057,2055,1196
1638,1711442519456573997,2056,2051,2046,2050,2056,2055,1195
1639,1711442519466575553,2057,2064,2103,2058,2053,2055,1198
1640,1711442519476599892,2058,2052,2051,2056,2059,2053,1196
1641,1711442519486578163,2055,2054,2051,2052,2038,2046,1192
1642,1711442519497052185,2056,2064,2109,2058,2057,2056,1196
1643,1711442519506572398,2052,2052,2053,2054,2050,2050,1196
1644,1711442519516568234,2057,2059,2060,2064,2055,2050,1200
1645,1711442519526585359,2056,2048,2042,2059,2059,2057,1197
1646,1711442519536591214,2058,2056,2051,2061,2058,2056,1197
1647,1711442519546571709,2053,2056,2059,2048,2046,2052,1196
1648,1711442519556582173,2059,2058,2086,2049,2054,2052,1196
1649,1711442519566574872,2056,2049,2043,2049,2046,2052,1197
1650,1711442519576594482,2057,2054,2053,2064,2064,2059,1196
1651,1711442519586576220,2056,2054,2054,2060,2057,2056,1199
1652,1711442519596580091,2056,2053,2056,2056,2053,2055,1197
1653,1711442519606574072,2056,2056,2042,2055,2057,2057,1196
1654,1711442519616573243,2058,2052,2033,2061,2055,2056,1198
1655,1711442519626610127,2056,2055,2058,2056,2052,2049,1196
1656,1711442519636607895,2056,2050,2042,2056,2059,2056,1196
1657,1711442519646586077,2056,2056,2064,2058,2053,2052,1197
1658,1711442519656570981,2058,2053,2045,2056,2052,2052,1200
1659,1711442519666573900,2053,2053,2049,2056,2057,2053,1197
1660,1711442519676583972,2058,2056,2068,2061,2057,2053,1194
1661,1711442519686576431,2058,2061,2094,2060,2053,2056,1195
1662,1711442519696587114,2056,2058,2052,2060,2058,2056,1197
1663,1711442519706580275,2058,2053,2055,2053,2050,2054,1196
1664,1711442519716579135,2062,2053,2056,2055,2054,2056,1198
1665,1711442519726596672,2058,2056,2073,2054,2054,2056,1196
1666,1711442519736594190,2064,2073,2144,2060,2041,2049,1195
1667,1711442519746572843,2056,2049,2047,2048,2057,2058,1196
1668,1711442519756581622,2056,2053,2053,2053,2056,2053,1195
1669,1711442519766583299,2052,2052,2050,2052,2048,2048,1196
1670,1711442519776589764,2050,2054,2040,2054,2053,2056,1194
1671,1711442519786581642,2053,2054,2064,2052,2052,2057,1196
1672,1711442519796578869,2058,2050,2034,2050,2054,2054,1196
1673,1711442519806580966,2053,2056,2054,2050,2044,2051,1195
1674,1711442519816582152,2056,2053,2053,2060,2056,2054,1196
1675,1711442519826591211,2061,2052,2053,2056,2050,2050,1197
1676,1711442519836584242,2056,2053,2052,2056,2056,2053,1196
1677,1711442519846569857,2057,2053,2062,2057,2053,2057,1198
1678,1711442519856577124,2053,2049,2037,2052,2050,2053,1196
1679,1711442519866584391,2050,2046,2018,2059,2052,2052,1193
1680,1711442519876583713,2058,2056,2065,2054,2055,2054,1194
1681,1711442519886578185,2053,2052,2049,2058,2060,2056,1198
1682,1711442519896563611,2057,2056,2053,2059,2060,2057,1197
1683,1711442519906563223,2056,2057,2056,2061,2053,2052,1195
1684,1711442519916565010,2051,2053,2037,2044,2040,2046,1194
1685,1711442519926591603,2056,2053,2050,2058,2050,2052,1196
1686,1711442519936579704,2058,2051,2056,2055,2052,2051,1195
1687,1711442519946587621,2056,2050,2052,2053,2056,2050,1197
1688,1711442519956588636,2058,2056,2063,2057,2056,2052,1197
1689,1711442519966580494,2056,2052,2036,2054,2054,2053,1195
1690,1711442519976581819,2060,2066,2083,2059,2053,2057,1195
1691,1711442519986561604,2052,2052,2050,2053,2050,2050,1197
1692,1711442519996565174,2056,2052,2045,2050,2052,2052,1200
1693,1711442520006563684,2054,2052,2056,2053,2048,2056,1196
1694,1711442520016591401,2056,2054,2051,2053,2057,2060,1198
1695,1711442520026583879,2057,2052,2050,2058,2054,2054,1196
1696,1711442520036571529,2057,2056,2053,2052,2053,2052,1197
1697,1711442520046566092,2054,2060,2077,2054,2056,2056,1197
1698,1711442520056564622,2052,2047,2045,2049,2056,2055,1197
1699,1711442520066572771,2056,2054,2051,2056,2054,2056,1198
1700,1711442520076568597,2055,2054,2049,2055,2054,2053,1195
1701,1711442520086563039,2056,2056,2050,2055,2059,2058,1195
1702,1711442520096569264,2056,2056,2050,2052,2059,2052,1195
1703,1711442520106570591,2056,2053,2047,2059,2058,2057,1196
1704,1711442520116564843,2056,2060,2081,2057,2053,2052,1194
1705,1711442520126599501,2053,2056,2060,2056,2052,2056,1196
1706,1711442520136553738,2057,2056,2059,2064,2058,2056,1195
1707,1711442520146554564,2058,2052,2049,2060,2056,2052,1198
1708,1711442520156555628,2056,2055,2052,2067,2068,2061,1196
1709,1711442520166558257,2055,2052,2055,2061,2059,2055,1197
1710,1711442520176616270,2056,2053,2047,2056,2056,2052,1198
1711,1711442520186559595,2060,2055,2037,2063,2052,2055,1198
1712,1711442520196562344,2056,2059,2064,2057,2060,2057,1196
1713,1711442520206562779,2052,2054,2052,2054,2053,2052,1198
1714,1711442520216566409,2056,2058,2060,2059,2060,2057,1197
1715,1711442520226566301,2053,2049,2042,2058,2053,2053,1198
1716,1711442520236572697,2057,2060,2060,2059,2057,2056,1196
1717,1711442520246573673,2056,2053,2049,2053,2050,2050,1197
1718,1711442520256567123,2059,2055,2058,2056,2053,2052,1197
1719,1711442520266569711,2057,2058,2057,2062,2058,2056,1197
1720,1711442520276568332,2052,2052,2052,2054,2056,2050,1193
1721,1711442520286555691,2058,2056,2050,2059,2059,2057,1198
1722,1711442520296570793,2055,2053,2041,2058,2056,2052,1196
1723,1711442520306566529,2058,2056,2047,2064,2050,2051,1195
1724,1711442520316565640,2055,2052,2049,2060,2062,2058,1196
1725,1711442520326587414,2056,2057,2072,2057,2050,2051,1197
1726,1711442520336561269,2058,2056,2055,2057,2057,2056,1196
1727,1711442520346570900,2056,2046,2040,2049,2048,2050,1197
1728,1711442520356566154,2061,2069,2090,2057,2058,2057,1197
1729,1711442520366568482,2051,2059,2083,2054,2050,2056,1197
1730,1711442520376562955,2053,2056,2052,2057,2052,2055,1196
1731,1711442520386563699,2056,2052,2054,2060,2057,2052,1196
1732,1711442520396565616,2056,2056,2061,2057,2054,2053,1197
1733,1711442520406561482,2052,2056,2051,2054,2057,2055,1198
1734,1711442520416584699,2056,2055,2052,2055,2050,2052,1200
1735,1711442520426566157,2053,2053,2056,2058,2051,2051,1199
1736,1711442520436564788,2056,2053,2050,2058,2057,2057,1196
1737,1711442520446564822,2057,2061,2087,2060,2053,2054,1195
1738,1711442520456562260,2057,2057,2070,2054,2053,2055,1197
1739,1711442520466563696,2052,2054,2044,2062,2053,2053,1198
1740,1711442520476568078,2056,2054,2058,2055,2044,2044,1191
1741,1711442520486559674,2056,2053,2046,2058,2052,2053,1193
1742,1711442520496560730,2056,2064,2105,2063,2066,2058,1197
1743,1711442520506561866,2060,2062,2073,2061,2058,2057,1195
1744,1711442520516576506,2060,2052,2056,2056,2052,2056,1196
1745,1711442520526560179,2059,2056,2066,2065,2064,2059,1195
1746,1711442520536562587,2057,2056,2049,2060,2060,2057,1197
1747,1711442520546558823,2056,2052,2054,2051,2047,2054,1196
1748,1711442520556560429,2057,2054,2049,2058,2061,2058,1196
1749,1711442520566557627,2056,2050,2044,2056,2049,2052,1197
1750,1711442520576564374,2057,2056,2063,2052,2058,2052,1197
1751,1711442520586557253,2056,2051,2050,2058,2052,2056,1198
1752,1711442520596555132,2056,2050,2044,2057,2057,2052,1197
1753,1711442520606555978,2056,2052,2043,2056,2060,2056,1198
1754,1711442520616555730,2057,2052,2051,2060,2057,2055,1197
1755,1711442520626574459,2059,2069,2105,2064,2052,2053,1197
1756,1711442520636572899,2056,2055,2056,2055,2056,2056,1197
1757,1711442520646563375,2056,2053,2067,2048,2049,2053,1197
1758,1711442520656561895,2056,2061,2096,2052,2053,2056,1199
1759,1711442520666567218,2053,2053,2056,2053,2045,2053,1197
1760,1711442520676562453,2060,2059,2071,2057,2056,2052,1195
1761,1711442520686565221,2056,2056,2080,2053,2052,2054,1195
1762,1711442520696564062,2056,2056,2054,2058,2061,2059,1197
1763,1711442520706566140,2059,2056,2059,2060,2057,2059,1197
1764,1711442520716563217,2050,2052,2057,2050,2051,2056,1196
1765,1711442520726579401,2057,2054,2063,2047,2049,2052,1197
1766,1711442520736558465,2059,2052,2048,2054,2053,2053,1196
1767,1711442520746566534,2054,2052,2046,2053,2048,2054,1197
1768,1711442520756560184,2057,2056,2075,2056,2053,2052,1196
1769,1711442520766573634,2058,2058,2036,2057,2051,2053,1196
1770,1711442520777159798,2052,2053,2052,2058,2058,2053,1198
1771,1711442520786569362,2049,2048,2047,2058,2053,2054,1199
1772,1711442520796566860,2056,2052,2054,2058,2055,2056,1198
1773,1711442520806571293,2056,2052,2048,2053,2050,2053,1196
1774,1711442520816583027,2062,2059,2078,2061,2060,2054,1198
1775,1711442520826561169,2056,2052,2045,2060,2052,2056,1198
1776,1711442520836553529,2056,2056,2043,2059,2056,2053,1197
1777,1711442520846566887,2051,2056,2059,2052,2048,2056,1197
1778,1711442520856563945,2056,2053,2057,2056,2060,2056,1195
1779,1711442520866556053,2056,2056,2067,2064,2056,2056,1196
1780,1711442520876561778,2052,2048,2042,2042,2044,2049,1194
1781,1711442520886558023,2056,2052,2050,2057,2053,2054,1197
1782,1711442520896566883,2057,2068,2092,2060,2060,2053,1198
1783,1711442520906562449,2056,2053,2041,2056,2053,2055,1197
1784,1711442520916563874,2058,2054,2068,2058,2056,2052,1198
1785,1711442520926569929,2053,2055,2055,2052,2050,2052,1197
1786,1711442520936564332,2056,2056,2056,2063,2063,2057,1197
1787,1711442520946556440,2052,2052,2049,2060,2057,2056,1197
1788,1711442520956558397,2053,2054,2052,2057,2056,2055,1198
1789,1711442520966558180,2057,2058,2060,2057,2060,2052,1197
1790,1711442520976567421,2053,2050,2046,2054,2058,2052,1197
1791,1711442520986559499,2052,2048,2044,2054,2049,2050,1195
1792,1711442520996567287,2057,2053,2032,2057,2058,2056,1197
1793,1711442521006556761,2053,2054,2052,2050,2050,2056,1197
1794,1711442521016596520,2060,2060,2077,2060,2057,2055,1198
1795,1711442521026571546,2056,2052,2051,2050,2042,2048,1197
1796,1711442521036555299,2056,2050,2042,2060,2053,2053,1197
1797,1711442521046570871,2059,2059,2045,2059,2052,2056,1199
1798,1711442521056568430,2056,2056,2068,2055,2052,2053,1197
1799,1711442521066567061,2056,2056,2054,2060,2055,2055,1196
1800,1711442521076580350,2057,2055,2061,2053,2053,2051,1197
1801,1711442521086564293,2055,2050,2036,2057,2054,2054,1195
1802,1711442521096574256,2058,2057,2048,2054,2054,2055,1198
1803,1711442521106565783,2059,2052,2050,2054,2048,2049,1196
1804,1711442521116567600,2051,2047,2038,2054,2055,2051,1197
1805,1711442521126584817,2056,2056,2056,2048,2046,2049,1197
1806,1711442521136577426,2054,2054,2061,2057,2057,2056,1197
1807,1711442521146557823,2053,2054,2059,2057,2050,2052,1196
1808,1711442521156566553,2059,2062,2096,2059,2054,2058,1197
1809,1711442521166568500,2058,2050,2040,2056,2052,2053,1197
1810,1711442521176591296,2053,2051,2052,2053,2056,2056,1197
1811,1711442521186568406,2058,2058,2053,2060,2056,2057,1195
1812,1711442521196566145,2054,2055,2058,2049,2050,2052,1197
1813,1711442521206563734,2055,2051,2051,2054,2053,2056,1197
1814,1711442521216564189,2057,2053,2056,2050,2056,2055,1195
1815,1711442521226583449,2056,2054,2047,2054,2049,2052,1196
1816,1711442521236575898,2052,2047,2043,2053,2058,2056,1196
1817,1711442521246565502,2059,2061,2094,2061,2053,2056,1197
1818,1711442521256565626,2053,2051,2047,2057,2052,2052,1195
1819,1711442521266567293,2056,2064,2076,2064,2056,2056,1195
1820,1711442521276565473,2056,2057,2058,2059,2057,2050,1193
1821,1711442521286566779,2056,2054,2065,2056,2046,2054,1196
1822,1711442521296553969,2058,2063,2074,2060,2060,2056,1196
1823,1711442521306567257,2053,2057,2073,2063,2056,2054,1197
1824,1711442521316567180,2056,2052,2038,2060,2060,2054,1195
1825,1711442521326578405,2051,2047,2040,2058,2053,2056,1195
1826,1711442521336576234,2056,2053,2053,2054,2053,2057,1195
1827,1711442521346569776,2056,2061,2096,2052,2054,2053,1197
1828,1711442521356568487,2056,2054,2040,2042,2051,2054,1196
1829,1711442521366571045,2056,2057,2056,2057,2055,2056,1198
1830,1711442521376565198,2053,2056,2049,2049,2052,2048,1197
1831,1711442521386580691,2059,2066,2066,2061,2056,2054,1197
1832,1711442521396540669,2054,2053,2053,2052,2050,2051,1197
1833,1711442521406562173,2054,2050,2046,2053,2049,2054,1198
1834,1711442521416566916,2056,2053,2035,2058,2056,2056,1197
1835,1711442521426595664,2056,2056,2065,2056,2054,2055,1197
1836,1711442521436566192,2056,2054,2050,2056,2049,2048,1197
1837,1711442521446556266,2053,2046,2008,2058,2056,2057,1197
1838,1711442521456569364,2056,2056,2084,2057,2057,2054,1195
1839,1711442521466565099,2055,2051,2042,2053,2048,2048,1196
1840,1711442521476565333,2056,2052,2049,2052,2052,2052,1193
1841,1711442521486583040,2054,2047,2041,2060,2053,2056,1195
1842,1711442521496563697,2058,2056,2043,2046,2048,2049,1194
1843,1711442521506566967,2058,2057,2070,2060,2049,2052,1198
1844,1711442521516607598,2056,2053,2052,2049,2052,2051,1195
1845,1711442521526567035,2055,2056,2065,2058,2047,2052,1197
1846,1711442521536559444,2054,2056,2070,2058,2057,2056,1197
1847,1711442521546566882,2051,2051,2047,2056,2054,2055,1197
1848,1711442521556566014,2059,2068,2129,2056,2054,2057,1196
1849,1711442521566567009,2058,2052,2053,2057,2050,2053,1197
1850,1711442521576565249,2057,2056,2056,2052,2056,2052,1200
1851,1711442521586567246,2062,2057,2040,2064,2056,2056,1199
1852,1711442521596566468,2052,2053,2052,2057,2052,2051,1198
1853,1711442521606568014,2052,2047,2029,2061,2051,2052,1198
1854,1711442521616591743,2054,2057,2082,2056,2054,2052,1198
1855,1711442521626573111,2054,2053,2053,2052,2048,2052,1198
1856,1711442521636565170,2056,2058,2056,2057,2060,2057,1200
1857,1711442521646568109,2053,2050,2049,2056,2051,2053,1196
1858,1711442521656567902,2053,2047,2036,2046,2048,2051,1197
1859,1711442521666570200,2054,2058,2071,2056,2048,2054,1199
1860,1711442521676566647,2054,2053,2041,2056,2056,2056,1195
1861,1711442521686567182,2053,2053,2057,2060,2058,2054,1196
1862,1711442521696567306,2057,2054,2056,2057,2054,2052,1197
1863,1711442521706567730,2056,2056,2050,2054,2052,2054,1197
1864,1711442521716577613,2053,2053,2051,2056,2054,2056,1196
1865,1711442521726579078,2061,2062,2074,2054,2049,2054,1197
1866,1711442521736551078,2056,2051,2028,2052,2056,2052,1196
1867,1711442521746552885,2053,2051,2047,2057,2057,2053,1197
1868,1711442521756553470,2058,2056,2033,2052,2056,2053,1196
1869,1711442521766572129,2053,2051,2036,2044,2032,2045,1194
1870,1711442521776587121,2052,2055,2054,2060,2058,2055,1197
1871,1711442521786580092,2053,2050,2052,2061,2054,2053,1196
1872,1711442521796579173,2061,2056,2072,2050,2056,2056,1198
1873,1711442521806574939,2055,2054,2059,2052,2049,2052,1197
1874,1711442521816592055,2056,2057,2088,2051,2049,2050,1198
1875,1711442521826575588,2059,2056,2053,2064,2055,2056,1199
1876,1711442521836557387,2053,2047,2045,2047,2048,2049,1198
1877,1711442521846559254,2055,2052,2032,2064,2052,2053,1196
1878,1711442521856575998,2054,2052,2052,2061,2065,2056,1196
1879,1711442521866576172,2056,2053,2052,2052,2046,2055,1196
1880,1711442521876579282,2056,2060,2082,2054,2056,2057,1194
1881,1711442521886557284,2057,2058,2073,2057,2056,2056,1197
1882,1711442521896559662,2056,2057,2056,2058,2058,2057,1195
1883,1711442521906563012,2058,2054,2050,2064,2060,2057,1195
1884,1711442521916560230,2054,2054,2053,2053,2056,2052,1197
1885,1711442521926578298,2056,2061,2076,2052,2050,2048,1197
1886,1711442521936564215,2054,2051,2046,2051,2059,2053,1196
1887,1711442521946562876,2056,2053,2066,2049,2047,2057,1196
1888,1711442521956562850,2052,2049,2052,2058,2058,2053,1195
1889,1711442521966563124,2058,2053,2050,2058,2053,2053,1196
1890,1711442521976559160,2059,2057,2039,2056,2053,2056,1196
1891,1711442521986562620,2057,2054,2050,2056,2056,2053,1197
1892,1711442521996564175,2051,2050,2052,2058,2057,2057,1196
1893,1711442522006564841,2054,2055,2052,2058,2051,2053,1198
1894,1711442522016587720,2055,2056,2049,2056,2056,2052,1197
1895,1711442522026564820,2057,2052,2067,2052,2046,2052,1198
1896,1711442522036568029,2052,2050,2045,2061,2062,2056,1197
1897,1711442522046564947,2057,2053,2052,2059,2050,2046,1194
1898,1711442522056567466,2055,2056,2056,2056,2056,2053,1197
1899,1711442522066567429,2055,2057,2049,2059,2056,2058,1196
1900,1711442522076567564,2054,2056,2074,2062,2060,2056,1196
1901,1711442522086558901,2052,2046,2037,2060,2055,2054,1195
1902,1711442522096567872,2057,2068,2092,2058,2054,2053,1197
1903,1711442522106567926,2061,2056,2066,2059,2055,2056,1198
1904,1711442522116567028,2058,2059,2069,2061,2060,2056,1195
1905,1711442522126575598,2052,2054,2053,2059,2060,2057,1197
1906,1711442522136558639,2054,2051,2044,2056,2056,2052,1197
1907,1711442522146567631,2053,2050,2040,2058,2050,2050,1196
1908,1711442522156565641,2052,2052,2045,2052,2052,2053,1197
1909,1711442522166565955,2059,2048,2041,2055,2049,2050,1197
1910,1711442522176571990,2056,2060,2085,2047,2051,2054,1198
1911,1711442522186563848,2056,2053,2064,2048,2044,2050,1197
1912,1711442522196574141,2053,2054,2054,2056,2049,2050,1197
1913,1711442522206570188,2054,2052,2046,2047,2042,2050,1198
1914,1711442522216570323,2058,2058,2060,2053,2056,2053,1196
1915,1711442522226593851,2053,2052,2054,2056,2051,2052,1198
1916,1711442522236561553,2053,2056,2059,2055,2056,2050,1197
1917,1711442522246568029,2051,2053,2052,2059,2053,2056,1197
1918,1711442522256546472,2060,2057,2037,2068,2061,2058,1197
1919,1711442522266575310,2056,2061,2075,2059,2058,2056,1195
1920,1711442522276558673,2056,2049,2043,2052,2049,2049,1196
1921,1711442522286560230,2053,2050,2048,2059,2053,2056,1197
1922,1711442522296569030,2053,2051,2055,2056,2053,2052,1198
1923,1711442522306569946,2057,2054,2051,2060,2053,2056,1197
1924,1711442522316567014,2052,2052,2050,2051,2056,2054,1196
1925,1711442522326576325,2054,2056,2060,2063,2055,2050,1197
1926,1711442522336561441,2054,2049,2044,2052,2056,2054,1197
1927,1711442522346570462,2058,2056,2058,2057,2056,2056,1197
1928,1711442522356564755,2056,2057,2089,2059,2062,2057,1196
1929,1711442522366565791,2052,2053,2057,2056,2054,2051,1197
1930,1711442522376562157,2056,2056,2063,2052,2057,2050,1196
1931,1711442522386553675,2056,2053,2053,2056,2053,2053,1197
1932,1711442522396561503,2056,2061,2077,2056,2056,2049,1197
1933,1711442522406555126,2053,2053,2050,2056,2056,2053,1198
1934,1711442522416577352,2056,2053,2055,2064,2057,2056,1198
1935,1711442522426556636,2056,2052,2053,2056,2049,2051,1197
1936,1711442522436568462,2056,2057,2052,2057,2056,2052,1196
1937,1711442522446566192,2053,2050,2041,2061,2053,2056,1197
1938,1711442522456562869,2054,2057,2046,2053,2061,2056,1200
1939,1711442522466562632,2057,2050,2033,2056,2052,2055,1195
1940,1711442522476572666,2056,2053,2031,2056,2058,2052,1195
1941,1711442522486569223,2052,2049,2035,2059,2056,2057,1197
1942,1711442522496565429,2056,2058,2050,2061,2057,2053,1196
1943,1711442522506564401,2056,2051,2054,2058,2049,2053,1196
1944,1711442522516604681,2055,2052,2036,2050,2056,2055,1197
1945,1711442522526571722,2060,2061,2062,2057,2052,2053,1197
1946,1711442522536566166,2056,2051,2052,2044,2044,2049,1198
1947,1711442522546573614,2057,2059,2069,2059,2049,2050,1196
1948,1711442522556566775,2056,2052,2051,2053,2056,2052,1197
1949,1711442522566569634,2056,2052,2054,2055,2051,2054,1197
1950,1711442522576571271,2053,2051,2050,2053,2056,2052,1198
1951,1711442522586556887,2060,2064,2065,2058,2050,2053,1197
1952,1711442522596564716,2056,2053,2050,2046,2052,2050,1197
1953,1711442522606565492,2057,2056,2031,2065,2058,2054,1196
1954,1711442522616562970,2056,2053,2053,2055,2056,2053,1197
1955,1711442522626572162,2060,2052,2051,2057,2050,2054,1198
1956,1711442522636557387,2057,2056,2042,2056,2056,2053,1197
1957,1711442522646559735,2052,2047,2031,2059,2052,2050,1196
1958,1711442522656559579,2057,2055,2054,2054,2056,2052,1194
1959,1711442522666565344,2054,2050,2042,2058,2051,2053,1197
1960,1711442522676557243,2060,2056,2069,2050,2051,2052,1196
1961,1711442522686563658,2058,2057,2064,2056,2056,2056,1195
1962,1711442522696563151,2057,2060,2059,2058,2063,2056,1196
1963,1711442522706559478,2054,2052,2049,2056,2043,2049,1195
1964,1711442522716584188,2059,2059,2046,2056,2056,2054,1196
1965,1711442522726575696,2056,2052,2056,2056,2058,2056,1195
1966,1711442522736560241,2053,2049,2040,2053,2061,2056,1197
1967,1711442522746565234,2053,2052,2052,2057,2053,2056,1200
1968,1711442522756568083,2056,2060,2099,2054,2057,2052,1196
1969,1711442522766571854,2054,2052,2054,2054,2050,2053,1198
1970,1711442522776575996,2054,2052,2062,2053,2058,2052,1198
1971,1711442522786568625,2056,2053,2053,2056,2050,2054,1197
1972,1711442522796566015,2060,2053,2049,2054,2056,2052,1196
1973,1711442522806566560,2058,2062,2097,2062,2056,2059,1195
1974,1711442522816580840,2056,2053,2038,2058,2059,2056,1197
1975,1711442522826566908,2056,2070,2113,2064,2058,2058,1197
1976,1711442522836565879,2054,2053,2048,2053,2052,2053,1197
1977,1711442522846566494,2057,2055,2058,2059,2056,2055,1197
1978,1711442522856566068,2056,2056,2045,2055,2056,2056,1197
1979,1711442522866563477,2052,2045,2038,2056,2054,2052,1196
1980,1711442522876563981,2058,2060,2090,2061,2060,2055,1194
1981,1711442522886569505,2060,2053,2056,2058,2053,2053,1197
1982,1711442522896565672,2057,2055,2059,2044,2047,2046,1194
1983,1711442522906566016,2056,2054,2053,2056,2052,2057,1196
1984,1711442522916570458,2052,2056,2053,2056,2060,2053,1196
1985,1711442522926567938,2057,2059,2078,2062,2053,2055,1197
1986,1711442522936590985,2052,2052,2049,2049,2058,2052,1195
1987,1711442522946570129,2056,2047,2042,2050,2047,2051,1197
1988,1711442522956561807,2056,2054,2068,2044,2050,2054,1195
1989,1711442522966566800,2058,2056,2057,2053,2047,2050,1195
1990,1711442522976562456,2056,2056,2053,2054,2056,2054,1197
1991,1711442522986570154,2056,2051,2049,2050,2042,2053,1196
1992,1711442522996586099,2057,2056,2056,2039,2044,2049,1196
1993,1711442523006581895,2054,2056,2066,2062,2057,2057,1195
1994,1711442523016578682,2053,2048,2049,2052,2056,2052,1198
1995,1711442523026577254,2062,2070,2088,2069,2055,2056,1196
1996,1711442523036559955,2052,2049,2037,2052,2049,2046,1193
1997,1711442523046566010,2056,2048,2029,2053,2048,2053,1197
1998,1711442523056564282,2057,2055,2057,2051,2057,2052,1196
1999,1711442523066564556,2052,2045,2033,2037,2034,2043,1195
2000,1711442523076566073,2053,2052,2058,2050,2052,2052,1194
2001,1711442523086568452,2056,2056,2057,2060,2054,2053,1197
2002,1711442523096569768,2053,2056,2051,2052,2048,2055,1199
2003,1711442523106570173,2054,2053,2039,2058,2050,2055,1196
2004,1711442523116569636,2054,2052,2059,2050,2052,2051,1196
2005,1711442523126593495,2053,2050,2040,2056,2053,2052,1197
2006,1711442523136572149,2058,2065,2109,2052,2056,2057,1194
2007,1711442523146562304,2056,2053,2051,2057,2052,2053,1195
2008,1711442523156569993,2054,2054,2037,2049,2050,2050,1197
2009,1711442523166570448,2057,2055,2054,2060,2056,2056,1195
2010,1711442523176580901,2056,2053,2062,2056,2058,2052,1193
2011,1711442523186570095,2056,2048,2026,2056,2056,2053,1200
2012,1711442523196573275,2058,2070,2106,2063,2064,2057,1196
2013,1711442523206570804,2051,2053,2052,2057,2057,2054,1195
2014,1711442523216570578,2056,2056,2056,2054,2056,2056,1196
2015,1711442523226585801,2057,2053,2056,2060,2056,2054,1193
2016,1711442523236551430,2056,2052,2050,2052,2054,2053,1196
2017,1711442523246570019,2053,2051,2036,2056,2053,2051,1197
2018,1711442523256600330,2054,2056,2042,2060,2060,2054,1196
2019,1711442523266574316,2056,2052,2041,2053,2047,2052,1197
2020,1711442523276572726,2060,2061,2085,2054,2054,2053,1194
2021,1711442523286573652,2055,2053,2053,2056,2052,2054,1197
2022,1711442523296556694,2054,2055,2056,2046,2052,2047,1193
2023,1711442523306579331,2060,2052,2009,2061,2054,2055,1195
2024,1711442523316578444,2052,2050,2036,2056,2062,2056,1195
2025,1711442523326595600,2057,2057,2070,2060,2049,2052,1196
2026,1711442523337021461,2056,2053,2054,2048,2053,2050,1196
2027,1711442523346562245,2056,2054,2049,2059,2056,2057,1195
2028,1711442523356579452,2056,2053,2050,2052,2053,2052,1195
2029,1711442523366562974,2058,2060,2081,2057,2056,2055,1196
2030,1711442523376564622,2055,2052,2052,2056,2056,2052,1197
2031,1711442523386563594,2058,2054,2033,2063,2056,2056,1199
2032,1711442523396577194,2056,2054,2053,2055,2065,2054,1197
2033,1711442523406566968,2054,2053,2052,2056,2044,2053,1198
2034,1711442523416565589,2051,2049,2048,2052,2053,2052,1196
2035,1711442523426576344,2058,2068,2124,2068,2060,2059,1195
2036,1711442523436574164,2054,2054,2053,2055,2052,2052,1197
2037,1711442523446565071,2054,2050,2038,2053,2050,2054,1197
2038,1711442523456570125,2052,2049,2044,2047,2046,2048,1197
2039,1711442523466565960,2056,2053,2037,2058,2050,2053,1197
2040,1711442523476565735,2056,2059,2064,2059,2056,2053,1193
2041,1711442523486566680,2056,2058,2052,2060,2057,2057,1196
2042,1711442523496573648,2056,2057,2056,2056,2059,2056,1197
2043,1711442523506562471,2058,2056,2045,2057,2048,2057,1196
2044,1711442523516564598,2052,2046,2037,2048,2056,2051,1196
2045,1711442523526580383,2057,2060,2072,2061,2052,2056,1195
2046,1711442523536568474,2052,2052,2056,2054,2056,2052,1197
2047,1711442523546555984,2054,2049,2034,2057,2054,2056,1197
2048,1711442523556569675,2053,2053,2054,2047,2048,2050,1196
2049,1711442523566568095,2056,2053,2064,2053,2045,2052,1196
2050,1711442523576607014,2050,2045,2045,2047,2049,2048,1197
2051,1711442523586570188,2056,2049,2049,2058,2053,2053,1197
2052,1711442523596559812,2056,2057,2046,2052,2052,2052,1196
2053,1711442523606568964,2056,2053,2058,2056,2048,2051,1197
2054,1711442523616566252,2054,2053,2048,2053,2056,2057,1196
2055,1711442523626607464,2052,2050,2039,2044,2040,2048,1197
2056,1711442523637561377,2056,2052,2044,2058,2059,2056,1195
2057,1711442523646580501,2056,2053,2054,2051,2046,2053,1195
2058,1711442523656568012,2060,2069,2102,2056,2057,2053,1198
2059,1711442523666568717,2055,2053,2039,2064,2056,2054,1198
2060,1711442523676566907,2057,2056,2055,2051,2058,2054,1197
2061,1711442523686556873,2057,2056,2044,2060,2055,2053,1196
2062,1711442523696566064,2060,2054,2047,2053,2056,2052,1196
2063,1711442523706557843,2054,2051,2053,2052,2054,2055,1196
2064,1711442523716561153,2056,2053,2052,2053,2060,2057,1197
2065,1711442523726560536,2054,2052,2037,2063,2056,2056,1197
2066,1711442523736553677,2057,2061,2114,2057,2060,2053,1196
2067,1711442523746567768,2058,2056,2082,2059,2052,2050,1197
2068,1711442523756564706,2056,2054,2056,2046,2041,2047,1195
2069,1711442523766570191,2055,2049,2051,2061,2053,2053,1196
2070,1711442523776579191,2053,2053,2040,2065,2053,2054,1196
2071,1711442523786593203,2054,2052,2045,2050,2044,2052,1198
2072,1711442523796568780,2053,2056,2066,2056,2066,2055,1198
2073,1711442523806565868,2054,2054,2064,2056,2047,2053,1196
2074,1711442523816566304,2053,2054,2057,2052,2052,2053,1198
2075,1711442523826553563,2055,2050,2050,2054,2046,2051,1195
2076,1711442523836565570,2056,2056,2072,2047,2055,2052,1196
2077,1711442523846568229,2056,2060,2056,2068,2059,2056,1195
2078,1711442523856568594,2053,2053,2044,2052,2056,2055,1196
2079,1711442523866566324,2058,2052,2056,2056,2051,2054,1197
2080,1711442523876567049,2054,2050,2047,2060,2057,2056,1194
2081,1711442523886569107,2054,2050,2051,2059,2053,2050,1196
2082,1711442523896564413,2057,2056,2056,2047,2051,2049,1195
2083,1711442523906568314,2050,2047,2036,2063,2063,2057,1196
2084,1711442523916585621,2052,2044,2029,2052,2057,2051,1196
2085,1711442523926585545,2056,2053,2056,2058,2058,2056,1195
2086,1711442523936565089,2056,2056,2060,2045,2047,2048,1196
2087,1711442523946568761,2053,2052,2044,2064,2053,2054,1197
2088,1711442523956566731,2053,2048,2037,2048,2044,2045,1192
2089,1711442523966569120,2057,2063,2068,2061,2053,2056,1198
2090,1711442523976570647,2056,2053,2050,2052,2056,2053,1197
2091,1711442523986561954,2056,2058,2090,2062,2052,2053,1198
2092,1711442523996557059,2056,2052,2039,2056,2060,2052,1198
2093,1711442524006557774,2056,2046,2011,2063,2062,2058,1197
2094,1711442524016574431,2056,2064,2095,2057,2056,2053,1197
2095,1711442524026568243,2053,2054,2054,2056,2053,2052,1197
2096,1711442524036562847,2056,2057,2051,2054,2056,2055,1196
2097,1711442524046565516,2057,2058,2077,2064,2057,2056,1197
2098,1711442524056567144,2052,2050,2042,2050,2051,2050,1197
2099,1711442524066568190,2056,2057,2061,2060,2054,2057,1196
2100,1711442524076568074,2053,2057,2055,2058,2056,2053,1195
2101,1711442524086568709,2056,2056,2061,2058,2053,2056,1197
2102,1711442524096568934,2047,2045,2043,2048,2052,2049,1197
2103,1711442524106569458,2060,2063,2080,2064,2052,2053,1197
2104,1711442524116562931,2052,2050,2029,2056,2052,2047,1193
2105,1711442524126592821,2052,2045,2034,2053,2053,2052,1196
2106,1711442524136560945,2056,2053,2054,2049,2056,2051,1196
2107,1711442524146567672,2054,2053,2051,2056,2054,2054,1196
2108,1711442524156576804,2056,2056,2053,2054,2051,2048,1195
2109,1711442524166568622,2055,2051,2053,2058,2052,2052,1196
2110,1711442524176572324,2057,2050,2054,2054,2057,2052,1198
2111,1711442524186572018,2057,2052,2033,2060,2058,2057,1200
2112,1711442524196567353,2060,2065,2100,2056,2056,2051,1197
2113,1711442524206564983,2054,2056,2056,2055,2049,2056,1196
2114,1711442524216565709,2053,2052,2049,2052,2054,2056,1196
2115,1711442524226563599,2053,2058,2077,2060,2057,2056,1196
2116,1711442524236559866,2057,2058,2052,2064,2065,2059,1199
2117,1711442524246558828,2058,2061,2089,2056,2053,2056,1197
2118,1711442524256567489,2053,2052,2052,2054,2053,2046,1193
2119,1711442524266566261,2060,2060,2089,2060,2054,2056,1196
2120,1711442524276570012,2054,2048,2043,2049,2056,2053,1193
2121,1711442524286557904,2056,2056,2054,2059,2057,2056,1196
2122,1711442524296567496,2057,2065,2087,2055,2056,2056,1196
2123,1711442524306568352,2054,2050,2036,2061,2053,2051,1195
2124,1711442524316565161,2054,2052,2044,2049,2055,2052,1195
2125,1711442524326579993,2054,2056,2053,2056,2052,2056,1198
2126,1711442524336566803,2056,2056,2044,2058,2051,2047,1193
2127,1711442524346564061,2050,2046,2047,2053,2053,2053,1198
2128,1711442524356562643,2058,2062,2077,2060,2060,2053,1195
2129,1711442524366564101,2056,2056,2061,2056,2048,2048,1198
2130,1711442524376602607,2056,2054,2058,2049,2045,2052,1198
2131,1711442524386560382,2054,2054,2044,2064,2057,2057,1197
2132,1711442524396558492,2053,2051,2046,2056,2056,2050,1197
2133,1711442524406559288,2056,2050,2058,2050,2048,2053,1196
2134,1711442524416597315,2052,2056,2072,2053,2057,2054,1196
2135,1711442524426559407,2055,2047,2044,2057,2052,2054,1197
2136,1711442524436562257,2057,2060,2074,2052,2056,2054,1195
2137,1711442524446558484,2053,2052,2036,2057,2049,2053,1197
2138,1711442524456564149,2058,2052,2051,2052,2049,2052,1197
2139,1711442524466561159,2056,2053,2030,2059,2059,2057,1198
2140,1711442524476565140,2050,2052,2058,2048,2051,2050,1195
2141,1711442524486573290,2056,2053,2045,2057,2047,2051,1195
2142,1711442524496564478,2058,2056,2050,2052,2053,2052,1195
2143,1711442524506574922,2056,2056,2051,2061,2053,2055,1199
2144,1711442524516590847,2058,2046,2000,2052,2056,2052,1195
2145,1711442524526587755,2062,2072,2085,2069,2064,2059,1196
2146,1711442524536575036,2058,2064,2094,2056,2052,2053,1196
2147,1711442524546569159,2056,2044,2024,2052,2050,2053,1197
2148,1711442524556569444,2055,2062,2065,2050,2051,2051,1195
2149,1711442524566571663,2058,2050,2047,2057,2050,2056,1196
2150,1711442524576590092,2057,2057,2058,2055,2056,2056,1197
2151,1711442524586562905,2056,2056,2056,2054,2044,2052,1197
2152,1711442524596562258,2051,2051,2051,2056,2056,2053,1196
2153,1711442524606563144,2056,2053,2054,2053,2041,2048,1198
2154,1711442524616559471,2054,2053,2047,2059,2059,2056,1198
2155,1711442524626561339,2058,2065,2112,2058,2052,2052,1194
2156,1711442524636570100,2053,2058,2072,2064,2059,2058,1195
2157,1711442524646571077,2055,2053,2056,2059,2054,2054,1195
2158,1711442524656570820,2061,2061,2064,2064,2056,2056,1197
2159,1711442524666577687,2056,2058,2069,2057,2050,2056,1198
2160,1711442524676567422,2053,2046,2042,2056,2057,2056,1195
2161,1711442524686572486,2059,2057,2045,2057,2054,2053,1197
2162,1711442524696558153,2053,2053,2056,2052,2054,2052,1196
2163,1711442524706578185,2057,2052,2044,2056,2052,2052,1196
2164,1711442524716606584,2056,2056,2057,2056,2056,2053,1198
2165,1711442524726569648,2058,2059,2088,2056,2052,2056,1196
2166,1711442524736572437,2052,2053,2052,2052,2056,2053,1196
2167,1711442524746571310,2056,2049,2036,2057,2053,2056,1198
2168,1711442524756571023,2052,2048,2046,2049,2052,2051,1196
2169,1711442524766571539,2056,2054,2043,2060,2047,2046,1194
2170,1711442524776589337,2054,2051,2053,2053,2056,2050,1198
2171,1711442524786583119,2064,2064,2096,2057,2041,2049,1198
2172,1711442524796565040,2056,2064,2080,2057,2058,2056,1196
2173,1711442524806558190,2056,2050,2044,2058,2052,2053,1196
2174,1711442524816583503,2056,2056,2045,2055,2053,2048,1196
2175,1711442524826558409,2052,2043,2034,2058,2055,2050,1197
2176,1711442524836562051,2056,2048,2032,2052,2058,2055,1196
2177,1711442524846567867,2056,2058,2046,2063,2061,2061,1197
2178,1711442524856565105,2054,2052,2046,2051,2054,2053,1194
2179,1711442524866568947,2056,2054,2058,2056,2049,2050,1197
2180,1711442524876581505,2056,2054,2050,2055,2056,2056,1196
2181,1711442524886565589,2052,2049,2036,2054,2050,2056,1197
2182,1711442524896566876,2053,2057,2064,2056,2056,2052,1198
2183,1711442524906563854,2057,2050,2043,2061,2056,2054,1196
2184,1711442524916586111,2053,2052,2052,2047,2046,2046,1194
2185,1711442524926578932,2057,2055,2052,2064,2058,2057,1200
2186,1711442524936578305,2058,2058,2056,2052,2050,2051,1195
2187,1711442524946570234,2058,2059,2057,2061,2054,2056,1197
2188,1711442524956567432,2058,2061,2073,2060,2058,2056,1197
2189,1711442524966569741,2058,2056,2062,2060,2054,2052,1196
2190,1711442524976563875,2056,2052,2036,2056,2056,2055,1197
2191,1711442524986567626,2053,2046,2021,2060,2056,2057,1198
2192,1711442524996567961,2061,2081,2138,2062,2060,2057,1196
2193,1711442525006568586,2056,2048,2044,2059,2050,2053,1197
2194,1711442525016576937,2056,2054,2050,2052,2056,2054,1195
2195,1711442525026569577,2058,2064,2049,2066,2058,2059,1197
2196,1711442525036573139,2052,2053,2035,2046,2051,2052,1197
2197,1711442525046570929,2056,2054,2058,2069,2064,2060,1197
2198,1711442525056571024,2050,2047,2045,2052,2056,2056,1196
2199,1711442525066570487,2057,2056,2060,2058,2046,2050,1194
2200,1711442525076569019,2054,2051,2047,2052,2056,2053,1196
2201,1711442525086578081,2053,2049,2053,2048,2052,2052,1196
2202,1711442525096570752,2052,2056,2048,2056,2059,2052,1196
2203,1711442525106572640,2056,2053,2049,2059,2055,2052,1195
2204,1711442525116573075,2053,2049,2040,2053,2058,2054,1197
2205,1711442525126573200,2055,2051,2050,2057,2052,2055,1195
2206,1711442525136581470,2055,2052,2053,2052,2056,2052,1198
2207,1711442525146575924,2053,2052,2038,2056,2049,2053,1194
2208,1711442525156577071,2059,2057,2084,2049,2050,2053,1196
2209,1711442525166578368,2054,2056,2058,2056,2045,2049,1196
2210,1711442525176583533,2050,2047,2039,2043,2047,2048,1198
2211,1711442525186574540,2056,2052,2061,2057,2056,2056,1200
2212,1711442525196573412,2054,2056,2089,2056,2052,2050,1195
