seq,time,data[0],data[1],data[2],data[3],data[4],data[5],data[6]
201,1711442186430750826,2057,2058,2064,2052,2050,2047,1193
202,1711442186440749076,2056,2050,2047,2048,2051,2049,1195
203,1711442186450758066,2054,2052,2057,2046,2054,2056,1198
204,1711442186460749062,2056,2055,2051,2068,2058,2055,1197
205,1711442186470748044,2056,2052,2049,2053,2053,2053,1196
206,1711442186480748448,2054,2053,2049,2057,2064,2036,1193
207,1711442186490743923,2052,2056,2050,2040,2043,2048,1197
208,1711442186500747082,2066,2069,2099,2066,2064,2066,1196
209,1711442186510751183,2056,2046,2044,2051,2051,2056,1194
210,1711442186520746688,2053,2051,2044,2047,2045,2037,1193
211,1711442186530772770,2052,2054,2054,2052,2042,2045,1195
212,1711442186540751023,2058,2059,2060,2064,2058,2056,1198
213,1711442186550750995,2054,2051,2051,2067,2050,2051,1197
214,1711442186560753534,2053,2056,2040,2066,2058,2056,1195
215,1711442186570750061,2050,2050,2038,2058,2064,2055,1195
216,1711442186580747679,2056,2053,2019,2058,2060,2065,1195
217,1711442186590748123,2048,2052,2052,2043,2049,2048,1197
218,1711442186600747556,2053,2051,2041,2060,2062,2056,1199
219,1711442186610746266,2056,2057,2083,2062,2049,2056,1196
220,1711442186620746029,2060,2059,2052,2061,2058,2056,1195
221,1711442186630749880,2054,2057,2044,2052,2056,2052,1195
222,1711442186640746817,2052,2052,2037,2054,2053,2056,1195
223,1711442186650746941,2055,2054,2012,2049,2052,2046,1194
224,1711442186660749519,2056,2055,2047,2051,2055,2049,1196
225,1711442186670745264,2058,2056,2038,2061,2061,2054,1197
226,1711442186680747762,2061,2061,2063,2059,2053,2052,1195
227,1711442186690748727,2051,2056,2032,2057,2056,2052,1195
228,1711442186700753390,2056,2056,2040,2085,2076,2062,1196
229,1711442186710752330,2047,2052,2045,2056,2059,2057,1196
230,1711442186720750921,2051,2043,2028,2056,2064,2077,1195
231,1711442186730747398,2046,2050,2051,2045,2044,2040,1194
232,1711442186740748513,2061,2060,2052,2056,2065,2056,1197
233,1711442186750778303,2056,2057,2066,2061,2066,2058,1196
234,1711442186760747047,2047,2051,2052,2053,2046,2047,1194
235,1711442186770743694,2056,2052,2054,2052,2053,2056,1195
236,1711442186780751362,2053,2056,2059,2050,2048,2055,1196
237,1711442186790747398,2053,2045,2050,2042,2034,2044,1193
238,1711442186800761557,2058,2069,2057,2070,2075,2058,1195
239,1711442186810752383,2052,2049,2058,2062,2038,2039,1194
240,1711442186820745895,2050,2053,2052,2060,2041,2047,1192
241,1711442186830748151,2053,2053,2053,2050,2044,2050,1198
242,1711442186840751061,2060,2058,2061,2064,2054,2056,1196
243,1711442186850744131,2056,2052,2045,2052,2046,2053,1197
244,1711442186860748282,2048,2053,2054,2056,2056,2057,1198
245,1711442186870751762,2051,2052,2052,2046,2050,2048,1196
246,1711442186880752036,2054,2052,2049,2056,2056,2052,1197
247,1711442186890750696,2059,2058,2042,2040,2049,2044,1194
248,1711442186900750128,2056,2059,2059,2052,2047,2048,1194
249,1711442186910751414,2055,2054,2052,2049,2052,2058,1197
250,1711442186920750306,2040,2048,2056,2038,2036,2043,1194
251,1711442186930751962,2064,2051,2055,2068,2074,2076,1195
252,1711442186940755171,2048,2052,2057,2064,1964,2048,1197
253,1711442186950765584,2052,2056,2052,2056,2061,2053,1198
254,1711442186960745609,2054,2050,2052,2055,2059,2052,1196
255,1711442186970749300,2056,2064,2157,2051,2051,2060,1197
256,1711442186980756998,2060,2057,2048,2052,2057,2056,1197
257,1711442186990759866,2048,2056,2078,2065,2068,2072,1198
258,1711442187000749490,2059,2061,2058,2061,2052,2032,1193
259,1711442187010759373,2056,2051,2074,2064,2062,2056,1196
260,1711442187020752053,2064,2072,2149,2068,2052,2047,1196
261,1711442187030746607,2053,2053,2052,2057,2057,2058,1197
262,1711442187040748183,2053,2052,2054,2044,2043,2056,1195
263,1711442187050739050,2058,2060,2054,2064,2061,2056,1196
264,1711442187060743381,2056,2052,2051,2057,2052,2057,1194
265,1711442187070748105,2057,2058,2046,2046,2050,2054,1196
266,1711442187080751685,2062,2058,2054,2062,2062,2056,1196
267,1711442187090775344,2052,2070,2103,2053,2035,2047,1194
268,1711442187100739650,2056,2053,2035,2035,2025,2041,1195
269,1711442187110748600,2053,2052,2051,2035,2029,2041,1194
270,1711442187120749997,2074,2059,2056,2059,2061,2063,1196
271,1711442187130752695,2056,2056,2041,2057,2061,2057,1196
272,1711442187140753450,2056,2053,2053,2048,2056,2057,1196
273,1711442187150735571,2056,2056,2056,2055,2060,2053,1198
274,1711442187160751475,2062,2058,2051,2056,2064,2064,1196
275,1711442187170742181,2047,2047,2048,2044,2045,2045,1192
276,1711442187180744339,2056,2056,2101,2050,2042,2056,1196
277,1711442187190749542,2052,2052,2050,2052,2057,2042,1194
278,1711442187200749396,2038,2066,2152,2062,2057,2040,1194
279,1711442187210749900,2052,2050,2062,2054,2049,2049,1195
280,1711442187220743061,2052,2047,2032,2050,2043,2047,1193
281,1711442187230750410,2056,2051,2056,2059,2053,2054,1196
282,1711442187240768567,2054,2058,2060,2061,2060,2053,1195
283,1711442187250750798,2052,2060,2113,2053,2043,2058,1195
284,1711442187260752124,2050,2043,2046,2046,2050,2051,1197
285,1711442187270745184,2052,2052,2052,2052,2054,2066,1196
286,1711442187280749386,2057,2056,2061,2062,2056,2056,1197
287,1711442187290754339,2050,2057,2095,2060,2045,2020,1194
288,1711442187300749032,2063,2059,2063,2066,2078,2075,1198
289,1711442187310747204,2056,2051,2052,2060,2104,2096,1196
290,1711442187320753970,2056,2060,2070,2040,2031,2035,1194
291,1711442187330751559,2060,2061,2089,2064,2036,2060,1197
292,1711442187340742265,2054,2048,2049,2056,2070,2073,1199
293,1711442187350746056,2060,2060,2076,2075,2095,2064,1198
294,1711442187360770926,2056,2056,2056,2069,2066,2045,1196
295,1711442187370746755,2054,2052,2052,2045,2049,2050,1196
296,1711442187380752379,2057,2056,2056,2059,2065,2056,1196
297,1711442187390753234,2056,2056,2059,2045,2048,2041,1194
298,1711442187400741667,2056,2058,2059,2058,2065,2052,1195
299,1711442187410746570,2049,2051,2058,2064,2054,2043,1193
300,1711442187420749008,2069,2062,2068,2052,2044,2063,1194
301,1711442187430732090,2047,2051,2056,2043,2045,2041,1194
302,1711442187440737043,2053,2050,2051,2054,2067,2069,1195
303,1711442187450748628,2061,2057,2068,2060,2068,2075,1197
304,1711442187460745346,2056,2056,2072,2063,2053,2048,1195
305,1711442187470744548,2050,2048,2051,2073,2100,2060,1196
306,1711442187480749722,2056,2056,2057,2050,2031,2047,1194
307,1711442187490740749,2056,2057,2049,2064,2054,2056,1196
308,1711442187500741644,2053,2049,2046,2046,2062,2057,1197
309,1711442187510739794,2057,2057,2062,2063,2027,2039,1194
310,1711442187520745178,2050,2048,2045,2076,2048,2012,1194
311,1711442187530740283,2050,2047,2022,2044,2048,2068,1196
312,1711442187540751257,2053,2049,2036,2058,2008,2076,1199
313,1711442187550741483,2053,2061,2075,2062,2104,2069,1198
314,1711442187560739092,2061,2068,2098,2072,2182,2153,1195
315,1711442187570740298,2050,2057,2059,2058,2145,2092,1197
316,1711442187580744870,2087,2072,2073,2058,1973,2160,1198
317,1711442187590743211,2043,2049,2044,2068,2126,2096,1197
318,1711442187600739057,2050,2044,2008,2045,2200,2065,1197
319,1711442187610738750,2050,2041,2025,2016,1980,2052,1197
320,1711442187620742240,2061,2051,2047,2076,2068,2064,1194
321,1711442187630749648,2046,2036,2005,2037,1956,2049,1194
322,1711442187640747909,2073,2113,2206,2125,2122,2106,1195
323,1711442187650742653,2057,2050,2048,2066,2092,2065,1196
324,1711442187660740693,2059,2056,2057,2058,2056,2101,1194
325,1711442187670746507,2053,2053,2053,2057,2048,2010,1192
326,1711442187680752202,2056,2052,2045,2054,2107,2093,1198
327,1711442187690746555,2052,2049,2051,2037,2014,2043,1192
328,1711442187700744134,2050,2051,2049,2065,2042,2083,1197
329,1711442187710744448,2054,2053,2053,2053,2072,2027,1194
330,1711442187720745444,2055,2053,2050,2072,2097,2132,1197
331,1711442187730748073,2060,2060,2058,2072,2088,2075,1198
332,1711442187740735353,2054,2049,2068,2052,2048,2040,1192
333,1711442187750743251,2056,2049,2052,2049,2035,2037,1196
334,1711442187760743265,2065,2069,2098,2100,2083,2074,1196
335,1711442187770743359,2056,2040,2037,2054,2024,2055,1198
336,1711442187780743753,2048,2053,2057,2056,2078,2045,1194
337,1711442187790750109,2052,2047,1996,2056,2064,2060,1197
338,1711442187800748500,2051,2034,2030,2044,2056,2056,1196
339,1711442187810748093,2066,2073,2058,2060,2042,2012,1196
340,1711442187820776641,2045,2040,2025,2009,1980,2016,1193
341,1711442187830779019,2061,2058,2061,2060,2055,2005,1193
342,1711442187840741602,2056,2057,2058,2076,2086,2104,1194
343,1711442187850746485,2055,2055,2056,2056,2051,2047,1193
344,1711442187860737111,2053,2053,2059,2092,2072,2098,1197
345,1711442187870738827,2056,2057,2076,2060,2118,2065,1194
346,1711442187880752197,2052,2054,2056,2065,2090,2076,1196
347,1711442187890732664,2053,2049,2023,2064,2082,2061,1194
348,1711442187900730283,2052,2044,2014,2044,2046,2049,1196
349,1711442187910728684,2060,2057,2067,2116,2102,2057,1196
350,1711442187920730331,2051,2049,2029,2108,2108,2072,1197
351,1711442187930736776,2058,2060,2096,2052,2043,2055,1197
352,1711442187940752059,2054,2056,2065,2068,2088,2066,1197
353,1711442187950734700,2053,2062,2104,2064,2024,2032,1197
354,1711442187960734805,2056,2050,2041,2057,2072,2041,1192
355,1711442187970738926,2057,2053,2046,2062,2047,2058,1195
356,1711442187980748678,2052,2049,2061,2066,2037,2032,1192
357,1711442187990741168,2056,2060,2084,2052,2051,2037,1192
358,1711442188000736222,2056,2050,2056,2072,2106,2068,1195
359,1711442188010737288,2055,2050,2036,2061,2041,2068,1195
360,1711442188020736411,2064,2044,2005,2057,2052,2058,1194
361,1711442188030740672,2056,2053,2074,2060,2060,2068,1196
362,1711442188040735587,2056,2056,2088,2053,2040,2064,1196
363,1711442188050735081,2054,2049,2053,2058,2089,2025,1194
364,1711442188060734594,2052,2061,2106,2077,2050,2038,1190
365,1711442188070734267,2053,2056,2077,2056,2064,2057,1196
366,1711442188080739061,2061,2060,2060,2064,2073,2056,1198
367,1711442188090755326,2054,2053,2053,2056,2058,2102,1196
368,1711442188100734400,2059,2059,2068,2058,2053,2065,1197
369,1711442188110735417,2052,2047,2047,2056,2055,2063,1193
370,1711442188120735280,2060,2061,2081,2084,2082,2072,1197
371,1711442188130749412,2055,2057,2080,2072,2036,2052,1194
372,1711442188140734017,2055,2056,2057,2032,2058,2052,1194
373,1711442188150741575,2046,2044,2038,2064,2049,2045,1197
374,1711442188160736050,2055,2054,2058,2049,2039,2056,1198
375,1711442188170740181,2058,2058,2056,2060,2050,2071,1197
376,1711442188180766155,2057,2052,2041,2065,2074,2044,1194
377,1711442188190735270,2056,2052,2043,2046,2060,2049,1197
378,1711442188200736056,2058,2054,2051,2042,2032,2044,1192
379,1711442188210735650,2056,2054,2050,2053,2068,2060,1196
380,1711442188220736656,2056,2049,2056,2045,2072,2081,1196
381,1711442188230756828,2077,2099,2165,2105,2149,2078,1199
382,1711442188240740221,2053,2045,2034,2060,2068,2062,1195
383,1711442188250740857,2053,2051,2056,2055,2037,2040,1192
384,1711442188260754797,2056,2051,2048,2068,2066,2066,1195
385,1711442188270741216,2056,2056,2056,2057,2049,2068,1196
386,1711442188280761878,2053,2054,2052,2060,2053,2041,1196
387,1711442188290738128,2057,2065,2052,2069,2061,2056,1197
388,1711442188300740747,2055,2053,2054,2048,2056,2063,1195
389,1711442188310742305,2060,2056,2057,2045,2033,2074,1197
390,1711442188320746477,2055,2054,2057,2054,2061,2056,1196
391,1711442188330744868,2054,2047,2035,2037,2029,2046,1193
392,1711442188340745243,2052,2050,2049,2057,2060,2047,1195
393,1711442188350742201,2069,2060,2052,2045,2032,2057,1198
394,1711442188360742627,2060,2069,2064,2064,2054,2069,1195
395,1711442188370742571,2053,2053,2042,2047,2045,2040,1193
396,1711442188380743286,2066,2068,2142,2067,2038,2029,1193
397,1711442188390749272,2058,2048,2052,2073,2064,2050,1196
398,1711442188400743275,2054,2052,2035,2080,2131,2077,1197
399,1711442188410743029,2057,2051,2023,2053,2054,2045,1193
400,1711442188420744285,2048,2049,2087,2049,2030,2037,1193
401,1711442188430744370,2053,2052,2059,2052,2058,2051,1197
402,1711442188440740286,2053,2052,2045,2040,1996,2037,1192
403,1711442188450744789,2060,2063,2104,2054,2045,2064,1196
404,1711442188460743951,2053,2053,2052,2034,2035,2047,1193
405,1711442188470744757,2056,2048,2034,2056,2048,2047,1193
406,1711442188480742267,2046,2042,2028,2058,2054,2060,1197
407,1711442188490745948,2058,2056,2056,2048,2058,2056,1196
408,1711442188500744831,2056,2052,2057,2066,2066,2056,1197
409,1711442188510745485,2059,2054,2050,2061,2064,2058,1197
410,1711442188520745300,2053,2051,2056,2061,2054,2049,1196
411,1711442188530754962,2062,2058,2050,2045,2065,2079,1197
412,1711442188540746240,2058,2057,2058,2059,2052,2056,1197
413,1711442188550748699,2056,2051,2050,2058,2046,2048,1197
414,1711442188560748232,2054,2051,2049,2042,2036,2040,1194
415,1711442188570746624,2055,2052,2056,2059,2056,2048,1195
416,1711442188580747760,2060,2065,2080,2101,2082,2064,1196
417,1711442188590728538,2056,2052,2056,2054,2055,2050,1196
418,1711442188600728291,2048,2047,2056,2051,2060,2059,1197
419,1711442188610729448,2057,2059,2069,2058,2057,2058,1197
420,1711442188620729051,2052,2052,2053,2056,2047,2050,1196
421,1711442188630752390,2049,2048,2048,2032,2036,2047,1193
422,1711442188640745531,2056,2054,2062,2044,2053,2050,1193
423,1711442188650731880,2058,2061,2064,2075,2080,2066,1195
424,1711442188660730822,2055,2050,2044,2042,2056,2056,1196
425,1711442188670731106,2060,2056,2052,2066,2072,2054,1196
426,1711442188680753183,2064,2071,2075,2081,2082,2068,1196
427,1711442188690785958,2058,2052,2049,2061,2068,2058,1194
428,1711442188700732903,2046,2040,2028,2046,2050,2057,1195
429,1711442188710733448,2071,2068,2064,2072,2086,2068,1198
430,1711442188720733322,2056,2052,2054,2054,2058,2054,1196
431,1711442188730760327,2050,2049,2019,2063,2041,2058,1196
432,1711442188740752396,2047,2048,2039,2050,2052,2056,1195
433,1711442188750736371,2049,2051,2051,2047,2046,2051,1197
434,1711442188760736645,2054,2050,2053,2058,2058,2054,1196
435,1711442188770738022,2057,2056,2061,2051,2043,2042,1192
436,1711442188780737044,2056,2056,2056,2058,2053,2054,1197
437,1711442188790738041,2056,2056,2061,2058,2056,2054,1196
438,1711442188800733938,2050,2054,2068,2048,2043,2047,1194
439,1711442188810736697,2056,2053,2059,2065,2064,2057,1196
440,1711442188820734517,2059,2056,2046,2060,2061,2056,1195
441,1711442188830771200,2061,2077,2168,2065,2059,2057,1195
442,1711442188840737181,2050,2051,2040,2046,2046,2043,1194
443,1711442188850735832,2061,2056,2076,2062,2059,2059,1195
444,1711442188860734023,2048,2053,2053,2055,2057,2052,1195
445,1711442188870735570,2049,2056,2056,2051,2042,2042,1193
446,1711442188880755993,2057,2057,2058,2060,2057,2052,1196
447,1711442188890739135,2054,2056,2061,2067,2067,2053,1197
448,1711442188900755761,2054,2049,2052,2060,2062,2054,1195
449,1711442188910737020,2053,2056,2052,2060,2040,2044,1193
450,1711442188920736713,2052,2046,2048,2048,2050,2064,1197
451,1711442188930772044,2057,2059,2056,2072,2057,2056,1196
452,1711442188940766067,2058,2057,2064,2057,2068,2057,1196
453,1711442188950735614,2054,2049,2056,2038,2056,2054,1198
454,1711442188960735918,2056,2053,2054,2061,2061,2053,1196
455,1711442188970737065,2052,2040,2054,2056,2049,2045,1194
456,1711442188980743131,2048,2042,2056,2020,2050,2053,1196
457,1711442188990741422,2061,2074,2073,2078,2044,2045,1194
458,1711442189000734654,2048,2042,2044,2058,2046,2050,1196
459,1711442189010735890,2057,2068,2019,2044,2047,2049,1197
460,1711442189020733009,2045,2047,2064,2024,2052,2053,1197
461,1711442189030761919,2052,2032,2034,2076,2058,2049,1197
462,1711442189040740693,2054,2050,2034,2066,2066,2057,1194
463,1711442189050739155,2056,2056,2064,2022,2037,2056,1194
464,1711442189060737396,2060,2059,2058,2124,2069,2059,1197
465,1711442189070738173,2056,2054,2047,2053,2032,2056,1196
466,1711442189080739460,2057,2056,2049,2040,2052,2048,1196
467,1711442189090765955,2058,2060,2064,2016,2067,2056,1196
468,1711442189100731564,2056,2051,2056,2058,2057,2055,1198
469,1711442189110732812,2050,2049,2045,2040,2024,2036,1193
470,1711442189120731454,2057,2057,2069,2060,2055,2052,1195
471,1711442189130762938,2057,2058,2057,2057,2057,2054,1196
472,1711442189140736212,2056,2062,2058,2056,2056,2055,1196
473,1711442189150740906,2061,2064,2080,2061,2057,2056,1197
474,1711442189160737093,2056,2055,2058,2046,2056,2050,1196
475,1711442189170737479,2052,2054,2053,2040,2034,2040,1193
476,1711442189180751981,2052,2065,2052,2038,2062,2050,1195
477,1711442189190739552,2056,2051,2012,2052,2050,2056,1194
478,1711442189200737423,2058,2060,2028,2059,2047,2047,1194
479,1711442189210731116,2056,2067,2072,2060,2050,2056,1195
480,1711442189220732032,2061,2065,2064,2064,2061,2057,1198
481,1711442189230747847,2051,2052,2056,2062,2064,2062,1195
482,1711442189240747571,2053,2055,2038,2059,2060,2058,1194
483,1711442189250740442,2056,2056,2035,2052,2056,2058,1195
484,1711442189260734005,2056,2060,2060,2032,2042,2050,1197
485,1711442189270735462,2061,2056,2046,2074,2067,2061,1197
486,1711442189280764402,2060,2067,2062,2047,2043,2053,1196
487,1711442189290740752,2056,2053,2051,2048,2049,2052,1195
488,1711442189300734364,2058,2056,2064,2047,2060,2070,1196
489,1711442189310733187,2055,2058,2059,2054,2060,2047,1193
490,1711442189320733031,2053,2056,2056,2074,2032,2042,1193
491,1711442189330746862,2056,2052,2058,2056,2048,2058,1196
492,1711442189340746246,2062,2060,2060,2041,2036,2050,1195
493,1711442189350731312,2061,2058,2095,2062,2050,2049,1196
494,1711442189360733161,2057,2054,2046,2044,2041,2049,1196
495,1711442189370731953,2057,2052,2047,2054,2046,2042,1192
496,1711442189380773847,2059,2059,2058,2048,2009,2032,1194
497,1711442189390753233,2053,2051,2055,2044,2050,2052,1193
498,1711442189400735624,2056,2056,2057,2052,2054,2062,1198
499,1711442189410739156,2055,2056,2053,2060,2050,2044,1193
500,1711442189420749790,2052,2054,2064,2045,2037,2048,1194
501,1711442189430747050,2056,2045,2049,2045,2052,2062,1197
502,1711442189440738919,2062,2064,2061,2070,2070,2080,1196
503,1711442189450738944,2052,2060,2040,2045,2040,2044,1194
504,1711442189460744600,2055,2047,2053,2050,2060,2056,1196
505,1711442189470735898,2052,2051,2057,2061,2060,2058,1195
506,1711442189480755460,2056,2053,2054,2087,2056,2053,1195
507,1711442189490732040,2055,2028,2040,2064,2053,2049,1196
508,1711442189500740862,2053,2047,2069,2070,2056,2064,1194
509,1711442189510732761,2050,2047,2053,2066,2053,2051,1197
510,1711442189520731133,2055,2049,2047,2056,2061,2058,1196
511,1711442189530750804,2058,2059,2047,2056,2050,2056,1195
512,1711442189540796585,2060,2052,2056,2061,2064,2056,1197
513,1711442189550744853,2056,2053,2050,2055,2059,2058,1196
514,1711442189560736181,2053,2052,2060,2053,2052,2054,1196
515,1711442189570739692,2056,2054,2053,2048,2058,2077,1195
516,1711442189580776667,2048,2048,2026,2025,2046,2045,1194
517,1711442189590727459,2060,2056,2048,2051,2054,2052,1194
518,1711442189600743314,2058,2056,2060,2045,2050,2052,1198
519,1711442189610736425,2053,2054,2060,2064,2056,2054,1195
520,1711442189620734096,2056,2061,2059,2056,2064,2064,1196
521,1711442189630751653,2053,2058,2056,2057,2060,2046,1192
522,1711442189640743473,2061,2056,2056,2051,2058,2051,1194
523,1711442189650746243,2053,2052,2047,2048,2043,2044,1192
524,1711442189660739254,2046,2048,2053,2069,2088,2048,1197
525,1711442189670740171,2056,2049,2041,2041,2044,2058,1195
526,1711442189680747650,2052,2052,2060,2045,2056,2050,1195
527,1711442189690750530,2058,2056,2046,2066,2060,2057,1196
528,1711442189700736648,2053,2048,2044,2038,2078,2050,1197
529,1711442189710735080,2056,2059,2067,2043,2058,2049,1197
530,1711442189720732350,2053,2052,2052,2066,2079,2040,1196
531,1711442189730780615,2056,2056,2057,2068,2032,2042,1195
532,1711442189740759230,2058,2055,2060,2064,2064,2074,1195
533,1711442189750729469,2053,2052,2053,2056,2037,2047,1193
534,1711442189760730165,2064,2058,2056,2093,2089,2058,1196
535,1711442189770744015,2055,2051,2056,2075,2158,2066,1197
536,1711442189780745633,2056,2058,2058,2063,2078,2047,1192
537,1711442189790734096,2054,2054,2053,2048,2088,2066,1195
538,1711442189800740182,2055,2056,2049,2078,2086,2049,1197
539,1711442189810735619,2058,2053,2047,2051,2094,2076,1196
540,1711442189820734371,2051,2047,2046,2049,2073,2054,1194
541,1711442189830817983,2056,2054,2064,2040,2045,2050,1196
542,1711442189840748818,2054,2053,2052,2073,2079,2060,1192
543,1711442189850732442,2056,2053,2056,2052,2057,2050,1196
544,1711442189860747394,2052,2053,2050,2087,2128,2052,1196
545,1711442189870735176,2059,2058,2064,2051,2007,2021,1193
546,1711442189880772652,2056,2058,2059,2044,2047,2059,1196
547,1711442189890736819,2051,2047,2049,2018,2043,2032,1195
548,1711442189900739028,2056,2060,2066,2078,2172,2072,1195
549,1711442189910738221,2052,2052,2058,2085,2066,2064,1196
550,1711442189920742303,2056,2056,2052,2059,2058,2060,1197
551,1711442189930800618,2050,2049,2046,2036,2009,2040,1193
552,1711442189940737834,2057,2063,2108,2056,2033,2049,1196
553,1711442189950742598,2056,2053,2050,2050,2042,2049,1199
554,1711442189960734758,2052,2050,2050,2060,2078,2049,1196
555,1711442189970736847,2055,2053,2052,2048,2042,2040,1193
556,1711442189980734798,2055,2057,2057,2060,2058,2057,1196
557,1711442189990732969,2052,2046,2041,2056,2044,2061,1196
558,1711442190000729808,2061,2067,2104,2061,2064,2060,1197
559,1711442190010732027,2059,2053,2050,2057,2044,2053,1197
560,1711442190020729478,2053,2052,2039,2046,2041,2042,1193
561,1711442190030730755,2064,2059,2056,2065,2064,2058,1196
562,1711442190040739797,2053,2057,2098,2058,2053,2054,1193
563,1711442190050739742,2053,2047,2024,2064,2057,2055,1196
564,1711442190060739427,2054,2050,2037,2052,2056,2057,1196
565,1711442190070735144,2052,2049,2050,2045,2032,2050,1196
566,1711442190080735219,2052,2056,2056,2054,2045,2053,1197
567,1711442190090762255,2057,2056,2061,2056,2052,2046,1195
568,1711442190100749406,2048,2052,2056,2053,2062,2052,1194
569,1711442190110736227,2057,2056,2066,2057,2031,2052,1197
570,1711442190120741292,2060,2053,2061,2058,2085,2048,1196
571,1711442190130734214,2053,2056,2053,2060,2049,2053,1198
572,1711442190140752513,2056,2055,2060,2055,2036,2067,1196
573,1711442190150732070,2059,2058,2053,2050,2049,2056,1196
574,1711442190160739109,2052,2053,2040,2057,2042,2066,1198
575,1711442190170736449,2056,2056,2051,2052,2052,2051,1195
576,1711442190180733708,2056,2046,2038,2057,2054,2052,1198
577,1711442190190742481,2059,2060,2066,2051,2047,2048,1196
578,1711442190200743988,2043,2029,2037,2052,2052,2047,1193
579,1711442190210749574,2064,2056,2050,2058,2063,2053,1196
580,1711442190220731826,2058,2062,2041,2056,2052,2056,1195
581,1711442190230785783,2056,2050,2036,2056,2058,2044,1193
582,1711442190240750862,2058,2054,2052,2057,2057,2047,1192
583,1711442190250736030,2054,2054,2064,2052,2056,2055,1195
584,1711442190260730444,2056,2052,2050,2058,2058,2050,1197
585,1711442190270738866,2064,2052,2042,2047,2050,2059,1197
586,1711442190280738210,2056,2053,2041,2056,2050,2056,1196
587,1711442190290738966,2056,2050,2047,2049,2040,2052,1196
588,1711442190300737258,2052,2030,2032,2056,2048,2045,1194
589,1711442190310745018,2056,2054,2040,2053,2062,2056,1197
590,1711442190320741296,2056,2060,2069,2057,2053,2052,1196
591,1711442190330757282,2055,2054,2049,2055,2067,2062,1196
592,1711442190340742088,2056,2052,2047,2050,2054,2051,1197
593,1711442190350752643,2056,2057,2077,2064,2064,2047,1193
594,1711442190360745234,2052,2052,2049,2055,2053,2049,1195
595,1711442190370740791,2053,2054,2054,2053,2051,2052,1194
596,1711442190380737570,2056,2053,2061,2044,2041,2045,1194
597,1711442190390734710,2059,2059,2056,2060,2053,2053,1197
598,1711442190400744654,2057,2057,2080,2045,2040,2051,1197
599,1711442190410741043,2057,2053,2058,2060,2058,2056,1196
600,1711442190420786524,2052,2036,2042,2048,2050,2051,1197
601,1711442190430740913,2056,2052,2050,2060,2076,2072,1197
602,1711442190440737722,2054,2056,2068,2047,2038,2056,1195
603,1711442190450738218,2050,2059,2093,2056,2046,2040,1194
604,1711442190460743133,2057,2051,2057,2057,2064,2050,1196
605,1711442190470741926,2060,2058,2066,2061,2057,2048,1198
606,1711442190480741580,2053,2049,2032,2057,2049,2049,1196
607,1711442190490741776,2052,2074,2056,2052,2050,2047,1193
608,1711442190500739166,2056,2056,2018,2050,2052,2056,1196
609,1711442190510737017,2058,2057,2051,2056,2057,2064,1195
610,1711442190520739407,2055,2056,2050,2054,2064,2056,1195
611,1711442190530760582,2058,2049,2053,2056,2060,2064,1195
612,1711442190540736121,2056,2036,2070,2056,2063,2056,1198
613,1711442190550741436,2057,2047,2077,2055,2048,2050,1198
614,1711442190560744578,2057,2056,2049,2056,2059,2060,1196
615,1711442190570745254,2056,2057,2054,2058,2052,2053,1196
616,1711442190580742605,2052,2052,2040,2056,2041,2056,1196
617,1711442190590743932,2056,2052,2064,2052,2046,2048,1196
618,1711442190600746703,2055,2052,2053,2047,2052,2059,1197
619,1711442190610746387,2056,2077,2061,2059,2052,2053,1198
620,1711442190620743406,2061,2066,2078,2059,2043,2041,1193
621,1711442190630775332,2056,2050,2043,2056,2056,2052,1195
622,1711442190640767362,2052,2053,2044,2044,2046,2049,1194
623,1711442190650749534,2057,2052,2064,2059,2052,2052,1195
624,1711442190660753226,2056,2054,2047,2058,2045,2058,1195
625,1711442190670747581,2056,2079,2070,2054,2041,2049,1194
626,1711442190680744590,2060,2064,2052,2074,2052,2054,1194
627,1711442190690788097,2053,2048,2046,2058,2068,2050,1195
628,1711442190700752135,2064,2056,2053,2051,2052,2044,1194
629,1711442190710754465,2058,2062,2060,2064,2068,2060,1197
630,1711442190720746876,2052,2053,2046,2048,2052,2052,1196
631,1711442190730749736,2057,2050,2060,2052,2060,2056,1196
632,1711442190740785198,2055,2062,2085,2061,2048,2047,1193
633,1711442190750747072,2054,2048,2043,2061,2049,2050,1197
634,1711442190760744121,2056,2053,2052,2059,2072,2053,1194
635,1711442190770750418,2058,2058,2054,2059,2061,2066,1197
636,1711442190780732790,2050,2050,2040,2056,2055,2046,1194
637,1711442190790734468,2053,2069,2051,2049,2046,2050,1196
638,1711442190800757347,2072,2091,2150,2068,2072,2057,1197
639,1711442190810751371,2050,2047,2043,2045,2024,2031,1192
640,1711442190820733873,2053,2053,2060,2068,2060,2043,1192
641,1711442190830738938,2052,2056,2049,2058,2056,2057,1197
642,1711442190840753551,2053,2044,1996,2046,2037,2049,1192
643,1711442190850782080,2064,2073,2105,2052,2056,2058,1196
644,1711442190860750596,2054,2054,2059,2058,2062,2056,1194
645,1711442190870732547,2053,2056,2059,2057,2050,2043,1194
646,1711442190880736720,2056,2056,2001,2064,2067,2056,1194
647,1711442190890766311,2051,2050,2034,2061,2073,2054,1197
648,1711442190900738103,2053,2072,2060,2069,2057,2056,1195
649,1711442190910733179,2056,2049,2066,2072,2072,2057,1195
650,1711442190920735959,2059,2050,2053,2059,2075,2057,1196
651,1711442190930758147,2053,2050,2052,2060,2076,2053,1195
652,1711442190940753212,2052,2053,2064,2051,2053,2049,1197
653,1711442190950766592,2057,2055,2038,2062,2060,2054,1199
654,1711442190960737844,2052,2058,2074,2053,2037,2046,1194
655,1711442190970738801,2064,2058,2059,2053,2041,2045,1195
656,1711442190980735229,2050,2052,2051,2052,2043,2053,1196
657,1711442190990759731,2058,2040,2056,2064,2059,2058,1196
658,1711442191000741251,2054,2040,2042,2054,2046,2050,1196
659,1711442191010746647,2056,2056,2049,2080,2080,2049,1197
660,1711442191020736773,2055,2058,2056,2059,2069,2046,1194
661,1711442191030736920,2056,2053,2056,2047,2037,2044,1194
662,1711442191040752916,2054,2051,2032,2056,2037,2049,1193
663,1711442191050731240,2056,2056,2072,2045,2036,2049,1196
664,1711442191060727419,2056,2055,2073,2052,2044,2049,1196
665,1711442191070726633,2062,2053,2052,2059,2048,2056,1197
666,1711442191080728191,2058,2057,2056,2052,2072,2079,1196
667,1711442191090742304,2050,2052,2044,2061,2056,2047,1193
668,1711442191100759432,2054,2033,2031,2053,2042,2050,1197
669,1711442191110764016,2056,2053,2072,2049,2031,2047,1195
670,1711442191120736761,2058,2059,2085,2061,2051,2051,1196
671,1711442191130748809,2057,2050,2018,2060,2056,2050,1196
672,1711442191140764926,2053,2054,2057,2036,2037,2049,1196
673,1711442191150743060,2056,2051,2052,2056,2061,2057,1197
674,1711442191160742244,2059,2057,2056,2065,2076,2052,1197
675,1711442191170737371,2060,2033,2026,2057,2051,2061,1197
676,1711442191180733990,2058,2045,2071,2060,2062,2052,1196
677,1711442191190773791,2049,2041,2020,2052,2042,2052,1197
678,1711442191200741826,2051,2052,2053,2056,2063,2052,1196
679,1711442191210741160,2060,2058,2064,2066,2060,2068,1196
680,1711442191220737650,2057,2050,2046,2054,2057,2049,1195
681,1711442191230781037,2060,2061,2050,2052,2042,2046,1193
682,1711442191240864930,2063,2072,2087,2051,2041,2050,1194
683,1711442191250754479,2054,2052,2054,2053,2039,2054,1195
684,1711442191260742121,2064,2053,2038,2048,2043,2056,1195
685,1711442191270739642,2056,2050,2050,2057,2049,2052,1196
686,1711442191280736342,2052,2053,2098,2053,2048,2060,1194
687,1711442191290739853,2056,2056,2052,2061,2078,2051,1198
688,1711442191300737985,2052,2054,2056,2054,2066,2052,1195
689,1711442191310748111,2048,2030,2049,2057,2059,2051,1197
690,1711442191320740361,2053,2040,2051,2056,2060,2052,1194
691,1711442191330740037,2056,2048,2052,2047,2024,2047,1196
692,1711442191340748669,2052,2060,2056,2048,2052,2061,1195
693,1711442191350733966,2056,2056,2053,2061,2059,2057,1196
694,1711442191360735836,2064,2064,2088,2066,2068,2061,1194
695,1711442191370737134,2059,2079,2064,2057,2043,2054,1197
696,1711442191380736919,2055,2060,2066,2058,2053,2047,1192
697,1711442191390747636,2052,2057,2043,2051,2040,2057,1195
698,1711442191400767218,2050,2054,2054,2049,2041,2050,1199
699,1711442191410742407,2059,2056,2059,2056,2052,2056,1196
700,1711442191420738125,2051,2049,2057,2045,2034,2036,1193
701,1711442191430767084,2061,2084,2116,2066,2053,2058,1197
702,1711442191440735882,2053,2056,2056,2049,2052,2052,1195
703,1711442191450733683,2056,2056,2056,2068,2074,2058,1196
704,1711442191460736013,2068,2065,2073,2056,2052,2058,1195
705,1711442191470732713,2058,2057,2070,2064,2065,2056,1195
706,1711442191480739301,2052,2052,2052,2048,2044,2056,1197
707,1711442191490773682,2046,2044,2010,2028,2002,2037,1194
708,1711442191500737680,2066,2064,2036,2056,2042,2065,1198
709,1711442191510737064,2052,2047,2046,2048,2050,2053,1197
710,1711442191520737070,2057,2061,2053,2058,2050,2054,1196
711,1711442191530778463,2061,2044,2054,2056,2057,2065,1195
712,1711442191540735307,2052,2057,2108,2061,2050,2046,1193
713,1711442191550750613,2054,2054,2047,2052,2053,2052,1199
714,1711442191560743835,2052,2048,2052,2052,2062,2053,1196
715,1711442191570738120,2060,2063,2121,2070,2055,2058,1195
716,1711442191580740811,2052,2044,2046,2046,2018,2045,1195
717,1711442191590755975,2060,2058,2070,2053,2041,2061,1196
718,1711442191600733418,2063,2075,2058,2059,2072,2059,1196
719,1711442191610731000,2058,2056,2083,2056,2065,2082,1195
720,1711442191620732338,2056,2056,2051,2050,2040,2049,1196
721,1711442191630770185,2057,2056,2091,2054,2049,2062,1196
722,1711442191640762396,2054,2062,2061,2050,2044,2052,1194
723,1711442191650735260,2058,2051,2034,2070,2056,2057,1196
724,1711442191660739725,2061,2065,2075,2051,2046,2068,1197
725,1711442191670739450,2054,2047,2036,2057,2050,2053,1194
726,1711442191680738343,2058,2081,2096,2052,2034,2056,1195
727,1711442191690750342,2056,2070,2117,2061,2060,2062,1197
728,1711442191700744787,2051,2051,2052,2048,2044,2047,1195
729,1711442191710741547,2053,2053,2053,2063,2052,2068,1196
730,1711442191720740480,2060,2054,2051,2056,2048,2052,1194
731,1711442191730739133,2050,2053,2046,2069,2070,2056,1196
732,1711442191740749329,2061,2084,2060,2067,2064,2064,1197
733,1711442191750734406,2058,2066,2061,2058,2050,2057,1196
734,1711442191760738840,2047,2052,2049,2050,2049,2052,1196
735,1711442191770740519,2060,2064,2086,2067,2076,2081,1194
736,1711442191780733351,2056,2049,2036,2054,2061,2057,1197
737,1711442191790776999,2057,2060,2082,2073,2048,2062,1196
738,1711442191800736879,2060,2052,2037,2053,2047,2056,1196
739,1711442191810734700,2057,2054,2061,2060,2047,2042,1193
740,1711442191820735148,2059,2056,2060,2058,2053,2054,1195
741,1711442191830754730,2056,2056,2065,2056,2048,2049,1198
742,1711442191840749065,2051,2045,2047,2052,2062,2046,1193
743,1711442191850735996,2057,2064,2077,2058,2072,2057,1195
744,1711442191860732655,2049,2045,2017,2046,2045,2049,1196
745,1711442191870741217,2059,2061,2093,2057,2053,2060,1196
746,1711442191880738007,2053,2057,2075,2053,2053,2053,1195
747,1711442191890752189,2055,2050,2052,2059,2072,2078,1196
748,1711442191900749459,2060,2052,2048,2058,2068,2052,1197
749,1711442191910739457,2061,2062,2096,2064,2057,2056,1194
750,1711442191920737398,2056,2054,2053,2051,2047,2061,1197
751,1711442191930731243,2056,2056,2058,2053,2044,2043,1192
752,1711442191940749212,2052,2050,2044,2054,2051,2052,1195
753,1711442191950736774,2055,2054,2069,2057,2038,2052,1195
754,1711442191960734596,2071,2091,2093,2054,2049,2054,1196
755,1711442191970736666,2061,2080,2079,2072,2066,2050,1197
756,1711442191980734457,2049,2048,2045,2056,2057,2043,1193
757,1711442191990738411,2046,2043,2025,2046,2042,2053,1196
758,1711442192000767912,2058,2063,2043,2057,2057,2059,1196
759,1711442192010749072,2060,2049,2043,2058,2050,2068,1197
760,1711442192020766300,2062,2075,2053,2064,2058,2060,1195
761,1711442192030742161,2056,2061,2037,2053,2038,2064,1196
762,1711442192040747227,2050,2050,2045,2056,2056,2053,1194
763,1711442192050747805,2056,2054,2053,2061,2058,2056,1197
764,1711442192060733173,2050,2052,2053,2049,2054,2051,1197
765,1711442192070734451,2058,2067,2075,2054,2041,2056,1197
766,1711442192080732544,2047,2050,2046,2048,2032,2032,1194
767,1711442192090745525,2068,2057,2041,2064,2039,2050,1197
768,1711442192100761491,2057,2082,2065,2057,2056,2050,1196
769,1711442192110740448,2056,2058,2056,2058,2056,2056,1197
770,1711442192120742317,2056,2056,2058,2056,2066,2056,1197
771,1711442192130753534,2052,2049,2044,2056,2058,2052,1196
772,1711442192140741408,2053,2054,2060,2052,2056,2050,1196
773,1711442192150754189,2052,2053,2058,2056,2050,2052,1194
774,1711442192160737644,2056,2056,2080,2059,2058,2055,1196
775,1711442192170736888,2056,2050,2050,2052,2059,2057,1196
776,1711442192180733718,2056,2053,2047,2053,2053,2058,1195
777,1711442192190746699,2052,2059,2059,2052,2034,2043,1194
778,1711442192200742337,2054,2048,2045,2048,2043,2045,1192
779,1711442192210755438,2050,2047,2032,2057,2048,2046,1193
780,1711442192220749923,2057,2053,2038,2052,2050,2051,1196
781,1711442192230734651,2066,2067,2056,2056,2044,2072,1197
782,1711442192240795041,2057,2056,2060,2044,2045,2049,1195
783,1711442192250759711,2047,2043,2050,2057,2044,2047,1192
784,1711442192260743938,2048,2062,2050,2056,2056,2049,1195
785,1711442192270732461,2060,2061,2067,2062,2065,2070,1197
786,1711442192280725995,2056,2065,2108,2064,2065,2053,1196
787,1711442192290729188,2052,2025,2018,2048,2052,2058,1195
788,1711442192300708996,2056,2045,2056,2062,2051,2057,1197
789,1711442192310743848,2064,2056,2059,2064,2058,2069,1195
790,1711442192320740387,2053,2061,2066,2054,2056,2048,1194
791,1711442192330741766,2056,2046,2042,2056,2052,2053,1196
792,1711442192340772811,2053,2050,2045,2056,2059,2054,1196
793,1711442192350758320,2059,2049,2047,2058,2052,2044,1195
794,1711442192360738449,2052,2044,2101,2053,2045,2046,1194
795,1711442192370737823,2051,2054,2055,2055,2052,2045,1194
796,1711442192380736056,2056,2063,2056,2052,2055,2046,1192
797,1711442192390737926,2060,2050,2051,2057,2056,2056,1196
798,1711442192400731571,2052,2032,2036,2054,2059,2052,1196
799,1711442192410738791,2054,2041,2060,2058,2058,2059,1195
800,1711442192420742924,2057,2051,2056,2062,2064,2058,1196
801,1711442192430745996,2056,2058,2044,2057,2059,2064,1196
802,1711442192440738919,2056,2052,2040,2043,2054,2053,1194
803,1711442192450739887,2050,2056,2052,2057,2052,2047,1195
804,1711442192460738241,2054,2057,2050,2057,2041,2050,1196
805,1711442192470736853,2053,2045,2046,2052,2070,2064,1196
806,1711442192480736048,2054,2058,2052,2057,2063,2056,1197
807,1711442192490735854,2056,2056,2057,2059,2059,2053,1196
808,1711442192500756339,2059,2056,2057,2058,2056,2054,1197
809,1711442192510744293,2052,2064,2080,2063,2053,2053,1194
810,1711442192520759327,2053,2048,2057,2052,2046,2046,1193
811,1711442192530742071,2056,2056,2076,2052,2042,2054,1197
812,1711442192540740474,2054,2059,2045,2056,2054,2056,1198
813,1711442192550738166,2058,2049,2041,2050,2050,2050,1196
814,1711442192560738513,2053,2065,2046,2055,2056,2052,1197
815,1711442192570742536,2053,2045,2054,2054,2054,2056,1197
816,1711442192580731592,2057,2053,2065,2056,2049,2050,1196
817,1711442192590738461,2056,2055,2064,2061,2057,2063,1199
818,1711442192600730192,2054,2053,2041,2051,2050,2052,1195
819,1711442192610732733,2064,2064,2046,2057,2036,2038,1194
820,1711442192620755131,2052,2048,2056,2051,2049,2050,1197
821,1711442192630740590,2058,2072,2042,2060,2056,2056,1198
822,1711442192640800228,2053,2057,2065,2051,2048,2049,1196
823,1711442192650732858,2056,2051,2046,2057,2056,2049,1196
824,1711442192660733195,2056,2044,2040,2056,2058,2060,1196
825,1711442192670735404,2060,2060,2047,2057,2064,2056,1196
826,1711442192680746181,2052,2064,2113,2056,2056,2059,1196
827,1711442192690736820,2046,2036,2005,2065,2076,2052,1197
828,1711442192700737698,2056,2046,2072,2050,2049,2051,1197
829,1711442192710746160,2046,2065,2058,2056,2043,2046,1193
830,1711442192720738431,2051,2053,2046,2055,2055,2053,1197
831,1711442192730731334,2062,2027,2019,2061,2061,2084,1196
832,1711442192740747000,2047,2032,2033,2046,2052,2048,1196
833,1711442192750729624,2057,2056,2082,2061,2056,2057,1197
834,1711442192760735521,2056,2056,2054,2056,2049,2049,1197
835,1711442192770738532,2058,2050,2038,2059,2052,2056,1195
836,1711442192780733028,2054,2072,2060,2053,2050,2050,1196
837,1711442192790788940,2057,2053,2043,2048,2052,2051,1195
838,1711442192800735325,2060,2058,2104,2059,2052,2044,1194
839,1711442192810731435,2060,2047,2052,2060,2054,2066,1197
840,1711442192820787796,2052,2046,2040,2047,2046,2047,1194
841,1711442192830783444,2048,2050,2044,2058,2046,2056,1194
842,1711442192840740380,2053,2056,2084,2051,2060,2050,1195
843,1711442192850733273,2056,2056,2040,2057,2042,2049,1195
844,1711442192860733179,2050,2061,2059,2058,2062,2064,1196
845,1711442192870742031,2057,2058,2057,2061,2053,2060,1196
846,1711442192880730606,2056,2049,2043,2057,2061,2057,1196
847,1711442192890779584,2062,2065,2073,2066,2064,2064,1196
848,1711442192900730548,2052,2057,2068,2057,2053,2058,1196
849,1711442192910778936,2052,2048,2041,2061,2055,2047,1192
850,1711442192920738946,2060,2064,2101,2064,2057,2057,1197
851,1711442192930779529,2053,2051,2054,2058,2057,2058,1195
852,1711442192940778994,2053,2057,2052,2054,2008,2049,1194
853,1711442192950772839,2057,2053,2057,2051,2058,2053,1197
854,1711442192960772395,2053,2049,2065,2063,2064,2056,1195
855,1711442192970773592,2056,2045,2060,2045,2049,2050,1196
856,1711442192980773378,2056,2048,2031,2053,2053,2051,1196
857,1711442192990773044,2050,2054,2043,2053,2047,2047,1196
858,1711442193000770155,2053,2052,2072,2047,2044,2044,1192
859,1711442193010772256,2056,2052,2055,2054,2051,2055,1195
860,1711442193020771371,2052,2056,2068,2047,2048,2051,1194
861,1711442193030772620,2054,2053,2064,2045,2026,2047,1193
862,1711442193040770172,2053,2056,2027,2054,2056,2050,1194
863,1711442193050778795,2054,2048,2049,2045,2045,2047,1193
864,1711442193060771709,2054,2047,2040,2048,2048,2053,1195
865,1711442193070772436,2049,2045,2040,2049,2047,2052,1196
866,1711442193080773875,2056,2047,2009,2047,2050,2052,1196
867,1711442193090769765,2056,2053,2008,2057,2048,2060,1196
868,1711442193100770283,2062,2056,2034,2044,2059,2060,1194
869,1711442193110775629,2056,2053,2057,2064,2053,2053,1195
870,1711442193120773401,2049,2055,2074,2051,2057,2057,1194
871,1711442193130779339,2053,2056,2057,2060,2058,2054,1197
872,1711442193140778635,2053,2047,2030,2052,2053,2056,1197
873,1711442193150755388,2053,2052,2047,2058,2058,2053,1197
874,1711442193160759833,2056,2045,2047,2070,2068,2055,1196
875,1711442193170758016,2056,2048,2037,2064,2064,2062,1195
876,1711442193180760578,2050,2051,2050,2056,2052,2050,1196
877,1711442193190719787,2053,2052,2052,2051,2053,2049,1196
878,1711442193200756663,2056,2065,2056,2052,2053,2052,1196
879,1711442193210757842,2057,2058,2072,2058,2057,2052,1196
880,1711442193220756948,2058,2059,2059,2053,2057,2047,1193
881,1711442193230755121,2050,2030,2047,2053,2057,2052,1197
882,1711442193240756209,2052,2036,2047,2047,2041,2047,1190
883,1711442193250758590,2051,2051,2053,2055,2047,2056,1196
884,1711442193260751253,2057,2056,2056,2052,2056,2053,1197
885,1711442193270752202,2053,2051,2052,2070,2077,2056,1198
886,1711442193280757078,2061,2065,2063,2056,2098,2084,1195
887,1711442193290751954,2043,2076,2056,2060,2002,2032,1194
888,1711442193300749877,2056,2056,2048,2072,2114,2060,1195
889,1711442193310748091,2051,2048,2047,2046,2090,2045,1192
890,1711442193320749831,2061,2058,2058,2029,1978,2048,1199
891,1711442193330749927,2054,2054,2057,2026,2005,2054,1195
892,1711442193340757899,2050,2048,2046,2045,2044,2049,1194
893,1711442193350744591,2052,2055,2053,2064,2144,2057,1196
894,1711442193360745920,2053,2056,2047,2041,2120,2050,1195
895,1711442193370743292,2056,2053,2049,2070,2040,2072,1197
896,1711442193380746765,2051,2047,2044,2066,2008,2009,1195
897,1711442193390757412,2066,2060,2060,2042,2196,2034,1194
898,1711442193400741779,2055,2052,2049,2045,2062,2051,1197
899,1711442193410741335,2052,2052,2049,2061,2037,2058,1198
900,1711442193420741411,2056,2060,2061,2050,2009,2048,1197
901,1711442193430749353,2058,2056,2043,2063,2089,2046,1194
902,1711442193440750172,2057,2061,2057,2031,2024,2049,1196
903,1711442193450750960,2051,2051,2052,2049,2016,2058,1196
904,1711442193460746187,2054,2049,2053,2044,1952,2039,1195
905,1711442193470744781,2052,2054,2056,2068,2027,2041,1196
906,1711442193480750429,2046,2050,2050,2059,2064,2055,1200
907,1711442193490748081,2056,2052,2044,2050,2037,2053,1199
908,1711442193500747947,2058,2060,2056,2050,2034,2062,1196
909,1711442193510746371,2052,2056,2061,2082,2065,2050,1196
910,1711442193520747019,2055,2050,2050,2041,2021,2058,1195
911,1711442193530758898,2056,2044,2048,2066,2070,2047,1195
912,1711442193540752362,2053,2038,2052,2056,2070,2036,1195
913,1711442193550743712,2056,2055,2066,2061,2042,2064,1198
914,1711442193560745262,2056,2049,2032,2048,2057,2046,1194
915,1711442193570747694,2054,2052,2050,2060,2085,2067,1197
916,1711442193580750796,2059,2056,2055,2054,2046,2049,1196
917,1711442193590749420,2063,2081,2096,2050,2051,2056,1199
918,1711442193600746531,2051,2049,2052,2053,2051,2060,1197
919,1711442193610746769,2056,2053,2048,2052,2040,2053,1198
920,1711442193620748278,2058,2062,2075,2054,2059,2040,1193
921,1711442193630772831,2053,2064,2056,2057,2047,2061,1197
922,1711442193640747119,2053,2067,2074,2051,2064,2061,1195
923,1711442193650748018,2050,2063,2079,2062,2021,2044,1193
924,1711442193660740901,2048,2053,2058,2054,2059,2049,1197
925,1711442193670741589,2099,2060,2061,2059,2039,2052,1197
926,1711442193680750312,2060,2052,2034,2057,2068,2066,1198
927,1711442193690768893,2055,2046,2024,2062,2077,2065,1195
928,1711442193700783949,2056,2050,2049,2065,2009,2064,1196
929,1711442193710749791,2056,2056,2042,2062,2003,2049,1195
930,1711442193720749006,2057,2056,2034,2063,2082,2061,1197
931,1711442193730757899,2057,2062,2084,2052,2004,2047,1194
932,1711442193740748709,2052,2048,2045,2050,2036,2055,1197
933,1711442193750751771,2056,2053,2021,2054,2009,2053,1197
934,1711442193760744474,2053,2056,2067,2060,2046,2054,1196
935,1711442193770745162,2057,2050,2047,2055,2065,2061,1197
936,1711442193780753415,2055,2059,2036,2065,2066,2060,1196
937,1711442193790754403,2057,2058,2057,2059,2047,2062,1196
938,1711442193800752045,2058,2056,2056,2048,2058,2052,1199
939,1711442193810743365,2062,2057,2045,2056,2064,2069,1195
940,1711442193820744835,2056,2056,2076,2047,2054,2050,1195
941,1711442193830760862,2054,2056,2058,2066,2070,2058,1196
942,1711442193840791296,2056,2059,2042,2061,2068,2056,1193
943,1711442193850758751,2056,2041,2016,2062,2056,2053,1197
944,1711442193860758397,2052,2049,2030,2032,2052,2053,1195
945,1711442193870758184,2056,2049,2042,2067,2058,2058,1197
946,1711442193880786564,2053,2056,2068,2047,2045,2048,1196
947,1711442193890790427,2060,2052,2052,2050,2040,2050,1195
948,1711442193900790344,2057,2060,2061,2056,2057,2056,1197
949,1711442193910761687,2056,2056,2051,2058,2073,2053,1195
950,1711442193920760692,2050,2055,2093,2051,2057,2052,1196
951,1711442193930819649,2058,2061,2088,2047,2056,2055,1197
952,1711442193940781844,2056,2053,2081,2041,2040,2051,1196
953,1711442193950742147,2061,2077,2057,2067,2056,2056,1196
954,1711442193960774354,2053,2052,2072,2049,2049,2054,1197
955,1711442193970746027,2059,2058,2094,2059,2049,2041,1194
956,1711442193980845872,2052,2056,2072,2053,2050,2041,1194
957,1711442193990776378,2062,2056,2058,2061,2058,2067,1196
958,1711442194000775563,2052,2044,2034,2050,2052,2044,1195
959,1711442194010776482,2056,2061,2067,2057,2064,2068,1197
960,1711442194020773012,2054,2053,2056,2068,2081,2051,1196
961,1711442194030777367,2057,2053,2048,2060,2033,2053,1197
962,1711442194040759802,2060,2058,2059,2046,2053,2065,1195
963,1711442194050769117,2055,2025,2042,2034,2020,2067,1196
964,1711442194060765256,2056,2051,2090,2056,2068,2053,1195
965,1711442194070767568,2056,2050,2068,2052,2024,2048,1197
966,1711442194080799195,2053,2053,2052,2041,2049,2078,1194
967,1711442194090761230,2052,2052,2058,2067,2085,2056,1198
968,1711442194100767339,2054,2053,2050,2047,2074,2054,1197
969,1711442194110756315,2061,2060,2060,2069,2085,2073,1198
970,1711442194120767232,2046,2051,2056,2040,1993,2033,1193
971,1711442194130770256,2058,2056,2043,2077,2072,2064,1197
972,1711442194140762549,2054,2056,2059,2058,2066,2047,1194
973,1711442194150759730,2056,2056,2056,2064,2056,2049,1198
974,1711442194160762873,2056,2083,2062,2059,2029,2051,1199
975,1711442194170762330,2058,2058,2048,2074,2128,2056,1199
976,1711442194180761104,2055,2053,2056,2054,2050,2056,1196
977,1711442194190760871,2056,2057,2053,2064,2066,2049,1196
978,1711442194200757803,2056,2054,2051,2051,2060,2044,1193
979,1711442194210762839,2057,2051,2040,2056,2064,2056,1196
980,1711442194220763888,2054,2052,2054,2040,2082,2061,1198
981,1711442194230767062,2058,2062,2082,2061,2060,2062,1196
982,1711442194240767659,2050,2060,2080,2072,2072,2060,1194
983,1711442194250762567,2054,2052,2051,2066,2084,2062,1195
984,1711442194260762845,2054,2056,2053,2057,2058,2051,1197
985,1711442194270764194,2058,2057,2058,2064,2065,2058,1197
986,1711442194280762378,2056,2053,2053,2054,2070,2053,1194
987,1711442194290794345,2056,2058,2055,2052,2044,2048,1195
988,1711442194300763424,2052,2060,2056,2053,2048,2054,1196
989,1711442194310765666,2054,2043,2042,2062,2062,2059,1198
990,1711442194320766335,2054,2065,2076,2060,2085,2058,1197
991,1711442194330743959,2056,2057,2048,2060,2064,2062,1197
992,1711442194340766008,2054,2048,2072,2056,2053,2053,1196
993,1711442194350750105,2068,2064,2117,2060,2035,2045,1196
994,1711442194360739131,2057,2052,2058,2062,2061,2069,1195
995,1711442194370746713,2056,2065,2058,2056,2036,2047,1194
996,1711442194380749255,2053,2056,2088,2058,2056,2058,1196
997,1711442194390749492,2057,2071,2060,2060,2064,2064,1197
998,1711442194400751804,2056,2055,2077,2056,2044,2042,1195
999,1711442194410752212,2052,2052,2056,2058,2035,2050,1197
1000,1711442194420751668,2054,2053,2044,2047,2047,2052,1196
1001,1711442194430752647,2056,2058,2065,2063,2076,2026,1194
1002,1711442194440769737,2054,2053,2044,2043,2036,2042,1194
1003,1711442194450748934,2061,2052,2045,2060,2061,2062,1197
1004,1711442194460751076,2054,2051,2037,2064,2046,2058,1197
1005,1711442194470747035,2052,2042,2036,2056,2051,2049,1196
1006,1711442194480735561,2056,2052,2080,2063,2073,2041,1196
1007,1711442194490735177,2053,2048,2055,2067,2078,2068,1196
1008,1711442194500739112,2052,2056,2096,2050,2046,2037,1194
1009,1711442194510738608,2053,2056,2064,2060,2064,2057,1198
1010,1711442194520737293,2057,2052,2062,2056,2051,2065,1197
1011,1711442194530746667,2058,2064,2063,2053,2052,2054,1196
1012,1711442194540742326,2056,2054,2042,2060,2060,2056,1196
1013,1711442194550733497,2058,2083,2060,2066,2057,2048,1198
1014,1711442194560773350,2063,2066,2080,2056,2072,2068,1197
1015,1711442194570774118,2057,2060,2069,2056,2045,2050,1197
1016,1711442194580771811,2052,2060,2078,2050,2045,2043,1194
1017,1711442194590770716,2058,2052,2056,2056,2052,2046,1196
1018,1711442194600771674,2057,2056,2084,2066,2057,2038,1194
1019,1711442194610731777,2054,2056,2060,2056,2061,2062,1195
1020,1711442194620771219,2054,2052,2039,2058,2057,2055,1197
1021,1711442194630734346,2050,2048,2049,2049,2052,2056,1196
1022,1711442194640773297,2055,2060,2082,2060,2073,2056,1195
1023,1711442194650771861,2050,2046,2044,2049,1919,2025,1196
1024,1711442194660774242,2052,2052,2046,2048,2048,2053,1197
1025,1711442194670738302,2054,2054,2051,2059,2062,2058,1197
1026,1711442194680779066,2052,2046,2039,2052,2061,2049,1196
1027,1711442194690761830,2052,2069,2068,2055,2037,2046,1195
1028,1711442194700775794,2053,2046,2054,2044,2040,2056,1197
1029,1711442194710736277,2057,2051,2056,2055,2050,2058,1196
1030,1711442194720776099,2053,2057,2068,2046,2049,2056,1195
1031,1711442194730775565,2056,2049,2056,2060,2050,2049,1196
1032,1711442194740738683,2057,2069,2064,2065,2056,2056,1197
1033,1711442194750736896,2056,2036,2048,2049,2050,2051,1199
1034,1711442194760760148,2055,2035,2047,2050,2058,2058,1197
1035,1711442194770760054,2053,2051,2058,2058,2033,2053,1195
1036,1711442194780738381,2054,2053,2056,2064,2056,2058,1199
1037,1711442194790757634,2046,2015,2047,2053,2034,2043,1194
1038,1711442194800760197,2048,2057,2057,2045,2054,2046,1193
1039,1711442194810758620,2051,2046,2069,2062,2058,2041,1194
1040,1711442194820755322,2056,2054,2058,2056,2066,2057,1195
1041,1711442194830760127,2052,2058,2056,2058,2050,2053,1196
1042,1711442194840765555,2045,2035,2045,2045,2047,2045,1190
1043,1711442194850715969,2049,2053,2056,2060,2053,2040,1192
1044,1711442194860755851,2057,2053,2072,2046,2050,2051,1196
1045,1711442194870755297,2077,2082,2176,2078,2078,2072,1194
1046,1711442194880744153,2060,2053,2042,2052,2048,2053,1197
1047,1711442194890747667,2056,2061,2049,2064,2057,2039,1193
1048,1711442194900749788,2052,2050,2044,2057,2042,2046,1194
1049,1711442194910736190,2053,2087,2076,2057,2053,2058,1194
1050,1711442194920750474,2056,2058,2057,2062,2097,2068,1198
1051,1711442194930751833,2060,2064,2070,2062,2056,2066,1197
1052,1711442194940752943,2056,2057,2086,2074,2085,2056,1197
1053,1711442194950749403,2053,2054,2068,2076,2072,2053,1197
1054,1711442194960746164,2052,2056,2058,2105,2088,2056,1198
1055,1711442194970737115,2048,2043,2038,2076,2052,2050,1198
1056,1711442194980741701,2061,2071,2088,2066,2047,2051,1196
1057,1711442194990740565,2056,2045,2045,2059,2036,2046,1193
1058,1711442195000738809,2055,2048,2036,2062,2069,2055,1197
1059,1711442195010738395,2058,2074,2121,2060,2052,2060,1195
1060,1711442195020751318,2052,2057,2049,2045,2025,2050,1197
1061,1711442195030762066,2061,2056,2054,2065,2037,2058,1196
1062,1711442195040739921,2051,2047,2057,2054,2050,2049,1194
1063,1711442195050743295,2053,2052,2053,2045,2046,2052,1195
1064,1711442195060742091,2049,2045,2047,2062,2067,2052,1195
1065,1711442195070740666,2057,2053,2053,2061,2060,2059,1195
1066,1711442195080741885,2047,2044,2050,2042,2042,2061,1196
1067,1711442195090752784,2056,2056,2084,2057,2045,2042,1195
1068,1711442195100733665,2050,2047,2046,2065,2070,2057,1197
1069,1711442195110731779,2053,2049,2049,2081,2084,2051,1197
1070,1711442195120731206,2056,2054,2052,2040,2044,2051,1195
1071,1711442195130761201,2059,2053,2058,2050,2061,2057,1196
1072,1711442195140737573,2052,2049,2053,2111,2144,2067,1197
1073,1711442195150735417,2060,2098,2080,2056,2040,2051,1198
1074,1711442195160735505,2056,2052,2053,2053,2072,2060,1199
1075,1711442195170742215,2061,2065,2079,2062,2064,2060,1197
1076,1711442195180736411,2056,2059,2080,2045,2052,2064,1195
1077,1711442195190744605,2060,2068,2100,2081,2086,2070,1197
1078,1711442195200739021,2050,2048,2052,2061,2092,2059,1197
1079,1711442195210733479,2056,2081,2071,2085,2133,2061,1196
1080,1711442195220734960,2056,2051,2040,2048,2058,2054,1197
1081,1711442195230748522,2054,2046,2052,2058,2037,2056,1197
1082,1711442195240730336,2054,2056,2054,2050,2053,2060,1194
1083,1711442195250736656,2056,2060,2056,2048,2045,2049,1199
1084,1711442195260735972,2054,2049,2056,2057,2056,2044,1194
1085,1711442195270737412,2056,2038,2041,2061,2058,2067,1197
1086,1711442195280736779,2057,2055,2055,2057,2058,2056,1195
1087,1711442195290728270,2056,2052,2047,2054,2057,2058,1196
1088,1711442195300743206,2051,2052,2064,2052,2056,2064,1196
1089,1711442195310739507,2056,2043,2042,2054,2049,2050,1199
1090,1711442195320738673,2058,2071,2057,2057,2053,2057,1196
1091,1711442195330749100,2059,2061,2060,2053,2037,2037,1193
1092,1711442195340740502,2056,2050,2069,2055,2058,2049,1196
1093,1711442195350735530,2056,2052,2049,2057,2059,2072,1197
1094,1711442195360735638,2057,2058,2060,2054,2066,2050,1197
1095,1711442195370736036,2056,2052,2061,2061,2058,2062,1198
1096,1711442195380745191,2056,2064,2046,2056,2057,2054,1197
1097,1711442195390737915,2058,2058,2064,2063,2057,2051,1197
1098,1711442195400736259,2050,2050,2045,2050,2041,2051,1196
1099,1711442195410736748,2056,2061,2046,2058,2047,2061,1197
1100,1711442195420736355,2054,2065,2048,2052,2042,2052,1197
1101,1711442195430754967,2052,2046,2028,2052,2054,2056,1197
1102,1711442195440732443,2056,2056,2041,2061,2069,2057,1196
1103,1711442195450738091,2052,2056,2053,2065,2037,2052,1196
1104,1711442195460738289,2062,2057,2061,2058,2058,2072,1196
1105,1711442195470738096,2057,2064,2052,2060,2060,2065,1195
1106,1711442195480768662,2054,2051,2046,2054,2066,2061,1197
1107,1711442195490741428,2059,2056,2056,2057,2059,2060,1197
1108,1711442195500738299,2048,2053,2053,2047,2048,2044,1193
1109,1711442195510739940,2056,2052,2054,2065,2100,2057,1197
1110,1711442195520739086,2058,2053,2050,2037,2049,2056,1199
1111,1711442195530751517,2058,2047,2037,2062,2056,2060,1198
1112,1711442195540753940,2056,2064,2090,2064,2065,2053,1197
1113,1711442195550743708,2049,2050,2046,2062,2058,2056,1197
1114,1711442195560741261,2052,2037,2040,2071,2066,2068,1197
1115,1711442195570741620,2049,2050,2051,2053,2040,2037,1195
1116,1711442195580752538,2060,2056,2069,2049,2060,2049,1197
1117,1711442195590746654,2056,2056,2053,2066,2066,2058,1197
1118,1711442195600745449,2058,2088,2064,2056,2049,2054,1196
1119,1711442195610744926,2059,2050,2049,2054,2040,2048,1195
1120,1711442195620742779,2052,2052,2063,2053,2058,2042,1193
1121,1711442195630766011,2058,2052,2050,2044,2051,2068,1197
1122,1711442195640741483,2060,2057,2062,2055,2054,2059,1193
1123,1711442195650750287,2052,2056,2049,2062,2047,2057,1196
1124,1711442195660745666,2056,2053,2053,2062,2067,2063,1196
1125,1711442195670746695,2058,2056,2052,2061,2049,2058,1196
1126,1711442195680750991,2052,2029,2045,2061,2066,2057,1198
1127,1711442195690754585,2057,2040,2056,2060,2038,2051,1197
1128,1711442195700758611,2052,2052,2058,2053,2043,2048,1197
1129,1711442195710758178,2060,2056,2056,2060,2061,2056,1195
1130,1711442195720757884,2055,2052,2051,2044,2042,2052,1194
1131,1711442195730770867,2054,2051,2053,2054,2050,2052,1197
1132,1711442195740758161,2052,2049,2054,2048,2053,2044,1194
1133,1711442195750757937,2058,2056,2056,2061,2058,2049,1198
1134,1711442195760758627,2056,2051,2050,2053,2063,2047,1192
1135,1711442195770759045,2056,2088,2082,2060,2052,2050,1195
1136,1711442195780756829,2056,2052,2032,2050,2063,2056,1196
1137,1711442195790752197,2052,2047,2032,2064,2052,2053,1195
1138,1711442195800735243,2064,2060,2091,2059,2057,2058,1197
1139,1711442195810749858,2058,2064,2011,2058,2056,2048,1198
1140,1711442195820749775,2057,2057,2016,2047,2060,2046,1194
1141,1711442195830766956,2057,2062,2088,2054,2053,2034,1194
1142,1711442195840763377,2060,2064,2126,2064,2062,2060,1193
1143,1711442195850750500,2054,2050,2046,2056,2052,2048,1195
1144,1711442195860736491,2056,2057,2061,2054,2048,2051,1198
1145,1711442195870737511,2058,2064,2064,2064,2070,2056,1196
1146,1711442195880756454,2053,2021,2031,2054,2054,2056,1196
1147,1711442195890725944,2052,2042,2044,2049,2046,2049,1198
1148,1711442195900731452,2054,2050,2044,2056,2052,2049,1195
1149,1711442195910729376,2053,2048,2037,2042,2047,2041,1193
1150,1711442195920728462,2048,2058,2048,2049,2053,2050,1197
1151,1711442195930765209,2060,2057,2074,2064,2061,2053,1198
1152,1711442195940755458,2058,2056,2056,2061,2086,2058,1198
1153,1711442195950733043,2051,2056,2058,2068,2069,2057,1199
1154,1711442195960731679,2056,2057,2058,2059,2060,2058,1198
1155,1711442195970732909,2061,2058,2057,2040,2040,2054,1197
1156,1711442195980745590,2060,2052,2056,2056,2047,2049,1196
1157,1711442195990730650,2060,2056,2057,2060,2059,2054,1198
1158,1711442196000721460,2053,2050,2056,2051,2047,2048,1197
1159,1711442196010729693,2056,2056,2050,2057,2058,2058,1195
1160,1711442196020732467,2059,2054,2052,2063,2089,2064,1196
1161,1711442196030735430,2060,2057,2050,2060,2052,2053,1198
1162,1711442196040742271,2054,2057,2061,2057,2055,2057,1194
1163,1711442196050732721,2060,2053,2056,2052,2044,2056,1197
1164,1711442196060728512,2061,2057,2057,2049,2052,2059,1197
1165,1711442196070733589,2058,2056,2055,2057,2038,2054,1194
1166,1711442196080746181,2053,2053,2056,2050,2042,2059,1196
1167,1711442196090733575,2056,2053,2052,2064,2061,2049,1197
1168,1711442196100725538,2056,2056,2057,2051,2084,2052,1198
1169,1711442196110719445,2052,2054,2046,2053,2052,2052,1197
1170,1711442196120727679,2054,2052,2057,2050,2065,2052,1200
1171,1711442196130753786,2059,2051,2025,2054,2040,2047,1196
1172,1711442196140734467,2057,2069,2043,2048,2052,2060,1197
1173,1711442196150731169,2061,2090,2094,2048,2049,2052,1198
1174,1711442196160730747,2065,2078,2193,2070,2061,2058,1197
1175,1711442196170725825,2054,2034,2024,2049,2046,2062,1197
1176,1711442196180729250,2056,2057,2060,2058,2051,2051,1198
1177,1711442196190734248,2054,2047,2028,2058,2061,2058,1195
1178,1711442196200744164,2059,2056,2056,2064,2064,2057,1196
1179,1711442196210736137,2057,2043,2018,2040,2047,2048,1196
1180,1711442196220737458,2067,2085,2115,2067,2058,2056,1195
1181,1711442196230749680,2054,2049,2011,2063,2056,2056,1198
1182,1711442196240767741,2056,2052,2042,2062,2064,2060,1197
1183,1711442196250739717,2053,2052,2047,2061,2059,2057,1196
1184,1711442196260739514,2054,2056,2055,2057,2056,2053,1197
1185,1711442196270736347,2057,2052,2057,2058,2044,2056,1196
1186,1711442196280736875,2053,2052,2052,2047,2048,2049,1196
1187,1711442196290739920,2058,2056,2055,2056,2058,2053,1195
1188,1711442196300731072,2053,2047,2050,2032,2033,2045,1195
1189,1711442196310733644,2053,2058,2058,2054,2059,2056,1195
1190,1711442196320730777,2056,2057,2058,2050,2047,2054,1196
1191,1711442196330740704,2056,2053,2058,2058,2051,2060,1197
1192,1711442196340742966,2052,2053,2058,2042,2044,2048,1197
1193,1711442196350721313,2066,2058,2063,2056,2056,2059,1200
1194,1711442196360734366,2053,2056,2056,2054,2057,2053,1196
1195,1711442196370728203,2056,2056,2056,2056,2062,2053,1196
1196,1711442196380740143,2052,2053,2056,2052,2050,2046,1193
1197,1711442196390760029,2054,2052,2056,2050,2050,2051,1196
1198,1711442196400741152,2058,2056,2057,2057,2058,2048,1196
1199,1711442196410734998,2057,2053,2057,2056,2048,2055,1197
1200,1711442196420733804,2056,2056,2056,2056,2064,2056,1198
1201,1711442196430752778,2056,2052,2048,2057,2063,2060,1195
1202,1711442196440740382,2056,2055,2053,2053,2046,2061,1194
1203,1711442196450735672,2056,2056,2056,2061,2052,2053,1197
1204,1711442196460736111,2052,2025,2032,2056,2053,2049,1197
1205,1711442196470734756,2053,2046,2056,2056,2052,2056,1196
1206,1711442196480735556,2054,2047,2088,2056,2059,2058,1195
1207,1711442196490737838,2054,2036,2054,2064,2058,2057,1197
1208,1711442196500733728,2052,2053,2045,2047,2045,2050,1194
1209,1711442196510735740,2061,2061,2177,2074,2053,2059,1196
1210,1711442196520733514,2053,2060,2053,2055,2058,2047,1196
1211,1711442196530754001,2060,2056,2028,2068,2069,2073,1197
1212,1711442196540765150,2054,2046,2036,2050,2038,2058,1198
1213,1711442196550735172,2060,2076,2098,2062,2041,2051,1196
1214,1711442196560740149,2053,2049,2048,2056,2076,2052,1197
1215,1711442196570736871,2058,2067,2054,2062,2050,2053,1198
1216,1711442196580746427,2047,2049,2029,2046,2045,2044,1195
1217,1711442196590741185,2057,2065,2088,2057,2068,2056,1197
1218,1711442196600737056,2052,2053,2055,2057,2067,2053,1196
1219,1711442196610761801,2056,2060,2054,2061,2056,2052,1198
1220,1711442196620739787,2056,2056,2060,2050,2058,2057,1198
1221,1711442196630738353,2053,2052,2056,2058,2045,2049,1195
1222,1711442196640734704,2058,2059,2060,2056,2051,2056,1195
1223,1711442196650735975,2056,2053,2056,2053,2052,2056,1197
1224,1711442196660735702,2054,2054,2056,2042,2047,2053,1196
1225,1711442196670733757,2047,2045,2041,2064,2064,2046,1195
1226,1711442196680754314,2063,2053,2056,2055,2069,2062,1196
1227,1711442196690732871,2059,2052,2050,2068,2075,2058,1197
1228,1711442196700738841,2066,2058,2061,2070,2100,2064,1196
1229,1711442196710735051,2051,2052,2051,2060,2045,2060,1198
1230,1711442196720735791,2053,2074,2077,2048,2051,2047,1195
1231,1711442196730748623,2060,2063,2069,2049,2058,2053,1197
1232,1711442196740738382,2052,2049,2048,2056,2064,2056,1197
1233,1711442196750733892,2054,2051,2058,2050,2040,2055,1198
1234,1711442196760749079,2053,2052,2052,2065,2068,2057,1198
1235,1711442196770738427,2060,2058,2056,2054,2049,2054,1196
1236,1711442196780738064,2052,2054,2055,2036,2021,2046,1194
1237,1711442196790740437,2058,2052,2058,2062,2094,2062,1196
1238,1711442196800738471,2056,2051,2053,2053,2047,2056,1196
1239,1711442196810735243,2052,2052,2053,2069,2096,2054,1198
1240,1711442196820734841,2056,2076,2069,2046,2045,2049,1197
1241,1711442196830757431,2053,2052,2039,2055,2058,2053,1197
1242,1711442196840730278,2061,2077,2060,2052,2053,2052,1196
1243,1711442196850737680,2052,2057,2057,2058,2050,2062,1198
1244,1711442196860735324,2054,2065,2071,2057,2071,2059,1196
1245,1711442196870761762,2052,2045,2027,2051,2057,2050,1194
1246,1711442196880754536,2060,2056,2095,2064,2060,2052,1196
1247,1711442196890737162,2057,2073,2062,2072,2032,2049,1197
1248,1711442196900734895,2048,2036,2048,2052,2044,2051,1195
1249,1711442196910739873,2057,2057,2057,2056,2057,2056,1196
1250,1711442196920736034,2051,2063,2046,2054,2049,2052,1196
1251,1711442196930741572,2053,2051,2044,2060,2033,2053,1198
1252,1711442196940733996,2056,2053,2048,2051,2039,2050,1197
1253,1711442196950733924,2062,2084,2105,2064,2046,2057,1199
1254,1711442196960733381,2056,2050,2008,2052,2047,2055,1196
1255,1711442196970734501,2057,2057,2049,2060,2045,2050,1200
1256,1711442196980763234,2056,2047,2025,2047,2031,2046,1194
1257,1711442196990747162,2053,2055,2056,2057,2056,2049,1198
1258,1711442197000740156,2055,2061,2080,2056,2050,2046,1196
1259,1711442197010739814,2050,2050,2053,2057,2067,2050,1196
1260,1711442197020738460,2051,2053,2053,2053,2060,2053,1196
1261,1711442197030765189,2057,2076,2064,2056,2057,2050,1194
1262,1711442197040740642,2052,2060,2060,2056,2058,2047,1192
1263,1711442197050733777,2060,2078,2078,2054,2051,2061,1196
1264,1711442197060757911,2052,2044,2041,2040,2047,2050,1196
1265,1711442197070732401,2062,2060,2058,2049,2057,2064,1195
1266,1711442197080738602,2053,2053,2053,2043,2056,2073,1197
1267,1711442197090748118,2048,2048,2050,2052,2047,2054,1196
1268,1711442197100728891,2063,2053,2052,2056,2060,2072,1197
1269,1711442197110732286,2064,2066,2066,2049,2052,2079,1196
1270,1711442197120731963,2057,2056,2060,2058,2045,2063,1197
1271,1711442197130767459,2059,2052,2052,2056,2046,2058,1197
1272,1711442197140734856,2042,2054,2050,2039,2041,2036,1194
1273,1711442197150738512,2061,2054,2056,2053,2046,1979,1195
1274,1711442197160733240,2056,2050,2057,2058,2068,2047,1194
1275,1711442197170732208,2056,2049,2047,2043,2040,2033,1194
1276,1711442197180728769,2056,2059,2059,2060,2068,2046,1194
1277,1711442197190733718,2052,2044,2052,2040,2000,1994,1193
1278,1711442197200742733,2048,2048,2056,2051,2021,2052,1197
1279,1711442197210740818,2059,2056,2056,2051,2041,2037,1194
1280,1711442197220732691,2057,2049,2051,2056,2059,2041,1194
1281,1711442197230746917,2056,2055,2057,2059,2047,2037,1195
1282,1711442197240730554,2052,2048,2052,2052,2082,2071,1197
1283,1711442197250721446,2056,2050,2049,2056,2044,2056,1196
1284,1711442197260725352,2048,2052,2054,2051,2040,2050,1196
1285,1711442197270721182,2056,2056,2056,2053,2052,2053,1196
1286,1711442197280753412,2050,2029,2041,2042,2040,2054,1198
1287,1711442197290738131,2049,2047,2056,2058,2061,2049,1197
1288,1711442197300738181,2057,2052,2058,2054,2072,2051,1196
1289,1711442197310734572,2050,2052,2056,2057,2045,2050,1197
1290,1711442197320735794,2058,2082,2100,2050,2049,2051,1197
1291,1711442197330747904,2054,2049,2061,2056,2053,2067,1196
1292,1711442197340730891,2050,2055,2054,2049,2058,2045,1196
1293,1711442197350734607,2053,2048,2054,2053,2043,2056,1198
1294,1711442197360740907,2057,2057,2058,2060,2073,2053,1196
1295,1711442197370734343,2057,2049,2049,2059,2051,2062,1196
1296,1711442197380738640,2057,2036,2040,2042,2056,2049,1198
1297,1711442197390739130,2062,2071,2139,2076,2050,2059,1199
1298,1711442197400735341,2059,2050,2043,2054,2068,2053,1199
1299,1711442197410734599,2057,2052,2053,2064,2045,2052,1198
1300,1711442197420733945,2053,2041,2047,2053,2068,2052,1195
1301,1711442197430744484,2052,2032,2045,2061,2040,2066,1196
1302,1711442197440736437,2052,2043,2054,2058,2073,2065,1195
1303,1711442197450732409,2054,2053,2056,2060,2043,2060,1196
1304,1711442197460732648,2056,2051,2056,2056,2060,2052,1197
1305,1711442197470733318,2060,2056,2054,2061,2041,2064,1197
1306,1711442197480745509,2053,2054,2065,2056,2072,2050,1195
1307,1711442197490739346,2054,2049,2032,2056,2040,2056,1196
1308,1711442197500736189,2056,2051,2056,2056,2058,2053,1196
1309,1711442197510736457,2062,2047,2047,2060,2058,2061,1194
1310,1711442197520735685,2054,2064,2086,2058,2059,2052,1195
1311,1711442197530743187,2054,2051,2025,2047,2032,2052,1195
1312,1711442197540762333,2060,2070,2100,2062,2070,2056,1196
1313,1711442197550741752,2056,2048,2033,2055,2037,2050,1200
1314,1711442197560737353,2056,2051,2046,2058,2074,2057,1197
1315,1711442197570736309,2056,2044,2034,2060,2026,2051,1196
1316,1711442197580749622,2061,2044,2074,2053,2055,2058,1198
1317,1711442197590738220,2053,2046,2040,2063,2104,2057,1196
1318,1711442197600737777,2056,2063,2069,2065,2032,2053,1197
1319,1711442197610736334,2053,2050,2019,2060,2040,2056,1197
1320,1711442197620735620,2054,2050,2045,2050,2122,2053,1195
1321,1711442197630744306,2062,2058,2029,2076,2024,2059,1196
1322,1711442197640747200,2052,2037,2030,2055,2066,2052,1194
1323,1711442197650738262,2052,2054,2093,2057,2064,2056,1196
1324,1711442197660734483,2060,2060,2112,2056,2051,2053,1196
1325,1711442197670737788,2056,2045,2040,2056,2048,2053,1197
1326,1711442197680743066,2054,2047,2045,2043,2017,2045,1193
1327,1711442197690744999,2060,2051,2036,2058,2033,2049,1196
1328,1711442197700740369,2051,2043,2024,2034,2036,2043,1192
1329,1711442197710739054,2056,2056,2064,2065,2059,2056,1198
1330,1711442197720735937,2051,2026,2000,2047,2065,2053,1196
1331,1711442197730746065,2056,2050,2075,2072,2100,2066,1198
1332,1711442197740744220,2053,2053,2040,2049,2072,2058,1196
1333,1711442197750723119,2056,2048,2027,2065,2085,2065,1198
1334,1711442197760737755,2049,2045,2068,2021,2026,2041,1193
1335,1711442197770759925,2057,2053,2038,2051,2052,2057,1197
1336,1711442197780746479,2051,2050,2040,2053,2064,2052,1197
1337,1711442197790755875,2057,2062,2050,2056,2052,2052,1196
1338,1711442197800735675,2052,2048,2047,2051,2064,2050,1197
1339,1711442197810738710,2056,2050,2054,2066,2062,2057,1197
1340,1711442197820736574,2049,2028,2018,2045,2054,2058,1197
1341,1711442197830741412,2047,2040,2000,2013,2042,2053,1197
1342,1711442197840741561,2052,2050,2050,2066,2069,2058,1196
1343,1711442197850742852,2056,2056,2064,2078,2066,2056,1198
1344,1711442197860738402,2056,2056,2081,2042,2064,2056,1199
1345,1711442197870735716,2060,2050,2039,2057,2058,2057,1195
1346,1711442197880753368,2052,2054,2049,2061,2057,2053,1196
1347,1711442197890742426,2053,2044,2020,2058,2065,2053,1199
1348,1711442197900744799,2055,2077,2075,2052,2056,2047,1192
1349,1711442197910737163,2056,2056,2020,2059,2070,2061,1198
1350,1711442197920736310,2057,2052,2010,2070,2075,2058,1197
1351,1711442197930737230,2063,2068,2078,2075,2072,2061,1196
1352,1711442197940742790,2052,2049,2031,2046,2059,2057,1197
1353,1711442197950734772,2055,2074,2041,2050,2048,2056,1197
1354,1711442197960736896,2058,2066,2064,2010,2033,2047,1193
1355,1711442197970735581,2051,2045,2056,2056,2054,2059,1197
1356,1711442197980744557,2056,2056,2080,2062,2065,2058,1197
1357,1711442197990738184,2054,2056,2048,2066,2055,2054,1196
1358,1711442198000748071,2041,2034,2028,2021,2033,2037,1195
1359,1711442198010738682,2060,2076,2194,2080,2058,2057,1197
1360,1711442198020739442,2052,2052,2069,2045,2053,2053,1196
1361,1711442198030736977,2059,2059,2090,2065,2041,2050,1196
1362,1711442198040743298,2065,2064,2081,2096,2107,2065,1196
1363,1711442198050735863,2053,2073,2053,2048,2054,2054,1195
1364,1711442198060735001,2056,2057,2038,2025,2058,2056,1196
1365,1711442198070735350,2063,2070,2167,2075,2064,2060,1195
1366,1711442198080738685,2057,2066,2118,2066,2058,2056,1196
1367,1711442198090742321,2058,2049,2029,2056,2051,2056,1197
1368,1711442198100732221,2059,2058,2041,2064,2058,2054,1195
1369,1711442198110736078,2052,2051,2049,2069,2056,2057,1196
1370,1711442198120734534,2056,2054,2056,2088,2068,2046,1192
1371,1711442198130779227,2052,2052,2050,2050,2058,2056,1196
1372,1711442198140735905,2054,2061,2098,2061,2056,2057,1195
1373,1711442198150736224,2063,2049,2096,2074,2062,2068,1197
1374,1711442198160737766,2052,2037,2043,2008,2050,2049,1197
1375,1711442198170733838,2056,2052,2057,2066,2068,2060,1196
1376,1711442198180739337,2058,2053,2052,2052,2070,2071,1198
1377,1711442198190737413,2058,2077,2072,2061,2058,2057,1196
1378,1711442198200740859,2053,2050,2055,2025,2052,2056,1197
1379,1711442198210739024,2057,2052,2056,1992,2046,2060,1196
1380,1711442198220737601,2057,2058,2060,1992,2052,2057,1196
1381,1711442198230794387,2059,2067,2056,2087,2051,2060,1196
1382,1711442198240744391,2050,2052,2056,2028,2046,2046,1192
1383,1711442198250748247,2050,2053,2060,2058,2042,2047,1193
1384,1711442198260738879,2058,2060,2070,2057,2052,2052,1197
1385,1711442198270739860,2055,2054,2071,2056,2041,2052,1194
1386,1711442198280739478,2061,2052,2052,2049,2063,2072,1197
1387,1711442198290764324,2053,2057,2058,2064,2053,2058,1197
1388,1711442198300745648,2053,2073,2067,2051,2058,2056,1196
1389,1711442198310739596,2061,2061,2060,2058,2052,2051,1196
1390,1711442198320737562,2061,2056,2057,2060,2068,2057,1197
1391,1711442198330808463,2056,2052,2048,2053,2048,2052,1194
1392,1711442198340736317,2057,2056,2056,2060,2064,2050,1197
1393,1711442198350740995,2056,2054,2057,2054,2049,2053,1198
1394,1711442198360740373,2057,2054,2066,2055,2053,2066,1196
1395,1711442198370741324,2051,2046,2056,2056,2058,2054,1197
1396,1711442198380748757,2059,2057,2053,2040,2040,2045,1193
1397,1711442198390740450,2056,2056,2058,2061,2060,2056,1196
1398,1711442198400745299,2058,2053,2056,2053,2048,2044,1194
1399,1711442198410748593,2051,2054,2052,2058,2054,2045,1196
1400,1711442198420742771,2058,2053,2062,2061,2062,2047,1195
1401,1711442198430812061,2060,2056,2058,2062,2046,2052,1194
1402,1711442198440744042,2050,2049,2050,2037,2024,2041,1191
1403,1711442198450738331,2054,2055,2052,2062,2056,2059,1194
1404,1711442198460741896,2057,2064,2060,2050,2052,2056,1197
1405,1711442198470742747,2060,2051,2053,2051,2034,2038,1193
1406,1711442198480756973,2058,2053,2056,2056,2073,2047,1194
1407,1711442198490741393,2056,2056,2056,2060,2053,2056,1197
1408,1711442198500746491,2059,2056,2056,2051,2058,2056,1197
1409,1711442198510747241,2058,2057,2055,2060,2047,2052,1193
1410,1711442198520747631,2057,2053,2056,2056,2060,2066,1197
1411,1711442198530787596,2053,2056,2056,2056,2055,2077,1194
1412,1711442198540744203,2058,2064,2064,2056,2057,2056,1195
1413,1711442198550767667,2057,2058,2053,2049,2056,2064,1196
1414,1711442198560748059,2056,2056,2053,2052,2047,2062,1197
1415,1711442198570747447,2053,2054,2050,2055,2050,2076,1197
1416,1711442198580747346,2056,2053,2056,2052,2049,2020,1193
1417,1711442198590745561,2058,2059,2058,2069,2067,2056,1198
1418,1711442198600747975,2048,2052,2052,2056,2061,2071,1195
1419,1711442198610748204,2068,2064,2065,2064,2068,2093,1193
1420,1711442198620732103,2057,2057,2056,2058,2056,2054,1196
1421,1711442198630764644,2056,2050,2057,2052,2032,2040,1193
1422,1711442198640747310,2060,2082,2072,2061,2058,2056,1195
1423,1711442198650749684,2056,2058,2052,2066,2049,2050,1197
1424,1711442198660733132,2060,2057,2054,2056,2061,2061,1196
1425,1711442198670732829,2062,2056,2060,2060,2032,2081,1197
1426,1711442198680732678,2059,2061,2058,2056,2060,2038,1193
1427,1711442198690769497,2065,2057,2057,2062,2052,2073,1196
1428,1711442198700766420,2059,2052,2052,2051,2057,2099,1196
1429,1711442198710733257,2052,2060,2061,2058,2056,2096,1196
1430,1711442198720735981,2053,2047,2058,2050,2056,2090,1195
1431,1711442198730754425,2074,2059,2061,2063,2059,2104,1198
1432,1711442198740747872,2059,2052,2050,2050,2050,2057,1196
1433,1711442198750752179,2048,2056,2060,2068,2052,2044,1194
1434,1711442198760751677,2054,2053,2054,2056,2018,2069,1198
1435,1711442198770735405,2064,2068,2061,2057,2048,2113,1196
1436,1711442198780735044,2052,2047,2053,2052,2059,2068,1195
1437,1711442198790750262,2052,2052,2056,2056,2043,2030,1193
1438,1711442198800735032,2060,2052,2056,2051,2054,2058,1196
1439,1711442198810735683,2052,2052,2053,2060,2044,2070,1196
1440,1711442198820736834,2055,2056,2053,2048,2042,2066,1195
1441,1711442198830769705,2062,2056,2056,2059,2045,2084,1196
1442,1711442198840738204,2058,2050,2056,2065,2072,2113,1196
1443,1711442198850755405,2057,2049,2051,2060,2072,2016,1193
1444,1711442198860737050,2024,2036,2047,2056,2046,2024,1194
1445,1711442198870735436,2049,2048,2058,2059,2028,2060,1196
1446,1711442198880736898,2056,2051,2056,2056,2062,2050,1198
1447,1711442198890740554,2059,2056,2055,2060,2042,2024,1193
1448,1711442198900735845,2051,2052,2052,2056,2074,2068,1197
1449,1711442198910738709,2065,2059,2057,2060,2050,2052,1195
1450,1711442198920735963,2052,2056,2054,2056,2066,2069,1198
1451,1711442198930757883,2060,2053,2053,2059,2061,2059,1195
1452,1711442198940733536,2055,2052,2055,2057,2065,2053,1194
1453,1711442198950734437,2061,2048,2044,2058,2053,2059,1200
1454,1711442198960733334,2068,2041,2028,2054,2064,2065,1196
1455,1711442198970736219,2049,2052,2052,2052,2047,2051,1199
1456,1711442198980732461,2051,2044,2006,2044,2042,2052,1196
1457,1711442198990757998,2064,2077,2105,2072,2060,2068,1196
1458,1711442199000738150,2053,2050,2021,2046,2052,2052,1196
1459,1711442199010736607,2053,2051,2046,2056,2049,2073,1196
1460,1711442199020743199,2052,2047,2003,2050,2064,2049,1197
1461,1711442199030742958,2052,2053,2040,2041,2033,2037,1195
1462,1711442199040728701,2053,2052,2052,2056,2060,2046,1191
1463,1711442199050732397,2054,2050,2050,2044,2041,2058,1198
1464,1711442199060745832,2060,2076,2077,2060,2064,2055,1199
1465,1711442199070735171,2057,2050,2035,2052,2048,2047,1193
1466,1711442199080742565,2052,2046,2055,2050,2052,2050,1195
1467,1711442199090725111,2054,2054,2056,2055,2046,2049,1199
1468,1711442199100750979,2054,2056,2024,2060,2057,2050,1196
1469,1711442199110733667,2056,2060,2052,2056,2048,2052,1195
1470,1711442199120732795,2050,2045,2046,2058,2055,2056,1195
1471,1711442199130745818,2056,2056,2053,2064,2064,2081,1197
1472,1711442199140741721,2055,2056,2057,2049,2049,2048,1197
1473,1711442199150741340,2056,2056,2054,2053,2056,2050,1197
1474,1711442199160738513,2054,2054,2060,2061,2062,2054,1197
1475,1711442199170733094,2050,2060,2033,2056,2053,2053,1196
1476,1711442199180735878,2056,2053,2100,2052,2058,2065,1196
1477,1711442199190747389,2050,2047,2033,2048,2036,2040,1196
1478,1711442199200735927,2056,2056,2037,2057,2062,2055,1195
1479,1711442199210734684,2060,2050,2025,2057,2053,2056,1195
1480,1711442199220730786,2052,2052,2056,2052,2056,2051,1196
1481,1711442199230741326,2060,2040,2046,2061,2040,2056,1198
1482,1711442199240746155,2052,2033,2048,2056,2047,2052,1195
1483,1711442199250740614,2050,2045,2034,2051,2028,2049,1196
1484,1711442199260735603,2056,2058,2065,2058,2072,2065,1196
1485,1711442199270738599,2057,2060,2028,2064,2052,2040,1194
1486,1711442199280735372,2057,2055,2043,2052,2064,2058,1197
1487,1711442199290737776,2064,2062,2085,2063,2058,2054,1197
1488,1711442199300739690,2057,2073,2078,2054,2052,2058,1196
1489,1711442199310735702,2057,2059,2062,2065,2040,2058,1197
1490,1711442199320734739,2052,2054,2028,2035,2024,2042,1193
1491,1711442199330745550,2054,2043,2014,2050,2048,2048,1196
1492,1711442199340744898,2051,2056,2034,2050,2062,2047,1196
1493,1711442199350728366,2054,2036,2088,2068,2070,2061,1197
1494,1711442199360735830,2056,2046,2138,2068,2057,2054,1195
1495,1711442199370735499,2060,2053,2038,2064,2058,2049,1196
1496,1711442199380733204,2056,2056,2057,2053,2056,2052,1196
1497,1711442199390744515,2056,2049,2010,2057,2048,2058,1197
1498,1711442199400740818,2047,2050,2066,2041,2047,2044,1193
1499,1711442199410728784,2061,2057,2066,2050,2041,2047,1193
1500,1711442199420731519,2054,2054,2045,2054,2051,2051,1196
1501,1711442199430741788,2057,2064,2106,2051,2056,2049,1194
1502,1711442199440742158,2058,2074,2032,2042,2035,2044,1194
1503,1711442199450734242,2056,2054,2026,2064,2027,2052,1197
1504,1711442199460732900,2051,2037,2001,2037,2035,2053,1197
1505,1711442199470725886,2060,2062,2040,2053,2044,2055,1194
1506,1711442199480737467,2062,2059,2058,2065,2064,2034,1196
1507,1711442199490744811,2057,2057,2047,2064,2052,2045,1194
1508,1711442199500735633,2054,2050,2034,2043,2030,2051,1195
1509,1711442199510733018,2056,2053,2062,1981,2060,2060,1197
1510,1711442199520732918,2053,2064,2036,2078,2053,2056,1197
1511,1711442199530776970,2063,2064,2013,2017,2047,2059,1196
1512,1711442199540742745,2056,2049,2052,2068,2033,2052,1199
1513,1711442199550735430,2057,2049,2050,2062,2056,2053,1198
1514,1711442199560730601,2060,2056,2054,2049,2056,2052,1198
1515,1711442199570731242,2057,2053,2054,2061,2041,2053,1197
1516,1711442199580729357,2059,2058,2055,2035,2056,2056,1197
1517,1711442199590738264,2054,2045,2024,2057,2041,2049,1197
1518,1711442199600750847,2054,2042,2084,2067,2055,2044,1193
1519,1711442199610734917,2057,2042,2028,2050,2046,2046,1194
1520,1711442199620736620,2052,2060,2066,1998,2044,2056,1197
1521,1711442199630748792,2060,2057,2066,2053,2044,2058,1197
1522,1711442199640736118,2052,2049,2040,2018,2062,2056,1194
1523,1711442199650735687,2058,2059,2050,2070,2069,2063,1196
1524,1711442199660743501,2060,2063,2113,2048,2062,2064,1198
1525,1711442199670737008,2050,2049,2042,2071,2050,2050,1196
1526,1711442199680739312,2052,2072,2056,2060,2067,2056,1195
1527,1711442199690734463,2059,2052,2052,2083,2047,2056,1197
1528,1711442199700744140,2057,2052,2084,2096,2056,2056,1197
1529,1711442199710737197,2053,2045,2030,2071,2046,2055,1194
1530,1711442199720738269,2052,2053,2064,2056,2049,2052,1196
1531,1711442199730768946,2053,2054,2047,2063,2074,2056,1197
1532,1711442199740731053,2059,2056,2072,2059,2071,2059,1198
1533,1711442199750704864,2055,2058,2067,2072,2100,2061,1197
1534,1711442199760737124,2060,2060,2089,2085,2073,2060,1199
1535,1711442199770734809,2054,2045,2045,2076,2049,2056,1197
1536,1711442199780738086,2053,2035,2044,2049,2064,2036,1194
1537,1711442199790731352,2057,2050,2054,2056,2051,2044,1194
1538,1711442199800741060,2052,2049,2052,2045,2045,2049,1195
1539,1711442199810737012,2056,2054,2046,2059,2056,2059,1196
1540,1711442199820734868,2053,2053,2059,2037,2058,2057,1196
1541,1711442199830758171,2059,2069,2061,2053,2064,2069,1196
1542,1711442199840751458,2056,2050,2057,2052,2050,2053,1194
1543,1711442199850732953,2060,2060,2054,2061,2044,2060,1197
1544,1711442199860735036,2056,2053,2048,2052,2053,2052,1197
1545,1711442199870729174,2052,2056,2080,2046,2056,2047,1194
1546,1711442199880735947,2052,2056,2062,2058,2052,2047,1195
1547,1711442199890738511,2054,2041,2056,2054,2049,2052,1195
1548,1711442199900740735,2058,2054,2067,2058,2064,2061,1197
1549,1711442199910736888,2058,2050,2043,2050,2052,2061,1196
1550,1711442199920737578,2056,2057,2058,2058,2068,2056,1196
1551,1711442199930738579,2055,2054,2047,2056,2067,2052,1197
1552,1711442199940742297,2053,2052,2049,2050,2060,2057,1198
1553,1711442199950734160,2056,2053,2056,2060,2051,2048,1196
1554,1711442199960732216,2058,2060,2076,2049,2059,2056,1197
1555,1711442199970734700,2057,2067,2059,2061,2062,2052,1194
1556,1711442199980761891,2051,2050,2040,2051,2056,2054,1197
1557,1711442199990737074,2060,2058,2088,2062,2054,2045,1193
1558,1711442200000741231,2054,2051,2048,2039,2046,2040,1194
1559,1711442200010736222,2054,2048,2040,2066,2054,2054,1197
1560,1711442200020736032,2052,2039,2045,2061,2049,2048,1197
1561,1711442200030740279,2057,2036,2052,2058,2056,2053,1196
1562,1711442200040743105,2048,2049,2047,2054,2063,2049,1196
1563,1711442200050728557,2058,2057,2057,2053,2049,2054,1196
1564,1711442200060731724,2056,2058,2066,2053,2061,2065,1196
1565,1711442200070735220,2056,2057,2056,2056,2043,2062,1197
1566,1711442200080743756,2055,2054,2052,2049,2048,2053,1196
1567,1711442200090736833,2061,2081,2073,2063,2062,2064,1197
1568,1711442200100766529,2060,2048,2039,2052,2055,2056,1197
1569,1711442200110742694,2062,2057,2080,2060,2056,2058,1197
1570,1711442200120733146,2054,2053,2051,2053,2050,2052,1196
1571,1711442200130752593,2059,2056,2052,2060,2057,2061,1197
1572,1711442200140746271,2064,2070,2061,2053,2056,2054,1195
1573,1711442200150731413,2056,2060,2052,2056,2043,2040,1195
1574,1711442200160739218,2056,2053,2069,2056,2056,2045,1195
1575,1711442200170735611,2039,2053,2052,2056,2050,2043,1193
1576,1711442200180738736,2056,2056,2059,2058,2056,2052,1197
1577,1711442200190744498,2053,2047,2052,2056,2053,2052,1196
1578,1711442200200753154,2057,2060,2069,2052,2056,2056,1195
1579,1711442200210735812,2075,2091,2094,2066,2061,2065,1199
1580,1711442200220728968,2064,2064,2048,2053,2052,2051,1198
1581,1711442200230750038,2056,2050,2052,2056,2056,2066,1197
1582,1711442200240738647,2056,2060,2082,2058,2056,2049,1196
1583,1711442200250758614,2057,2052,2058,2057,2049,2056,1196
1584,1711442200260739528,2059,2069,2066,2055,2059,2056,1198
1585,1711442200270734128,2052,2059,2054,2059,2057,2057,1195
1586,1711442200280735040,2051,2052,2054,2052,2052,2048,1195
1587,1711442200290740661,2057,2054,2053,2056,2060,2071,1198
1588,1711442200300733998,2056,2059,2057,2052,2054,2056,1197
1589,1711442200310734028,2059,2060,2057,2056,2068,2049,1198
1590,1711442200320734419,2064,2084,2070,2058,2065,2065,1196
1591,1711442200330745790,2066,2068,2058,2059,2058,2064,1198
1592,1711442200340733537,2058,2057,2057,2050,2057,2056,1199
1593,1711442200350741863,2052,2053,2053,2060,2052,2058,1198
1594,1711442200360740010,2057,2058,2059,2058,2061,2056,1196
1595,1711442200370740130,2058,2040,2040,2063,2056,2054,1197
1596,1711442200380737996,2057,2036,2046,2049,2056,2066,1195
1597,1711442200390742034,2058,2056,2056,2062,2054,2056,1196
1598,1711442200400766009,2047,2056,2057,2051,2055,2050,1198
1599,1711442200410742204,2056,2052,2057,2067,2054,2072,1198
1600,1711442200420747925,2052,2059,2061,2048,2052,2056,1196
1601,1711442200430743687,2064,2060,2056,2058,2051,2052,1196
1602,1711442200440740952,2046,2048,2050,2051,2052,2047,1194
1603,1711442200450749107,2057,2053,2055,2061,2064,2053,1197
1604,1711442200460742905,2052,2048,2053,2054,2059,2052,1196
1605,1711442200470743347,2043,2052,2052,2056,2060,2048,1195
1606,1711442200480740852,2054,2052,2052,2046,2052,2052,1195
1607,1711442200490736444,2055,2052,2056,2067,2058,2056,1197
1608,1711442200500754317,2056,2079,2069,2053,2060,2053,1198
1609,1711442200510744579,2058,2061,2057,2061,2057,2070,1197
1610,1711442200520746142,2042,2052,2052,2060,2070,2061,1195
1611,1711442200530745540,2062,2056,2056,2060,2056,2058,1198
1612,1711442200540763394,2058,2058,2054,2054,2057,2053,1198
1613,1711442200550737145,2058,2050,2052,2056,2050,2046,1195
1614,1711442200560745772,2070,2061,2058,2059,2061,2036,1196
1615,1711442200570746803,2044,2054,2056,2059,2050,2061,1198
1616,1711442200580749348,2058,2056,2054,2053,2068,2060,1196
1617,1711442200590746202,2052,2052,2056,2056,2059,2052,1197
1618,1711442200600744589,2056,2056,2058,2048,2050,2047,1194
1619,1711442200610742856,2058,2055,2052,2056,2046,2042,1194
1620,1711442200620768053,2068,2056,2056,2052,2046,2054,1197
1621,1711442200630749789,2061,2052,2056,2057,2056,2057,1196
1622,1711442200640752243,2056,2047,2052,2049,2056,2049,1195
1623,1711442200650742946,2056,2056,2060,2057,2053,2054,1197
1624,1711442200660743888,2056,2052,2052,2053,2064,2068,1197
1625,1711442200670722137,2054,2050,2044,2053,2053,2051,1194
1626,1711442200680741363,2054,2058,2064,2053,2049,2052,1196
1627,1711442200690742495,2059,2082,2067,2050,2043,2045,1193
1628,1711442200700745040,2050,2052,2041,2053,2057,2051,1197
1629,1711442200710745551,2059,2063,2060,2061,2048,2049,1195
1630,1711442200720745701,2057,2057,2054,2056,2062,2048,1197
1631,1711442200730752394,2044,2052,2049,2052,2031,2043,1193
1632,1711442200740762524,2056,2046,2047,2058,2063,2056,1198
1633,1711442200750751412,2059,2058,2072,2062,2068,2048,1200
1634,1711442200760749949,2053,2058,2066,2060,2058,2058,1197
1635,1711442200770734080,2053,2047,2047,2055,2050,2050,1196
1636,1711442200780750371,2064,2074,2123,2061,2057,2050,1198
1637,1711442200790761351,2052,2034,2037,2057,2050,2056,1198
1638,1711442200800738608,2053,2047,2052,2052,2050,2047,1196
1639,1711442200810734561,2056,2047,2024,2054,2043,2052,1196
1640,1711442200820738408,2055,2057,2015,2049,2051,2052,1200
1641,1711442200830755190,2057,2054,2037,2060,2052,2057,1197
1642,1711442200840753607,2056,2050,2014,2058,2058,2057,1195
1643,1711442200850734130,2058,2052,1997,2040,2041,2046,1194
1644,1711442200860737717,2053,2033,2033,2040,2051,2042,1193
1645,1711442200870734471,2083,2101,2124,2088,2066,2069,1197
1646,1711442200880734681,2048,2026,1949,2012,2026,2048,1197
1647,1711442200890738068,2052,2054,2051,2062,2053,2052,1197
1648,1711442200900735914,2056,2061,2053,2050,2052,2062,1196
1649,1711442200910732016,2057,2054,2048,2061,2027,2054,1197
1650,1711442200920733589,2051,2049,2050,2052,2036,2048,1196
1651,1711442200930762274,2056,2053,2051,2056,2041,2052,1196
1652,1711442200940735093,2064,2058,2061,2058,2072,2068,1199
1653,1711442200950736354,2060,2047,2042,2050,2041,2053,1199
1654,1711442200960749990,2052,2048,2029,2053,2067,2054,1198
1655,1711442200970727358,2057,2058,2112,2063,2082,2060,1196
1656,1711442200980725344,2058,2056,2056,2057,2078,2054,1198
1657,1711442200990765509,2057,2056,2059,2064,2064,2056,1197
1658,1711442201000737928,2058,2053,2013,2057,2062,2057,1197
1659,1711442201010736536,2050,2017,2028,2056,2054,2054,1197
1660,1711442201020736576,2059,2039,2040,2056,2056,2042,1194
1661,1711442201030751965,2056,2052,2041,2063,2057,2042,1195
1662,1711442201040734954,2060,2049,2056,2056,2056,2053,1196
1663,1711442201050725056,2064,2060,2077,2061,2057,2066,1198
1664,1711442201060731419,2050,2052,2047,2053,2061,2054,1199
1665,1711442201070730637,2061,2059,2061,2057,2052,2052,1196
1666,1711442201080739875,2061,2080,2042,2052,2052,2056,1197
1667,1711442201090741008,2052,2038,2001,2050,2058,2052,1197
1668,1711442201100723575,2052,2051,2049,2056,2062,2054,1195
1669,1711442201110723776,2058,2056,2056,2061,2065,2058,1195
1670,1711442201120722475,2057,2064,2056,2058,2054,2052,1195
1671,1711442201130744847,2056,2045,2041,2069,2060,2064,1197
1672,1711442201140734799,2056,2053,2061,2058,2060,2066,1196
1673,1711442201150761479,2051,2057,2055,2060,2060,2044,1193
1674,1711442201160731353,2058,2054,2053,2057,2072,2070,1197
1675,1711442201170730482,2049,2054,2056,2058,2044,2041,1194
1676,1711442201180730723,2056,2056,2057,2052,2056,2052,1199
1677,1711442201190741153,2052,2052,2051,2057,2056,2054,1197
1678,1711442201200735784,2056,2081,2068,2045,2042,2039,1193
1679,1711442201210733660,2060,2058,2056,2060,2072,2056,1196
1680,1711442201220736095,2051,2048,2049,2064,2066,2060,1197
1681,1711442201230776552,2056,2056,2056,2065,2053,2060,1198
1682,1711442201240753800,2056,2051,2054,2056,2060,2056,1195
1683,1711442201250733101,2056,2056,2055,2059,2060,2052,1198
1684,1711442201260730016,2054,2057,2061,2056,2052,2055,1196
1685,1711442201270715258,2056,2052,2046,2060,2057,2053,1197
1686,1711442201280730948,2058,2058,2045,2061,2053,2053,1197
1687,1711442201290729326,2058,2069,2056,2050,2048,2048,1197
1688,1711442201300740267,2064,2052,2073,2048,2063,2054,1195
1689,1711442201310731882,2060,2058,2016,2047,2038,2047,1192
1690,1711442201320732774,2054,2052,2058,2053,2056,2044,1193
1691,1711442201330759505,2062,2053,2037,2067,2061,2056,1196
1692,1711442201340734628,2054,2058,2025,2052,2065,2055,1198
1693,1711442201350744958,2055,2049,2042,2058,2047,2053,1199
1694,1711442201360758375,2056,2056,2066,2060,2042,2054,1196
1695,1711442201370731464,2051,2052,2053,2046,2018,2045,1193
1696,1711442201380733719,2064,2053,2052,2056,2056,2057,1197
1697,1711442201390742776,2056,2056,2063,2061,2072,2060,1195
1698,1711442201400733539,2061,2081,2062,2049,2070,2064,1197
1699,1711442201410728831,2061,2058,2062,2054,2050,2048,1195
1700,1711442201420750182,2053,2052,2055,2047,2052,2046,1192
1701,1711442201430740414,2058,2057,2056,2050,2046,2051,1195
1702,1711442201440735225,2052,2048,2041,2051,2046,2049,1197
1703,1711442201450738020,2052,2052,2042,2060,2045,2052,1197
1704,1711442201460731468,2056,2056,2062,2056,2056,2055,1195
1705,1711442201470730688,2054,2064,2061,2058,2044,2048,1196
1706,1711442201480731760,2049,2044,2042,2049,2046,2049,1197
1707,1711442201490690563,2055,2056,2049,2062,2049,2049,1198
1708,1711442201500739927,2056,2047,2026,2056,2057,2065,1196
1709,1711442201510735218,2056,2066,2064,2062,2052,2048,1197
1710,1711442201520735138,2056,2040,2047,2056,2053,2051,1198
1711,1711442201530762811,2057,2064,2086,2061,2057,2053,1196
1712,1711442201540747283,2049,2049,2017,2048,2044,2046,1193
1713,1711442201550723559,2053,2053,2042,2047,2057,2050,1196
1714,1711442201560735852,2054,2054,2053,2062,2059,2056,1196
1715,1711442201570738046,2053,2056,2064,2053,2040,2054,1196
1716,1711442201580741433,2053,2040,2048,2054,2064,2069,1197
1717,1711442201590740131,2052,2050,2054,2062,2053,2056,1197
1718,1711442201600733109,2057,2056,2088,2054,2048,2049,1197
1719,1711442201610738750,2057,2059,2042,2068,2057,2054,1196
1720,1711442201620736747,2059,2068,2094,2054,2064,2061,1197
1721,1711442201630738280,2057,2058,2084,2046,2057,2060,1196
1722,1711442201640736587,2054,2048,2045,2049,2047,2047,1193
1723,1711442201650729084,2057,2056,2050,2071,2066,2062,1194
1724,1711442201660728984,2056,2063,2096,2049,2048,2051,1196
1725,1711442201670729165,2058,2052,2052,2068,2053,2058,1195
1726,1711442201680737060,2055,2055,2062,2056,2050,2050,1197
1727,1711442201690753762,2052,2049,2050,2054,2036,2046,1194
1728,1711442201700739005,2055,2057,2062,2056,2054,2052,1197
1729,1711442201710737623,2057,2056,2058,2047,2046,2058,1194
1730,1711442201720734378,2058,2054,2059,2054,2062,2058,1198
1731,1711442201730760247,2054,2054,2056,2064,2061,2057,1195
1732,1711442201740736602,2057,2056,2057,2052,2065,2044,1193
1733,1711442201750734439,2060,2081,2069,2057,2047,2056,1197
1734,1711442201760731634,2056,2033,2038,2053,2061,2059,1195
1735,1711442201770732106,2052,2038,2044,2065,2066,2054,1197
1736,1711442201780733118,2049,2047,2050,2046,2041,2042,1193
1737,1711442201790709364,2056,2057,2069,2058,2064,2046,1194
1738,1711442201800732337,2056,2076,2079,2053,2056,2045,1190
1739,1711442201810734873,2056,2057,2047,2056,2044,2056,1199
1740,1711442201820735925,2057,2068,2076,2051,2038,2038,1194
1741,1711442201830745754,2053,2049,2050,2056,2044,2040,1194
1742,1711442201840756285,2046,2045,2050,2052,2053,2050,1196
1743,1711442201850740094,2056,2063,2052,2056,2050,2066,1196
1744,1711442201860735396,2060,2065,2056,2052,2046,2049,1196
1745,1711442201870732852,2058,2061,2072,2064,2057,2057,1194
1746,1711442201880759272,2053,2049,2048,2041,2029,2046,1194
1747,1711442201890730298,2052,2050,2056,2057,2044,2052,1197
1748,1711442201900724027,2057,2053,2059,2053,2053,2057,1197
1749,1711442201910723736,2056,2050,2056,2059,2056,2058,1196
1750,1711442201920727504,2050,2045,2057,2053,2072,2053,1195
1751,1711442201930728837,2056,2036,2055,2060,2037,2058,1194
1752,1711442201940730521,2062,2059,2064,2060,2066,2054,1197
1753,1711442201950737385,2056,2047,2045,2058,2052,2057,1196
1754,1711442201960736915,2057,2038,2040,2050,2053,2046,1193
1755,1711442201970735922,2052,2046,2048,2053,2047,2048,1198
1756,1711442201980750781,2062,2051,2056,2058,2062,2057,1193
1757,1711442201990746193,2060,2072,2074,2068,2064,2057,1198
1758,1711442202000776771,2056,2050,2053,2052,2056,2061,1196
1759,1711442202010744251,2053,2048,2049,2060,2046,2044,1192
1760,1711442202020759771,2059,2046,2042,2051,2053,2056,1196
1761,1711442202030751306,2058,2072,2056,2061,2056,2056,1197
1762,1711442202040724196,2054,2057,2050,2047,2053,2049,1194
1763,1711442202050736449,2057,2056,2056,2061,2053,2061,1196
1764,1711442202060735749,2052,2046,2030,2049,2049,2054,1196
1765,1711442202070739648,2064,2055,2053,2054,2053,2052,1198
1766,1711442202080743967,2057,2056,2052,2046,2057,2059,1194
1767,1711442202090755479,2058,2053,2046,2058,2055,2056,1197
1768,1711442202100738679,2050,2048,2060,2056,2056,2056,1195
1769,1711442202110736706,2059,2056,2056,2060,2053,2051,1198
1770,1711442202120741146,2054,2049,2056,2058,2059,2049,1195
1771,1711442202130750424,2058,2053,2048,2055,2056,2056,1197
1772,1711442202140739404,2052,2056,2064,2056,2050,2050,1196
1773,1711442202150726641,2056,2085,2069,2057,2056,2059,1196
1774,1711442202160727183,2055,2057,2054,2047,2048,2051,1197
1775,1711442202170724810,2057,2067,2105,2073,2053,2058,1196
1776,1711442202180727485,2052,2047,2054,2043,2050,2056,1195
1777,1711442202190734410,2055,2060,2072,2058,2044,2049,1197
1778,1711442202200739310,2053,2053,2050,2060,2063,2057,1196
1779,1711442202210735113,2056,2056,2060,2059,2070,2057,1196
1780,1711442202220759901,2052,2050,2051,2062,2058,2056,1196
1781,1711442202230753760,2052,2052,2055,2041,2034,2054,1196
1782,1711442202240745335,2053,2051,2017,2057,2060,2050,1193
1783,1711442202250732792,2049,2045,2013,2056,2054,2051,1196
1784,1711442202260729477,2055,2059,2075,2060,2051,2045,1192
1785,1711442202270729979,2057,2060,2072,2061,2051,2056,1193
1786,1711442202280743616,2056,2053,2077,2056,2059,2055,1195
1787,1711442202290739940,2058,2068,2073,2064,2058,2062,1194
1788,1711442202300731626,2053,2049,2052,2046,2048,2050,1196
1789,1711442202310731255,2060,2074,2068,2061,2058,2054,1195
1790,1711442202320731116,2056,2060,2042,2051,2061,2056,1193
1791,1711442202330744242,2053,2053,2049,2057,2047,2047,1193
1792,1711442202340733122,2054,2052,2049,2051,2053,2053,1197
1793,1711442202350730839,2058,2072,2080,2052,2040,2053,1197
1794,1711442202360732543,2062,2058,2047,2048,2066,2054,1195
1795,1711442202370732093,2049,2060,2084,2052,2045,2056,1198
1796,1711442202380739117,2052,2053,2056,2049,2060,2054,1194
1797,1711442202390755920,2050,2071,2072,2058,2044,2041,1193
1798,1711442202400732055,2062,2061,2052,2056,2047,2054,1195
1799,1711442202410738088,2052,2051,2047,2056,2038,2050,1196
1800,1711442202420739442,2056,2064,2055,2056,2060,2053,1195
1801,1711442202430762516,2050,2056,2050,2061,2076,2046,1192
1802,1711442202440725828,2058,2058,2072,2058,2065,2058,1195
1803,1711442202450739515,2065,2056,2064,2061,2047,2062,1197
1804,1711442202460735388,2034,2039,2048,2054,2072,2052,1195
1805,1711442202470734467,2062,2056,2053,2056,2049,2068,1197
1806,1711442202480746691,2054,2056,2052,2055,2045,2050,1197
1807,1711442202490731744,2056,2049,2052,2053,2090,2056,1196
1808,1711442202500730312,2063,2056,2060,2056,2051,2054,1196
1809,1711442202510722008,2056,2051,2049,2055,2000,2043,1191
1810,1711442202520729313,2054,2051,2052,2053,2038,2051,1195
1811,1711442202530740655,2057,2051,2045,2060,2041,2061,1196
1812,1711442202540754222,2053,2052,2060,2055,2080,2056,1196
1813,1711442202550740707,2056,2058,2077,2060,2053,2042,1195
1814,1711442202560737953,2059,2057,2047,2057,2077,2052,1197
1815,1711442202570738124,2052,2046,2045,2056,2064,2054,1196
1816,1711442202580754285,2056,2050,2024,2054,2050,2049,1196
1817,1711442202590728037,2061,2052,2062,2054,2064,2061,1197
1818,1711442202600737886,2054,2057,2036,2060,2056,2045,1192
1819,1711442202610736455,2052,2055,2034,2055,2046,2052,1196
1820,1711442202620735363,2052,2052,2050,2053,2051,2050,1195
1821,1711442202630768577,2059,2056,2042,2066,2058,2056,1196
1822,1711442202640728273,2058,2057,2054,2059,2067,2063,1195
1823,1711442202650729756,2052,2057,2050,2054,2050,2051,1197
1824,1711442202660727783,2049,2050,2072,2046,2049,2052,1197
1825,1711442202670728456,2056,2057,2087,2056,2056,2056,1195
1826,1711442202680748965,2050,2064,2059,2053,2056,2054,1194
1827,1711442202690722015,2060,2076,2088,2057,2054,2056,1197
1828,1711442202700755028,2052,2052,2077,2056,2059,2047,1193
1829,1711442202710739901,2060,2053,2056,2054,2048,2040,1193
1830,1711442202720756102,2056,2057,2049,2045,2043,2068,1195
1831,1711442202730735385,2068,2063,2068,2058,2049,2061,1194
1832,1711442202740736468,2053,2048,2043,2049,2057,2050,1196
1833,1711442202750731699,2056,2060,2077,2065,2057,2056,1197
1834,1711442202760732092,2052,2049,2050,2054,2057,2056,1199
1835,1711442202770752511,2056,2039,2045,2060,2061,2052,1197
1836,1711442202780727284,2056,2050,2049,2049,2048,2051,1197
1837,1711442202790727435,2052,2052,2032,2056,2050,2053,1197
1838,1711442202800730632,2053,2062,2092,2053,2049,2056,1196
1839,1711442202810727557,2053,2050,2060,2056,2057,2054,1196
1840,1711442202820741745,2058,2051,2061,2054,2047,2053,1197
1841,1711442202830750233,2056,2066,2071,2056,2053,2046,1192
1842,1711442202840739853,2055,2052,2053,2045,2049,2051,1194
1843,1711442202850734845,2050,2052,2051,2056,2053,2050,1196
1844,1711442202860767358,2052,2057,2069,2056,2049,2045,1194
1845,1711442202870740969,2054,2044,2055,2064,2058,2056,1198
1846,1711442202880738315,2055,2058,2064,2056,2063,2058,1194
1847,1711442202890738737,2045,2056,2053,2057,2052,2047,1191
1848,1711442202900735632,2052,2047,2047,2053,2081,2063,1194
1849,1711442202910733438,2060,2048,2042,2056,2041,2068,1196
1850,1711442202920745352,2049,2037,2041,2048,2042,2034,1191
1851,1711442202930737848,2055,2052,2051,2055,2047,2052,1194
1852,1711442202940737288,2060,2056,2056,2050,2036,2068,1198
1853,1711442202950730968,2043,2052,2052,2058,2049,2066,1199
1854,1711442202960731250,2057,2060,2060,2064,2060,2052,1196
1855,1711442202970712525,2089,2059,2056,2058,2052,2059,1196
1856,1711442202980859864,2040,2052,2068,2058,2055,2057,1196
1857,1711442202990744758,2120,2053,2054,2057,2057,2060,1198
1858,1711442203000734990,2021,2069,2062,2057,2054,2044,1193
1859,1711442203010737075,2205,2065,2057,2061,2062,2033,1193
1860,1711442203020758367,2035,2068,2056,2047,2040,2020,1193
1861,1711442203030740955,2057,2061,2060,2058,2027,2054,1197
1862,1711442203040744694,2043,2046,2046,2052,2056,2073,1194
1863,1711442203050738293,2054,2054,2052,2056,2046,2056,1197
1864,1711442203060701947,2056,2054,2056,2054,2064,2048,1197
1865,1711442203070758895,2096,2073,2061,2057,2044,2050,1197
1866,1711442203080747646,2050,2052,2056,2042,2002,2045,1193
1867,1711442203090736035,2045,2056,2055,2056,2041,2053,1197
1868,1711442203100734424,2069,2061,2058,2056,2044,2050,1197
1869,1711442203110735677,2061,2056,2057,2068,2073,2064,1197
1870,1711442203120764383,2037,2050,2051,2049,2052,2039,1196
1871,1711442203130744837,2056,2056,2052,2062,2069,2070,1197
1872,1711442203140738667,2069,2057,2053,2056,2063,2058,1196
1873,1711442203150736063,2056,2059,2056,2064,2066,2063,1200
1874,1711442203160735494,2042,2070,2059,2043,2052,2052,1197
1875,1711442203170736267,2064,2060,2043,2064,2057,2056,1197
1876,1711442203180743152,2050,2044,2030,2053,2060,2054,1197
1877,1711442203190736971,2065,2076,2124,2064,2061,2054,1198
1878,1711442203200737123,2060,2051,2036,2061,2060,2044,1194
1879,1711442203210738166,2057,2054,2034,2056,2050,2051,1196
1880,1711442203220737637,2063,2081,2045,2044,2052,2049,1193
1881,1711442203230744701,2058,2058,2060,2068,2060,2057,1196
1882,1711442203240709467,2056,2057,2057,2059,2066,2060,1195
1883,1711442203250741008,2056,2049,2048,2055,2054,2057,1197
1884,1711442203260740979,2056,2068,2157,2058,2058,2049,1196
1885,1711442203270754416,2062,2066,2098,2053,2052,2056,1196
1886,1711442203280751933,2054,2046,2060,2050,2036,2052,1197
1887,1711442203290741955,2060,2069,2058,2051,2042,2047,1195
1888,1711442203300742888,2055,2057,2057,2056,2049,2079,1197
1889,1711442203310743100,2061,2052,2053,2072,2068,2064,1196
1890,1711442203320741629,2064,2050,2026,2054,2053,2052,1195
1891,1711442203330749846,2052,2049,2049,2035,2019,2036,1193
1892,1711442203340742634,2050,2052,2058,2056,2062,2056,1197
1893,1711442203350745471,2060,2057,2053,2052,2054,2060,1198
1894,1711442203360742687,2048,2056,2050,2058,2061,2052,1197
1895,1711442203370743861,2057,2040,2050,2061,2057,2056,1195
1896,1711442203380750544,2053,2052,2049,2049,2043,2054,1197
1897,1711442203390743152,2060,2052,2038,2052,2041,2051,1196
1898,1711442203400743694,2056,2056,2054,2053,2053,2076,1197
1899,1711442203410744157,2056,2053,2067,2060,2051,2050,1195
1900,1711442203420744629,2056,2048,2033,2056,2061,2054,1196
1901,1711442203430750051,2056,2051,2056,2060,2058,2068,1197
1902,1711442203440743269,2045,2047,2056,2051,2049,2051,1193
1903,1711442203450742079,2064,2066,2060,2054,2047,2056,1195
1904,1711442203460741749,2057,2077,2064,2056,2052,2054,1200
1905,1711442203470724459,2060,2049,2026,2058,2047,2057,1194
1906,1711442203480725522,2058,2071,2043,2064,2074,2049,1196
1907,1711442203490745742,2056,2065,2056,2058,2052,2053,1198
1908,1711442203500741595,2053,2031,2046,2052,2052,2054,1197
1909,1711442203510750313,2060,2047,2053,2058,2055,2064,1197
1910,1711442203520749703,2048,2044,2047,2051,2052,2047,1193
1911,1711442203530749715,2056,2056,2052,2052,2062,2052,1193
1912,1711442203540752712,2058,2051,2060,2056,2044,2056,1197
1913,1711442203550757022,2056,2034,2044,2052,2048,2058,1197
1914,1711442203560749178,2062,2039,2052,2059,2050,2052,1198
1915,1711442203570749911,2053,2052,2052,2056,2043,2078,1195
1916,1711442203580749511,2054,2057,2034,2040,2046,2056,1198
1917,1711442203590748601,2054,2069,2080,2044,2036,2058,1196
1918,1711442203600728434,2050,2057,2047,2048,2046,2047,1195
1919,1711442203610726332,2056,2058,2048,2062,2096,2047,1193
1920,1711442203620725472,2049,2051,2040,2043,2029,2043,1193
1921,1711442203630767473,2052,2055,2058,2050,2022,2049,1196
1922,1711442203640752556,2066,2085,2220,2074,2047,2064,1196
1923,1711442203650758158,2050,2043,2060,2049,2056,2055,1196
1924,1711442203660756016,2059,2055,2037,2053,2046,2047,1193
1925,1711442203670756468,2053,2052,2045,2042,2028,2044,1193
1926,1711442203680756340,2059,2050,2057,2049,2060,2056,1196
1927,1711442203690759256,2057,2082,2073,2065,2068,2057,1194
1928,1711442203700758306,2048,2050,2046,2053,2048,2046,1195
1929,1711442203710766593,2056,2061,2050,2056,2052,2059,1197
1930,1711442203720758279,2056,2053,2047,2045,2057,2055,1197
1931,1711442203730760063,2059,2057,2018,2054,2044,2038,1194
1932,1711442203740759063,2056,2069,2048,2056,2059,2048,1197
1933,1711442203750736482,2057,2061,2037,2055,2045,2052,1193
1934,1711442203760734760,2054,2043,2044,2048,2051,2048,1195
1935,1711442203770736855,2052,2074,2068,2056,2052,2053,1196
1936,1711442203780755703,2057,2056,2053,2052,2042,2047,1192
1937,1711442203790755824,2056,2056,2053,2060,2054,2050,1194
1938,1711442203800738533,2052,2050,2052,2056,2056,2041,1191
1939,1711442203810736831,2057,2056,2050,2057,2056,2058,1194
1940,1711442203820736081,2057,2061,2066,2058,2060,2054,1198
1941,1711442203830758905,2056,2061,2061,2049,2045,2048,1196
1942,1711442203840736706,2052,2055,2077,2058,2049,2042,1192
1943,1711442203850736877,2056,2056,2054,2058,2053,2052,1195
1944,1711442203860736207,2051,2053,2056,2049,2050,2056,1195
1945,1711442203870730468,2056,2053,2051,2053,2038,2051,1197
1946,1711442203880731351,2056,2090,2079,2054,2051,2069,1197
1947,1711442203890739708,2058,2058,2057,2060,2056,2056,1196
1948,1711442203900739409,2052,2063,2065,2054,2052,2050,1197
1949,1711442203910736825,2058,2053,2056,2053,2038,2060,1193
1950,1711442203920735705,2056,2053,2054,2058,2048,2069,1196
1951,1711442203930775692,2056,2053,2053,2056,2067,2056,1196
1952,1711442203940739655,2052,2056,2060,2058,2049,2036,1195
1953,1711442203950742583,2056,2057,2058,2051,2034,2043,1192
1954,1711442203960729609,2056,2051,2045,2064,2066,2057,1196
1955,1711442203970729140,2053,2044,2028,2045,2042,2059,1196
1956,1711442203980729121,2051,2039,2058,2053,2056,2049,1195
1957,1711442203990742648,2054,2064,2117,2066,2051,2053,1195
1958,1711442204000740125,2052,2046,2044,2047,2045,2049,1197
1959,1711442204010736530,2056,2049,2014,2062,2050,2040,1193
1960,1711442204020733206,2065,2076,2142,2056,2047,2042,1193
1961,1711442204030740952,2056,2052,2030,2049,2048,2054,1194
1962,1711442204040764297,2050,2052,2030,2050,2056,2052,1194
1963,1711442204050739362,2061,2072,2068,2051,2048,2052,1197
1964,1711442204060739184,2054,2049,2060,2047,2042,2050,1197
1965,1711442204070736501,2053,2057,2091,2056,2053,2051,1194
1966,1711442204080744999,2049,2048,2048,2047,2051,2047,1194
1967,1711442204090728801,2047,2050,2041,2068,2059,2053,1193
1968,1711442204100739693,2059,2064,2092,2065,2068,2059,1196
1969,1711442204110735738,2051,2044,2037,2056,2061,2056,1197
1970,1711442204120733225,2053,2055,2062,2050,2061,2052,1196
1971,1711442204130744468,2059,2060,2077,2056,2045,2050,1195
1972,1711442204140771060,2056,2057,2068,2065,2053,2049,1197
1973,1711442204150707623,2056,2079,2062,2050,2043,2050,1198
1974,1711442204160731980,2059,2064,2057,2049,2050,2050,1196
1975,1711442204170731181,2058,2057,2056,2061,2049,2058,1197
1976,1711442204180728608,2054,2069,2066,2051,2062,2058,1197
1977,1711442204190770930,2053,2047,2052,2053,2060,2056,1196
1978,1711442204200723020,2056,2046,2053,2060,2064,2053,1197
1979,1711442204210733382,2056,2050,2049,2052,2054,2051,1197
1980,1711442204220731030,2053,2068,2061,2047,2052,2044,1193
1981,1711442204230748264,2050,2048,2042,2057,2052,2057,1197
1982,1711442204240736614,2064,2056,2056,2051,2045,2049,1197
1983,1711442204250735093,2064,2064,2066,2061,2050,2058,1195
1984,1711442204260734714,2060,2085,2074,2054,2046,2056,1195
1985,1711442204270734546,2062,2057,2051,2058,2057,2053,1196
1986,1711442204280731532,2054,2043,2040,2059,2061,2064,1197
1987,1711442204290752033,2057,2044,2050,2060,2064,2060,1196
1988,1711442204300731526,2056,2059,2059,2056,2058,2057,1199
1989,1711442204310738131,2048,2057,2051,2055,2056,2077,1196
1990,1711442204320738564,2056,2057,2062,2060,2048,2048,1197
1991,1711442204330734458,2053,2052,2052,2056,2047,2045,1193
1992,1711442204340755409,2056,2055,2054,2043,2033,2041,1194
1993,1711442204350731146,2056,2075,2064,2056,2057,2056,1196
1994,1711442204360733641,2045,2054,2018,2045,2044,2061,1195
1995,1711442204370737721,2050,2056,2061,2040,2040,2051,1196
1996,1711442204380749846,2062,2072,2117,2056,2056,2058,1197
1997,1711442204390746932,2061,2064,2116,2063,2048,2060,1197
1998,1711442204400746834,2065,2056,2091,2069,2078,2061,1194
1999,1711442204410737949,2060,2061,2040,2056,2043,2047,1192
2000,1711442204420733854,2053,2050,2046,2055,2052,2057,1196
2001,1711442204430763842,2052,2048,2032,2044,2042,2047,1193
2002,1711442204440743967,2057,2052,2034,2053,2056,2047,1192
2003,1711442204450740793,2062,2054,2088,2050,2052,2068,1195
2004,1711442204460740454,2055,2046,2025,2053,2052,2054,1195
2005,1711442204470731960,2057,2057,2064,2063,2056,2056,1196
2006,1711442204480739176,2052,2054,2047,2066,2057,2057,1196
2007,1711442204490725642,2060,2062,2081,2056,2052,2055,1197
2008,1711442204500728329,2056,2040,2056,2058,2058,2059,1197
2009,1711442204510726828,2061,2057,2053,2058,2053,2049,1196
2010,1711442204520728262,2056,2057,2108,2066,2058,2058,1195
2011,1711442204530751327,2054,2045,2047,2052,2048,2053,1198
2012,1711442204540732203,2056,2062,2081,2045,2039,2045,1194
2013,1711442204550742755,2060,2068,2046,2056,2056,2048,1199
2014,1711442204560739471,2050,2047,2030,2056,2061,2045,1193
2015,1711442204570739694,2056,2083,2067,2059,2056,2056,1196
2016,1711442204580746558,2063,2061,2056,2055,2056,2056,1196
2017,1711442204590741000,2049,2053,2054,2054,2052,2054,1196
2018,1711442204600733568,2053,2050,2053,2059,2051,2056,1196
2019,1711442204610735844,2052,2047,2060,2050,2047,2051,1195
2020,1711442204620735916,2064,2057,2064,2057,2055,2054,1196
2021,1711442204630742521,2060,2056,2056,2069,2064,2064,1197
2022,1711442204640760236,2070,2065,2066,2053,2052,2058,1195
2023,1711442204650734099,2052,2047,2051,2053,2042,2050,1197
2024,1711442204660726937,2057,2049,2051,2059,2075,2061,1196
2025,1711442204670725387,2065,2061,2058,2052,2044,2054,1196
2026,1711442204680741338,2070,2084,2066,2039,2048,2051,1195
2027,1711442204690736781,2044,2042,2053,2059,2047,2054,1196
2028,1711442204700739518,2055,2052,2054,2059,2059,2056,1197
2029,1711442204710739250,2061,2058,2056,2056,2061,2052,1197
2030,1711442204720738680,2047,2060,2053,2040,2046,2050,1196
2031,1711442204730739003,2057,2052,2049,2058,2039,2056,1196
2032,1711442204740735769,2053,2059,2051,2002,2021,2034,1193
2033,1711442204750742063,2058,2060,2057,2034,2044,2047,1195
2034,1711442204760738318,2060,2049,2047,2074,2066,2059,1198
2035,1711442204770738079,2057,2077,2093,2057,2051,2053,1194
2036,1711442204780738262,2060,2064,2042,2060,2053,2053,1195
2037,1711442204790741410,2052,2046,2024,2053,2047,2049,1198
2038,1711442204800735080,2055,2047,2061,2053,2040,2053,1195
2039,1711442204810734250,2055,2057,2057,2059,2052,2056,1198
2040,1711442204820738410,2060,2061,2025,2050,2038,2056,1195
2041,1711442204830757638,2054,2045,2041,2060,2048,2059,1198
2042,1711442204840744185,2050,2060,2069,2064,2056,2051,1192
2043,1711442204850745238,2056,2044,2018,2056,2060,2059,1195
2044,1711442204860739409,2059,2064,2096,2059,2060,2052,1195
2045,1711442204870726857,2055,2072,2065,2051,2049,2052,1196
2046,1711442204880746125,2059,2056,2061,2042,2064,2054,1194
2047,1711442204890737521,2052,2024,2010,2051,2052,2050,1197
2048,1711442204900734217,2064,2057,2101,2061,2060,2057,1196
2049,1711442204910729590,2050,2040,2066,2064,2056,2052,1195
2050,1711442204920731756,2056,2054,2108,2047,2060,2056,1195
2051,1711442204930764049,2056,2048,2020,2064,2061,2053,1193
2052,1711442204940738814,2048,2015,2004,2035,2044,2047,1193
2053,1711442204950732604,2063,2058,2055,2066,2064,2065,1197
2054,1711442204960749498,2064,2071,2152,2048,2042,2047,1189
2055,1711442204970735644,2064,2064,2059,2056,2052,2053,1195
2056,1711442204980763187,2050,2054,2040,2049,2044,2047,1194
2057,1711442204990730869,2053,2029,2006,2052,2059,2061,1196
2058,1711442205000736902,2047,2033,2024,2031,2046,2050,1196
2059,1711442205010755870,2062,2087,2267,2071,2056,2054,1196
2060,1711442205020732940,2080,2103,2230,2098,2089,2075,1198
2061,1711442205030737741,2052,2045,2038,2052,2057,2055,1196
2062,1711442205040738886,2060,2067,2060,2062,2057,2056,1193
2063,1711442205050743817,2045,2039,2043,2035,2013,2036,1192
2064,1711442205060732117,2051,2051,2058,2057,2061,2053,1197
2065,1711442205070727742,2053,2048,2036,2057,2055,2054,1195
2066,1711442205080731090,2054,2058,2065,2059,2062,2060,1196
2067,1711442205090755278,2060,2080,2048,2060,2061,2058,1197
2068,1711442205100732909,2056,2045,2041,2056,2051,2049,1197
2069,1711442205110736327,2057,2061,2054,2065,2062,2061,1195
2070,1711442205120737092,2053,2050,2031,2042,2045,2050,1192
2071,1711442205130737955,2059,2049,2042,2053,2046,2053,1195
2072,1711442205140744570,2056,2064,2082,2062,2056,2053,1197
2073,1711442205150730587,2050,2043,2013,2044,2027,2042,1194
2074,1711442205160735117,2054,2052,2051,2069,2056,2054,1195
2075,1711442205170738205,2057,2049,2040,2066,2056,2056,1196
2076,1711442205180735503,2047,2050,2054,2030,2037,2047,1193
2077,1711442205190725997,2057,2074,2078,2064,2065,2070,1197
2078,1711442205200738433,2056,2055,2036,2049,2054,2047,1193
2079,1711442205210738977,2052,2053,2072,2052,2055,2056,1197
2080,1711442205220736975,2054,2052,2058,2059,2052,2056,1196
2081,1711442205230741426,2050,2035,2028,2060,2051,2054,1194
2082,1711442205240743773,2056,2040,2049,2042,2044,2050,1195
2083,1711442205250741410,2057,2052,2038,2064,2056,2054,1196
2084,1711442205260742846,2056,2052,2047,2046,2040,2046,1193
2085,1711442205270740854,2052,2052,2052,2054,2055,2054,1196
2086,1711442205280740376,2058,2053,2065,2053,2048,2048,1197
2087,1711442205290731642,2054,2053,2048,2052,2051,2053,1195
2088,1711442205300743797,2053,2056,2055,2053,2054,2053,1195
2089,1711442205310743769,2061,2074,2069,2050,2036,2044,1193
2090,1711442205320741157,2050,2044,2042,2066,2067,2058,1197
2091,1711442205330743233,2054,2049,2050,2067,2068,2054,1197
2092,1711442205340740981,2057,2069,2065,2046,2046,2053,1197
2093,1711442205350744140,2060,2052,2069,2060,2060,2056,1197
2094,1711442205360739333,2053,2044,2053,2053,2056,2055,1196
2095,1711442205370742712,2052,2054,2048,2061,2056,2053,1196
2096,1711442205380738176,2053,2059,2062,2049,2052,2052,1196
2097,1711442205390756653,2054,2050,2056,2062,2055,2053,1193
2098,1711442205400748761,2056,2068,2052,2056,2054,2056,1196
2099,1711442205410742992,2056,2064,2042,2041,2041,2052,1196
2100,1711442205420739217,2057,2056,2058,2052,2056,2053,1195
2101,1711442205430746273,2054,2060,2061,2049,2047,2049,1197
2102,1711442205440735164,2065,2065,2047,2054,2064,2061,1195
2103,1711442205450739114,2054,2050,2037,2062,2058,2058,1196
2104,1711442205460744988,2058,2066,2075,2063,2056,2052,1196
2105,1711442205470745942,2050,2053,2018,2068,2071,2060,1194
2106,1711442205480746696,2057,2072,2045,2050,2045,2053,1196
2107,1711442205490748111,2056,2068,2061,2050,2049,2052,1195
2108,1711442205500745308,2055,2050,2056,2041,2035,2046,1193
2109,1711442205510748938,2058,2058,2053,2070,2109,2068,1194
2110,1711442205520747096,2053,2054,2054,2070,2081,2058,1196
2111,1711442205530747048,2056,2043,2052,2052,2064,2061,1196
2112,1711442205540746049,2052,2062,2066,2051,2041,2047,1193
2113,1711442205550748586,2052,2040,2040,2056,2045,2050,1195
2114,1711442205560753177,2056,2061,2044,2047,2028,2058,1195
2115,1711442205570748371,2056,2057,2053,2042,2035,2051,1197
2116,1711442205580742161,2053,2043,2047,2024,1990,2024,1194
2117,1711442205590756440,2053,2042,2041,2004,2028,2057,1196
2118,1711442205600750382,2058,2062,2084,2004,1962,2042,1194
2119,1711442205610749111,2056,2050,2045,2036,2068,2053,1195
2120,1711442205620748493,2057,2064,2055,2044,2032,2046,1193
2121,1711442205630783491,2057,2054,2054,2062,2045,2056,1196
2122,1711442205640747636,2059,2054,2065,2053,2043,2052,1196
2123,1711442205650731488,2063,2069,2086,2064,2032,2060,1197
2124,1711442205660749374,2057,2072,2068,2017,2002,2050,1196
2125,1711442205670735029,2060,2064,2050,1969,1992,2024,1193
2126,1711442205680737407,2054,2051,2064,2077,2030,2048,1196
2127,1711442205690763598,2060,2065,2100,2065,2001,2028,1192
2128,1711442205700741879,2054,2044,2031,2110,2108,2055,1193
2129,1711442205710743355,2056,2056,2122,2022,2011,2069,1195
2130,1711442205720735622,2060,2067,2082,2042,2046,2057,1196
2131,1711442205730740444,2058,2062,2072,2061,2157,2067,1195
2132,1711442205740753631,2057,2061,2097,2042,2038,2064,1200
2133,1711442205750726522,2064,2064,2064,2148,2116,1953,1192
2134,1711442205760730893,2054,2043,2053,2096,2110,2066,1197
2135,1711442205770739021,2054,2039,2044,2092,1868,2007,1193
2136,1711442205780734484,2052,2042,2035,2082,2084,2046,1191
2137,1711442205790733836,2056,2052,2061,2027,2001,2033,1193
2138,1711442205800734109,2052,2044,2036,2053,2069,2060,1196
2139,1711442205810736115,2054,2044,2104,2060,2042,2058,1196
2140,1711442205820735396,2052,2034,2055,2078,2077,2072,1196
2141,1711442205830743714,2053,2062,2061,2065,2044,2048,1194
2142,1711442205840730813,2056,2057,2066,2054,2062,2057,1194
2143,1711442205850737187,2059,2053,2019,2052,2045,2030,1193
2144,1711442205860736848,2055,2050,2042,2063,2061,2045,1193
2145,1711442205870737422,2062,2088,2052,2072,2073,2062,1195
2146,1711442205880744327,2061,2056,2045,2062,2065,2056,1199
2147,1711442205890738759,2056,2056,2041,2059,2050,2057,1197
2148,1711442205900736718,2055,2052,2040,2056,2058,2053,1194
2149,1711442205910736309,2058,2058,2020,2064,2056,2056,1195
2150,1711442205920738606,2064,2061,2056,2060,2062,2053,1195
2151,1711442205930750271,2050,2023,2037,2053,2049,2050,1196
2152,1711442205940736136,2056,2040,2049,2061,2039,2057,1198
2153,1711442205950734786,2054,2052,2059,2046,2035,2046,1195
2154,1711442205960739327,2050,2041,2042,2062,2088,2057,1194
2155,1711442205970736123,2069,2055,2080,2065,2068,2060,1195
2156,1711442205980758138,2061,2064,2068,2057,2053,2052,1195
2157,1711442205990742631,2055,2052,2047,2059,2054,2056,1197
2158,1711442206000741400,2056,2056,2072,2065,2059,2054,1195
2159,1711442206010735743,2056,2052,2049,2060,2051,2052,1195
2160,1711442206020735996,2057,2054,2062,2058,2068,2061,1196
2161,1711442206030749524,2050,2052,2056,2059,2058,2052,1196
2162,1711442206040729289,2056,2050,2059,2048,2062,2047,1192
2163,1711442206050744521,2057,2056,2057,2057,2054,2053,1196
2164,1711442206060734334,2056,2052,2053,2053,2052,2053,1195
2165,1711442206070735309,2052,2032,2056,2058,2055,2055,1196
2166,1711442206080761441,2056,2046,2068,2052,2059,2053,1195
2167,1711442206090736316,2056,2049,2056,2056,2054,2053,1195
2168,1711442206100753221,2057,2061,2082,2056,2058,2056,1197
2169,1711442206110738797,2058,2047,2050,2052,2056,2053,1195
2170,1711442206120736355,2051,2022,2033,2047,2047,2052,1195
2171,1711442206130736969,2056,2049,2084,2059,2059,2056,1196
2172,1711442206140746951,2053,2049,2053,2047,2058,2050,1194
2173,1711442206150737576,2054,2048,2052,2056,2049,2051,1198
2174,1711442206160739803,2058,2058,2090,2061,2064,2059,1196
2175,1711442206170740116,2056,2028,2037,2056,2062,2057,1198
2176,1711442206180737084,2058,2048,2074,2056,2057,2056,1195
2177,1711442206190774597,2052,2054,2060,2052,2053,2053,1195
2178,1711442206200741508,2056,2056,2039,2063,2061,2056,1195
2179,1711442206210740359,2050,2044,2036,2054,2050,2056,1197
2180,1711442206220734620,2059,2056,2056,2053,2051,2052,1198
2181,1711442206230738140,2056,2056,2051,2056,2051,2054,1195
2182,1711442206240762088,2054,2037,2052,2060,2060,2053,1196
2183,1711442206250746552,2057,2050,2066,2060,2054,2053,1194
2184,1711442206260737467,2051,2045,2016,2054,2059,2054,1195
2185,1711442206270737741,2057,2062,2096,2066,2054,2056,1195
2186,1711442206280735189,2056,2067,2060,2047,2050,2050,1196
2187,1711442206290754819,2053,2053,2047,2056,2052,2052,1196
2188,1711442206300741005,2056,2064,2044,2060,2061,2052,1194
2189,1711442206310733734,2060,2056,2073,2054,2051,2053,1197
2190,1711442206320733607,2056,2053,2056,2056,2057,2051,1194
2191,1711442206330764899,2057,2077,2059,2060,2055,2056,1198
2192,1711442206340752219,2052,2053,2057,2056,2060,2051,1196
2193,1711442206350722766,2057,2054,2061,2060,2058,2051,1197
2194,1711442206360737316,2056,2048,2040,2056,2052,2049,1196
2195,1711442206370734824,2056,2056,2058,2054,2052,2048,1193
2196,1711442206380734767,2057,2056,2053,2052,2043,2046,1192
2197,1711442206390764105,2056,2054,2065,2058,2053,2057,1194
2198,1711442206400761402,2056,2056,2053,2056,2056,2054,1196
2199,1711442206410736579,2057,2050,2052,2061,2064,2053,1195
2200,1711442206420736662,2056,2049,2051,2042,2041,2054,1198
2201,1711442206430763926,2057,2059,2056,2058,2056,2056,1197
2202,1711442206440735064,2056,2050,2054,2058,2054,2053,1194
2203,1711442206450727974,2052,2026,2041,2056,2053,2050,1195
2204,1711442206460731764,2056,2040,2053,2057,2062,2061,1196
2205,1711442206470733701,2056,2056,2058,2059,2050,2052,1196
2206,1711442206480733654,2056,2049,2054,2053,2043,2052,1196
2207,1711442206490736421,2057,2045,2049,2059,2051,2057,1197
2208,1711442206500759868,2057,2080,2068,2054,2054,2053,1196
2209,1711442206510749191,2054,2073,2062,2056,2056,2052,1197
2210,1711442206520746469,2053,2051,2049,2056,2058,2056,1195
2211,1711442206530765989,2051,2051,2058,2057,2049,2049,1197
2212,1711442206540776932,2059,2053,2050,2056,2057,2057,1196
