seq,time,data[0],data[1],data[2],data[3],data[4],data[5],data[6]
201,1711004475611538445,2052,2065,2047,2102,2057,2046,1194
202,1711004475621537663,2056,2050,2064,2056,2046,2056,1197
203,1711004475631535708,2056,2047,2032,2060,2060,2052,1194
204,1711004475641537420,2056,2051,2054,2088,2056,2060,1197
205,1711004475651540616,2056,2068,2050,2068,2064,2050,1196
206,1711004475661541016,2053,2053,2064,2008,2042,2056,1195
207,1711004475671541797,2052,2064,2050,2052,2057,2055,1197
208,1711004475681540313,2058,2105,2088,2078,2052,2058,1197
209,1711004475691541805,2052,2041,2023,2041,2058,2053,1198
210,1711004475701539870,2056,2050,2072,2077,2057,2054,1194
211,1711004475711544368,2059,2053,2041,2057,2057,2052,1196
212,1711004475721543045,2058,2056,2074,2122,2065,2064,1196
213,1711004475731544166,2059,2095,2052,2031,2056,2054,1194
214,1711004475741544295,2049,2047,2056,1992,2032,2049,1195
215,1711004475751531701,2060,2088,2070,2074,2060,2054,1196
216,1711004475761528304,2056,2051,2064,2053,2044,2056,1197
217,1711004475771528995,2049,2034,2031,2024,2059,2053,1195
218,1711004475781527029,2060,2069,2072,1990,2040,2055,1193
219,1711004475791530235,2058,2047,2043,2047,2062,2052,1194
220,1711004475801528240,2060,2100,2084,2042,2048,2058,1196
221,1711004475811531546,2051,2046,2028,2015,2064,2058,1195
222,1711004475821529100,2056,2056,2064,2052,2044,2054,1195
223,1711004475831529380,2060,2068,2050,2033,2057,2053,1194
224,1711004475841532375,2051,2058,2068,2079,2046,2053,1195
225,1711004475851532434,2057,2057,2041,2080,2062,2054,1197
226,1711004475861530530,2060,2077,2078,2057,2049,2056,1196
227,1711004475871528214,2059,2073,2037,2060,2063,2049,1193
228,1711004475881530718,2047,2042,2052,2032,2040,2052,1195
229,1711004475891531960,2060,2072,2032,2097,2057,2050,1197
230,1711004475901536078,2053,2053,2068,2098,2052,2056,1195
231,1711004475911533432,2058,2056,2042,2049,2061,2056,1196
232,1711004475921529773,2053,2024,2049,2076,2051,2054,1197
233,1711004475931546194,2058,2057,2049,2096,2055,2052,1197
234,1711004475941522999,2054,2045,2062,2065,2047,2054,1195
235,1711004475951525043,2058,2065,2045,2047,2057,2049,1196
236,1711004475961526394,2058,2052,2070,2037,2045,2056,1196
237,1711004475971525481,2054,2040,2020,1992,2051,2052,1197
238,1711004475981593460,2057,2054,2072,2107,2046,2052,1194
239,1711004475991529448,2058,2033,2034,2058,2062,2049,1196
240,1711004476001530579,2050,2032,2064,2048,2057,2057,1195
241,1711004476011531299,2054,2052,2042,2070,2062,2054,1196
242,1711004476021537099,2054,2049,2068,2053,2044,2054,1197
243,1711004476031555875,2055,2049,2035,2051,2062,2052,1195
244,1711004476041528883,2052,2035,2067,2071,2050,2053,1198
245,1711004476051531656,2060,2044,2033,2056,2061,2052,1198
246,1711004476061534982,2050,2053,2072,1985,2035,2052,1197
247,1711004476071533058,2054,2048,2044,2052,2060,2048,1195
248,1711004476081550350,2056,2063,2080,1944,2040,2053,1197
249,1711004476091528607,2052,2056,2032,2085,2061,2053,1200
250,1711004476101526893,2048,2047,2046,2049,2048,2056,1196
251,1711004476111529618,2057,2094,2050,2072,2063,2056,1197
252,1711004476121530960,2052,2044,2056,2045,2045,2056,1196
253,1711004476131533543,2059,2030,2024,2046,2057,2051,1197
254,1711004476141549814,2053,2046,2063,2049,2050,2053,1196
255,1711004476151532370,2053,2054,2046,2055,2061,2050,1197
256,1711004476161532490,2052,2052,2072,2060,2050,2056,1197
257,1711004476171548258,2056,2059,2042,2054,2060,2051,1197
258,1711004476181522899,2055,2062,2080,2060,2051,2060,1197
259,1711004476191523059,2065,2084,2100,1968,2053,2056,1195
260,1711004476201531003,2052,2040,2022,2048,2042,2049,1196
261,1711004476211534719,2058,2069,2037,2048,2056,2060,1196
262,1711004476221530791,2048,2053,2068,2041,2047,2053,1197
263,1711004476231529518,2053,2052,2040,2064,2069,2057,1195
264,1711004476241533254,2056,2053,2072,2044,2044,2057,1197
265,1711004476251533424,2053,2048,2030,2075,2062,2057,1195
266,1711004476261531429,2060,2109,2081,2068,2034,2040,1193
267,1711004476271555213,2056,2043,2038,2084,2106,2087,1198
268,1711004476281556666,2053,2049,2059,2068,2041,2070,1197
269,1711004476291537539,2059,2062,2048,2041,2033,2035,1194
270,1711004476301533038,2061,2052,2066,2068,2056,2044,1195
271,1711004476311533699,2062,2058,2032,2054,2066,2056,1197
272,1711004476321595296,2074,2065,2077,2084,2118,2089,1197
273,1711004476331533658,2052,2056,2050,2069,2085,2058,1196
274,1711004476341530911,2050,2067,2068,2042,2018,2050,1199
275,1711004476351537473,2065,2058,2052,2010,2010,2093,1197
276,1711004476361534767,2055,2047,2063,2047,2009,2037,1196
277,1711004476371552470,2058,2054,2019,2065,2061,2043,1194
278,1711004476381534525,2056,2057,2059,2058,2069,2115,1194
279,1711004476391531689,2063,2096,2073,2072,2106,2081,1196
280,1711004476401534584,2050,2065,2080,2050,2052,2042,1192
281,1711004476411531728,2052,2036,2036,2038,1995,2047,1193
282,1711004476421559048,2053,2053,2061,2077,2088,2074,1193
283,1711004476431548718,2059,2061,2044,2038,2136,2057,1196
284,1711004476441533909,2061,2052,2088,2054,2041,2048,1195
285,1711004476451532235,2056,2061,2047,2108,2113,2096,1194
286,1711004476461534107,2056,2013,2052,2054,2030,2081,1196
287,1711004476471543404,2074,2106,2077,2104,2171,1994,1192
288,1711004476481523937,2046,2036,2054,2078,2177,2058,1196
289,1711004476491537472,2055,2056,2042,2018,2001,2041,1194
290,1711004476501530006,2048,2047,2059,2046,2032,2030,1194
291,1711004476511532330,2057,2064,2044,2073,2054,2044,1193
292,1711004476521541336,2056,2047,2060,2029,2000,2033,1195
293,1711004476531534773,2053,2084,2054,2041,2050,2073,1195
294,1711004476541532457,2046,2010,2046,2021,1961,2042,1193
295,1711004476551530914,2074,2064,2064,2065,2091,2061,1194
296,1711004476561534801,2047,2032,2060,2075,2078,2058,1196
297,1711004476571564817,2051,2051,2041,2054,2060,2050,1196
298,1711004476581540499,2068,2023,2064,2101,2041,2051,1196
299,1711004476591523005,2060,2031,2034,2073,2056,2045,1192
300,1711004476601531251,2064,2056,2094,2057,2088,2070,1197
301,1711004476611530398,2056,2060,2029,2098,2097,2034,1192
302,1711004476621536258,2046,2046,2065,2069,2094,2051,1195
303,1711004476631539293,2054,2050,2036,2044,2057,2044,1194
304,1711004476641537700,2046,2046,2062,2057,2035,2031,1192
305,1711004476651532589,2052,2053,2040,2061,2064,2053,1198
306,1711004476661531886,2053,2050,2068,2062,2068,2025,1195
307,1711004476672133129,2053,2041,2033,2049,2040,2034,1192
308,1711004476681531795,2058,2050,2084,2067,2045,2064,1198
309,1711004476691535221,2061,2052,2037,2054,2020,2053,1198
310,1711004476701529058,2054,2047,2062,2053,2064,2059,1196
311,1711004476711529448,2052,2049,2042,2058,2062,2047,1194
312,1711004476721530589,2060,2092,2072,2082,2085,2047,1194
313,1711004476731537402,2049,2067,2037,2060,2082,2054,1197
314,1711004476741527802,2048,2032,2058,2050,2072,2042,1194
315,1711004476751523573,2080,2085,2071,2062,2064,2033,1195
316,1711004476761550093,2058,2056,2070,2056,2046,2055,1197
317,1711004476771531818,2056,2061,2035,2076,2026,2045,1194
318,1711004476781517279,2050,2031,2053,2038,2017,2049,1193
319,1711004476791531415,2067,2067,2069,2049,2061,2080,1198
320,1711004476801522858,2049,2049,2065,2059,2057,2064,1197
321,1711004476811522918,2049,2032,2024,2060,2034,2104,1196
322,1711004476821528376,2054,2089,2061,2064,2074,2046,1194
323,1711004476831528536,2056,2045,2031,2045,2056,2045,1194
324,1711004476841515791,2052,2011,2047,2053,2038,2050,1197
325,1711004476851516011,2074,2067,2026,2052,2065,2060,1197
326,1711004476861518825,2048,2037,2058,2056,2034,2045,1193
327,1711004476871538973,2065,2038,2022,2026,1985,2066,1196
328,1711004476881536026,2054,2077,2087,2046,1997,2052,1197
329,1711004476891524794,2044,2046,2015,2048,2044,2047,1196
330,1711004476901520285,2052,2050,2048,2063,2072,2096,1196
331,1711004476911521205,2056,2045,2036,2044,2074,2052,1196
332,1711004476921521345,2059,2044,2063,2047,2040,2042,1195
333,1711004476931539569,2053,2042,2033,2041,2044,2045,1194
334,1711004476941528687,2052,2060,2069,2052,2000,2056,1195
335,1711004476951519088,2060,2064,2049,2056,2060,2048,1197
336,1711004476961516523,2056,2056,2082,2050,2136,2043,1196
337,1711004476971520630,2060,2050,2065,2047,2058,2036,1194
338,1711004476981542711,2058,2024,2052,2058,2044,2057,1196
339,1711004476991536758,2057,2076,2036,2044,2046,2052,1194
340,1711004477001524474,2050,2052,2072,2040,2036,2042,1192
341,1711004477011531197,2057,2073,2049,2068,2056,2054,1197
342,1711004477021523230,2063,2052,2047,2059,2042,2052,1196
343,1711004477031527938,2059,2061,2064,2058,2066,2045,1195
344,1711004477041525583,2053,2046,2064,2061,2033,2042,1193
345,1711004477051520363,2052,2049,2056,2053,2053,2052,1196
346,1711004477061520191,2046,2036,2058,2056,2042,2062,1198
347,1711004477071524078,2058,2064,2035,2062,2060,2084,1199
348,1711004477081519358,2056,2054,2060,2045,2002,2042,1196
349,1711004477091514909,2050,2052,2043,2050,2032,2050,1197
350,1711004477101518685,2056,2057,2064,2056,2017,2052,1197
351,1711004477111518965,2053,2066,2048,2076,2082,2051,1198
352,1711004477121518794,2056,2060,2066,2053,2049,2052,1196
353,1711004477131529693,2060,2093,2059,2064,2070,2060,1197
354,1711004477141522619,2045,2034,2059,2052,2053,2047,1195
355,1711004477151519953,2060,2050,2072,2071,2085,2057,1196
356,1711004477161520944,2080,2062,2073,2069,2060,2056,1197
357,1711004477171525702,2058,2056,2032,2035,2016,2040,1194
358,1711004477181538335,2052,2064,2072,2053,2039,2047,1192
359,1711004477191519068,2053,2064,2027,2053,2055,2051,1197
360,1711004477201524637,2043,2026,2041,2053,2015,2060,1197
361,1711004477211525468,2070,2065,2048,2049,2044,2053,1197
362,1711004477221551156,2063,2050,2058,2061,2040,2058,1198
363,1711004477231527400,2053,2062,2056,2060,2060,2048,1195
364,1711004477241525335,2056,2072,2096,2030,1987,2037,1192
365,1711004477251526687,2060,2054,2046,2052,2065,2063,1197
366,1711004477261527558,2051,2060,2064,2076,2091,2059,1197
367,1711004477271532666,2061,2047,2059,2057,2056,2052,1196
368,1711004477281917928,2059,2052,2076,2062,2036,2053,1196
369,1711004477291545529,2056,2056,2044,2050,2052,2049,1197
370,1711004477301532073,2062,2068,2118,2066,2043,2053,1195
371,1711004477311529256,2047,2045,2035,2064,2046,2036,1194
372,1711004477321531780,2060,2096,2080,2076,2077,2059,1195
373,1711004477331529486,2052,2037,2035,2051,2054,2028,1195
374,1711004477341530186,2048,2062,2045,2058,2060,2045,1194
375,1711004477351530605,2056,2050,2031,2059,2072,2051,1197
376,1711004477361529653,2044,2036,2055,2064,2060,2056,1196
377,1711004477371535393,2058,2054,2057,2060,2072,2060,1197
378,1711004477381510074,2053,2032,2059,2057,2041,2048,1195
379,1711004477391532706,2046,2040,2032,2050,2049,2052,1194
380,1711004477401515132,2053,2068,2062,2055,2035,2051,1194
381,1711004477411532715,2060,2049,2045,2055,2050,2032,1195
382,1711004477421543203,2060,2058,2066,2051,2037,2053,1197
383,1711004477431556488,2053,2055,2050,2056,2061,2060,1198
384,1711004477441536710,2059,2057,2062,2047,2020,2045,1193
385,1711004477451518323,2060,2059,2059,2058,2062,2048,1197
386,1711004477461564050,2056,2052,2045,2048,2044,2045,1193
387,1711004477471540144,2050,2044,2024,2052,2051,2045,1195
388,1711004477481518041,2062,2066,2071,2053,2037,2065,1197
389,1711004477491519723,2061,2052,2045,2058,2065,2052,1197
390,1711004477501519502,2049,2051,2051,2056,2042,2060,1196
391,1711004477511520443,2068,2054,2052,2047,2040,2054,1197
392,1711004477521540780,2056,2032,2054,2070,2062,2064,1196
393,1711004477531520330,2054,2045,2057,2050,2048,2045,1194
394,1711004477541520751,2056,2056,2088,2046,2029,2058,1194
395,1711004477551521491,2061,2069,2047,2051,2050,2053,1194
396,1711004477561522171,2064,2064,2071,2040,2037,2077,1196
397,1711004477571543621,2046,2028,2042,2060,2064,2051,1196
398,1711004477581527560,2064,2056,2084,2058,2069,2047,1193
399,1711004477591521608,2056,2040,2017,2058,2062,2047,1193
400,1711004477601517830,2059,2047,2052,2060,2053,2055,1197
401,1711004477611519081,2056,2039,2024,2059,2067,2084,1194
402,1711004477621558646,2064,2070,2100,2066,2052,2058,1197
403,1711004477631524509,2053,2049,2028,2052,2058,2046,1194
404,1711004477641522335,2060,2080,2065,2056,2040,2059,1198
405,1711004477651520461,2072,2049,2048,2064,2061,2053,1196
406,1711004477661518085,2051,2047,2064,2060,2050,2062,1197
407,1711004477671517042,2056,2068,2028,2053,2044,2051,1197
408,1711004477681519296,2051,2044,2070,2056,2041,2050,1197
409,1711004477691518754,2048,2068,2030,2053,2056,2037,1194
410,1711004477701519865,2058,2047,2064,2059,2046,2056,1194
411,1711004477711520245,2061,2058,2036,2058,2062,2054,1196
412,1711004477721518310,2060,2093,2067,2061,2042,2053,1197
413,1711004477731529371,2054,2056,2056,2052,2086,2053,1195
414,1711004477741520162,2052,2045,2057,2051,2038,2058,1195
415,1711004477751520211,2054,2038,2040,2062,2067,2056,1196
416,1711004477761518147,2052,2045,2086,2056,2042,2049,1196
417,1711004477771536941,2063,2044,2027,2059,2067,2058,1195
418,1711004477781511472,2049,2036,2042,2059,2047,2056,1193
419,1711004477791515649,2056,2042,2038,2062,2051,2044,1194
420,1711004477801514937,2061,2042,2074,2067,2076,2056,1196
421,1711004477811515747,2056,2045,2044,2056,2051,2052,1195
422,1711004477821551114,2054,2059,2092,2069,2066,2056,1195
423,1711004477831524693,2056,2065,2032,2057,2054,2048,1197
424,1711004477841512308,2056,2060,2072,2046,2038,2056,1196
425,1711004477851518940,2053,2058,2037,2056,2074,2054,1196
426,1711004477861517447,2056,2061,2090,2061,2040,2068,1195
427,1711004477871520692,2058,2050,2033,2058,2052,2052,1196
428,1711004477881521652,2066,2049,2070,2065,2060,2062,1197
429,1711004477891525309,2058,2052,2031,2058,2052,2047,1194
430,1711004477901521190,2053,2061,2066,2053,2068,2053,1196
431,1711004477911521851,2054,2038,2034,2057,2070,2053,1194
432,1711004477921523282,2064,2048,2097,2053,2033,2054,1195
433,1711004477931520536,2056,2042,2048,2049,2045,2046,1194
434,1711004477941521808,2065,2051,2046,2056,2040,2058,1195
435,1711004477951519162,2055,2060,2046,2056,2062,2058,1195
436,1711004477961522036,2056,2074,2074,2049,2040,2050,1196
437,1711004477971527827,2060,2070,2076,2058,2052,2052,1196
438,1711004477981513659,2053,2052,2065,2057,2034,2049,1194
439,1711004477991537152,2048,2056,2028,2042,2056,2048,1195
440,1711004478001532353,2066,2112,2092,2056,2051,2056,1197
441,1711004478011521612,2056,2052,2036,2058,2040,2044,1194
442,1711004478021546217,2053,2044,2070,2059,2047,2056,1196
443,1711004478031522802,2052,2056,2052,2059,2064,2052,1196
444,1711004478041521118,2061,2054,2074,2047,2046,2065,1195
445,1711004478051522719,2050,2040,2026,2056,2057,2050,1195
446,1711004478061523931,2061,2080,2076,2057,2058,2054,1194
447,1711004478071531886,2049,2052,2029,2052,2064,2048,1196
448,1711004478081519100,2046,2072,2065,2056,2042,2058,1197
449,1711004478091524920,2061,2056,2047,2053,2060,2056,1195
450,1711004478101521183,2052,2042,2055,2054,2040,2047,1193
451,1711004478111521863,2063,2063,2077,2061,2057,2051,1198
452,1711004478121577227,2054,2064,2069,2053,2047,2056,1195
453,1711004478131523244,2058,2068,2037,2058,2053,2046,1193
454,1711004478141517192,2061,2045,2038,2059,2049,2056,1196
455,1711004478151519845,2056,2049,2018,2048,2061,2042,1192
456,1711004478161522319,2068,2087,2079,2067,2046,2052,1197
457,1711004478171530524,2060,2065,2049,2058,2073,2058,1198
458,1711004478181525072,2049,2046,2059,2004,2012,2058,1194
459,1711004478191524631,2066,2088,2087,2070,2053,2058,1199
460,1711004478201522396,2060,2048,2060,2053,2037,2056,1199
461,1711004478211520551,2058,2049,2034,2058,2071,2056,1196
462,1711004478221560536,2057,2047,2064,2052,2044,2053,1196
463,1711004478231514518,2056,2082,2064,2051,2054,2050,1196
464,1711004478241517663,2055,2048,2069,2057,2045,2052,1195
465,1711004478251521199,2048,2058,2034,2056,2062,2061,1197
466,1711004478261523012,2064,2079,2072,2064,2056,2056,1197
467,1711004478271556314,2065,2044,2044,2064,2065,2050,1197
468,1711004478281536014,2060,2052,2069,2061,2047,2057,1194
469,1711004478291523370,2058,2046,2037,2056,2085,2057,1196
470,1711004478301523169,2058,2052,2076,2058,2049,2053,1194
471,1711004478311522746,2053,2052,2044,2054,2064,2048,1195
472,1711004478321521112,2044,2042,2058,2047,2044,2048,1196
473,1711004478331530500,2058,2054,2039,2057,2065,2062,1196
474,1711004478341525929,2056,2047,2065,2016,2051,2050,1197
475,1711004478351521551,2054,2081,2101,2064,2066,2056,1197
476,1711004478361521720,2057,2082,2082,2053,2043,2060,1194
477,1711004478371536166,2052,2036,2018,2059,2063,2055,1194
478,1711004478381508212,2057,2059,2068,2050,2043,2046,1193
479,1711004478391523140,2056,2052,2033,2052,2057,2058,1196
480,1711004478401519392,2064,2101,2092,2063,2045,2048,1195
481,1711004478411523078,2050,2042,2040,2058,2076,2062,1195
482,1711004478421523338,2056,2058,2066,2053,2058,2066,1197
483,1711004478431537765,2051,2037,2029,2050,2060,2052,1195
484,1711004478441529567,2058,2041,2060,2062,2052,2056,1195
485,1711004478451522393,2044,2036,2037,2076,2074,2050,1197
486,1711004478461521902,2051,2047,2064,2056,2045,2057,1196
487,1711004478471521369,2056,2050,2035,2053,2056,2046,1195
488,1711004478481532159,2041,2027,2036,2053,2046,2051,1197
489,1711004478491527259,2056,2070,2047,2053,2064,2054,1198
490,1711004478501528059,2057,2038,2067,2060,2051,2060,1198
491,1711004478511527588,2058,2044,2020,2058,2077,2064,1196
492,1711004478521536815,2050,2043,2051,2060,2069,2056,1196
493,1711004478531522105,2062,2053,2046,2045,2047,2053,1198
494,1711004478541527976,2048,2054,2075,1978,2029,2046,1193
495,1711004478551524609,2058,2061,2056,2058,2061,2056,1197
496,1711004478561527413,2053,2078,2066,2046,2041,2052,1196
497,1711004478571536128,2051,2038,2054,2044,2045,2051,1196
498,1711004478581533583,2058,2039,2094,2057,2043,2057,1194
499,1711004478591526298,2064,2052,2036,2050,2061,2055,1195
500,1711004478601531086,2061,2052,2056,2064,2056,2072,1195
501,1711004478611531446,2053,2048,2033,2049,2054,2047,1192
502,1711004478621566071,2062,2056,2063,2070,2044,2060,1196
503,1711004478631538748,2057,2056,2038,2059,2059,2055,1196
504,1711004478641534599,2060,2052,2097,2061,2049,2061,1196
505,1711004478651534659,2053,2044,2029,2056,2058,2064,1196
506,1711004478661534226,2058,2057,2051,2059,2044,2050,1197
507,1711004478671535989,2058,2069,2062,2052,2066,2052,1196
508,1711004478681523835,2049,2032,2054,2052,2040,2058,1196
509,1711004478691534494,2054,2040,2064,2059,2056,2049,1197
510,1711004478701531678,2056,2074,2064,2064,2053,2058,1196
511,1711004478711518322,2052,2047,2054,2044,2072,2061,1196
512,1711004478721521567,2056,2053,2066,2073,2048,2058,1195
513,1711004478731539721,2067,2073,2086,2062,2053,2051,1196
514,1711004478741525593,2058,2060,2054,2058,2043,2054,1197
515,1711004478751520353,2047,2034,2024,2057,2067,2052,1197
516,1711004478761520632,2047,2032,2054,2060,2042,2056,1196
517,1711004478771525300,2068,2060,2052,2056,2058,2049,1196
518,1711004478781512866,2056,2051,2056,2056,2046,2050,1193
519,1711004478791523895,2056,2052,2038,2049,2056,2050,1196
520,1711004478801519536,2054,2053,2053,2055,2040,2053,1196
521,1711004478811519626,2051,2043,2040,2055,2060,2055,1198
522,1711004478821536506,2058,2041,2084,2052,2044,2057,1197
523,1711004478831525264,2052,2039,2038,2050,2049,2047,1193
524,1711004478841521206,2052,2048,2053,2049,2036,2050,1195
525,1711004478851525192,2059,2067,2074,2062,2062,2052,1196
526,1711004478861520973,2044,2042,2066,2052,2044,2052,1196
527,1711004478871515893,2050,2054,2054,2058,2061,2052,1196
528,1711004478881513828,2051,2029,2044,2059,2047,2060,1197
529,1711004478891518616,2059,2056,2037,2048,2066,2057,1196
530,1711004478901525639,2056,2057,2047,2065,2048,2056,1195
531,1711004478911519266,2060,2045,2033,2060,2056,2053,1196
532,1711004478921521689,2056,2079,2083,2046,2041,2046,1195
533,1711004478931525446,2056,2056,2040,2053,2060,2057,1197
534,1711004478941523000,2054,2060,2082,2062,2053,2057,1196
535,1711004478951520624,2058,2047,2032,2053,2072,2049,1194
536,1711004478961520954,2050,2046,2038,2058,2046,2057,1196
537,1711004478971510664,2058,2050,2051,2056,2058,2050,1196
538,1711004478981542734,2056,2025,2056,2057,2046,2054,1194
539,1711004478991525190,2067,2056,2028,2052,2062,2061,1196
540,1711004479001520831,2057,2047,2059,2054,2060,2052,1195
541,1711004479011521581,2056,2048,2033,2062,2064,2052,1194
542,1711004479021520909,2065,2069,2070,2060,2056,2058,1195
543,1711004479031528964,2052,2044,2041,2051,2053,2049,1198
544,1711004479041526537,2056,2043,2064,2055,2053,2061,1200
545,1711004479051524693,2056,2049,2034,2050,2060,2053,1197
546,1711004479061522819,2053,2034,2075,2041,2040,2056,1195
547,1711004479071520042,2064,2085,2058,2042,2057,2052,1196
548,1711004479081523558,2049,2046,2075,2045,2048,2051,1197
549,1711004479091518899,2056,2048,2032,2055,2058,2053,1198
550,1711004479101521943,2053,2047,2053,2049,2045,2056,1194
551,1711004479111524808,2045,2062,2042,2057,2053,2045,1195
552,1711004479121520289,2059,2059,2064,2060,2050,2062,1195
553,1711004479131525878,2058,2048,2029,2021,2056,2047,1194
554,1711004479141548480,2062,2056,2078,2059,2046,2053,1196
555,1711004479151516428,2053,2045,2055,2056,2066,2052,1194
556,1711004479161521817,2068,2072,2112,2050,2045,2054,1194
557,1711004479171531655,2057,2067,2047,2052,2049,2051,1194
558,1711004479181520022,2052,2049,2060,2047,2040,2050,1194
559,1711004479191523107,2057,2056,2052,2056,2062,2050,1198
560,1711004479201520782,2044,2045,2064,2056,2046,2056,1197
561,1711004479211526711,2071,2100,2045,2047,2065,2050,1196
562,1711004479221553762,2054,2046,2072,2059,2053,2062,1196
563,1711004479231519757,2058,2054,2037,2053,2057,2050,1196
564,1711004479241498045,2059,2061,2080,2059,2054,2056,1196
565,1711004479251516909,2052,2064,2056,2082,2061,2050,1195
566,1711004479261520526,2053,2058,2065,2065,2058,2053,1196
567,1711004479271551924,2059,2069,2056,2052,2065,2047,1193
568,1711004479281527697,2054,2036,2060,2056,2052,2056,1198
569,1711004479291509903,2054,2048,2042,2052,2059,2050,1198
570,1711004479301525391,2065,2088,2141,2057,2042,2059,1196
571,1711004479311520671,2058,2046,2036,2059,2056,2056,1197
572,1711004479321520380,2052,2047,2059,2056,2043,2055,1196
573,1711004479331526851,2059,2058,2028,2057,2064,2054,1197
574,1711004479341518454,2060,2076,2084,2057,2049,2054,1196
575,1711004479351517081,2058,2064,2045,2072,2068,2040,1192
576,1711004479361521357,2038,2040,2066,2056,2052,2051,1197
577,1711004479371539732,2054,2040,2029,2056,2062,2052,1196
578,1711004479381522849,2056,2052,2068,2056,2047,2057,1194
579,1711004479391522056,2056,2057,2055,2054,2058,2049,1195
580,1711004479401521033,2061,2067,2069,2065,2061,2057,1196
581,1711004479411526754,2056,2044,2049,2050,2050,2049,1196
582,1711004479421518857,2073,2082,2080,2054,2057,2062,1194
583,1711004479431509399,2053,2053,2040,2065,2064,2052,1196
584,1711004479441516821,2053,2056,2072,2059,2054,2056,1193
585,1711004479451527050,2052,2045,2019,2057,2059,2051,1196
586,1711004479461522190,2056,2061,2072,2067,2047,2049,1195
587,1711004479471518010,2050,2060,2043,2058,2073,2052,1194
588,1711004479481546885,2057,2048,2063,2056,2047,2054,1195
589,1711004479491518210,2063,2058,2054,2051,2069,2047,1193
590,1711004479501513269,2056,2045,2066,2059,2045,2054,1195
591,1711004479511517937,2060,2049,2062,2061,2066,2057,1195
592,1711004479521519239,2052,2062,2094,2060,2050,2053,1196
593,1711004479531520510,2058,2055,2056,2057,2061,2055,1197
594,1711004479541524647,2053,2060,2072,2057,2062,2059,1197
595,1711004479551520368,2056,2056,2057,2045,2048,2035,1193
596,1711004479561523112,2056,2064,2074,2063,2048,2054,1196
597,1711004479571524153,2054,2062,2055,2105,2068,2047,1195
598,1711004479581526557,2057,2078,2078,2063,2048,2050,1196
599,1711004479591522187,2057,2063,2046,2058,2057,2058,1198
600,1711004479601522668,2042,1998,2056,2051,2040,2052,1196
601,1711004479611522487,2073,2064,2047,2053,2055,2050,1198
602,1711004479621524158,2054,2064,2059,2058,2041,2042,1194
603,1711004479631520791,2056,2060,2044,2054,2062,2049,1196
604,1711004479641516493,2047,2037,2040,2053,2049,2057,1197
605,1711004479651516180,2055,2055,2034,2054,2052,2060,1194
606,1711004479661516861,2064,2090,2086,2012,2044,2056,1196
607,1711004479671539353,2050,2045,2037,2054,2057,2053,1195
608,1711004479681532799,2050,2044,2061,2046,2045,2054,1196
609,1711004479691885940,2062,2056,2048,2060,2066,2057,1197
610,1711004479701521105,2059,2074,2066,2060,2048,2060,1196
611,1711004479711521194,2056,2053,2037,2056,2059,2058,1196
612,1711004479721521144,2056,2072,2101,2052,2047,2051,1196
613,1711004479731556680,2053,2020,2028,2048,2056,2052,1197
614,1711004479741528596,2056,2068,2076,2067,2049,2053,1195
615,1711004479751531861,2066,2061,2037,2057,2059,2052,1197
616,1711004479761537551,2051,2042,2069,2059,2053,2068,1195
617,1711004479771532971,2052,2046,2031,2060,2065,2058,1196
618,1711004479781535666,2049,2046,2053,2045,2058,2056,1193
619,1711004479791543529,2050,2033,2013,2052,2053,2049,1194
620,1711004479801519703,2057,2078,2076,2057,2048,2052,1194
621,1711004479811535352,2052,2056,2046,2084,2056,2053,1195
622,1711004479821527446,2049,2046,2065,2065,2049,2053,1195
623,1711004479831527395,2066,2077,2063,2059,2065,2054,1194
624,1711004479841541491,2054,2059,2066,2059,2058,2067,1195
625,1711004479851546188,2054,2056,2044,2048,2063,2041,1192
626,1711004479861525358,2052,2040,2053,2058,2049,2051,1195
627,1711004479871523494,2062,2058,2065,2056,2054,2049,1195
628,1711004479881528452,2058,2049,2054,2053,2053,2056,1196
629,1711004479891511870,2062,2052,2042,1989,2048,2053,1197
630,1711004479901523141,2047,2033,2056,2060,2053,2056,1197
631,1711004479911525894,2053,2050,2057,2056,2063,2051,1197
632,1711004479921521345,2058,2062,2068,2055,2047,2043,1195
633,1711004479931522547,2056,2046,2036,2056,2072,2050,1197
634,1711004479941518758,2055,2061,2040,2054,2043,2060,1197
635,1711004479951521833,2052,2048,2040,2054,2057,2048,1198
636,1711004479961517464,2064,2033,2046,2061,2051,2060,1197
637,1711004479971521450,2064,2093,2036,1997,2048,2046,1192
638,1711004479981529796,2047,2037,2043,2056,2041,2056,1192
639,1711004479991525075,2053,2033,2022,2046,2057,2052,1196
640,1711004480001514905,2054,2058,2079,2060,2042,2052,1196
641,1711004480011521978,2052,2051,2040,2051,2053,2052,1196
642,1711004480021515895,2059,2064,2108,2056,2052,2059,1196
643,1711004480031516275,2060,2037,2032,2059,2061,2053,1198
644,1711004480041561380,2061,2067,2088,2057,2038,2047,1193
645,1711004480051518497,2057,2041,2018,2063,2072,2053,1196
646,1711004480061522624,2048,2030,2068,2060,2048,2058,1195
647,1711004480071521520,2057,2045,2032,2055,2060,2047,1193
648,1711004480081521239,2056,2052,2063,2056,2053,2064,1196
649,1711004480091522291,2050,2047,2039,2064,2058,2050,1196
650,1711004480101517680,2062,2064,2077,2032,2047,2053,1197
651,1711004480111517840,2058,2043,2034,2056,2059,2054,1196
652,1711004480121518922,2045,2045,2059,2054,2049,2056,1198
653,1711004480131519912,2068,2084,2045,2053,2058,2049,1195
654,1711004480141517717,2054,2052,2073,2053,2041,2045,1194
655,1711004480151530660,2056,2052,2045,2056,2075,2056,1196
656,1711004480161524428,2056,2065,2077,2058,2040,2053,1195
657,1711004480171525349,2049,2045,2037,2057,2062,2055,1194
658,1711004480181524676,2071,2080,2079,2057,2060,2053,1192
659,1711004480191525938,2052,2064,2024,2024,2056,2050,1198
660,1711004480201526287,2051,2066,2067,2057,2051,2053,1195
661,1711004480211526206,2056,2066,2068,2058,2058,2054,1197
662,1711004480221525644,2052,2051,2060,2049,2040,2051,1197
663,1711004480231526474,2053,2043,2038,2057,2059,2055,1196
664,1711004480241528618,2058,2040,2072,2061,2052,2060,1194
665,1711004480251522836,2050,2044,2032,2081,2058,2050,1194
666,1711004480261529718,2060,2053,2072,2067,2068,2060,1195
667,1711004480271529617,2054,2045,2027,2059,2064,2056,1197
668,1711004480281530107,2066,2053,2056,2058,2051,2060,1197
669,1711004480291530677,2049,2049,2035,2056,2060,2051,1197
670,1711004480301529704,2053,2045,2040,2056,2049,2057,1196
671,1711004480311531566,2062,2054,2081,2059,2064,2053,1197
672,1711004480321531986,2044,2027,2050,2056,2043,2057,1197
673,1711004480331532116,2058,2052,2030,2056,2064,2060,1195
674,1711004480341562182,2052,2070,2080,2068,2049,2058,1196
675,1711004480351532184,2053,2039,2040,2052,2056,2056,1196
676,1711004480361532754,2068,2088,2066,2053,2046,2049,1196
677,1711004480371534606,2045,2052,2046,2053,2059,2050,1196
678,1711004480381533754,2053,2050,2056,2050,2035,2054,1195
679,1711004480391534704,2061,2057,2028,2068,2064,2058,1193
680,1711004480401515918,2048,2046,2054,2062,2043,2058,1196
681,1711004480411516489,2064,2057,2038,2060,2064,2063,1196
682,1711004480421517529,2046,2058,2068,2057,2044,2056,1195
683,1711004480431517458,2060,2030,2058,2056,2056,2055,1195
684,1711004480441518850,2049,2041,2060,2057,2045,2052,1194
685,1711004480451516194,2054,2046,2026,2052,2055,2041,1193
686,1711004480461537884,2054,2037,2056,2050,2044,2061,1197
687,1711004480471521181,2056,2048,2040,2045,2062,2058,1194
688,1711004480481520890,2052,2042,2038,2056,2040,2050,1196
689,1711004480491539064,2053,2060,2036,2059,2074,2046,1193
690,1711004480501506270,2057,2072,2078,2060,2052,2060,1194
691,1711004480511520015,2057,2090,2051,2060,2067,2053,1193
692,1711004480521520505,2056,2054,2092,2053,2040,2060,1193
693,1711004480531520424,2046,2032,2033,2065,2057,2050,1194
694,1711004480541517488,2061,2072,2086,2061,2048,2052,1197
695,1711004480551521664,2056,2052,2036,2057,2068,2060,1196
696,1711004480561521092,2060,2048,2061,2048,2039,2056,1196
697,1711004480571520992,2052,2037,2036,2050,2056,2052,1196
698,1711004480581521972,2049,2045,2057,2071,2048,2053,1195
699,1711004480591529235,2061,2068,2032,2062,2061,2051,1196
700,1711004480601524074,2057,2052,2062,2053,2042,2056,1196
701,1711004480611521929,2060,2049,2034,2056,2058,2050,1195
702,1711004480621522700,2073,2094,2106,2045,2046,2052,1197
703,1711004480631522177,2056,2051,2037,2060,2060,2057,1195
704,1711004480641521906,2060,2060,2061,2064,2049,2062,1196
705,1711004480651508900,2066,2048,2056,2038,2053,2057,1197
706,1711004480661523487,2054,2047,2052,2053,2045,2056,1196
707,1711004480671518226,2050,2049,2050,2056,2065,2053,1197
708,1711004480681526521,2054,2049,2078,2057,2042,2056,1196
709,1711004480691524717,2052,2065,2052,2057,2064,2048,1196
710,1711004480701521079,2056,2059,2051,2057,2066,2062,1195
711,1711004480711520116,2054,2057,2036,2064,2055,2046,1193
712,1711004480721518923,2052,2044,2058,2058,2047,2056,1196
713,1711004480731534330,2069,2079,2082,2057,2057,2057,1196
714,1711004480741525974,2067,2061,2077,2057,2048,2056,1197
715,1711004480751526134,2052,2051,2031,2054,2051,2047,1195
716,1711004480761512747,2057,2048,2059,2065,2056,2060,1195
717,1711004480771498719,2053,2066,2044,2064,2064,2059,1196
718,1711004480781530909,2052,2026,2058,2037,2053,2056,1193
719,1711004480791514878,2066,2069,2036,2058,2054,2047,1194
720,1711004480801525127,2058,2050,2067,2052,2042,2056,1194
721,1711004480811515387,2056,2045,2024,2054,2063,2052,1196
722,1711004480821515997,2062,2065,2064,2060,2056,2067,1196
723,1711004480831519293,2057,2049,2039,2037,2056,2061,1195
724,1711004480841540742,2056,2049,2062,2057,2046,2056,1195
725,1711004480852816597,2057,2060,2065,2048,2057,2053,1194
726,1711004480861534789,2064,2101,2100,2056,2049,2055,1194
727,1711004480871534688,2049,2049,2032,2056,2060,2057,1197
728,1711004480881530950,2051,2046,2053,2056,2041,2054,1195
729,1711004480891548442,2058,2051,2016,2062,2066,2057,1195
730,1711004480901536098,2053,2035,2060,2060,2052,2060,1193
731,1711004480911533041,2053,2053,2042,2101,2070,2049,1196
732,1711004480921529833,2054,2043,2065,2062,2043,2057,1195
733,1711004480931529813,2054,2049,2028,2051,2046,2051,1195
734,1711004480941533008,2058,2053,2057,2060,2035,2050,1195
735,1711004480951559998,2058,2048,2026,2050,2057,2052,1195
736,1711004480961536523,2058,2064,2079,2039,2047,2057,1197
737,1711004480971529869,2057,2056,2045,2071,2063,2049,1197
738,1711004480981530389,2056,2060,2095,2062,2051,2053,1194
739,1711004480991569713,2053,2058,2050,2052,2053,2052,1196
740,1711004481001532180,2057,2073,2080,2057,2030,2052,1195
741,1711004481011535105,2060,2093,2047,2057,2052,2052,1196
742,1711004481021532529,2064,2075,2065,2061,2046,2056,1195
743,1711004481031530174,2056,2050,2050,2079,2064,2057,1194
744,1711004481041535442,2063,2053,2046,2053,2044,2057,1195
745,1711004481051533838,2059,2058,2040,2056,2067,2051,1196
746,1711004481061531323,2056,2046,2057,2058,2052,2060,1193
747,1711004481071531832,2052,2056,2031,2041,2057,2045,1192
748,1711004481081531802,2056,2038,2072,2074,2036,2053,1197
749,1711004481091527984,2060,2072,2036,2056,2066,2057,1197
750,1711004481101515138,2051,2038,2058,2056,2047,2063,1197
751,1711004481111512091,2058,2060,2046,2058,2056,2053,1194
752,1711004481121515546,2056,2056,2068,2058,2049,2058,1195
753,1711004481131520155,2057,2058,2041,2052,2058,2055,1196
754,1711004481141526105,2062,2047,2063,2050,2040,2053,1195
755,1711004481151530813,2056,2079,2073,2046,2071,2052,1195
756,1711004481161528898,2053,2050,2063,2074,2053,2058,1197
757,1711004481171520421,2054,2043,2021,2062,2065,2052,1196
758,1711004481181520250,2047,2025,2061,2057,2062,2045,1193
759,1711004481191526360,2058,2049,2033,2055,2066,2054,1196
760,1711004481201517602,2058,2053,2072,2054,2046,2054,1196
761,1711004481211516209,2052,2056,2032,2050,2054,2043,1193
762,1711004481221516358,2059,2084,2107,2010,2040,2055,1195
763,1711004481231521267,2056,2046,2031,2054,2069,2052,1197
764,1711004481241519111,2048,2064,2072,2051,2038,2052,1196
765,1711004481251512408,2054,2047,2009,2052,2059,2046,1191
766,1711004481261522035,2053,2042,2060,2056,2046,2059,1196
767,1711004481271523927,2057,2054,2050,2060,2066,2053,1196
768,1711004481281522614,2056,2054,2070,2057,2049,2058,1197
769,1711004481291524035,2058,2052,2037,2080,2068,2053,1198
770,1711004481301527201,2073,2050,2070,2067,2068,2061,1196
771,1711004481311527039,2056,2046,2033,2053,2061,2045,1195
772,1711004481321524353,2058,2052,2064,2061,2050,2054,1197
773,1711004481331534161,2062,2066,2061,2059,2061,2045,1192
774,1711004481341525944,2061,2092,2073,2057,2050,2057,1195
775,1711004481351518930,2061,2046,2029,2065,2057,2053,1197
776,1711004481361523337,2052,2078,2074,2063,2037,2056,1198
777,1711004481371524538,2056,2050,2042,2060,2064,2050,1195
778,1711004481381527302,2056,2053,2073,2061,2051,2053,1193
779,1711004481391525358,2060,2045,2043,2064,2065,2057,1196
780,1711004481401514076,2049,2047,2052,2050,2037,2051,1194
781,1711004481411525325,2055,2062,2057,2049,2064,2051,1196
782,1711004481421522429,2057,2060,2085,2068,2048,2055,1195
783,1711004481431524552,2052,2052,2056,2053,2061,2052,1196
784,1711004481441529040,2058,2084,2126,2058,2047,2057,1195
785,1711004481451523298,2053,2048,2024,2040,2037,2045,1194
786,1711004481461527675,2061,2060,2072,2060,2049,2058,1196
787,1711004481471527965,2056,2058,2057,2066,2060,2049,1196
788,1711004481481527522,2066,2061,2058,2075,2045,2053,1197
789,1711004481491538222,2060,2082,2052,2057,2062,2056,1197
790,1711004481501531819,2048,2046,2054,2057,2047,2056,1193
791,1711004481511530054,2056,2074,2047,2054,2063,2052,1196
792,1711004481521527279,2052,2056,2070,2049,2056,2053,1197
793,1711004481531530032,2056,2073,2039,2073,2063,2052,1199
794,1711004481541529380,2052,2052,2067,2066,2044,2052,1195
795,1711004481551927857,2057,2051,2039,2054,2057,2050,1197
796,1711004481561846411,2056,2050,2104,2058,2047,2060,1195
797,1711004481571532674,2058,2049,2050,2067,2056,2049,1193
798,1711004481581531169,2056,2072,2087,2053,2039,2051,1194
799,1711004481591532070,2064,2056,2041,2053,2061,2048,1196
800,1711004481601535285,2051,2045,2062,2049,2052,2056,1195
801,1711004481611529103,2057,2064,2044,2061,2061,2050,1194
802,1711004481621530044,2052,2056,2058,2061,2041,2050,1196
803,1711004481631516727,2053,2022,2010,2045,2060,2050,1196
804,1711004481641533238,2060,2043,2060,2060,2048,2055,1195
805,1711004481651513619,2051,2061,2047,2052,2065,2054,1195
806,1711004481661513859,2057,2061,2080,2033,2049,2057,1194
807,1711004481671522965,2052,2036,2018,2049,2052,2056,1196
808,1711004481681524437,2059,2052,2047,2068,2066,2057,1195
809,1711004481691520709,2051,2040,2052,2049,2057,2061,1196
810,1711004481701550314,2052,2072,2085,2050,2042,2051,1194
811,1711004481711551475,2069,2067,2046,2071,2060,2053,1194
812,1711004481721521497,2057,2052,2056,2084,2053,2053,1196
813,1711004481731525033,2052,2051,2032,2056,2062,2047,1195
814,1711004481741522948,2052,2048,2054,2056,2032,2041,1193
815,1711004481751520903,2060,2060,2052,2052,2065,2056,1196
816,1711004481761519990,2048,2052,2065,2057,2056,2047,1196
817,1711004481771508377,2058,2054,2050,2059,2061,2058,1196
818,1711004481781521541,2053,2052,2064,2047,2040,2062,1193
819,1711004481791524736,2060,2057,2047,2064,2066,2056,1195
820,1711004481801527560,2060,2058,2085,2050,2045,2057,1198
821,1711004481811520566,2065,2051,2040,2058,2057,2048,1196
822,1711004481821520364,2052,2051,2060,2045,2049,2062,1197
823,1711004481831523921,2060,2097,2054,2060,2062,2055,1195
824,1711004481841529560,2050,2037,2050,2030,2047,2049,1196
825,1711004481851527846,2057,2060,2052,2061,2073,2050,1196
826,1711004481861515311,2057,2072,2102,2068,2050,2056,1196
827,1711004481871523135,2061,2052,2047,2050,2055,2046,1192
828,1711004481881518896,2059,2066,2059,2061,2050,2053,1197
829,1711004481891524545,2049,2036,2033,2060,2059,2053,1200
830,1711004481901533201,2056,2061,2116,2064,2052,2053,1196
831,1711004481911525185,2056,2049,2040,2061,2074,2046,1194
832,1711004481921520545,2056,2089,2074,2058,2038,2042,1193
833,1711004481931518811,2054,2053,2046,2059,2064,2052,1196
834,1711004481941521505,2053,2058,2069,2054,2043,2049,1195
835,1711004481951528196,2059,2067,2057,2060,2047,2056,1195
836,1711004481961524569,2060,2053,2066,2059,2042,2056,1196
837,1711004481971522353,2065,2052,2028,2056,2054,2056,1195
838,1711004481981521431,2057,2087,2097,2062,2056,2062,1194
839,1711004481991522561,2054,2056,2058,2069,2065,2056,1197
840,1711004482001532009,2052,2032,2043,2067,2050,2057,1196
841,1711004482011526698,2061,2045,2042,2072,2061,2042,1192
842,1711004482021514894,2052,2052,2062,2066,2051,2063,1196
843,1711004482031518139,2058,2068,2056,2061,2056,2053,1196
844,1711004482041514511,2053,2041,2050,2062,2048,2054,1197
845,1711004482051519019,2061,2057,2039,2058,2058,2047,1193
846,1711004482061527083,2057,2083,2090,2052,2046,2053,1197
847,1711004482071522574,2061,2045,2052,2065,2064,2051,1195
848,1711004482081522382,2061,2033,2045,2080,2048,2057,1197
849,1711004482091555203,2065,2044,2040,2062,2068,2049,1194
850,1711004482101526478,2056,2049,2055,2056,2052,2061,1195
851,1711004482111524142,2045,2009,2020,2045,2066,2057,1196
852,1711004482121521466,2050,2041,2046,2030,2044,2054,1195
853,1711004482131520333,2064,2046,2012,2069,2065,2054,1196
854,1711004482141527055,2053,2074,2082,2059,2054,2060,1197
855,1711004482151514018,2064,2054,2035,2053,2061,2049,1196
856,1711004482161525680,2056,2064,2070,2062,2050,2049,1196
857,1711004482171526891,2062,2070,2075,2064,2069,2052,1196
858,1711004482181524155,2046,2032,2045,2061,2050,2060,1195
859,1711004482191524254,2052,2056,2069,2059,2072,2046,1195
860,1711004482201532058,2049,2057,2068,2058,2046,2054,1195
861,1711004482211525975,2054,2060,2068,2064,2060,2054,1197
862,1711004482221521475,2047,2029,2056,2054,2049,2058,1195
863,1711004482231518479,2057,2050,2040,2052,2059,2050,1196
864,1711004482241521453,2068,2072,2064,2059,2047,2053,1196
865,1711004482251521803,2048,2045,2032,2058,2061,2044,1193
866,1711004482261524306,2049,2034,2072,2049,2042,2060,1195
867,1711004482271519947,2064,2069,2073,2057,2053,2052,1195
868,1711004482281519225,2052,2064,2058,2053,2047,2059,1195
869,1711004482291530285,2052,2061,2040,2048,2060,2044,1195
870,1711004482301513132,2053,2050,2089,2061,2048,2057,1196
871,1711004482311527297,2053,2046,2060,2054,2056,2049,1196
872,1711004482321525373,2052,2038,2072,2056,2040,2057,1197
873,1711004482331521163,2066,2017,2024,2068,2066,2049,1195
874,1711004482341513378,2059,2044,2086,2065,2050,2063,1196
875,1711004482351489601,2057,2048,2038,2058,2068,2062,1196
876,1711004482361521281,2054,2074,2072,2056,2057,2049,1193
877,1711004482371522862,2050,2038,2029,2053,2061,2051,1196
878,1711004482381517441,2057,2036,2065,2056,2043,2052,1194
879,1711004482391524554,2061,2043,2027,2064,2057,2057,1195
880,1711004482401528119,2057,2052,2068,2077,2048,2053,1195
881,1711004482411521556,2056,2052,2050,2051,2056,2056,1195
882,1711004482421519871,2056,2047,2058,2065,2046,2060,1196
883,1711004482431519269,2056,2047,2034,2056,2058,2053,1196
884,1711004482441525069,2060,2060,2088,2052,2053,2056,1197
885,1711004482451520540,2062,2060,2042,2064,2057,2050,1195
886,1711004482461518545,2051,2056,2068,2056,2045,2056,1195
887,1711004482471516640,2040,2046,2030,2063,2058,2056,1198
888,1711004482481515016,2058,2073,2097,2051,2044,2058,1195
889,1711004482491515886,2060,2074,2044,2048,2058,2048,1197
890,1711004482501521336,2050,2043,2075,2048,2046,2055,1196
891,1711004482511513379,2051,2042,2040,2052,2050,2048,1196
892,1711004482521514291,2058,2090,2073,2065,2049,2058,1197
893,1711004482531516693,2052,2044,2034,2053,2056,2053,1197
894,1711004482541515150,2052,2053,2085,2064,2044,2058,1196
895,1711004482551524596,2047,2052,2039,2045,2045,2046,1193
896,1711004482561547429,2054,2050,2047,1992,2041,2056,1196
897,1711004482571524505,2054,2056,2056,2056,2062,2047,1193
898,1711004482581520315,2052,1992,2037,2047,2044,2044,1193
899,1711004482591540774,2073,2060,2065,2053,2074,2058,1195
900,1711004482601512598,2055,2047,2068,2050,2041,2056,1194
901,1711004482611532195,2055,2058,2064,2031,2058,2053,1195
902,1711004482621517125,2044,2033,2048,2056,2046,2057,1195
903,1711004482631519900,2059,2069,2062,2037,2062,2044,1191
904,1711004482641541129,2056,2047,2064,2060,2050,2061,1197
905,1711004482651519176,2068,2064,2046,2056,2057,2056,1195
906,1711004482661521599,2067,2066,2092,2064,2046,2058,1196
907,1711004482671518773,2050,2033,2035,2050,2064,2047,1194
908,1711004482681517300,2060,2048,2050,2068,2058,2070,1196
909,1711004482691557214,2061,2082,2098,2067,2064,2054,1195
910,1711004482701522227,2044,2045,2058,1979,2036,2050,1196
911,1711004482711525652,2065,2076,2061,2070,2066,2054,1196
912,1711004482721518457,2057,2038,2061,2052,2056,2064,1196
913,1711004482731518846,2050,2052,2041,2057,2061,2052,1194
914,1711004482741521371,2058,2074,2107,2053,2045,2057,1194
915,1711004482751542640,2050,2067,2054,1981,2056,2056,1196
916,1711004482761513433,2051,2049,2066,2058,2044,2053,1197
917,1711004482771519695,2065,2071,2040,2063,2058,2054,1196
918,1711004482781520304,2056,2053,2069,2056,2049,2054,1195
919,1711004482791519843,2064,2043,2036,2053,2061,2062,1196
920,1711004482801533567,2056,2034,2050,2053,2048,2053,1195
921,1711004482811517346,2062,2076,2058,2070,2053,2040,1193
922,1711004482821518296,2053,2043,2050,2064,2048,2055,1195
923,1711004482831518736,2061,2074,2069,2066,2058,2051,1196
924,1711004482841521270,2059,2058,2073,2050,2041,2049,1196
925,1711004482851533522,2056,2057,2050,2066,2060,2049,1194
926,1711004482862252108,2054,2086,2064,2048,2045,2046,1194
927,1711004482871523581,2046,2042,2019,2046,2062,2058,1196
928,1711004482881529552,2056,2057,2064,2060,2056,2064,1196
929,1711004482891529450,2053,2049,2036,2055,2059,2052,1197
930,1711004482901530151,2055,2073,2082,2055,2042,2056,1196
931,1711004482911519308,2053,2056,2044,2049,2056,2049,1195
932,1711004482921531060,2062,2068,2099,2060,2047,2058,1195
933,1711004482931524156,2059,2045,2038,2056,2064,2054,1193
934,1711004482941566706,2059,2049,2047,2060,2051,2060,1196
935,1711004482951526278,2057,2080,2029,2064,2064,2052,1194
936,1711004482961533701,2052,2028,2068,2047,2042,2060,1194
937,1711004482971527398,2052,2043,2020,2069,2056,2052,1193
938,1711004482981520013,2053,2042,2059,2056,2051,2060,1194
939,1711004482991522006,2052,2050,2042,2046,2052,2046,1193
940,1711004483001526453,2060,2069,2078,2051,2049,2056,1196
941,1711004483011523136,2055,2038,2037,2068,2061,2048,1196
942,1711004483021525409,2050,2040,2059,2058,2041,2053,1196
943,1711004483031520468,2046,2060,2035,2066,2065,2044,1193
944,1711004483041521579,2061,2084,2094,2066,2060,2056,1193
945,1711004483051518783,2057,2058,2037,2048,2050,2053,1197
946,1711004483061520786,2061,2056,2078,2056,2047,2056,1194
947,1711004483071522568,2068,2071,2059,2056,2064,2056,1195
948,1711004483081522397,2052,2049,2056,2083,2048,2060,1196
949,1711004483091522706,2061,2053,2041,2051,2056,2054,1196
950,1711004483101523307,2053,2049,2082,2062,2048,2057,1196
951,1711004483111553172,2056,2060,2047,2052,2066,2057,1194
952,1711004483121524907,2054,2038,2053,2053,2042,2052,1196
953,1711004483131524585,2067,2089,2052,2057,2057,2049,1195
954,1711004483141528432,2057,2040,2054,2038,2044,2060,1194
955,1711004483151522749,2064,2048,2032,2056,2055,2059,1194
956,1711004483161527187,2059,2052,2056,2056,2052,2064,1194
957,1711004483171525983,2053,2060,2041,2058,2062,2050,1195
958,1711004483181530551,2052,2044,2096,2046,2050,2062,1194
959,1711004483191526682,2052,2035,2022,2053,2056,2056,1194
960,1711004483201527744,2058,2057,2066,2061,2052,2061,1196
961,1711004483211525778,2047,2041,2018,2101,2055,2042,1194
962,1711004483221528884,2053,2044,2056,2058,2050,2053,1195
963,1711004483231529924,2058,2056,2032,2056,2065,2056,1197
964,1711004483241532068,2060,2047,2059,2024,2047,2062,1195
965,1711004483251526836,2059,2064,2029,2055,2061,2054,1197
966,1711004483261524741,2050,2029,2061,2056,2043,2052,1196
967,1711004483271528869,2053,2040,2020,2056,2060,2058,1195
968,1711004483281528567,2060,2037,2061,2023,2041,2057,1197
969,1711004483291529197,2059,2044,2036,2060,2061,2054,1197
970,1711004483301529466,2046,2026,2048,2057,2047,2050,1193
971,1711004483311530227,2052,2039,2037,2059,2061,2057,1197
972,1711004483321532259,2052,2054,2073,2084,2040,2052,1196
973,1711004483331532619,2053,2044,2033,2061,2073,2056,1192
974,1711004483341533419,2056,2040,2065,2052,2042,2058,1196
975,1711004483351534040,2057,2056,2044,2064,2060,2053,1197
976,1711004483361509732,2053,2048,2054,2066,2050,2056,1194
977,1711004483371517346,2058,2034,2019,2056,2057,2058,1195
978,1711004483381534226,2059,2061,2080,2065,2052,2057,1193
979,1711004483391516632,2072,2072,2062,2058,2056,2058,1195
980,1711004483401518434,2051,2064,2076,2045,2042,2050,1195
981,1711004483411544102,2053,2048,2021,2053,2064,2057,1196
982,1711004483421518973,2051,2055,2068,2058,2041,2053,1196
983,1711004483431519223,2056,2053,2021,2056,2060,2050,1196
984,1711004483441520884,2058,2065,2068,2069,2056,2062,1197
985,1711004483451517156,2052,2044,2056,2055,2058,2048,1196
986,1711004483461521624,2066,2053,2081,2060,2044,2060,1196
987,1711004483471521042,2060,2059,2040,2053,2055,2045,1193
988,1711004483481521301,2050,2040,2071,1986,2044,2057,1199
989,1711004483491517152,2052,2018,2036,2064,2056,2048,1197
990,1711004483501520427,2061,2050,2073,2061,2050,2057,1196
991,1711004483511522620,2051,2058,2047,2057,2065,2051,1197
992,1711004483521517199,2052,2043,2049,2052,2047,2050,1197
993,1711004483531520354,2075,2079,2057,2050,2068,2056,1197
994,1711004483541522938,2049,2048,2056,2053,2047,2057,1196
995,1711004483552028307,2053,2048,2032,2062,2059,2056,1196
996,1711004483561529088,2050,2052,2072,2058,2044,2059,1194
997,1711004483571523475,2052,2056,2031,2046,2064,2052,1197
998,1711004483581518275,2053,2050,2067,2054,2047,2057,1195
999,1711004483591520898,2059,2051,2032,2054,2054,2048,1194
1000,1711004483601522521,2046,2058,2061,2061,2043,2061,1199
1001,1711004483611517960,2053,2041,2025,2001,2059,2056,1196
1002,1711004483621528570,2049,2060,2077,2067,2052,2058,1197
1003,1711004483631519842,2064,2056,2041,2067,2061,2061,1196
1004,1711004483641523638,2049,2028,2049,2052,2046,2062,1197
1005,1711004483651528716,2060,2070,2044,2047,2061,2048,1198
1006,1711004483661519949,2053,2048,2053,2061,2054,2057,1194
1007,1711004483671518495,2068,2074,2098,2073,2070,2057,1197
1008,1711004483681516069,2046,2041,2069,2057,2056,2062,1196
1009,1711004483691518793,2049,2052,2045,2052,2061,2056,1197
1010,1711004483701531396,2051,2047,2051,2057,2042,2053,1196
1011,1711004483711536054,2052,2024,2036,2056,2052,2050,1194
1012,1711004483721532085,2064,2077,2078,2073,2055,2061,1198
1013,1711004483731518880,2047,2042,2029,2064,2054,2043,1193
1014,1711004483741521673,2048,2037,2064,2046,2040,2052,1196
1015,1711004483751513477,2060,2068,2028,2041,2068,2053,1198
1016,1711004483761532351,2050,2045,2064,2053,2047,2052,1197
1017,1711004483771517593,2057,2031,2040,2054,2060,2052,1196
1018,1711004483781521749,2061,2049,2073,2069,2053,2049,1193
1019,1711004483791517350,2063,2062,2074,2062,2068,2058,1195
1020,1711004483801522458,2050,2033,2048,2059,2046,2058,1195
1021,1711004483811520935,2058,2050,2029,2051,2064,2051,1195
1022,1711004483821521194,2063,2080,2102,2058,2045,2058,1196
1023,1711004483831525060,2056,2046,2016,2056,2057,2050,1193
1024,1711004483841523816,2054,2038,2058,2064,2072,2058,1194
1025,1711004483851522253,2061,2092,2057,2046,2058,2052,1197
1026,1711004483861527902,2057,2050,2072,1994,2032,2060,1196
1027,1711004483871517401,2056,2053,2033,2054,2058,2062,1196
1028,1711004483881515827,2052,2051,2064,2060,2057,2054,1195
1029,1711004483891516007,2057,2045,2050,2053,2058,2056,1197
1030,1711004483901517648,2056,2063,2088,2056,2034,2058,1197
1031,1711004483911519341,2051,2041,2032,2057,2055,2053,1197
1032,1711004483921520462,2053,2067,2093,2061,2058,2060,1196
1033,1711004483931518797,2066,2081,2058,2064,2061,2052,1193
1034,1711004483941522864,2052,2049,2063,2056,2044,2052,1195
1035,1711004483951513936,2046,2052,2030,2052,2061,2057,1195
1036,1711004483961516840,2060,2037,2074,2060,2053,2064,1197
1037,1711004483971522470,2056,2042,2029,2061,2076,2058,1197
1038,1711004483981520345,2055,2056,2074,2074,2060,2057,1194
1039,1711004483991518089,2052,2061,2040,2047,2053,2047,1191
1040,1711004484001520584,2050,2048,2060,2059,2031,2056,1195
1041,1711004484011526563,2058,2056,2062,2062,2066,2056,1195
1042,1711004484021540368,2057,2069,2075,2061,2046,2052,1196
1043,1711004484031528244,2061,2046,2035,2052,2056,2057,1196
1044,1711004484041527692,2047,2015,2073,2058,2042,2052,1196
1045,1711004484051542860,2058,2043,2041,2043,2060,2055,1193
1046,1711004484061516769,2052,2046,2067,2048,2049,2050,1195
1047,1711004484071518712,2052,2048,2044,2060,2052,2053,1197
1048,1711004484081526315,2052,2054,2065,2032,2050,2058,1195
1049,1711004484091523058,2049,2046,2033,2045,2052,2047,1194
1050,1711004484101524219,2048,2052,2089,2062,2046,2058,1198
1051,1711004484111524158,2065,2089,2049,2058,2060,2052,1197
1052,1711004484121520980,2054,2068,2061,2057,2031,2050,1197
1053,1711004484131518515,2057,2045,2022,2052,2058,2059,1199
1054,1711004484141520728,2052,2043,2056,2050,2033,2061,1197
1055,1711004484151524504,2053,2072,2061,2054,2057,2048,1197
1056,1711004484161518551,2047,2029,2056,2045,2052,2052,1197
1057,1711004484171525914,2064,2054,2042,2056,2072,2053,1197
1058,1711004484181525522,2056,2050,2060,1984,2040,2055,1195
1059,1711004484191522285,2055,2059,2052,2054,2065,2044,1193
1060,1711004484201545177,2056,2066,2088,2062,2050,2060,1193
1061,1711004484211527783,2064,2056,2054,2057,2057,2053,1196
1062,1711004484221525347,2050,2045,2049,2037,2034,2047,1192
1063,1711004484231521840,2060,2076,2065,2056,2060,2046,1193
1064,1711004484241524273,2051,2042,2060,2058,2044,2056,1196
1065,1711004484251548007,2060,2054,2047,2045,2058,2056,1197
1066,1711004484261514452,2052,2067,2082,2056,2049,2058,1195
1067,1711004484271513199,2063,2076,2092,2065,2068,2057,1195
1068,1711004484281516614,2056,2049,2069,2058,2048,2059,1196
1069,1711004484291517976,2064,2051,2040,2066,2058,2045,1196
1070,1711004484301526250,2050,2056,2072,2057,2056,2049,1195
1071,1711004484311519857,2048,2018,2022,2056,2060,2053,1195
1072,1711004484321521939,2062,2070,2076,2063,2057,2049,1194
1073,1711004484331523031,2052,2038,2037,2057,2069,2057,1196
1074,1711004484341543969,2068,2051,2066,2050,2040,2052,1197
1075,1711004484351521506,2050,2034,2033,2061,2056,2051,1197
1076,1711004484361513970,2058,2056,2077,2056,2048,2055,1194
1077,1711004484371519159,2059,2034,2029,2052,2058,2050,1198
1078,1711004484381522133,2056,2056,2068,2057,2048,2054,1194
1079,1711004484391520419,2056,2043,2032,2054,2063,2050,1196
1080,1711004484401520548,2059,2068,2081,2058,2044,2055,1194
1081,1711004484411528182,2061,2064,2044,2023,2046,2051,1197
1082,1711004484421525275,2044,2036,2046,2054,2050,2060,1196
1083,1711004484431526687,2054,2045,2066,2052,2055,2049,1196
1084,1711004484441548967,2056,2064,2077,2056,2047,2057,1198
1085,1711004484451518880,2050,2047,2027,2057,2076,2044,1194
1086,1711004484461522154,2064,2037,2064,2057,2052,2060,1195
1087,1711004484471526452,2045,2045,2050,2053,2056,2052,1196
1088,1711004484481526069,2064,2068,2073,2052,2045,2059,1197
1089,1711004484491533423,2061,2056,2034,2061,2066,2055,1195
1090,1711004484501526177,2061,2068,2053,2062,2048,2056,1196
1091,1711004484511530665,2064,2045,2048,2061,2061,2057,1197
1092,1711004484521530303,2058,2054,2056,2052,2045,2052,1198
1093,1711004484531529100,2062,2074,2035,2065,2076,2061,1197
1094,1711004484541551000,2066,2056,2069,2053,2047,2064,1196
1095,1711004484551530019,2059,2053,2041,2057,2064,2054,1195
1096,1711004484561545648,2049,2047,2057,2091,2036,2054,1193
1097,1711004484571512844,2061,2031,2020,2064,2068,2059,1196
1098,1711004484581532290,2062,2059,2093,2058,2043,2056,1196
1099,1711004484591566323,2064,2075,2094,2057,2059,2050,1197
1100,1711004484601533520,2056,2059,2073,2060,2066,2064,1196
1101,1711004484611534030,2062,2056,2045,2050,2062,2053,1198
1102,1711004484621537105,2061,2060,2073,2052,2043,2056,1196
1103,1711004484631519640,2056,2078,2039,2047,2068,2051,1194
1104,1711004484641539437,2049,2038,2056,2048,2040,2050,1197
1105,1711004484651514228,2052,2056,2029,2060,2064,2053,1193
1106,1711004484661523024,2054,2049,2055,2061,2051,2058,1196
1107,1711004484671518393,2056,2056,2047,2056,2058,2054,1195
1108,1711004484681522871,2058,2059,2093,2060,2048,2056,1198
1109,1711004484691564088,2055,2049,2038,2062,2065,2058,1197
1110,1711004484701551634,2052,2045,2060,2060,2056,2057,1197
1111,1711004484711529239,2069,2070,2053,1978,2052,2049,1194
1112,1711004484721525522,2054,2085,2074,2063,2043,2050,1197
1113,1711004484731521122,2045,2031,2034,2056,2055,2044,1194
1114,1711004484741526301,2051,2072,2066,2060,2048,2070,1197
1115,1711004484751528834,2056,2047,2033,2052,2052,2047,1194
1116,1711004484761516931,2056,2056,2068,2058,2052,2060,1196
1117,1711004484771514475,2053,2050,2037,2058,2078,2052,1197
1118,1711004484781516909,2046,2056,2082,2072,2062,2064,1196
1119,1711004484791517107,2049,2040,2029,2061,2054,2053,1195
1120,1711004484801528539,2061,2076,2123,2072,2043,2054,1196
1121,1711004484811521634,2058,2047,2037,2052,2061,2050,1196
1122,1711004484821518708,2056,2056,2062,2066,2043,2052,1196
1123,1711004484831516993,2059,2052,2040,2061,2069,2046,1194
1124,1711004484841571315,2050,2042,2057,2060,2049,2049,1195
1125,1711004484851538151,2060,2061,2057,2049,2056,2047,1192
1126,1711004484861520537,2057,2042,2062,2057,2044,2054,1195
1127,1711004484871530714,2054,2040,2035,2050,2058,2049,1194
1128,1711004484881528079,2048,2032,2061,2064,2046,2054,1195
1129,1711004484891549788,2062,2056,2052,2064,2064,2052,1199
1130,1711004484901509992,2054,2053,2061,2049,2060,2057,1194
1131,1711004484911521342,2057,2061,2061,2068,2058,2050,1197
1132,1711004484921520790,2052,2050,2082,2064,2062,2049,1194
1133,1711004484931521039,2059,2049,2030,2052,2061,2056,1196
1134,1711004484941519345,2060,2049,2070,2056,2045,2064,1197
1135,1711004484951515416,2064,2058,2037,2058,2060,2056,1197
1136,1711004484961515145,2056,2064,2072,2049,2038,2056,1195
1137,1711004484971512990,2053,2060,2072,2064,2072,2056,1198
1138,1711004484981513219,2054,2046,2060,2047,2040,2051,1193
1139,1711004484991555017,2059,2072,2044,2057,2063,2062,1194
1140,1711004485001524879,2058,2061,2080,2061,2052,2058,1196
1141,1711004485011519618,2054,2038,2026,2050,2058,2050,1197
1142,1711004485021522482,2057,2031,2056,2050,2037,2048,1195
1143,1711004485031517401,2069,2077,2040,2048,2046,2050,1195
1144,1711004485041589306,2045,2042,2058,2060,2040,2045,1194
1145,1711004485051519132,2058,2052,2028,2082,2064,2050,1197
1146,1711004485061519251,2057,2061,2073,2063,2048,2056,1196
1147,1711004485071520573,2053,2037,2037,2053,2058,2049,1196
1148,1711004485081524469,2056,2052,2065,2052,2042,2056,1195
1149,1711004485091550838,2070,2033,2028,2064,2060,2051,1197
1150,1711004485101516421,2058,2063,2050,2060,2048,2060,1195
1151,1711004485111516501,2062,2086,2052,2056,2067,2048,1197
1152,1711004485121519675,2056,2054,2072,2059,2047,2058,1195
1153,1711004485131517329,2053,2054,2033,2067,2062,2060,1196
1154,1711004485141532287,2053,2044,2052,2054,2045,2056,1197
1155,1711004485151535762,2058,2059,2052,2000,2056,2050,1194
1156,1711004485161523989,2061,2058,2079,2059,2043,2052,1194
1157,1711004485171534748,2061,2046,2027,2056,2062,2053,1195
1158,1711004485181518957,2055,2059,2047,2061,2047,2054,1192
1159,1711004485191520178,2054,2039,2008,2059,2058,2046,1192
1160,1711004485201522582,2051,2052,2082,2050,2044,2055,1194
1161,1711004485211528972,2056,2045,2047,2056,2068,2047,1193
1162,1711004485221521437,2052,2044,2071,2015,2045,2053,1197
1163,1711004485231521496,2061,2069,2041,2055,2055,2056,1196
1164,1711004485241552794,2053,2056,2056,2053,2052,2052,1196
1165,1711004485251512236,2058,2049,2038,2056,2064,2051,1196
1166,1711004485261523696,2052,2052,2069,2050,2046,2056,1195
1167,1711004485271521531,2057,2059,2044,2033,2059,2053,1195
1168,1711004485281518885,2056,2060,2066,2064,2046,2051,1196
1169,1711004485291559141,2059,2044,2027,2056,2056,2056,1197
1170,1711004485301516267,2054,2069,2077,2060,2049,2063,1196
1171,1711004485311522018,2058,2030,2033,2048,2053,2052,1196
1172,1711004485321523729,2054,2052,2068,2054,2038,2058,1197
1173,1711004485331521735,2058,2057,2044,2051,2056,2052,1198
1174,1711004485341528005,2052,2044,2064,2059,2048,2068,1196
1175,1711004485351522183,2058,2056,2050,2074,2053,2052,1196
1176,1711004485361524126,2060,2064,2057,2060,2050,2056,1195
1177,1711004485371519225,2056,2055,2044,2059,2054,2046,1193
1178,1711004485381525286,2047,2044,2061,2050,2033,2045,1190
1179,1711004485391525565,2062,2068,2052,2045,2046,2049,1194
1180,1711004485401522308,2052,2057,2065,2063,2046,2061,1196
1181,1711004485411513349,2058,2069,2049,2056,2069,2052,1196
1182,1711004485421522616,2068,2068,2090,2074,2045,2053,1195
1183,1711004485431523586,2055,2058,2065,2057,2060,2048,1195
1184,1711004485441546278,2057,2059,2077,2060,2044,2056,1196
1185,1711004485451524416,2046,2025,2010,2054,2053,2049,1194
1186,1711004485461528312,2056,2062,2060,2049,2034,2056,1196
1187,1711004485471526207,2057,2054,2034,2057,2056,2051,1194
1188,1711004485481525975,2051,2033,2045,2056,2045,2051,1194
1189,1711004485491531084,2058,2042,2008,2025,2056,2054,1198
1190,1711004485501512116,2064,2056,2075,2068,2051,2053,1196
1191,1711004485511515242,2048,2053,2057,2053,2056,2054,1196
1192,1711004485521523405,2063,2084,2078,2066,2042,2053,1194
1193,1711004485531522162,2061,2059,2033,2052,2073,2053,1196
1194,1711004485541529044,2047,2029,2045,2089,2050,2060,1196
1195,1711004485551515237,2060,2077,2068,2064,2067,2054,1196
1196,1711004485561522810,2048,2049,2064,2061,2052,2056,1196
1197,1711004485571523449,2050,2049,2043,2050,2063,2047,1194
1198,1711004485581524321,2053,2046,2061,2058,2041,2055,1195
1199,1711004485591540369,2069,2093,2090,2061,2066,2055,1196
1200,1711004485601526422,2061,2047,2058,2060,2060,2057,1196
1201,1711004485611527663,2058,2062,2056,2060,2069,2052,1194
1202,1711004485621525278,2060,2051,2066,2036,2040,2058,1196
1203,1711004485631522571,2054,2041,2032,2059,2068,2059,1197
1204,1711004485641532269,2057,2064,2116,2048,2048,2059,1195
1205,1711004485651525094,2060,2070,2058,2066,2079,2051,1194
1206,1711004485661524902,2050,2047,2068,2050,2049,2054,1197
1207,1711004485671520893,2045,2029,2018,2048,2073,2045,1194
1208,1711004485681522555,2052,2045,2065,2053,2033,2056,1194
1209,1711004485691565526,2058,2057,2035,2072,2065,2053,1196
1210,1711004485701536470,2057,2048,2071,2056,2045,2054,1197
1211,1711004485711527592,2053,2054,2048,2053,2062,2054,1197
1212,1711004485721527350,2069,2064,2082,2052,2041,2053,1195
1213,1711004485731521909,2063,2066,2045,2057,2066,2047,1195
1214,1711004485741548067,2050,2052,2053,2056,2044,2041,1193
1215,1711004485751539800,2052,2042,2026,2083,2052,2047,1192
1216,1711004485761522686,2055,2047,2074,2057,2038,2053,1194
1217,1711004485771520461,2054,2049,2037,2052,2059,2053,1195
1218,1711004485781520620,2056,2061,2072,2068,2042,2053,1193
1219,1711004485791543373,2058,2044,2043,2052,2064,2056,1195
1220,1711004485801517783,2048,2041,2064,2060,2056,2053,1194
1221,1711004485811523682,2066,2065,2080,2062,2064,2049,1195
1222,1711004485821522189,2044,2027,2045,2064,2044,2053,1197
1223,1711004485831521105,2065,2060,2029,2052,2059,2059,1196
1224,1711004485841525142,2065,2072,2082,2056,2046,2045,1193
1225,1711004485851517666,2052,2026,2026,2063,2060,2052,1195
1226,1711004485861518367,2064,2064,2083,2069,2066,2060,1197
1227,1711004485871520549,2066,2069,2046,2056,2061,2054,1195
1228,1711004485881522743,2049,2050,2064,2057,2048,2042,1194
1229,1711004485891534945,2060,2064,2044,2044,2056,2050,1197
1230,1711004485901516398,2058,2051,2069,2065,2051,2058,1196
1231,1711004485911519733,2066,2053,2036,2052,2057,2047,1194
1232,1711004485921523710,2044,2020,2050,2065,2049,2061,1196
1233,1711004485931521254,2073,2080,2052,2041,2078,2052,1195
1234,1711004485941536972,2063,2077,2087,2062,2042,2058,1195
1235,1711004485951525991,2060,2050,2022,2059,2064,2055,1196
1236,1711004485961522052,2060,2060,2062,2045,2036,2047,1196
1237,1711004485971522592,2049,2062,2054,2060,2064,2053,1195
1238,1711004485981520356,2064,2069,2078,2053,2061,2058,1194
1239,1711004485991520917,2060,2043,2041,2062,2062,2054,1194
1240,1711004486001516517,2040,2015,2056,2049,2047,2053,1194
1241,1711004486011521385,2079,2062,2042,2056,2059,2053,1194
1242,1711004486021522025,2051,2047,2062,2057,2044,2048,1196
1243,1711004486031528886,2060,2043,2013,2047,2051,2051,1197
1244,1711004486041541069,2056,2070,2074,2066,2059,2058,1196
1245,1711004486051521721,2058,2072,2030,2045,2059,2050,1194
1246,1711004486061522211,2056,2081,2092,2076,2065,2059,1195
1247,1711004486071523482,2056,2069,2056,2067,2074,2054,1196
1248,1711004486081524122,2048,2044,2058,2060,2049,2054,1195
1249,1711004486091543407,2047,2060,2048,2056,2056,2048,1198
1250,1711004486101522295,2059,2082,2060,2047,2046,2052,1197
1251,1711004486111525241,2050,2037,2027,2063,2057,2046,1194
1252,1711004486121524267,2056,2053,2080,2053,2044,2055,1196
1253,1711004486131524537,2052,2060,2008,2058,2060,2050,1196
1254,1711004486141555294,2052,2057,2076,2056,2044,2061,1195
1255,1711004486151525445,2061,2042,2033,2061,2056,2047,1192
1256,1711004486161525234,2069,2049,2061,2058,2047,2056,1197
1257,1711004486171528820,2052,2049,2036,2049,2055,2048,1197
1258,1711004486181530142,2052,2073,2081,2061,2050,2056,1193
1259,1711004486191533857,2052,2040,2024,2049,2058,2045,1196
1260,1711004486201525780,2059,2064,2087,2056,2046,2056,1195
1261,1711004486211529456,2048,2047,2042,2056,2065,2052,1197
1262,1711004486221529856,2050,2057,2076,2066,2044,2059,1198
1263,1711004486231529775,2062,2060,2040,2056,2070,2053,1197
1264,1711004486241554640,2050,2034,2057,2039,2045,2058,1196
1265,1711004486251528470,2057,2044,2068,2072,2059,2054,1195
1266,1711004486261510975,2052,2051,2064,2060,2048,2052,1195
1267,1711004486271530211,2055,2083,2040,2064,2054,2046,1195
1268,1711004486281530300,2056,2044,2057,2068,2051,2055,1197
1269,1711004486291516391,2057,2062,2036,2060,2059,2047,1193
1270,1711004486301532582,2051,2038,2032,2056,2045,2056,1196
1271,1711004486311512131,2051,2001,2020,2089,2062,2046,1195
1272,1711004486321510548,2057,2051,2092,2065,2052,2060,1196
1273,1711004486331514023,2054,2047,2034,2056,2062,2053,1194
1274,1711004486341515073,2059,2088,2109,2059,2046,2057,1196
1275,1711004486351513950,2051,2062,2045,2062,2054,2047,1193
1276,1711004486361516914,2062,2052,2061,2060,2041,2053,1197
1277,1711004486371514950,2057,2056,2046,2096,2064,2052,1197
1278,1711004486381513696,2057,2052,2076,2062,2051,2053,1195
1279,1711004486391514757,2055,2049,2040,2046,2068,2053,1198
1280,1711004486401516529,2057,2063,2076,2056,2043,2050,1195
1281,1711004486411545152,2056,2098,2086,2064,2072,2058,1196
1282,1711004486421542486,2053,2044,2056,2068,2063,2050,1197
1283,1711004486431522797,2051,2035,2030,2048,2057,2052,1197
1284,1711004486441551110,2058,2076,2068,2086,2052,2052,1198
1285,1711004486451519248,2055,2042,2033,2066,2068,2058,1195
1286,1711004486461516892,2062,2057,2068,2059,2042,2052,1196
1287,1711004486471520157,2059,2063,2034,2050,2052,2045,1194
1288,1711004486481518303,2060,2056,2074,2063,2044,2056,1195
1289,1711004486491594837,2045,2052,2031,2052,2052,2049,1196
1290,1711004486501513822,2052,2044,2057,2056,2044,2056,1195
1291,1711004486511523940,2056,2052,2028,2036,2062,2045,1192
1292,1711004486521523778,2060,2077,2076,2069,2044,2050,1196
1293,1711004486531517025,2054,2050,2045,2060,2062,2053,1194
1294,1711004486541546028,2057,2042,2062,2050,2038,2053,1194
1295,1711004486551511231,2052,2036,2019,2052,2064,2053,1196
1296,1711004486561524485,2053,2052,2068,2064,2041,2053,1196
1297,1711004486571517540,2056,2058,2047,2062,2054,2054,1196
1298,1711004486581521397,2049,2070,2072,2058,2044,2054,1195
1299,1711004486591553436,2046,2049,2032,2056,2068,2053,1196
1300,1711004486601522957,2069,2058,2061,2061,2048,2056,1196
1301,1711004486611526202,2050,2030,2020,2064,2056,2055,1197
1302,1711004486621517624,2056,2052,2057,2057,2043,2060,1197
1303,1711004486631517854,2057,2050,2036,2062,2073,2059,1196
1304,1711004486641592084,2052,2053,2080,2035,2041,2053,1194
1305,1711004486651522250,2060,2058,2033,2051,2052,2045,1194
1306,1711004486661520766,2040,2024,2048,2061,2044,2059,1196
1307,1711004486671521095,2056,2037,2038,2056,2064,2053,1197
1308,1711004486681521745,2061,2065,2074,2048,2036,2050,1195
1309,1711004486691524389,2055,2056,2037,2057,2065,2056,1200
1310,1711004486701525741,2038,2029,2054,2054,2045,2047,1194
1311,1711004486711523615,2059,2032,2058,2058,2077,2067,1197
1312,1711004486721522782,2044,2037,2050,2076,2045,2054,1196
1313,1711004486731523092,2050,2045,2037,2056,2057,2056,1197
1314,1711004486741522429,2057,2068,2089,2056,2045,2068,1197
1315,1711004486751516046,2056,2044,2061,2052,2054,2050,1196
1316,1711004486761520032,2052,2052,2069,2060,2053,2052,1196
1317,1711004486771531814,2053,2047,2023,2052,2060,2052,1197
1318,1711004486781524078,2059,2062,2088,2072,2050,2056,1194
1319,1711004486791580384,2062,2050,2043,2065,2064,2053,1197
1320,1711004486801523144,2056,2049,2066,2064,2062,2062,1195
1321,1711004486811521519,2053,2047,2035,2056,2062,2047,1192
1322,1711004486821515838,2059,2056,2070,2060,2047,2057,1197
1323,1711004486831518250,2058,2086,2081,2058,2060,2053,1198
1324,1711004486841523169,2050,2047,2079,2057,2053,2053,1197
1325,1711004486851578703,2058,2065,2040,2059,2062,2060,1197
1326,1711004486861517055,2056,2086,2070,2033,2041,2053,1197
1327,1711004486871520110,2056,2060,2056,2040,2060,2056,1198
1328,1711004486881520338,2056,2054,2071,2050,2051,2064,1194
1329,1711004486891579450,2053,2050,2032,2054,2058,2048,1197
1330,1711004486901517250,2046,2046,2060,2055,2029,2037,1193
1331,1711004486911527259,2053,2042,2026,2056,2056,2049,1198
1332,1711004486921521987,2051,2046,2075,2052,2041,2054,1198
1333,1711004486931521875,2058,2049,2037,2056,2059,2056,1197
1334,1711004486941518939,2054,2056,2063,2047,2042,2052,1195
1335,1711004486951518396,2061,2045,2046,2058,2065,2058,1196
1336,1711004486961523505,2056,2062,2078,2053,2056,2056,1196
1337,1711004486971521520,2060,2052,2034,2046,2072,2057,1195
1338,1711004486981522360,2053,2056,2064,2062,2041,2056,1195
1339,1711004486991525756,2059,2084,2058,2056,2060,2050,1196
1340,1711004487001569758,2053,2064,2072,2051,2047,2056,1197
1341,1711004487011472152,2052,2034,2040,2038,2050,2046,1195
1342,1711004487021515202,2056,2042,2046,2059,2048,2054,1196
1343,1711004487031524579,2058,2064,2060,2056,2064,2058,1196
1344,1711004487041563431,2060,2056,2061,2062,2050,2054,1195
1345,1711004487051518494,2061,2053,2033,2088,2061,2051,1197
1346,1711004487061527531,2054,2064,2068,2049,2045,2057,1195
1347,1711004487071541907,2052,2052,2037,2047,2057,2046,1193
1348,1711004487081561182,2050,2056,2060,2045,2044,2060,1194
1349,1711004487091516686,2062,2056,2058,2057,2056,2054,1195
1350,1711004487101568042,2051,2053,2077,2065,2060,2072,1196
1351,1711004487111564144,2063,2069,2063,2061,2060,2047,1194
1352,1711004487121522784,2051,2041,2044,2056,2045,2053,1197
1353,1711004487131562419,2047,2060,2042,1993,2053,2050,1197
1354,1711004487141560684,2057,2058,2081,2058,2049,2060,1197
1355,1711004487151526547,2054,2040,2035,2054,2064,2052,1197
1356,1711004487161560551,2054,2092,2061,2061,2047,2057,1198
1357,1711004487171560399,2052,2052,2032,2050,2046,2051,1195
1358,1711004487181557483,2052,2045,2032,2050,2046,2056,1198
1359,1711004487191577249,2056,2038,2019,2052,2058,2049,1198
1360,1711004487201556719,2053,2050,2065,2055,2050,2058,1197
1361,1711004487211557590,2060,2064,2064,2059,2068,2052,1197
1362,1711004487221558279,2060,2053,2053,2032,2040,2047,1194
1363,1711004487231556865,2059,2104,2058,2057,2058,2052,1197
1364,1711004487241555311,2045,2046,2064,2053,2042,2056,1195
1365,1711004487251551603,2053,2044,2051,2045,2059,2048,1197
1366,1711004487261553114,2056,2051,2065,2061,2050,2054,1197
1367,1711004487271552723,2051,2056,2035,2058,2072,2052,1194
1368,1711004487281553172,2050,2068,2080,2091,2044,2059,1196
1369,1711004487291552039,2059,2074,2049,2058,2060,2053,1197
1370,1711004487301546417,2058,2074,2076,2053,2044,2056,1197
1371,1711004487311556636,2053,2046,2037,2054,2057,2049,1198
1372,1711004487321558668,2052,2072,2095,2062,2053,2056,1198
1373,1711004487331554418,2058,2076,2056,2060,2061,2050,1195
1374,1711004487341551302,2053,2057,2083,2064,2045,2064,1196
1375,1711004487351547062,2056,2049,2037,2047,2066,2050,1199
1376,1711004487361552080,2061,2059,2065,2056,2042,2054,1196
1377,1711004487371552179,2052,2066,2025,2058,2064,2049,1196
1378,1711004487381551597,2051,2047,2070,2058,2052,2054,1195
1379,1711004487391551586,2048,2040,2030,2062,2075,2046,1194
1380,1711004487401549841,2057,2060,2062,2056,2043,2054,1195
1381,1711004487411548898,2057,2058,2038,2056,2052,2047,1194
1382,1711004487421549488,2052,2055,2053,2088,2040,2053,1196
1383,1711004487431550739,2053,2060,2038,2061,2057,2044,1195
1384,1711004487441546580,2058,2084,2080,2058,2046,2052,1197
1385,1711004487451543363,2061,2038,2005,2056,2065,2053,1195
1386,1711004487461540506,2046,2050,2088,2050,2038,2061,1200
1387,1711004487471540545,2060,2057,2037,2052,2062,2052,1196
1388,1711004487481540102,2052,2064,2054,2089,2046,2053,1198
1389,1711004487491539050,2044,2010,2002,2058,2039,2043,1195
1390,1711004487501539689,2053,2040,2059,2056,2052,2057,1197
1391,1711004487511549376,2062,2047,2053,2068,2060,2051,1197
1392,1711004487521544957,2060,2088,2132,2060,2052,2072,1195
1393,1711004487531544655,2056,2042,2040,2049,2050,2053,1196
1394,1711004487541544674,2065,2074,2073,2064,2047,2056,1198
1395,1711004487551908484,2045,2030,2031,2064,2060,2054,1196
1396,1711004487561608573,2051,2049,2068,2067,2039,2051,1196
1397,1711004487571558547,2052,2044,2035,2046,2058,2057,1196
1398,1711004487581551302,2060,2042,2060,2046,2046,2057,1195
1399,1711004487591550328,2059,2068,2070,2056,2060,2053,1196
1400,1711004487601540529,2052,2050,2065,2056,2048,2058,1197
1401,1711004487611537572,2058,2045,2036,2057,2064,2056,1196
1402,1711004487621534525,2045,2034,2065,2052,2046,2057,1196
1403,1711004487631535776,2058,2042,2028,2077,2068,2048,1194
1404,1711004487641534081,2050,2045,2053,2058,2053,2057,1196
1405,1711004487651551243,2055,2050,2040,2056,2052,2053,1195
1406,1711004487661530211,2058,2064,2067,2053,2043,2054,1194
1407,1711004487671528097,2060,2058,2038,2060,2064,2054,1195
1408,1711004487681528085,2052,2037,2053,2050,2037,2045,1194
1409,1711004487691528514,2069,2068,2029,2064,2058,2047,1194
1410,1711004487701534325,2051,2037,2076,2001,2042,2056,1194
1411,1711004487711539132,2046,2085,2052,2051,2062,2056,1196
1412,1711004487721533110,2058,2069,2105,2064,2045,2057,1197
1413,1711004487731529792,2052,2057,2041,2054,2057,2051,1196
1414,1711004487741531233,2059,2052,2066,2049,2038,2052,1195
1415,1711004487751536563,2060,2050,2042,2051,2056,2052,1194
1416,1711004487761539106,2053,2041,2061,2048,2044,2055,1197
1417,1711004487771533133,2056,2045,2028,1993,2058,2054,1195
1418,1711004487781536499,2062,2085,2098,2056,2045,2056,1194
1419,1711004487791530346,2058,2052,2025,2061,2072,2056,1195
1420,1711004487801541266,2050,2050,2074,2076,2047,2051,1198
1421,1711004487811529512,2054,2053,2049,2058,2062,2052,1196
1422,1711004487821532156,2058,2040,2070,2052,2038,2053,1195
1423,1711004487831532445,2060,2056,2050,2068,2061,2052,1195
1424,1711004487841533395,2045,2060,2072,2061,2041,2048,1198
1425,1711004487851544506,2046,2062,2047,2055,2064,2045,1192
1426,1711004487861529766,2054,2064,2061,2053,2044,2052,1196
1427,1711004487871531307,2042,2038,2026,2064,2061,2044,1193
1428,1711004487881526247,2049,2049,2065,2056,2037,2051,1196
1429,1711004487891524021,2052,2070,2066,2052,2058,2039,1194
1430,1711004487901530983,2052,2042,2053,2082,2052,2065,1199
1431,1711004487911532104,2062,2104,2079,2056,2060,2050,1196
1432,1711004487921527905,2042,2024,2038,2052,2037,2042,1193
1433,1711004487931531421,2050,2072,2030,2050,2059,2052,1196
1434,1711004487941553371,2044,2041,2068,2041,2028,2051,1196
1435,1711004487951535456,2061,2059,2048,2053,2066,2058,1196
1436,1711004487961531177,2056,2064,2066,2096,2043,2055,1196
1437,1711004487971527197,2050,2052,2053,2066,2062,2046,1194
1438,1711004487981528690,2048,2024,2055,2050,2046,2064,1194
1439,1711004487991526844,2056,2047,2075,2050,2058,2048,1194
1440,1711004488001531492,2056,2054,2068,2058,2057,2061,1195
1441,1711004488011536360,2060,2068,2062,2050,2060,2050,1196
1442,1711004488021515399,2041,2044,2046,2010,2042,2047,1194
1443,1711004488031530898,2057,2054,2031,2052,2059,2049,1194
1444,1711004488041532379,2053,2042,2054,2057,2049,2056,1195
1445,1711004488051532117,2053,2047,2034,2049,2060,2047,1192
1446,1711004488061526265,2058,2033,2064,2054,2043,2058,1195
1447,1711004488071530572,2060,2034,2030,2048,2054,2052,1195
1448,1711004488081530129,2053,2049,2057,2069,2049,2056,1196
1449,1711004488091531301,2047,2069,2050,2057,2060,2053,1196
1450,1711004488101532361,2058,2056,2062,1994,2040,2064,1197
1451,1711004488111526458,2056,2062,2020,2070,2061,2046,1193
1452,1711004488121533150,2056,2048,2062,2058,2050,2057,1197
1453,1711004488131528891,2056,2072,2030,2060,2065,2060,1195
1454,1711004488141530983,2052,2043,2047,2054,2054,2052,1196
1455,1711004488151533026,2060,2056,2031,2064,2068,2061,1195
1456,1711004488161530510,2045,2059,2072,2049,2047,2052,1196
1457,1711004488171532413,2056,2060,2038,2056,2066,2058,1198
1458,1711004488181531970,2053,2046,2096,2064,2052,2053,1195
1459,1711004488191530786,2064,2075,2057,2065,2071,2060,1197
1460,1711004488201533331,2049,2035,2060,2067,2058,2050,1194
1461,1711004488211533088,2065,2050,2058,2066,2068,2053,1198
1462,1711004488221531213,2054,2044,2075,2059,2057,2057,1196
1463,1711004488231531313,2056,2064,2048,2056,2056,2048,1196
1464,1711004488241538395,2058,2040,2047,2048,2042,2057,1195
1465,1711004488251533033,2052,2072,2047,2052,2056,2052,1198
1466,1711004488261533874,2052,2073,2068,2057,2060,2059,1196
1467,1711004488271529394,2051,2050,2034,2056,2062,2053,1197
1468,1711004488281529332,2053,2091,2081,1997,2037,2053,1194
1469,1711004488291532337,2044,2041,2032,2054,2065,2057,1198
1470,1711004488301537796,2056,2050,2072,2056,2043,2045,1192
1471,1711004488311531283,2056,2061,2050,2061,2063,2047,1193
1472,1711004488321530810,2043,2045,2065,2056,2049,2054,1196
1473,1711004488331528745,2063,2055,2045,2048,2056,2054,1195
1474,1711004488341532121,2053,2093,2092,2064,2046,2056,1196
1475,1711004488351532570,2047,2034,2017,2037,2052,2053,1197
1476,1711004488361532338,2065,2053,2081,2058,2044,2057,1197
1477,1711004488371530013,2053,2047,2038,2052,2060,2052,1195
1478,1711004488381532235,2050,2052,2089,2050,2038,2055,1194
1479,1711004488391573151,2051,2052,2049,2054,2056,2047,1193
1480,1711004488401562500,2059,2053,2068,2060,2048,2062,1198
1481,1711004488411526330,2058,2059,2045,2057,2055,2052,1194
1482,1711004488421531008,2054,2061,2090,2056,2049,2056,1195
1483,1711004488431526638,2057,2054,2028,2042,2046,2049,1196
1484,1711004488441538449,2050,2036,2049,2072,2044,2049,1196
1485,1711004488451563156,2060,2076,2046,2059,2063,2056,1196
1486,1711004488461532095,2047,2048,2057,2064,2042,2052,1196
1487,1711004488471528096,2060,2062,2034,2054,2068,2060,1197
1488,1711004488481527624,2045,2050,2070,2052,2040,2053,1196
1489,1711004488491557710,2057,2057,2037,2061,2057,2046,1194
1490,1711004488501530717,2058,2069,2068,2057,2052,2059,1197
1491,1711004488511557437,2060,2072,2044,2072,2058,2054,1196
1492,1711004488521486160,2050,2047,2061,2060,2041,2057,1196
1493,1711004488531529871,2049,2049,2029,2073,2072,2050,1197
1494,1711004488541554818,2052,2054,2091,2061,2041,2052,1196
1495,1711004488551548264,2056,2056,2026,2042,2056,2046,1193
1496,1711004488561555637,2062,2053,2077,2060,2051,2064,1196
1497,1711004488571558040,2056,2047,2034,2058,2059,2056,1195
1498,1711004488581552879,2048,2088,2069,2066,2048,2052,1193
1499,1711004488591549181,2050,2061,2027,2060,2056,2053,1196
1500,1711004488601552265,2047,2040,2062,2037,2040,2048,1197
1501,1711004488611551272,2065,2068,2056,2055,2059,2056,1197
1502,1711004488621551522,2060,2058,2075,2047,2044,2056,1198
1503,1711004488631551821,2050,2047,2036,2058,2061,2050,1196
1504,1711004488641549946,2046,2062,2073,2059,2043,2056,1195
1505,1711004488651553462,2056,2038,2028,2054,2062,2052,1195
1506,1711004488661543852,2042,2056,2084,2050,2036,2049,1196
1507,1711004488671553388,2062,2058,2053,2081,2062,2054,1197
1508,1711004488681512229,2057,2040,2053,2071,2054,2062,1195
1509,1711004488691564367,2054,2056,2049,2062,2064,2052,1197
1510,1711004488701531253,2047,2034,2059,2056,2048,2056,1197
1511,1711004488711557562,2056,2060,2054,2045,2052,2047,1192
1512,1711004488721549394,2062,2056,2066,2056,2045,2059,1197
1513,1711004488731547841,2065,2064,2041,2038,2056,2046,1193
1514,1711004488741560062,2060,2077,2084,2060,2044,2054,1195
1515,1711004488751547297,2053,2042,2014,2048,2065,2056,1196
1516,1711004488761538579,2051,2066,2079,2057,2044,2050,1196
1517,1711004488771543527,2058,2052,2041,2060,2064,2050,1196
1518,1711004488781543446,2054,2042,2058,2059,2048,2057,1193
1519,1711004488791541481,2054,2054,2037,2056,2059,2052,1194
1520,1711004488801565405,2068,2056,2058,2063,2048,2056,1195
1521,1711004488811551246,2053,2057,2044,2058,2057,2047,1192
1522,1711004488821542469,2051,2089,2078,2055,2056,2056,1194
1523,1711004488831541616,2050,2049,2043,2058,2050,2048,1194
1524,1711004488841548838,2054,2057,2066,2077,2059,2057,1196
1525,1711004488851541714,2057,2077,2052,2056,2059,2050,1196
1526,1711004488861546992,2052,2048,2036,2052,2045,2056,1196
1527,1711004488871538145,2053,2060,2042,2056,2061,2057,1195
1528,1711004488881538844,2061,2060,2081,2066,2054,2058,1196
1529,1711004488891541728,2055,2056,2026,2060,2050,2037,1194
1530,1711004488901537770,2057,2049,2058,2101,2044,2056,1196
1531,1711004488911535955,2058,2071,2046,2057,2059,2056,1196
1532,1711004488921541354,2052,2054,2079,2056,2041,2057,1196
1533,1711004488931537916,2052,2043,2036,2061,2061,2049,1195
1534,1711004488941542063,2066,2074,2105,2061,2053,2062,1196
1535,1711004488951546299,2048,2043,2031,2067,2076,2056,1197
1536,1711004488961526932,2048,2048,2097,2066,2055,2049,1195
1537,1711004488971530998,2063,2054,2028,2058,2077,2052,1196
1538,1711004488981533191,2054,2067,2051,1980,2027,2049,1195
1539,1711004488991533320,2055,2046,2032,2052,2059,2051,1196
1540,1711004489001536344,2056,2065,2080,2056,2051,2056,1194
1541,1711004489011534871,2057,2051,2057,2060,2064,2052,1194
1542,1711004489021575717,2052,2052,2090,2052,2039,2048,1196
1543,1711004489031530910,2056,2055,2052,2059,2069,2055,1195
1544,1711004489041534826,2057,2024,2041,2051,2044,2051,1197
1545,1711004489051549002,2061,2072,2042,2091,2078,2050,1196
1546,1711004489061523482,2047,2052,2070,2042,2040,2046,1194
1547,1711004489071541295,2057,2050,2049,2056,2066,2051,1196
1548,1711004489081530823,2054,2055,2065,2058,2055,2056,1197
1549,1711004489091529770,2053,2058,2033,2056,2063,2054,1197
1550,1711004489101530149,2049,2047,2070,2056,2047,2056,1196
1551,1711004489111538765,2060,2042,2050,2067,2064,2046,1193
1552,1711004489121547590,2056,2069,2096,2066,2035,2053,1195
1553,1711004489131530146,2045,2047,2031,2080,2060,2052,1196
1554,1711004489141575130,2049,2041,2072,2059,2042,2045,1193
1555,1711004489151575058,2064,2098,2069,2061,2070,2055,1195
1556,1711004489161523779,2056,2066,2066,2058,2047,2056,1196
1557,1711004489171529900,2053,2046,2021,2056,2069,2062,1197
1558,1711004489181530179,2057,2053,2061,2053,2041,2053,1194
1559,1711004489191530628,2060,2052,2050,2058,2061,2050,1194
1560,1711004489201576264,2046,2049,2081,2089,2050,2056,1196
1561,1711004489211531878,2052,2069,2036,2053,2058,2052,1196
1562,1711004489221532268,2040,2031,2057,2056,2050,2054,1194
1563,1711004489231531836,2060,2042,2026,2053,2056,2049,1195
1564,1711004489241536483,2052,2041,2055,2052,2042,2053,1197
1565,1711004489251571648,2053,2035,2005,2045,2059,2049,1195
1566,1711004489261557992,2052,2056,2072,2050,2041,2061,1193
1567,1711004489271570083,2062,2076,2101,2076,2060,2050,1195
1568,1711004489281533512,2049,2071,2085,2056,2039,2053,1195
1569,1711004489291534002,2057,2063,2082,2052,2064,2058,1196
1570,1711004489301534512,2050,2059,2091,2053,2033,2058,1197
1571,1711004489311539730,2053,2056,2041,2054,2059,2049,1197
1572,1711004489321563585,2050,2046,2067,2066,2048,2056,1198
1573,1711004489331520030,2046,2044,2028,2048,2047,2047,1193
1574,1711004489341520610,2050,2044,2056,2071,2033,2053,1198
1575,1711004489351590291,2060,2096,2072,2060,2069,2052,1196
1576,1711004489361555674,2054,2065,2084,2057,2051,2057,1196
1577,1711004489371512641,2056,2053,2057,2057,2056,2058,1197
1578,1711004489381522489,2049,2049,2070,2060,2051,2057,1194
1579,1711004489391521846,2058,2092,2048,2064,2058,2047,1196
1580,1711004489401563042,2057,2061,2106,2064,2057,2056,1195
1581,1711004489411581938,2060,2050,2032,2064,2072,2049,1193
1582,1711004489421522623,2054,2033,2053,2060,2040,2054,1194
1583,1711004489431522271,2072,2043,2022,1984,2062,2049,1197
1584,1711004489441528983,2056,2068,2065,2061,2046,2056,1196
1585,1711004489451577844,2064,2076,2068,2064,2067,2056,1197
1586,1711004489461542436,2052,2050,2074,2065,2051,2058,1196
1587,1711004489471548546,2057,2059,2057,2053,2052,2051,1196
1588,1711004489481550078,2054,2088,2068,2068,2042,2055,1197
1589,1711004489491534366,2051,2041,2044,2058,2056,2050,1197
1590,1711004489501550676,2051,2056,2060,2091,2049,2058,1196
1591,1711004489511551136,2056,2053,2053,2048,2045,2052,1196
1592,1711004489521523913,2056,2053,2061,2057,2040,2052,1194
1593,1711004489531525154,2058,2081,2056,2056,2061,2060,1196
1594,1711004489541523530,2052,2052,2061,2058,2046,2051,1198
1595,1711004489551527175,2052,2080,2026,2064,2068,2052,1195
1596,1711004489561533656,2052,2050,2063,2036,2042,2052,1197
1597,1711004489571531731,2059,2090,2068,2066,2072,2050,1198
1598,1711004489581535607,2058,2052,2047,2092,2050,2052,1194
1599,1711004489591522530,2057,2060,2037,2066,2058,2050,1197
1600,1711004489601520807,2060,2050,2066,2057,2041,2058,1197
1601,1711004489611525233,2063,2067,2065,2054,2066,2052,1195
1602,1711004489621522557,2052,2031,2060,2064,2047,2053,1196
1603,1711004489631520662,2058,2043,2030,2059,2057,2052,1196
1604,1711004489641532333,2064,2056,2068,2061,2043,2054,1195
1605,1711004489651543182,2059,2086,2054,2052,2058,2052,1197
1606,1711004489661523233,2052,2056,2065,1984,2038,2052,1195
1607,1711004489671550814,2057,2056,2050,2054,2062,2052,1196
1608,1711004489681519954,2046,2059,2091,2056,2042,2052,1197
1609,1711004489691542686,2070,2060,2040,2054,2050,2052,1197
1610,1711004489701552373,2054,2056,2070,2064,2043,2056,1196
1611,1711004489711554636,2060,2051,2035,2061,2068,2056,1196
1612,1711004489721553673,2056,2069,2084,2046,2042,2056,1196
1613,1711004489731536870,2057,2060,2047,2061,2067,2049,1197
1614,1711004489741537320,2056,2056,2064,2065,2044,2056,1196
1615,1711004489751529103,2053,2057,2052,2064,2060,2056,1198
1616,1711004489761525805,2056,2088,2075,2057,2044,2057,1197
1617,1711004489771520012,2050,2053,2027,2058,2060,2045,1193
1618,1711004489781530151,2057,2045,2073,2058,2039,2052,1192
1619,1711004489791518758,2052,2057,2046,2056,2066,2050,1196
1620,1711004489801552230,2048,2046,2077,2052,2037,2061,1196
1621,1711004489811529035,2056,2046,2033,2034,2058,2049,1195
1622,1711004489821515738,2048,2048,2078,2062,2040,2050,1194
1623,1711004489831530474,2058,2061,2050,2068,2062,2052,1198
1624,1711004489841515555,2052,2050,2067,2055,2039,2056,1196
1625,1711004489851534490,2054,2061,2060,2054,2062,2052,1196
1626,1711004489861531522,2056,2070,2083,2040,2034,2056,1196
1627,1711004489871532544,2061,2060,2060,2056,2056,2048,1196
1628,1711004489881513566,2053,2047,2060,2051,2049,2066,1196
1629,1711004489891522562,2058,2068,2044,2054,2063,2052,1195
1630,1711004489901532710,2066,2092,2084,2060,2045,2049,1196
1631,1711004489911518942,2056,2045,2031,2073,2060,2057,1197
1632,1711004489921524652,2050,2042,2051,2058,2046,2053,1195
1633,1711004489931517898,2048,2077,2043,2058,2061,2058,1197
1634,1711004489941524078,2046,2046,2062,2056,2053,2056,1197
1635,1711004489951526451,2059,2046,2030,2029,2065,2052,1197
1636,1711004489961523144,2054,2060,2049,2053,2044,2053,1197
1637,1711004489971521339,2057,2069,2064,2046,2058,2052,1196
1638,1711004489981521358,2054,2054,2091,2060,2033,2046,1192
1639,1711004489991517168,2056,2035,2017,2052,2072,2049,1195
1640,1711004490001530693,2060,2052,2076,2056,2045,2053,1197
1641,1711004490011522816,2060,2088,2055,2052,2058,2045,1195
1642,1711004490021522164,2056,2058,2070,2057,2041,2052,1195
1643,1711004490031520390,2059,2046,2024,2055,2056,2054,1197
1644,1711004490041536509,2064,2103,2076,2056,2054,2058,1200
1645,1711004490051522590,2054,2050,2042,2061,2079,2048,1195
1646,1711004490061510616,2056,2066,2054,2042,2044,2058,1197
1647,1711004490071526195,2056,2056,2037,2050,2060,2052,1197
1648,1711004490081523037,2052,2084,2076,2058,2045,2060,1194
1649,1711004490091518347,2048,2042,2012,2052,2061,2048,1196
1650,1711004490101519799,2048,2076,2070,2064,2049,2056,1195
1651,1711004490111518685,2050,2025,2019,2041,2056,2047,1192
1652,1711004490121515978,2070,2066,2058,2066,2059,2067,1196
1653,1711004490131516078,2056,2064,2050,2065,2050,2041,1194
1654,1711004490141525795,2052,2044,2072,2062,2041,2052,1196
1655,1711004490151522497,2049,2058,2036,2058,2056,2052,1194
1656,1711004490161515252,2056,2053,2073,2050,2044,2056,1196
1657,1711004490171524599,2065,2061,2054,2067,2061,2052,1195
1658,1711004490181523555,2056,2038,2065,2046,2047,2060,1192
1659,1711004490191538392,2056,2042,2036,2058,2071,2048,1195
1660,1711004490201522721,2056,2041,2065,2056,2050,2057,1195
1661,1711004490211521177,2052,2047,2058,2088,2067,2061,1196
1662,1711004490221521205,2053,2031,2064,2059,2045,2056,1195
1663,1711004490231521114,2068,2073,2050,2056,2064,2052,1197
1664,1711004490241547142,2048,2045,2062,2054,2040,2053,1196
1665,1711004490251519328,2058,2081,2043,2052,2058,2052,1197
1666,1711004490261521340,2054,2034,2049,2056,2045,2054,1198
1667,1711004490271519556,2064,2050,2034,2028,2048,2043,1193
1668,1711004490281523682,2061,2062,2100,2068,2046,2056,1196
1669,1711004490291535773,2061,2024,2017,2055,2058,2057,1196
1670,1711004490301516746,2048,2040,2062,2041,2034,2048,1196
1671,1711004490311526183,2056,2052,2044,2059,2064,2049,1195
1672,1711004490321525820,2056,2055,2067,2056,2043,2052,1194
1673,1711004490331526130,2054,2045,2052,2058,2053,2053,1196
1674,1711004490341523173,2074,2068,2066,2062,2056,2060,1197
1675,1711004490351521078,2056,2043,2024,2061,2067,2050,1197
1676,1711004490361523872,2053,2044,2043,1993,2041,2057,1196
1677,1711004490371524051,2066,2077,2039,2058,2061,2056,1196
1678,1711004490381523789,2046,2048,2063,2046,2034,2050,1195
1679,1711004490391551710,2055,2072,2049,2056,2060,2056,1197
1680,1711004490401525219,2052,2050,2078,2062,2052,2054,1198
1681,1711004490411521671,2068,2051,2034,2056,2082,2049,1197
1682,1711004490421528843,2059,2048,2061,2076,2053,2056,1196
1683,1711004490431528851,2061,2067,2056,2060,2066,2056,1196
1684,1711004490441546284,2059,2073,2099,2056,2049,2060,1196
1685,1711004490451525042,2058,2056,2029,2059,2068,2052,1199
1686,1711004490461532204,2048,2051,2074,2056,2041,2052,1197
1687,1711004490471531912,2057,2058,2046,2056,2057,2053,1198
1688,1711004490481529206,2052,2050,2060,2056,2046,2057,1197
1689,1711004490491566615,2064,2078,2070,2068,2073,2056,1197
1690,1711004490501535655,2056,2050,2070,2049,2044,2058,1194
1691,1711004490511538149,2054,2089,2053,2056,2061,2050,1197
1692,1711004490521533088,2057,2080,2084,2057,2042,2044,1192
1693,1711004490531533406,2056,2051,2014,2056,2066,2054,1197
1694,1711004490541563583,2048,2045,2066,2056,2045,2056,1197
1695,1711004490551530719,2055,2065,2047,2047,2057,2053,1196
1696,1711004490561518404,2056,2041,2064,2072,2042,2053,1197
1697,1711004490571518894,2065,2051,2033,2054,2057,2060,1197
1698,1711004490581519584,2056,2088,2069,2068,2053,2052,1194
1699,1711004490591555230,2056,2044,2032,2057,2060,2053,1196
1700,1711004490601529340,2064,2094,2152,2066,2047,2067,1196
1701,1711004490611519740,2057,2048,2029,2078,2052,2046,1193
1702,1711004490621520550,2051,2045,2064,2046,2044,2057,1196
1703,1711004490631518505,2051,2047,2035,2045,2058,2051,1196
1704,1711004490641516249,2049,2065,2100,2060,2048,2060,1194
1705,1711004490651522650,2063,2119,2077,2057,2064,2056,1196
1706,1711004490661521346,2048,2085,2083,2060,2049,2056,1197
1707,1711004490671526675,2062,2064,2034,2061,2063,2049,1195
1708,1711004490681524610,2051,2048,2072,2052,2052,2060,1196
1709,1711004490691585244,2064,2061,2035,2060,2055,2049,1198
1710,1711004490701521541,2049,2047,2064,2058,2045,2048,1197
1711,1711004490711526089,2050,2033,2029,2050,2062,2050,1197
1712,1711004490721517692,2067,2033,2059,2053,2044,2056,1196
1713,1711004490731520505,2051,2051,2025,2059,2057,2045,1192
1714,1711004490741519242,2052,2054,2066,2060,2048,2056,1196
1715,1711004490751520653,2058,2050,2040,2049,2065,2051,1198
1716,1711004490761527074,2052,2034,2045,2050,2046,2045,1193
1717,1711004490771519528,2053,2050,2024,2058,2063,2056,1195
1718,1711004490781517253,2049,2035,2043,2056,2048,2052,1194
1719,1711004490791515678,2062,2056,2041,2044,2068,2049,1195
1720,1711004490801540073,2050,2061,2102,2056,2040,2056,1196
1721,1711004490811516928,2061,2058,2047,2060,2070,2060,1197
1722,1711004490821521806,2054,2056,2086,2056,2048,2060,1197
1723,1711004490831521824,2060,2065,2018,1994,2053,2054,1196
1724,1711004490841534327,2055,2098,2066,2058,2037,2051,1196
1725,1711004490851523545,2056,2047,2041,2058,2072,2055,1195
1726,1711004490861525267,2056,2046,2068,2054,2045,2060,1196
1727,1711004490871526237,2047,2037,2037,2032,2074,2048,1197
1728,1711004490881521287,2061,2056,2097,2058,2046,2057,1196
1729,1711004490891540753,2053,2056,2044,2048,2056,2050,1198
1730,1711004490901511866,2053,2051,2065,2072,2064,2056,1197
1731,1711004490911528937,2064,2051,2023,2066,2060,2052,1197
1732,1711004490921521963,2053,2028,2048,2055,2050,2056,1195
1733,1711004490931519396,2058,2050,2036,2048,2050,2047,1193
1734,1711004490941552258,2040,2044,2073,2056,2043,2048,1197
1735,1711004490951566744,2060,2067,2012,2056,2078,2052,1197
1736,1711004490961526266,2051,2032,2058,2054,2047,2056,1197
1737,1711004490971520353,2050,2056,2053,2040,2053,2050,1197
1738,1711004490981520121,2057,2073,2074,2056,2046,2063,1196
1739,1711004490991520631,2053,2041,2052,2056,2052,2047,1194
1740,1711004491001513656,2045,2058,2078,2056,2044,2052,1196
1741,1711004491011520598,2055,2054,2036,2047,2060,2053,1194
1742,1711004491021522541,2056,2069,2084,2096,2051,2063,1195
1743,1711004491031521798,2059,2054,2047,2064,2068,2056,1196
1744,1711004491041544078,2051,2066,2042,2066,2047,2054,1194
1745,1711004491051520752,2057,2044,2037,2052,2062,2055,1195
1746,1711004491061518137,2056,2084,2079,2057,2043,2050,1198
1747,1711004491071518626,2058,2072,2049,2054,2059,2057,1198
1748,1711004491081518424,2050,2040,2058,2054,2052,2049,1198
1749,1711004491091530255,2060,2054,2041,2090,2068,2052,1197
1750,1711004491101522479,2057,2047,2066,2056,2040,2055,1196
1751,1711004491111533459,2063,2088,2043,2060,2065,2051,1196
1752,1711004491121525812,2045,2043,2058,2059,2040,2052,1196
1753,1711004491131525090,2052,2044,2028,2052,2054,2048,1196
1754,1711004491141547291,2052,2043,2040,2057,2046,2057,1195
1755,1711004491151526229,2058,2068,2051,2049,2064,2058,1196
1756,1711004491161524605,2052,2042,2059,2064,2064,2056,1196
1757,1711004491171520486,2060,2059,2030,2065,2056,2049,1194
1758,1711004491181525214,2050,2052,2082,2024,2053,2056,1194
1759,1711004491191550791,2065,2056,2038,2058,2064,2055,1196
1760,1711004491201524990,2053,2062,2068,2056,2046,2056,1196
1761,1711004491211523246,2061,2060,2051,2062,2064,2059,1197
1762,1711004491221523795,2052,2053,2084,2054,2056,2059,1197
1763,1711004491231522181,2056,2076,2050,2052,2074,2047,1194
1764,1711004491241520015,2058,2042,2056,2060,2049,2062,1192
1765,1711004491251525475,2054,2035,2034,2054,2066,2060,1194
1766,1711004491261524782,2054,2043,2082,2065,2053,2057,1196
1767,1711004491271523858,2068,2044,2044,2056,2063,2055,1195
1768,1711004491281523266,2052,2049,2067,2054,2045,2054,1196
1769,1711004491291526341,2058,2055,2030,2053,2070,2056,1197
1770,1711004491301521099,2058,2080,2094,2070,2049,2053,1196
1771,1711004491311526728,2064,2052,2024,2053,2069,2048,1196
1772,1711004491321525234,2058,2054,2073,2060,2053,2060,1195
1773,1711004491331520444,2064,2046,2035,2058,2068,2047,1192
1774,1711004491341522937,2058,2035,2064,2064,2053,2052,1197
1775,1711004491351518777,2050,2054,2034,2056,2055,2047,1194
1776,1711004491361523756,2050,2053,2071,2053,2046,2054,1196
1777,1711004491371518945,2056,2056,2034,2052,2060,2047,1194
1778,1711004491381522150,2062,2084,2113,2068,2047,2057,1195
1779,1711004491391546785,2050,2051,2034,2056,2064,2051,1195
1780,1711004491401521426,2051,2040,2057,2056,2057,2076,1196
1781,1711004491411517217,2050,2068,2070,2060,2065,2057,1198
1782,1711004491421520341,2051,2043,2067,2056,2062,2052,1196
1783,1711004491431520830,2056,2052,2032,2040,2054,2048,1196
1784,1711004491441546648,2058,2045,2064,2069,2037,2047,1193
1785,1711004491451512973,2053,2049,2025,2059,2058,2048,1198
1786,1711004491461512891,2056,2093,2053,2040,2047,2053,1197
1787,1711004491471513551,2056,2056,2035,2058,2063,2054,1197
1788,1711004491481518038,2056,2056,2084,2064,2049,2055,1197
1789,1711004491491514220,2049,2037,2020,2065,2062,2051,1196
1790,1711004491501511373,2061,2052,2061,2056,2051,2058,1198
1791,1711004491511508115,2061,2056,2044,2059,2064,2057,1196
1792,1711004491521517051,2056,2049,2062,2092,2041,2054,1197
1793,1711004491531513162,2055,2053,2031,2071,2065,2054,1196
1794,1711004491541514052,2046,2049,2073,2062,2058,2054,1195
1795,1711004491551521996,2069,2053,2052,2060,2061,2053,1196
1796,1711004491561531453,2058,2108,2076,2064,2056,2057,1195
1797,1711004491571522565,2050,2045,2029,2064,2066,2056,1197
1798,1711004491581523304,2054,2056,2072,2050,2053,2053,1198
1799,1711004491591535717,2058,2054,2044,2056,2067,2057,1195
1800,1711004491601523062,2049,2050,2069,2042,2041,2057,1198
1801,1711004491611524873,2057,2061,2044,2058,2062,2051,1196
1802,1711004491621523399,2053,2040,2052,2046,2042,2054,1196
1803,1711004491631522677,2045,2049,2046,2061,2068,2052,1195
1804,1711004491641514650,2060,2069,2080,2054,2056,2058,1195
1805,1711004491651506934,2051,2056,2041,2056,2056,2049,1196
1806,1711004491661523213,2055,2066,2072,2056,2045,2057,1197
1807,1711004491671527551,2064,2065,2038,2076,2067,2050,1198
1808,1711004491681525435,2052,2079,2072,2073,2052,2056,1197
1809,1711004491691542987,2056,2041,2026,2054,2062,2052,1196
1810,1711004491701532085,2064,2088,2086,2062,2060,2062,1196
1811,1711004491711521253,2048,2054,2031,2057,2064,2051,1196
1812,1711004491721528646,2057,2056,2073,2065,2059,2063,1196
1813,1711004491731524837,2064,2064,2062,2056,2063,2056,1196
1814,1711004491741549582,2056,2090,2095,2078,2042,2057,1196
1815,1711004491751531767,2050,2029,2040,2059,2067,2052,1196
1816,1711004491761521857,2062,2061,2064,2043,2045,2058,1197
1817,1711004491771526254,2056,2060,2043,2069,2066,2054,1195
1818,1711004491781523738,2050,2046,2060,2054,2048,2063,1194
1819,1711004491791521132,2057,2051,2052,2053,2063,2050,1198
1820,1711004491801544725,2055,2064,2080,2054,2066,2053,1196
1821,1711004491811519606,2060,2086,2050,1993,2052,2052,1197
1822,1711004491821516759,2043,2042,2056,2051,2039,2043,1196
1823,1711004491831521126,2064,2065,2070,2050,2072,2060,1195
1824,1711004491841552554,2052,2047,2068,2038,2043,2052,1196
1825,1711004491851532675,2058,2065,2055,2049,2060,2056,1196
1826,1711004491861532894,2060,2070,2097,2049,2041,2058,1196
1827,1711004491871521942,2050,2101,2042,2017,2058,2053,1196
1828,1711004491881522321,2052,2040,2059,2058,2052,2058,1196
1829,1711004491891520196,2053,2043,2016,2056,2066,2050,1197
1830,1711004491901525454,2052,2034,2061,2043,2044,2053,1195
1831,1711004491911530202,2066,2061,2035,2069,2064,2057,1197
1832,1711004491921526103,2054,2054,2060,2060,2050,2055,1196
1833,1711004491931524107,2055,2067,2051,2063,2094,2064,1195
1834,1711004491941586425,2058,2061,2097,2052,2051,2056,1195
1835,1711004491951516781,2049,2016,2021,2048,2069,2050,1195
1836,1711004491961528091,2058,2046,2068,2056,2052,2057,1195
1837,1711004491971522278,2066,2075,2035,2056,2061,2051,1196
1838,1711004491981542246,2048,2074,2065,2056,2045,2053,1193
1839,1711004491991522757,2056,2054,2047,2066,2070,2047,1193
1840,1711004492001531833,2053,2040,2051,2054,2047,2058,1195
1841,1711004492011527022,2059,2064,2068,2061,2066,2055,1197
1842,1711004492021524195,2057,2064,2088,2048,2046,2057,1197
1843,1711004492031524144,2050,2052,2052,2034,2045,2043,1194
1844,1711004492041528190,2050,2047,2056,2065,2049,2048,1195
1845,1711004492051533849,2059,2052,2038,2062,2066,2053,1197
1846,1711004492061525402,2049,2094,2082,2060,2043,2052,1196
1847,1711004492071526333,2057,2058,2047,2057,2056,2056,1196
1848,1711004492081526572,2047,2050,2072,2049,2040,2059,1197
1849,1711004492091544674,2054,2076,2047,2057,2067,2059,1196
1850,1711004492101524996,2051,2045,2066,2075,2047,2065,1196
1851,1711004492111528010,2050,2036,2021,2074,2070,2056,1196
1852,1711004492121528710,2052,2048,2060,2037,2039,2056,1197
1853,1711004492131528939,2058,2073,2037,2053,2057,2047,1194
1854,1711004492141536322,2047,2060,2079,2047,2045,2056,1198
1855,1711004492151508999,2060,2072,2037,2046,2065,2052,1197
1856,1711004492161527101,2054,2028,2060,2056,2047,2061,1195
1857,1711004492171526859,2056,2055,2034,2092,2061,2047,1194
1858,1711004492181511629,2053,2052,2060,2050,2040,2054,1196
1859,1711004492191528680,2056,2069,2054,2052,2056,2053,1197
1860,1711004492201530823,2051,2040,2057,2035,2068,2054,1194
1861,1711004492211532014,2062,2054,2036,2049,2067,2058,1196
1862,1711004492221532453,2058,2061,2063,2062,2041,2056,1194
1863,1711004492231532812,2059,2077,2056,2058,2061,2052,1198
1864,1711004492241538191,2047,2056,2079,2081,2040,2047,1194
1865,1711004492251530675,2060,2061,2040,2047,2062,2053,1196
1866,1711004492261516146,2052,2042,2059,2052,2041,2056,1195
1867,1711004492271513700,2056,2028,2011,2062,2064,2052,1196
1868,1711004492281516594,2061,2046,2064,2064,2052,2056,1195
1869,1711004492291536581,2075,2061,2035,2060,2052,2046,1193
1870,1711004492301530207,2052,2043,2059,2053,2034,2049,1195
1871,1711004492311535786,2057,2075,2045,2057,2063,2052,1197
1872,1711004492321518602,2051,2052,2060,2065,2041,2052,1199
1873,1711004492331517619,2058,2052,2038,2052,2062,2046,1194
1874,1711004492341510574,2052,2046,2061,2059,2050,2053,1196
1875,1711004492351517255,2071,2041,2021,2061,2066,2058,1197
1876,1711004492361522204,2052,2049,2081,2064,2045,2050,1197
1877,1711004492371523986,2058,2059,2056,2060,2056,2048,1195
1878,1711004492381524064,2052,2086,2070,2062,2040,2056,1195
1879,1711004492391559360,2060,2063,2047,2047,2054,2049,1196
1880,1711004492401517819,2053,2047,2049,2086,2057,2058,1196
1881,1711004492411510475,2058,2060,2042,2062,2061,2043,1194
1882,1711004492421508319,2052,2046,2065,2059,2046,2056,1196
1883,1711004492431511303,2043,2033,2036,2064,2059,2056,1197
1884,1711004492441512173,2058,2049,2076,2055,2041,2058,1195
1885,1711004492451510348,2052,2038,2034,2060,2074,2049,1194
1886,1711004492461523552,2059,2045,2069,2056,2052,2061,1197
1887,1711004492471522689,2056,2056,2030,2082,2059,2047,1192
1888,1711004492481523078,2052,2048,2057,2059,2049,2053,1197
1889,1711004492491552713,2051,2053,2021,2067,2080,2056,1197
1890,1711004492501520751,2052,2055,2069,2044,2044,2054,1197
1891,1711004492511519217,2060,2052,2054,2065,2068,2054,1196
1892,1711004492521517913,2063,2069,2070,2050,2037,2046,1192
1893,1711004492531516969,2058,2051,2040,2054,2056,2050,1193
1894,1711004492541518481,2040,2054,2084,2095,2044,2052,1196
1895,1711004492551515143,2069,2049,2036,2062,2072,2059,1195
1896,1711004492561525191,2046,2037,2074,2047,2036,2051,1194
1897,1711004492571522053,2056,2060,2038,2054,2065,2052,1194
1898,1711004492581523134,2058,2052,2072,2042,2036,2053,1194
1899,1711004492591557689,2059,2056,2037,2054,2064,2048,1197
1900,1711004492601521759,2056,2053,2122,2049,2050,2052,1197
1901,1711004492611530043,2057,2049,2031,2057,2064,2050,1194
1902,1711004492621526264,2053,2064,2076,2034,2043,2053,1196
1903,1711004492631524751,2051,2047,2030,2060,2064,2053,1196
1904,1711004492641539217,2050,2052,2061,2052,2040,2049,1195
1905,1711004492651536560,2054,2055,2041,2056,2057,2050,1198
1906,1711004492661525447,2047,2048,2068,2046,2043,2052,1199
1907,1711004492671521658,2064,2073,2045,2052,2057,2052,1196
1908,1711004492681520325,2048,2042,2066,2053,2044,2052,1194
1909,1711004492691539430,2049,2025,2035,2053,2064,2051,1198
1910,1711004492701524700,2053,2066,2050,2064,2048,2053,1196
1911,1711004492711519689,2065,2072,2042,2063,2064,2044,1192
1912,1711004492721526511,2056,2050,2067,2040,2043,2056,1196
1913,1711004492731518424,2064,2040,2041,2047,2063,2056,1196
1914,1711004492741515948,2057,2056,2074,2046,2042,2056,1195
1915,1711004492751532858,2064,2050,2026,2058,2065,2053,1194
1916,1711004492761518850,2053,2054,2064,2056,2052,2057,1196
1917,1711004492771520703,2059,2092,2048,2053,2064,2053,1197
1918,1711004492781525480,2050,2049,2059,2069,2047,2057,1196
1919,1711004492791522223,2061,2052,2036,2059,2068,2064,1193
1920,1711004492801517943,2051,2050,2061,2052,2044,2047,1194
1921,1711004492811523252,2054,2089,2068,2053,2058,2053,1197
1922,1711004492821522930,2056,2054,2072,2058,2050,2058,1197
1923,1711004492831520864,2059,2060,2058,2069,2080,2056,1196
1924,1711004492841517467,2056,2055,2067,2061,2045,2058,1197
1925,1711004492851519139,2072,2045,2042,2056,2066,2058,1196
1926,1711004492861524387,2044,2048,2085,2060,2043,2055,1195
1927,1711004492871534755,2062,2045,2046,2060,2060,2052,1196
1928,1711004492881522039,2049,2061,2066,2056,2047,2060,1196
1929,1711004492891521306,2059,2060,2030,2069,2060,2050,1198
1930,1711004492901518310,2049,2049,2044,2050,2036,2052,1197
1931,1711004492911520893,2058,2054,2046,2056,2058,2056,1195
1932,1711004492921525951,2057,2058,2071,2052,2046,2052,1196
1933,1711004492931521972,2060,2053,2043,2056,2064,2051,1197
1934,1711004492941520759,2036,2052,2069,2058,2061,2054,1196
1935,1711004492951523072,2061,2053,2024,2053,2066,2053,1196
1936,1711004492961521026,2045,2041,2053,2063,2047,2053,1195
1937,1711004492971529401,2057,2077,2052,2056,2062,2045,1194
1938,1711004492981517797,2050,2056,2068,2049,2042,2054,1195
1939,1711004492991517766,2064,2085,2078,2061,2061,2053,1195
1940,1711004493001518987,2050,2042,2056,2043,2041,2051,1195
1941,1711004493011524706,2058,2056,2039,2052,2070,2044,1193
1942,1711004493021518102,2056,2072,2084,2061,2053,2056,1193
1943,1711004493031519484,2045,2036,2039,2047,2057,2048,1193
1944,1711004493041525283,2058,2050,2047,2060,2046,2052,1195
1945,1711004493051521975,2076,2062,2044,2060,2058,2052,1196
1946,1711004493061520932,2042,2088,2069,2052,2048,2056,1195
1947,1711004493071511362,2047,2047,2045,2058,2059,2048,1196
1948,1711004493081521320,2056,2050,2069,2053,2044,2056,1195
1949,1711004493091521369,2057,2054,2038,2051,2064,2052,1196
1950,1711004493101535895,2045,2039,2040,1987,2036,2054,1196
1951,1711004493111523369,2068,2068,2057,2061,2069,2045,1192
1952,1711004493121514681,2048,2050,2068,2052,2044,2054,1198
1953,1711004493131520992,2056,2026,2034,2068,2065,2056,1195
1954,1711004493141524718,2052,2056,2065,2068,2047,2053,1196
1955,1711004493151544333,2061,2052,2040,2060,2068,2053,1196
1956,1711004493161518613,2046,2047,2060,2052,2044,2051,1196
1957,1711004493171516677,2069,2060,2063,2061,2067,2058,1198
1958,1711004493181522688,2042,2028,2053,2056,2041,2056,1195
1959,1711004493191518599,2058,2049,2035,2058,2070,2077,1195
1960,1711004493201523567,2053,2049,2064,2052,2040,2055,1194
1961,1711004493211515830,2059,2026,2024,2052,2057,2050,1195
1962,1711004493221521920,2058,2058,2093,2041,2042,2053,1196
1963,1711004493231519495,2070,2045,2040,2054,2065,2054,1196
1964,1711004493241515265,2060,2048,2089,2066,2050,2056,1196
1965,1711004493251595376,2062,2084,2079,2063,2064,2056,1197
1966,1711004493261514350,2050,2050,2064,2057,2046,2056,1196
1967,1711004493271527574,2048,2035,2042,2061,2070,2058,1197
1968,1711004493281525008,2053,2050,2066,2060,2057,2060,1197
1969,1711004493291524906,2065,2065,2064,2062,2069,2056,1196
1970,1711004493301535815,2053,2048,2058,2050,2043,2056,1197
1971,1711004493311520565,2058,2061,2053,2058,2060,2056,1197
1972,1711004493321518790,2056,2060,2065,2056,2029,2056,1196
1973,1711004493331521573,2070,2088,2085,2064,2064,2052,1195
1974,1711004493341542132,2056,2040,2047,2056,2045,2056,1196
1975,1711004493351527853,2068,2062,2037,2058,2061,2054,1194
1976,1711004493361529374,2048,2051,2081,2052,2049,2056,1197
1977,1711004493371521478,2066,2066,2072,2065,2067,2065,1195
1978,1711004493381527608,2053,2049,2052,2052,2044,2059,1196
1979,1711004493391528579,2060,2056,2040,2061,2064,2054,1195
1980,1711004493401546231,2052,2069,2067,2050,2040,2051,1195
1981,1711004493411532012,2060,2060,2058,2064,2080,2059,1195
1982,1711004493421525769,2052,2074,2048,2047,2037,2054,1195
1983,1711004493431525857,2052,2040,2017,2065,2070,2052,1196
1984,1711004493441531817,2047,2063,2097,2072,2050,2056,1195
1985,1711004493451549830,2060,2065,2076,2055,2060,2056,1196
1986,1711004493461535772,2053,2069,2069,2056,2044,2053,1195
1987,1711004493471511675,2057,2052,2048,2060,2070,2054,1196
1988,1711004493481532132,2053,2042,2057,2051,2050,2058,1195
1989,1711004493491529997,2065,2056,2058,2061,2065,2053,1196
1990,1711004493501591923,2046,2048,2056,2054,2049,2048,1196
1991,1711004493511530084,2060,2047,2052,2062,2069,2057,1197
1992,1711004493521534972,2042,2028,2050,1993,2033,2051,1198
1993,1711004493531518869,2047,2037,2026,2057,2063,2053,1196
1994,1711004493541537023,2056,2044,2073,2056,2044,2050,1196
1995,1711004493551574673,2056,2061,2040,2051,2058,2052,1196
1996,1711004493561536639,2050,2045,2040,2056,2045,2053,1196
1997,1711004493571513954,2062,2057,2088,2074,2067,2058,1196
1998,1711004493581513342,2064,2061,2059,2056,2048,2058,1194
1999,1711004493591512028,2061,2061,2060,2057,2060,2053,1194
2000,1711004493601567422,2052,2053,2042,2040,2041,2053,1195
2001,1711004493611524980,2060,2049,2056,2047,2052,2064,1195
2002,1711004493621524267,2047,2064,2061,2052,2045,2060,1196
2003,1711004493631524265,2052,2061,2072,2061,2060,2056,1196
2004,1711004493641526097,2045,2042,2053,2045,2043,2053,1193
2005,1711004493651535885,2054,2050,2002,2060,2067,2057,1197
2006,1711004493661512890,2060,2062,2044,2039,2057,2050,1197
2007,1711004493671513219,2057,2054,2048,2064,2061,2058,1197
2008,1711004493681519298,2053,2069,2065,2053,2044,2050,1199
2009,1711004493691514549,2053,2068,2046,2053,2064,2053,1198
2010,1711004493701517964,2051,2050,2033,2050,2045,2053,1195
2011,1711004493711521589,2056,2056,2047,2053,2056,2050,1198
2012,1711004493721524232,2056,2064,2059,2060,2066,2059,1196
2013,1711004493731520123,2052,2056,2054,2061,2052,2047,1194
2014,1711004493741518689,2058,2056,2063,2059,2056,2059,1195
2015,1711004493751509490,2060,2046,2041,2066,2068,2057,1196
2016,1711004493761547371,2044,2037,2056,2050,2045,2045,1192
2017,1711004493771524105,2054,2047,2042,2059,2064,2051,1195
2018,1711004493781521859,2049,2061,2073,2050,2047,2048,1193
2019,1711004493791512499,2043,2043,2032,2058,2058,2053,1196
2020,1711004493801517779,2056,2053,2064,2049,2042,2059,1197
2021,1711004493811517597,2056,2043,2056,2052,2056,2046,1193
2022,1711004493821521513,2063,2075,2072,2101,2056,2056,1196
2023,1711004493831520649,2053,2070,2061,2072,2047,2044,1193
2024,1711004493841522772,2068,2079,2109,2052,2042,2051,1193
2025,1711004493851531999,2062,2079,2069,2052,2064,2053,1193
2026,1711004493861521367,2048,2042,2053,2049,2056,2051,1194
2027,1711004493871518419,2052,2070,2049,2060,2056,2050,1196
2028,1711004493881513619,2057,2040,2044,2051,2051,2064,1197
2029,1711004493891517915,2059,2039,2048,2061,2065,2060,1197
2030,1711004493901532712,2053,2057,2082,2053,2044,2053,1197
2031,1711004493911514857,2058,2052,2052,2064,2065,2056,1194
2032,1711004493921528992,2053,2058,2063,2062,2047,2060,1197
2033,1711004493931524011,2064,2089,2100,2017,2054,2052,1197
2034,1711004493941524671,2050,2038,2047,2057,2048,2053,1196
2035,1711004493951535300,2053,2076,2064,2058,2059,2056,1200
2036,1711004493961518837,2057,2046,2090,2053,2047,2054,1198
2037,1711004493971512253,2057,2057,2048,2061,2063,2056,1196
2038,1711004493981524765,2052,2052,2072,2056,2046,2053,1194
2039,1711004493991523702,2062,2056,2046,2054,2058,2051,1197
2040,1711004494001520985,2057,2056,2058,2054,2043,2049,1197
2041,1711004494011523729,2059,2041,2045,2058,2059,2056,1196
2042,1711004494021517797,2052,2064,2054,2037,2045,2053,1196
2043,1711004494031524648,2052,2038,2074,2074,2064,2058,1196
2044,1711004494041520208,2065,2049,2051,2053,2051,2054,1196
2045,1711004494051550343,2057,2051,2059,2060,2058,2052,1197
2046,1711004494061518241,2054,2051,2065,2080,2059,2058,1195
2047,1711004494071519553,2047,2047,2052,2072,2062,2051,1197
2048,1711004494081525653,2053,2064,2069,2052,2053,2054,1196
2049,1711004494091522325,2066,2116,2068,2042,2046,2045,1195
2050,1711004494101519858,2048,2036,2043,2051,2038,2048,1198
2051,1711004494111522171,2050,2060,2040,2057,2057,2048,1194
2052,1711004494121529684,2060,2071,2071,2060,2050,2051,1196
2053,1711004494131520485,2063,2076,2036,2063,2075,2056,1195
2054,1711004494141523359,2058,2049,2062,2057,2052,2054,1195
2055,1711004494151542795,2057,2048,2040,2096,2059,2047,1193
2056,1711004494161514639,2050,2020,2047,2056,2052,2061,1197
2057,1711004494171520469,2063,2096,2051,2056,2054,2048,1196
2058,1711004494181523924,2055,2040,2056,2058,2056,2056,1194
2059,1711004494191528051,2057,2053,2043,2060,2059,2054,1197
2060,1711004494201534932,2061,2087,2086,2053,2045,2058,1196
2061,1711004494211527477,2057,2052,2027,2064,2063,2055,1196
2062,1711004494221525952,2047,2039,2064,2052,2054,2054,1196
2063,1711004494231518206,2056,2089,2064,2046,2053,2053,1197
2064,1711004494241524807,2049,2073,2076,2054,2049,2053,1196
2065,1711004494251563319,2050,2064,2046,2061,2060,2053,1196
2066,1711004494261532008,2050,2056,2067,2066,2053,2054,1197
2067,1711004494271633720,2053,2056,2052,2062,2065,2053,1196
2068,1711004494281534890,2059,2056,2062,2060,2064,2069,1196
2069,1711004494291537994,2053,2043,2039,2065,2062,2054,1196
2070,1711004494301536580,2049,2036,2044,2060,2048,2049,1195
2071,1711004494311531450,2054,2032,2026,2058,2060,2053,1198
2072,1711004494321530787,2049,2039,2049,2068,2056,2056,1195
2073,1711004494331524433,2053,2059,2053,2065,2057,2050,1196
2074,1711004494341531194,2053,2050,2072,2049,2043,2052,1195
2075,1711004494351532625,2059,2056,2044,2059,2058,2056,1196
2076,1711004494361528877,2060,2056,2073,2054,2052,2057,1197
2077,1711004494371528385,2056,2084,2080,2061,2072,2056,1197
2078,1711004494381536138,2047,2056,2079,2048,2043,2055,1194
2079,1711004494391533652,2060,2089,2068,2058,2058,2056,1195
2080,1711004494401534351,2054,2058,2056,2046,2054,2056,1195
2081,1711004494411551643,2060,2059,2072,2074,2060,2057,1196
2082,1711004494421529940,2050,2053,2055,2064,2052,2056,1197
2083,1711004494431532724,2064,2096,2057,2062,2060,2056,1196
2084,1711004494441548913,2053,2038,2057,2050,2046,2052,1197
2085,1711004494451513895,2050,2043,2048,2045,2050,2049,1195
2086,1711004494461529473,2056,2064,2080,2057,2069,2057,1196
2087,1711004494471530493,2060,2064,2052,2054,2058,2054,1196
2088,1711004494481521726,2056,2049,2033,2080,2062,2053,1197
2089,1711004494491527065,2057,2054,2038,2060,2054,2054,1196
2090,1711004494501544296,2058,2051,2059,2048,2041,2051,1195
2091,1711004494511526019,2056,2049,2052,2059,2057,2047,1193
2092,1711004494521511720,2069,2048,2048,2046,2047,2058,1197
2093,1711004494531520235,2065,2057,2064,2062,2064,2056,1196
2094,1711004494541525053,2054,2045,2049,2054,2052,2053,1197
2095,1711004494551530953,2054,2031,2036,2063,2055,2055,1196
2096,1711004494561520742,2056,2064,2058,1973,2041,2054,1196
2097,1711004494571526892,2061,2065,2064,2065,2062,2060,1198
2098,1711004494581522702,2053,2068,2060,2051,2048,2056,1194
2099,1711004494591523092,2054,2092,2087,2061,2060,2054,1195
2100,1711004494601532528,2050,2041,2036,2056,2050,2051,1196
2101,1711004494611514333,2064,2043,2029,2057,2049,2047,1192
2102,1711004494621524180,2049,2061,2076,2051,2045,2051,1194
2103,1711004494631522655,2060,2064,2048,2040,2056,2050,1197
2104,1711004494641526371,2061,2085,2084,2014,2052,2056,1197
2105,1711004494651540265,2057,2058,2042,2059,2054,2051,1196
2106,1711004494661524194,2056,2042,2056,2061,2041,2050,1193
2107,1711004494671521307,2060,2054,2042,2056,2057,2056,1198
2108,1711004494681519913,2059,2056,2062,2058,2046,2054,1197
2109,1711004494691524850,2054,2048,2043,2060,2061,2053,1198
2110,1711004494701524598,2059,2088,2088,2058,2041,2060,1198
2111,1711004494711528254,2054,2046,2031,2077,2066,2061,1196
2112,1711004494721520297,2056,2088,2060,2072,2051,2056,1199
2113,1711004494731520687,2051,2046,2042,2056,2061,2056,1198
2114,1711004494741521246,2060,2084,2074,2050,2056,2054,1198
2115,1711004494751546923,2060,2054,2056,2049,2064,2052,1196
2116,1711004494761522916,2050,2043,2045,2050,2049,2050,1197
2117,1711004494771521983,2053,2056,2045,2064,2058,2058,1198
2118,1711004494781520819,2057,2039,2064,2049,2058,2065,1193
2119,1711004494791517382,2060,2059,2080,2051,2066,2061,1197
2120,1711004494801517120,2056,2055,2057,2051,2048,2053,1195
2121,1711004494811521456,2058,2054,2044,2056,2062,2052,1196
2122,1711004494821523939,2061,2059,2082,2058,2053,2054,1197
2123,1711004494831521423,2060,2067,2059,2059,2062,2056,1197
2124,1711004494841519608,2056,2052,2047,2056,2057,2050,1196
2125,1711004494851526410,2057,2056,2048,2069,2056,2053,1196
2126,1711004494861524714,2066,2080,2083,2034,2052,2058,1195
2127,1711004494871515336,2064,2053,2054,2065,2053,2048,1199
2128,1711004494881513971,2054,2050,2030,2052,2043,2048,1198
2129,1711004494891515843,2054,2036,2036,2056,2059,2056,1198
2130,1711004494901516463,2052,2047,2066,2059,2054,2057,1194
2131,1711004494911518475,2056,2050,2048,2059,2059,2053,1196
2132,1711004494921524866,2059,2038,2053,2057,2049,2057,1197
2133,1711004494931522130,2056,2048,2048,2056,2065,2057,1197
2134,1711004494941521908,2056,2050,2056,1985,2046,2052,1197
2135,1711004494951526755,2057,2050,2056,2060,2064,2060,1197
2136,1711004494961518147,2061,2096,2102,2068,2053,2052,1196
2137,1711004494971522754,2053,2042,2040,2050,2052,2052,1197
2138,1711004494981524116,2057,2065,2059,2052,2043,2056,1194
2139,1711004494991525016,2058,2057,2066,2062,2059,2060,1199
2140,1711004495001525205,2052,2056,2061,2044,2053,2058,1195
2141,1711004495011525494,2061,2072,2073,2073,2063,2057,1195
2142,1711004495021525532,2047,2055,2045,2053,2050,2054,1199
2143,1711004495031525520,2056,2047,2044,2060,2061,2049,1197
2144,1711004495041526892,2052,2047,2066,2054,2056,2057,1196
2145,1711004495051538593,2056,2069,2059,2068,2067,2054,1195
2146,1711004495061527009,2049,2037,2045,2066,2040,2051,1199
2147,1711004495071526918,2056,2052,2062,2049,2056,2053,1194
2148,1711004495081528339,2050,2047,2033,2065,2045,2050,1195
2149,1711004495091528347,2065,2074,2056,2056,2054,2058,1197
2150,1711004495101528656,2040,2015,2035,2044,2049,2052,1195
2151,1711004495111529846,2057,2056,2052,2058,2058,2052,1198
2152,1711004495121539634,2050,2094,2072,2049,2042,2052,1197
2153,1711004495131529794,2059,2058,2076,2066,2060,2057,1196
2154,1711004495141529412,2050,2047,2033,2053,2052,2050,1195
2155,1711004495151534830,2053,2056,2047,2096,2059,2058,1194
2156,1711004495161529469,2063,2096,2106,2063,2053,2056,1194
2157,1711004495171531350,2053,2060,2056,2059,2060,2053,1196
2158,1711004495181531439,2051,2078,2076,2057,2053,2051,1197
2159,1711004495191531978,2056,2053,2056,2060,2060,2058,1195
2160,1711004495201532799,2056,2065,2060,2056,2045,2047,1194
2161,1711004495211537687,2060,2043,2043,2063,2058,2054,1199
2162,1711004495221535772,2049,2045,2058,2061,2052,2058,1197
2163,1711004495231517565,2071,2083,2087,2073,2058,2054,1198
2164,1711004495241534877,2055,2065,2065,2052,2046,2054,1197
2165,1711004495251511210,2055,2047,2034,2043,2061,2055,1195
2166,1711004495261517110,2052,2030,2058,2053,2049,2056,1198
2167,1711004495271517119,2054,2043,2045,2061,2057,2058,1196
2168,1711004495281518279,2050,2064,2082,2050,2048,2046,1195
2169,1711004495291517566,2054,2048,2058,2048,2059,2050,1200
2170,1711004495301513567,2052,2062,2096,2061,2057,2052,1196
2171,1711004495311522603,2053,2052,2047,2054,2052,2049,1196
2172,1711004495321521128,2058,2035,2045,2049,2046,2052,1200
2173,1711004495331520866,2066,2069,2034,2061,2052,2050,1197
2174,1711004495341521756,2049,2042,2053,2052,2050,2052,1195
2175,1711004495351523619,2055,2045,2046,2052,2056,2054,1195
2176,1711004495361516604,2061,2068,2063,2045,2047,2054,1200
2177,1711004495371524708,2050,2025,2026,2072,2056,2050,1196
2178,1711004495381521550,2058,2047,2036,2062,2052,2051,1195
2179,1711004495391521027,2052,2064,2051,2072,2058,2049,1197
2180,1711004495401544500,2048,2049,2056,2061,2064,2056,1198
2181,1711004495411554327,2061,2056,2041,2059,2065,2054,1195
2182,1711004495421516224,2048,2044,2049,2049,2047,2055,1194
2183,1711004495431515902,2066,2088,2060,2062,2063,2059,1197
2184,1711004495441523785,2052,2069,2059,2092,2053,2049,1196
2185,1711004495451529965,2057,2063,2049,2057,2054,2052,1196
2186,1711004495461522440,2040,2046,2044,2051,2050,2056,1196
2187,1711004495471527157,2064,2087,2073,2066,2062,2063,1194
2188,1711004495481522126,2058,2058,2058,2059,2050,2057,1198
2189,1711004495491520451,2061,2056,2074,2057,2057,2047,1195
2190,1711004495501522463,2055,2059,2061,2036,2054,2055,1197
2191,1711004495511524105,2060,2052,2029,2064,2064,2053,1197
2192,1711004495521515898,2049,2044,2052,2064,2048,2049,1197
2193,1711004495531519483,2052,2030,2040,2060,2080,2056,1198
2194,1711004495541521576,2072,2060,2057,2064,2050,2053,1197
2195,1711004495551531894,2045,2063,2052,2061,2068,2052,1197
2196,1711004495561532764,2050,2042,2028,2039,2036,2050,1197
2197,1711004495571521350,2054,2054,2044,2055,2056,2059,1197
2198,1711004495581520407,2048,2062,2052,2060,2056,2054,1194
2199,1711004495591521268,2064,2058,2055,2066,2067,2063,1196
2200,1711004495601520054,2056,2046,2051,2049,2053,2059,1196
2201,1711004495611525032,2056,2053,2049,2059,2061,2058,1197
2202,1711004495621523707,2051,2049,2037,2049,2044,2052,1197
2203,1711004495631521291,2051,2073,2049,2051,2057,2056,1196
2204,1711004495641525107,2052,2032,2040,2055,2050,2058,1196
2205,1711004495651524064,2051,2042,2045,2047,2057,2056,1197
2206,1711004495661527999,2053,2047,2025,2046,2052,2056,1198
2207,1711004495671522999,2058,2064,2052,2070,2058,2053,1195
2208,1711004495681520492,2052,2044,2045,2052,2046,2052,1197
2209,1711004495691521392,2056,2043,2044,2049,2051,2050,1198
2210,1711004495701521832,2057,2070,2057,2052,2052,2058,1197
2211,1711004495711530947,2056,2082,2061,2046,2052,2053,1195
2212,1711004495721523572,2058,2046,2046,2074,2057,2052,1196
