seq,time,data[0],data[1],data[2],data[3],data[4],data[5],data[6]
201,1710927163985294345,2056,2052,2046,2064,2060,2056,1195
202,1710927163995299035,2057,2080,2110,2054,2056,2053,1197
203,1710927164005304517,2047,2042,2032,2049,2052,2052,1196
204,1710927164015297415,2049,2060,2074,2053,2050,2053,1194
205,1710927164025298578,2070,2047,1973,2066,2074,2058,1194
206,1710927164035294210,2058,2058,2060,2052,2046,2047,1192
207,1710927164045293720,2054,2047,2038,2054,2053,2052,1193
208,1710927164055298209,2061,2101,2125,2071,2050,2056,1195
209,1710927164065293993,2066,2097,2078,2062,2058,2053,1193
210,1710927164075295667,2048,2037,2020,2056,2053,2054,1195
211,1710927164085305456,2049,2040,2032,2054,2056,2048,1195
212,1710927164095297632,2049,2037,2056,2056,2057,2058,1194
213,1710927164105298815,2056,2056,2049,2048,2052,2052,1194
214,1710927164115295440,2056,2059,2028,2045,2052,2053,1197
215,1710927164125298016,2044,2030,2039,2054,2051,2051,1193
216,1710927164135293228,2052,2030,2067,2056,2052,2053,1193
217,1710927164145298058,2055,2053,2058,2064,2060,2052,1194
218,1710927164155280937,2049,2057,2059,2062,2052,2056,1194
219,1710927164165297709,2056,2065,2041,2051,2052,2052,1193
220,1710927164175307899,2049,2025,2052,2043,2056,2055,1194
221,1710927164185300477,2051,2043,2041,2056,2056,2057,1195
222,1710927164195299536,2056,2024,2045,2053,2050,2055,1195
223,1710927164205302102,2066,2059,2041,2052,2058,2056,1194
224,1710927164215299508,2047,2044,2044,2049,2052,2052,1195
225,1710927164225260014,2053,2040,2028,2053,2050,2052,1195
226,1710927164235306212,2056,2064,2093,2057,2054,2056,1193
227,1710927164245285104,2046,2042,2050,2062,2057,2044,1192
228,1710927164255300284,2058,2047,2042,2054,2046,2057,1196
229,1710927164265315203,2055,2037,2018,2038,2038,2053,1195
230,1710927164275302660,2056,2052,2057,2057,2053,2056,1196
231,1710927164285298523,2053,2044,2053,2051,2047,2057,1194
232,1710927164295297202,2057,2072,2061,2050,2047,2050,1196
233,1710927164305296782,2054,2070,2080,2050,2047,2050,1195
234,1710927164315256967,2053,2091,2059,2052,2045,2048,1193
235,1710927164325285352,2048,2045,2034,2059,2053,2052,1195
236,1710927164335303507,2067,2052,2056,2052,2048,2051,1195
237,1710927164345299000,2057,2053,2040,2053,2058,2054,1193
238,1710927164355298550,2050,2054,2072,2061,2053,2050,1194
239,1710927164365300144,2056,2038,2032,2056,2052,2053,1193
240,1710927164375387460,2055,2045,2061,2058,2053,2052,1195
241,1710927164385299985,2056,2056,2108,2060,2061,2059,1193
242,1710927164395300748,2060,2061,2104,2064,2052,2054,1195
243,1710927164405295730,2053,2056,2092,2063,2072,2052,1196
244,1710927164415303275,2050,2050,2053,2045,2045,2052,1192
245,1710927164425315179,2054,2062,2058,2053,2046,2050,1193
246,1710927164435297927,2057,2060,2080,2050,2040,2056,1195
247,1710927164445298999,2052,2050,2017,2056,2054,2048,1195
248,1710927164455298580,2053,2054,2041,2045,2051,2056,1196
249,1710927164465300144,2063,2062,2075,2056,2054,2052,1195
250,1710927164475301778,2063,2046,2054,2040,2046,2053,1195
251,1710927164485303262,2053,2048,2047,2053,2049,2050,1193
252,1710927164495299095,2052,2048,2040,2056,2053,2056,1195
253,1710927164505296080,2044,2020,2000,2036,2045,2047,1192
254,1710927164515296782,2055,2051,2076,2038,2056,2052,1195
255,1710927164525223074,2056,2053,2053,2043,2055,2051,1196
256,1710927164535302015,2060,2058,2072,2065,2056,2056,1196
257,1710927164545296805,2044,2033,2013,2060,2044,2049,1197
258,1710927164555296466,2058,2045,1985,2064,2047,2056,1197
259,1710927164565293732,2053,2042,2012,2053,2053,2053,1195
260,1710927164575286168,2047,2029,2037,2052,2049,2054,1193
261,1710927164585298783,2052,2056,2069,2036,2050,2052,1194
262,1710927164595298935,2057,2064,2106,2065,2044,2057,1196
263,1710927164605296411,2066,2059,2047,2040,2048,2056,1194
264,1710927164615297644,2050,2075,2040,2048,2041,2050,1194
265,1710927164625253842,2057,2053,2061,2058,2056,2054,1193
266,1710927164635309579,2056,2054,2052,2044,2056,2054,1194
267,1710927164645304339,2054,2060,2050,2060,2066,2054,1194
268,1710927164655296967,2048,2040,2046,2068,2046,2057,1193
269,1710927164665294793,2050,2051,2071,2064,2047,2050,1193
270,1710927164675303591,2053,2049,2076,2053,2044,2058,1193
271,1710927164685298924,2057,2053,2033,2046,2053,2043,1194
272,1710927164695311298,2060,2047,2032,2048,2060,2062,1194
273,1710927164705303063,2053,2064,2060,2065,2043,2040,1192
274,1710927164715301692,2050,2058,2049,2053,2047,2053,1197
275,1710927164725302063,2058,2046,2038,2065,2050,2052,1196
276,1710927164735299469,2054,2046,2050,2056,2048,2052,1195
277,1710927164745300933,2048,2024,2007,2029,2046,2050,1195
278,1710927164755301095,2060,2064,2082,2061,2056,2056,1194
279,1710927164765303650,2059,2058,2098,2056,2058,2056,1194
280,1710927164775301988,2050,2052,2056,2060,2053,2052,1195
281,1710927164785300927,2057,2065,2069,2053,2056,2049,1195
282,1710927164795308372,2042,2036,2043,2066,2045,2044,1193
283,1710927164805303644,2056,2032,2041,2044,2054,2053,1193
284,1710927164815304146,2057,2052,2066,2059,2053,2056,1196
285,1710927164825297585,2046,2015,2036,2061,2050,2047,1192
286,1710927164835310360,2061,2069,2114,2052,2048,2052,1193
287,1710927164845304930,2064,2058,2028,2036,2051,2053,1197
288,1710927164855305212,2051,2047,2042,2057,2055,2054,1195
289,1710927164865306015,2052,2059,2056,2043,2063,2052,1195
290,1710927164875309573,2053,2060,2093,2052,2057,2052,1194
291,1710927164885311136,2051,2070,2034,2056,2056,2045,1193
292,1710927164895301399,2050,2030,2081,2047,2048,2055,1194
293,1710927164905307251,2052,2049,2037,2056,2061,2050,1196
294,1710927164915306991,2049,2042,2016,2060,2052,2051,1193
295,1710927164925310729,2056,2054,2063,2053,2052,2053,1194
296,1710927164935295261,2070,2063,2092,2074,2060,2057,1194
297,1710927164945315360,2071,2088,2153,2067,2056,2060,1194
298,1710927164955305753,2052,2049,2047,2058,2047,2048,1196
299,1710927164965305834,2061,2063,2032,2058,2058,2053,1194
300,1710927164975306015,2056,2077,2113,2056,2055,2057,1194
301,1710927164985312298,2059,2062,2070,2064,2058,2055,1195
302,1710927164995318030,2052,2051,2061,2061,2051,2054,1196
303,1710927165005310797,2064,2056,2050,2071,2057,2056,1195
304,1710927165015312381,2055,2064,2130,2056,2050,2052,1197
305,1710927165025311180,2056,2047,2060,2059,2046,2052,1196
306,1710927165035311262,2048,2044,2050,2065,2057,2058,1196
307,1710927165045313056,2059,2054,2062,2058,2058,2053,1197
308,1710927165055296846,2047,2044,2048,2045,2047,2048,1196
309,1710927165065298821,2068,2068,2072,2048,2056,2062,1196
310,1710927165075304342,2058,2050,2088,2065,2059,2056,1195
311,1710927165085299234,2052,2076,2044,2056,2057,2053,1193
312,1710927165095299225,2062,2069,2132,2057,2054,2058,1196
313,1710927165105295949,2066,2060,2032,2061,2057,2057,1194
314,1710927165115298635,2057,2054,2051,2062,2055,2053,1195
315,1710927165125299237,2055,2092,2067,2064,2057,2049,1195
316,1710927165135299889,2064,2076,2076,2052,2050,2056,1196
317,1710927165145294841,2050,2039,2034,2044,2056,2052,1195
318,1710927165155300714,2053,2056,2060,2060,2051,2056,1197
319,1710927165165302527,2054,2066,2085,2052,2053,2050,1193
320,1710927165175297750,2064,2063,2054,2056,2056,2062,1194
321,1710927165186372145,2057,2071,2108,2064,2061,2053,1195
322,1710927165195289355,2064,2051,2052,2054,2048,2058,1194
323,1710927165205297993,2060,2038,2046,2053,2051,2049,1195
324,1710927165215299878,2058,2042,2053,2047,2054,2051,1195
325,1710927165225305018,2061,2052,2050,2061,2057,2057,1195
326,1710927165235303516,2058,2042,2019,2051,2046,2056,1195
327,1710927165245309018,2059,2061,2016,2062,2058,2052,1193
328,1710927165255300863,2052,2050,2082,2064,2058,2059,1193
329,1710927165265300874,2054,2049,2049,2053,2053,2058,1196
330,1710927165275304072,2054,2053,2052,2039,2050,2052,1194
331,1710927165285288172,2053,2056,2058,2058,2062,2057,1197
332,1710927165295289165,2052,2053,2058,2051,2046,2054,1197
333,1710927165305295027,2056,2056,2073,2048,2054,2052,1197
334,1710927165315298534,2044,2031,2047,2061,2056,2041,1194
335,1710927165325299568,2052,2027,2047,2077,2062,2058,1194
336,1710927165335846665,2053,2060,2056,2056,2050,2052,1196
337,1710927165345298498,2076,2044,2046,2062,2050,2053,1195
338,1710927165355300242,2069,2050,2062,2072,2061,2045,1192
339,1710927165365295043,1996,2044,2058,2056,2063,2062,1193
340,1710927165375298190,2098,2066,2065,2073,2049,2026,1192
341,1710927165385300736,2041,2044,2047,2069,2062,2054,1193
342,1710927165395289596,2044,2041,2050,2048,2027,2039,1194
343,1710927165405297502,2078,2098,2062,2071,2058,2065,1196
344,1710927165415300318,2045,2055,2070,2064,2040,2067,1194
345,1710927165425301852,2010,2067,2066,2038,2061,2072,1197
346,1710927165435300380,1985,2041,2056,2048,2062,2049,1194
347,1710927165445300621,2043,2058,2040,2045,2049,2047,1192
348,1710927165455287658,2041,2069,2073,2073,2050,2050,1197
349,1710927165465287990,2058,2064,2050,2041,2049,2056,1196
350,1710927165475289032,2088,2057,2040,2052,2052,2053,1196
351,1710927165485296457,2052,2072,2078,2073,2061,2057,1195
352,1710927165495313370,2046,2047,2057,2076,2058,2050,1197
353,1710927165505308452,2088,2048,2046,2053,2077,2065,1195
354,1710927165515303674,2028,2047,2066,2066,2092,2066,1195
355,1710927165525302994,2128,2057,2046,2046,2053,2056,1194
356,1710927165535295641,2076,2072,2075,2038,2049,2052,1194
357,1710927165545302174,2037,2040,2044,2059,2072,2061,1195
358,1710927165555297286,2050,2052,2062,2050,2060,2056,1195
359,1710927165565288049,2086,2082,2059,2037,2057,2047,1191
360,1710927165575301326,2040,2044,2042,2052,2061,2072,1194
361,1710927165585295005,2055,2054,2037,2052,2047,2042,1193
362,1710927165595307730,2113,2063,2057,2068,2060,2059,1193
363,1710927165605292031,2030,2039,2048,2053,2076,2051,1195
364,1710927165615307020,2053,2047,2050,2059,2050,2063,1197
365,1710927165625297483,2061,2067,2082,2053,2057,2056,1194
366,1710927165635295260,2074,2047,2047,2054,2035,2043,1192
367,1710927165645297766,2061,2062,2015,2043,2052,2054,1195
368,1710927165655305080,2042,2042,2057,2058,2052,2041,1192
369,1710927165665295874,2049,2056,2048,2059,2086,2064,1196
370,1710927165675287779,2058,2047,2047,2061,2072,2047,1193
371,1710927165685291518,2050,2053,2057,2056,2053,2043,1193
372,1710927165695308070,2049,2044,2056,2062,2048,2054,1198
373,1710927165705288244,2056,2049,2050,2061,2056,2052,1195
374,1710927165715304205,2068,2084,2045,2031,2057,2053,1195
375,1710927165725301320,2061,2060,2041,2073,2050,2056,1195
376,1710927165735296682,2061,2064,2064,2064,2065,2068,1197
377,1710927165745310720,2056,2093,2118,2069,2108,2065,1196
378,1710927165755300151,2088,2051,2041,2068,2057,2056,1195
379,1710927165765295453,2048,2059,2077,2052,2061,2050,1194
380,1710927165775296085,2065,2040,2066,2072,2057,2056,1195
381,1710927165785295865,2054,2032,2041,2053,2053,2056,1196
382,1710927165795271540,2052,2064,2068,2063,2058,2056,1196
383,1710927165805283234,2042,2044,2041,2039,2036,2044,1194
384,1710927165815298524,2064,2072,2082,2072,2062,2057,1194
385,1710927165825299917,2057,2050,2037,2000,2052,2054,1195
386,1710927165835295820,2061,2052,2046,2091,2051,2056,1193
387,1710927165845300039,2048,2064,2056,2065,2046,2047,1193
388,1710927165855268571,2044,2040,2057,2052,2028,2049,1195
389,1710927165865298609,2059,2050,2047,2056,2058,2059,1193
390,1710927165875298951,2062,2080,2077,2042,2041,2049,1195
391,1710927165885299713,2058,2054,2068,2077,2069,2054,1197
392,1710927165895295115,2056,2051,2046,2052,2048,2053,1193
393,1710927165905301678,2060,2076,2109,2047,2064,2056,1198
394,1710927165915306729,2060,2103,2053,2051,2042,2049,1195
395,1710927165925305678,2056,2061,2076,2052,2050,2052,1194
396,1710927165935301131,2053,2045,2041,2070,2056,2063,1196
397,1710927165945305189,2050,2031,2031,2059,2057,2058,1195
398,1710927165955303076,2049,2060,2076,2041,2052,2049,1196
399,1710927165965295152,2052,2061,2072,2059,2037,2047,1192
400,1710927165975297577,2061,2053,2056,2035,2048,2052,1194
401,1710927165985297959,2062,2056,2092,2069,2053,2056,1197
402,1710927165995298201,2060,2051,2060,2061,2078,2060,1194
403,1710927166005302009,2056,2047,2036,2060,2053,2049,1195
404,1710927166015299165,2048,2037,2033,2033,2046,2046,1192
405,1710927166025297462,2053,2060,2048,2056,2048,2047,1192
406,1710927166035300128,2065,2073,2097,2047,2052,2056,1196
407,1710927166045310950,2043,2017,2032,2061,2058,2058,1196
408,1710927166055295592,2061,2052,2052,2053,2052,2059,1196
409,1710927166065296585,2057,2066,2050,2060,2057,2056,1196
410,1710927166075296094,2061,2064,2068,2049,2044,2057,1194
411,1710927166085296155,2059,2052,2039,2021,2042,2050,1198
412,1710927166095302799,2060,2086,2093,2067,2050,2058,1194
413,1710927166105301237,2058,2064,2026,2043,2037,2052,1196
414,1710927166115297582,2055,2035,2056,2066,2056,2057,1196
415,1710927166125299175,2046,2045,2063,2064,2042,2048,1196
416,1710927166135299056,2057,2049,2044,2070,2060,2056,1195
417,1710927166145299568,2046,2040,2037,2045,2044,2043,1194
418,1710927166155300200,2052,2045,2066,2072,2058,2055,1195
419,1710927166165294631,2051,2040,2040,2062,2049,2049,1193
420,1710927166175295564,2057,2060,2070,2052,2046,2049,1194
421,1710927166185317396,2056,2050,2047,2052,2052,2052,1193
422,1710927166195299302,2052,2019,2057,2052,2050,2051,1196
423,1710927166205297069,2053,2047,2043,2053,2058,2052,1196
424,1710927166215298993,2065,2057,2051,2073,2063,2060,1196
425,1710927166225308663,2058,2052,2044,2065,2060,2046,1194
426,1710927166235302032,2049,2034,2066,2026,2056,2053,1197
427,1710927166245300560,2054,2049,2052,2057,2060,2052,1197
428,1710927166255297144,2060,2058,2047,2073,2064,2052,1198
429,1710927166265292827,2055,2067,2102,2070,2079,2053,1197
430,1710927166275255256,2053,2038,2057,2052,2051,2053,1197
431,1710927166285318628,2057,2076,2041,2054,2049,2054,1197
432,1710927166295306065,2057,2049,2064,2068,2051,2056,1195
433,1710927166305306496,2062,2057,2070,2047,2056,2056,1196
434,1710927166315297471,2057,2052,2050,2061,2058,2056,1198
435,1710927166325294065,2057,2059,2058,2064,2059,2052,1196
436,1710927166335300618,2062,2049,2093,2062,2067,2057,1197
437,1710927166345303355,2054,2034,2056,2056,2056,2051,1197
438,1710927166355287927,2053,2052,2100,2072,2056,2056,1196
439,1710927166365297165,2060,2050,2061,2060,2060,2056,1196
440,1710927166375295242,2058,2047,2044,2047,2051,2050,1195
441,1710927166385292067,2051,2049,2045,2054,2052,2047,1193
442,1710927166395296336,2056,2051,2054,2053,2052,2056,1196
443,1710927166405293863,2064,2056,2042,2051,2057,2053,1196
444,1710927166415315674,2060,2056,2064,2061,2059,2058,1194
445,1710927166425296068,2048,2057,2067,2058,2062,2052,1196
446,1710927166435294306,2064,2081,2078,2070,2064,2063,1196
447,1710927166445298335,2050,2046,2042,2034,2038,2049,1196
448,1710927166455298666,2056,2053,2062,2065,2059,2056,1196
449,1710927166465295041,2053,2054,2050,2054,2053,2050,1196
450,1710927166475294861,2056,2074,2096,2052,2049,2056,1198
451,1710927166485293740,2043,2052,2032,2050,2062,2056,1196
452,1710927166495301786,2052,2058,2104,2062,1986,2049,1197
453,1710927166505239830,2061,2091,2066,2045,2040,2047,1192
454,1710927166515298502,2040,2033,2042,2051,2044,2049,1194
455,1710927166525307640,2058,2052,2066,2061,2049,2052,1195
456,1710927166535301339,2040,2059,2085,2022,2046,2052,1195
457,1710927166545322921,2064,2056,2056,2058,2056,2056,1196
458,1710927166555296202,2066,2056,2056,2058,2054,2059,1196
459,1710927166565304398,2049,2050,2048,2050,2048,2056,1193
460,1710927166575300051,2055,2054,2041,2067,2051,2056,1193
461,1710927166585307335,2071,2117,2074,2052,2061,2056,1195
462,1710927166595320932,2044,2038,2048,2052,2048,2050,1195
463,1710927166605310594,2039,2031,2018,2042,2052,2046,1194
464,1710927166615304563,2056,2069,2078,2061,2052,2056,1195
465,1710927166625307329,2054,2050,2045,2044,2046,2051,1195
466,1710927166635299856,2053,2052,2061,2056,2052,2051,1195
467,1710927166645302101,2050,2046,2046,2056,2042,2051,1196
468,1710927166655304987,2059,2078,2092,2032,2041,2056,1195
469,1710927166665306001,2052,2061,2076,2050,2053,2053,1196
470,1710927166675299209,2058,2064,2058,2039,2049,2054,1196
471,1710927166685299831,2052,2048,2054,2056,2050,2052,1195
472,1710927166695299932,2059,2059,2081,2073,2063,2060,1195
473,1710927166705304802,2049,2052,2032,2044,2056,2056,1196
474,1710927166715301707,2062,2068,2098,2058,2056,2053,1193
475,1710927166725303101,2050,2046,2047,2060,2058,2052,1195
476,1710927166735302201,2058,2041,2056,2070,2056,2051,1194
477,1710927166745311309,2059,2041,2015,2053,2057,2057,1195
478,1710927166755311500,2037,2031,2020,2045,2045,2052,1195
479,1710927166765304507,2056,2057,2073,2044,2062,2061,1194
480,1710927166775304839,2056,2066,2098,2040,2050,2055,1195
481,1710927166785302576,2056,2051,2051,2053,2056,2052,1195
482,1710927166795312326,2054,2052,2050,2032,2052,2053,1195
483,1710927166805300113,2060,2053,2051,2061,2044,2050,1197
484,1710927166815302619,2053,2056,2040,2049,2053,2052,1196
485,1710927166825302890,2064,2075,2099,2069,2057,2053,1196
486,1710927166835303071,2050,2044,2039,2053,2025,2041,1192
487,1710927166845303634,2054,2047,2021,2040,2030,2042,1192
488,1710927166855303505,2058,2047,2017,2060,2051,2056,1195
489,1710927166865304277,2044,2026,2015,2032,2038,2051,1197
490,1710927166875303717,2064,2066,2088,2034,2017,2044,1192
491,1710927166885305040,2047,2050,2035,2061,2057,2048,1195
492,1710927166895318697,2057,2048,2045,2044,2041,2042,1192
493,1710927166905315412,2053,2037,2042,2047,2048,2053,1195
494,1710927166915323749,2059,2050,2058,2061,2050,2061,1196
495,1710927166925309412,2049,2040,2016,2052,2049,2052,1195
496,1710927166935306398,2076,2084,2097,2078,2057,2047,1192
497,1710927166945307320,2048,2076,2029,2033,2028,2044,1192
498,1710927166955309495,2050,2044,2044,2069,2073,2051,1196
499,1710927166965308425,2049,2032,2007,2053,2042,2050,1192
500,1710927166975308174,2052,2024,1973,2041,2034,2049,1194
501,1710927166985343463,2056,2034,2039,2078,2056,2052,1194
502,1710927166995290604,2060,2043,2047,2056,2048,2062,1195
503,1710927167005321934,2060,2056,2041,2064,2035,2047,1193
504,1710927167015290395,2054,2060,2053,2056,2051,2047,1194
505,1710927167025277913,2059,2064,2047,2008,2016,2046,1193
506,1710927167035292160,2047,2056,2073,2059,2046,2046,1193
507,1710927167045293865,2054,2052,2000,2054,2044,2050,1196
508,1710927167055292513,2054,2063,2089,2049,2056,2046,1193
509,1710927167065320617,2054,2048,2030,2060,2052,2056,1196
510,1710927167075310890,2061,2092,2098,2061,2056,2057,1195
511,1710927167085292846,2048,2049,2044,2036,2052,2049,1195
512,1710927167095278029,2052,2046,2052,2060,2037,2051,1197
513,1710927167105315331,2057,2047,2023,2056,2058,2056,1193
514,1710927167115313649,2066,2082,2073,2060,2054,2056,1196
515,1710927167125295826,2051,2062,2032,2058,2052,2054,1196
516,1710927167135297731,2061,2085,2132,2056,2053,2060,1195
517,1710927167145295898,2056,2062,2161,2056,2049,2050,1195
518,1710927167155297291,2060,2060,2073,2057,2053,2053,1196
519,1710927167165296822,2045,2043,2028,2064,2040,2052,1195
520,1710927167175299608,2042,2047,2034,2034,2045,2044,1192
521,1710927167185299519,2059,2060,2043,2057,2056,2057,1196
522,1710927167195300381,2042,2048,2085,2056,2052,2050,1197
523,1710927167205280334,2052,2063,2069,2063,2053,2052,1196
524,1710927167215329118,2056,2050,2044,2053,2054,2056,1196
525,1710927167225308109,2050,2030,2036,2067,2056,2057,1194
526,1710927167235299895,2054,2040,2046,2056,2061,2056,1194
527,1710927167245298412,2061,2064,2106,2063,2057,2056,1194
528,1710927167255297301,2049,2045,2046,2074,2056,2052,1195
529,1710927167265326838,2056,2052,2064,2058,2054,2055,1194
530,1710927167275299808,2054,2041,2064,2056,2056,2056,1194
531,1710927167285304658,2052,2039,2032,2048,2050,2049,1196
532,1710927167295295531,2056,2045,2046,2051,2052,2053,1197
533,1710927167305295152,2045,2033,2049,2054,2055,2053,1195
534,1710927167315298550,2056,2036,2015,2062,2061,2053,1195
535,1710927167325291617,2052,2039,2029,2020,2029,2052,1197
536,1710927167335292600,2059,2051,2052,2059,2044,2046,1191
537,1710927167345304433,2061,2080,2078,2053,2023,2041,1192
538,1710927167355297842,2053,2043,2056,2047,2036,2054,1194
539,1710927167365297222,2059,2052,2021,2057,2072,2058,1193
540,1710927167375299507,2073,2092,2208,2076,2066,2063,1194
541,1710927167385306281,2045,2033,2009,2052,2052,2047,1193
542,1710927167395300701,2052,2045,2064,2052,2047,2050,1195
543,1710927167405294400,2053,2044,2042,2058,2057,2050,1196
544,1710927167415297026,2056,2056,2050,2061,2056,2058,1197
545,1710927167425296096,2065,2066,2080,2024,2053,2058,1193
546,1710927167435318229,2062,2044,2094,2064,2052,2054,1197
547,1710927167445296748,2056,2040,2079,2056,2046,2048,1193
548,1710927167455295958,2053,2060,2099,2058,2054,2057,1195
549,1710927167465294045,2056,2047,2033,2064,2056,2056,1196
550,1710927167475294567,2048,2045,2059,2057,2050,2051,1196
551,1710927167485300490,2056,2061,2042,2054,2053,2047,1194
552,1710927167495303205,2046,2048,2036,2074,2056,2054,1194
553,1710927167505296664,2063,2056,2069,2058,2056,2057,1195
554,1710927167515296465,2046,2044,2046,2068,2057,2056,1195
555,1710927167525326984,2059,2069,2040,2057,2058,2056,1195
556,1710927167535294683,2058,2065,2039,2056,2061,2058,1194
557,1710927167545303400,2050,2041,2021,2058,2050,2047,1193
558,1710927167555299113,2049,2044,2044,2060,2048,2048,1194
559,1710927167565308873,2046,2078,2058,2056,2053,2050,1194
560,1710927167575297112,2056,2060,2063,2056,2056,2054,1193
561,1710927167585297864,2056,2033,2009,2014,2058,2059,1195
562,1710927167595317071,2052,2038,2043,2066,2059,2052,1193
563,1710927167605295752,2064,2051,2021,2057,2050,2053,1196
564,1710927167615297025,2046,2039,2049,2056,2052,2056,1194
565,1710927167625298970,2078,2108,2185,2066,2053,2048,1196
566,1710927167635300554,2053,2050,2057,2085,2060,2055,1194
567,1710927167645314943,2055,2047,2042,2058,2052,2051,1194
568,1710927167655297400,2055,2040,2046,2060,2055,2055,1193
569,1710927167665297411,2056,2039,2055,2057,2054,2053,1196
570,1710927167675300027,2060,2046,2041,2052,2056,2045,1194
571,1710927167685296171,2055,2067,2056,2058,2061,2047,1194
572,1710927167695299649,2053,2027,2035,2064,2057,2056,1196
573,1710927167705299839,2065,2077,2162,2068,2060,2054,1194
574,1710927167715297596,2056,2057,2084,2062,2054,2054,1194
575,1710927167725297928,2053,2052,2062,2052,2057,2051,1195
576,1710927167735304431,2056,2062,2071,2031,2049,2050,1196
577,1710927167745306817,2052,2044,2058,2060,2053,2055,1196
578,1710927167755242706,2061,2056,2057,2057,2056,2059,1196
579,1710927167765291810,2050,2046,2040,2062,2054,2051,1195
580,1710927167775298414,2049,2057,2057,2066,2053,2056,1194
581,1710927167785309896,2056,2056,2049,2029,2052,2052,1195
582,1710927167795296682,2052,2055,2067,2050,2053,2051,1197
583,1710927167805293246,2056,2074,2129,2044,2060,2056,1196
584,1710927167815300671,2056,2068,2048,2056,2058,2057,1195
585,1710927167825295894,2042,2018,2046,2051,2052,2050,1195
586,1710927167835294342,2056,2041,2031,2042,2050,2052,1197
587,1710927167845303620,2063,2056,2040,2062,2054,2056,1193
588,1710927167855302719,2046,2028,2008,2045,2056,2052,1195
589,1710927167865311256,2058,2036,2036,2064,2062,2052,1195
590,1710927167875301960,2064,2085,2116,2061,2056,2056,1195
591,1710927167885290650,2056,2044,2039,2056,2056,2056,1196
592,1710927167895299267,2057,2061,2058,2029,2048,2052,1194
593,1710927167905297855,2049,2049,2046,2049,2055,2050,1196
594,1710927167915312764,2057,2050,2046,2060,2056,2056,1193
595,1710927167925294671,2061,2075,2060,2048,2057,2047,1193
596,1710927167935292157,2039,2030,2043,2058,2051,2051,1194
597,1710927167945292058,2052,2057,2025,2063,2056,2056,1194
598,1710927167955294744,2059,2050,2050,2051,2052,2050,1194
599,1710927167965318169,2062,2056,2037,2076,2060,2054,1192
600,1710927167975290949,2057,2051,2024,2060,2056,2056,1194
601,1710927167985301960,2052,2052,2020,2054,2052,2048,1194
602,1710927167995299427,2053,2039,2041,2070,2060,2054,1196
603,1710927168005302644,2044,2046,2044,2040,2052,2052,1195
604,1710927168015280041,2052,2061,2052,2078,2054,2052,1193
605,1710927168025294390,2058,2069,2098,2065,2057,2054,1194
606,1710927168035296686,2058,2065,2093,2085,2052,2057,1194
607,1710927168045300474,2061,2061,2041,2047,2046,2049,1196
608,1710927168055298190,2053,2055,2069,2048,2053,2052,1197
609,1710927168065311686,2061,2064,2057,2076,2052,2057,1196
610,1710927168075294004,2064,2068,2122,2072,2052,2052,1194
611,1710927168085289346,2056,2036,2035,2053,2050,2053,1197
612,1710927168095209997,2056,2048,2044,2056,2057,2060,1195
613,1710927168105299407,2051,2047,2025,2064,2056,2051,1195
614,1710927168115297665,2050,2081,2038,2050,2050,2051,1195
615,1710927168125256979,2059,2064,2060,2022,2045,2051,1195
616,1710927168135292427,2063,2053,2057,2064,2049,2052,1196
617,1710927168145299802,2054,2046,2048,2036,2056,2047,1193
618,1710927168155297899,2062,2064,2024,2056,2052,2056,1195
619,1710927168165298772,2056,2054,2044,2061,2056,2056,1195
620,1710927168175275489,2064,2066,2074,2058,2056,2056,1194
621,1710927168185294075,2058,2048,2029,2076,2062,2062,1194
622,1710927168195246876,2048,2052,2031,2060,2051,2052,1194
623,1710927168205293465,2057,2048,2032,2052,2052,2052,1196
624,1710927168215264732,2060,2044,2053,2066,2054,2056,1197
625,1710927168225305530,2060,2057,2088,2064,2053,2052,1194
626,1710927168235294030,2052,2042,2045,2076,2053,2052,1195
627,1710927168245296044,2068,2062,2084,2040,2047,2050,1196
628,1710927168255300564,2053,2043,2052,2057,2054,2055,1196
629,1710927168265296447,2053,2059,2065,2053,2052,2052,1194
630,1710927168275308410,2056,2027,2069,2058,2056,2053,1197
631,1710927168285303132,2063,2028,2045,2052,2056,2052,1196
632,1710927168295302191,2072,2093,2146,2056,2053,2056,1194
633,1710927168305302843,2053,2046,2036,2056,2051,2049,1196
634,1710927168315313424,2057,2039,2033,2053,2045,2052,1196
635,1710927168325260054,2056,2057,2044,2059,2053,2051,1196
636,1710927168335231621,2056,2047,2052,2052,2052,2052,1194
637,1710927168345316933,2042,2026,2032,2059,2050,2050,1196
638,1710927168355307776,2061,2045,2042,2065,2059,2059,1196
639,1710927168365305584,2062,2067,2071,2065,2054,2053,1192
640,1710927168375305585,2063,2044,2027,2058,2044,2052,1195
641,1710927168385305946,2056,2059,2030,2029,2057,2060,1194
642,1710927168395304324,2053,2072,2053,2065,2049,2052,1194
643,1710927168405308803,2054,2064,2043,2052,2065,2053,1194
644,1710927168415310888,2056,2058,2044,2045,2046,2052,1196
645,1710927168425311471,2055,2053,2069,2056,2054,2054,1196
646,1710927168435311001,2049,2040,2017,2064,2050,2051,1194
647,1710927168445313707,2058,2048,2005,2056,2056,2053,1195
648,1710927168455315531,2057,2052,2069,2076,2060,2052,1193
649,1710927168465315011,2053,2037,2048,2046,2058,2056,1195
650,1710927168475313750,2066,2077,2120,2084,2069,2059,1195
651,1710927168485314643,2060,2062,2032,2044,2052,2050,1196
652,1710927168496287115,2054,2043,2043,2065,2057,2056,1197
653,1710927168505301229,2056,2045,2018,2061,2061,2050,1194
654,1710927168515301781,2051,2046,2039,2058,2052,2054,1195
655,1710927168525303555,2056,2050,2031,2074,2052,2050,1194
656,1710927168535334244,2057,2048,2046,2072,2048,2052,1194
657,1710927168545291053,2052,2046,2048,2058,2048,2050,1193
658,1710927168555293499,2065,2049,2054,2049,2049,2051,1193
659,1710927168565293199,2052,2064,2056,2052,2052,2046,1192
660,1710927168575287249,2064,2053,2054,2053,2063,2053,1196
661,1710927168585290887,2053,2050,2036,2028,2050,2049,1195
662,1710927168595320243,2048,2045,2036,2064,2051,2047,1192
663,1710927168605295928,2050,2056,2018,2047,2046,2049,1195
664,1710927168615299225,2056,2081,2125,2048,2052,2061,1196
665,1710927168625297273,2057,2058,2056,2045,2056,2054,1196
666,1710927168635281724,2054,2057,2052,2070,2051,2055,1196
667,1710927168645308706,2053,2057,2045,2004,2056,2052,1195
668,1710927168655303628,2057,2058,2057,2058,2051,2056,1195
669,1710927168665295854,2057,2068,2031,2057,2061,2050,1193
670,1710927168675295915,2047,2066,2128,2059,2051,2052,1195
671,1710927168685307999,2053,2070,2045,2049,2048,2056,1197
672,1710927168695293752,2057,2058,2062,2030,2056,2054,1194
673,1710927168705301879,2048,2024,2030,2056,2053,2051,1195
674,1710927168715296290,2065,2071,2061,2048,2051,2052,1196
675,1710927168725295169,2061,2043,2026,2027,2053,2051,1195
676,1710927168735303976,2057,2068,2054,2058,2051,2053,1194
677,1710927168745304297,2060,2075,2044,2056,2068,2056,1193
678,1710927168755299179,2056,2055,2029,2077,2056,2056,1195
679,1710927168765299330,2056,2051,2041,2056,2060,2053,1193
680,1710927168775300454,2049,2040,2026,2042,2050,2057,1194
681,1710927168785301726,2061,2070,2120,2048,2049,2053,1193
682,1710927168795290446,2049,2048,2080,2068,2045,2050,1195
683,1710927168805301448,2060,2068,2077,2063,2054,2051,1195
684,1710927168815301970,2057,2097,2036,2074,2044,2050,1195
685,1710927168825299095,2051,2040,2032,2047,2051,2049,1194
686,1710927168835314675,2047,2050,2056,2057,2058,2056,1196
687,1710927168845298907,2058,2052,2046,2059,2054,2056,1195
688,1710927168855301323,2053,2051,2053,2052,2050,2056,1194
689,1710927168865300883,2062,2088,2139,2064,2058,2053,1198
690,1710927168875298930,2047,2063,2057,2052,2046,2042,1193
691,1710927168885307797,2052,2054,2038,2036,2050,2050,1194
692,1710927168895577209,2054,2091,2052,2051,2053,2053,1196
693,1710927168905303602,2053,2046,2018,2049,2056,2052,1193
694,1710927168915304495,2057,2053,2045,2076,2056,2054,1192
695,1710927168925301950,2052,2053,2049,2045,2053,2050,1194
696,1710927168935297353,2046,2041,2050,2051,2042,2048,1196
697,1710927168945249853,2056,2045,2014,2058,2046,2051,1196
698,1710927168955330718,2047,2029,2044,2058,2048,2053,1194
699,1710927168965313075,2065,2047,2031,2052,2056,2051,1193
700,1710927168975311813,2052,2058,2096,2053,2050,2052,1196
701,1710927168985299942,2060,2072,2048,2040,2053,2054,1194
702,1710927168995298000,2052,2046,2049,2058,2048,2052,1193
703,1710927169005294263,2061,2078,2142,2060,2058,2056,1196
704,1710927169015307840,2050,2067,2008,2059,2044,2052,1194
705,1710927169025296229,2056,2040,2031,2053,2052,2051,1193
706,1710927169035295528,2058,2062,2060,2081,2052,2055,1194
707,1710927169045293636,2064,2090,2109,2067,2058,2056,1193
708,1710927169055325057,2051,2037,2021,2063,2053,2053,1193
709,1710927169065304578,2052,2052,2073,2056,2056,2056,1193
710,1710927169075300943,2056,2060,2081,2076,2054,2056,1194
711,1710927169085311484,2056,2062,2040,2072,2052,2055,1195
712,1710927169095318738,2050,2042,2043,2080,2058,2059,1195
713,1710927169105313188,2047,2033,2040,2062,2050,2054,1194
714,1710927169115311306,2050,2033,2048,2060,2050,2053,1196
715,1710927169125311307,2060,2067,2108,2054,2053,2053,1195
716,1710927169135313412,2056,2055,2056,2076,2056,2056,1195
717,1710927169145324815,2069,2056,2054,2040,2054,2050,1194
718,1710927169155319045,2059,2051,2052,2056,2046,2052,1196
719,1710927169165307664,2056,2046,2074,2056,2061,2050,1194
720,1710927169175304579,2057,2068,2061,2025,2053,2057,1196
721,1710927169185309399,2058,2051,2026,2050,2047,2053,1195
722,1710927169195333737,2056,2052,2056,2017,2054,2049,1194
723,1710927169205329539,2056,2076,2031,2059,2059,2050,1193
724,1710927169215306396,2049,2063,2036,2061,2050,2050,1195
725,1710927169225307119,2053,2071,2124,2041,2053,2052,1194
726,1710927169235304525,2052,2074,2058,2054,2052,2050,1196
727,1710927169245324383,2056,2052,2070,2020,2045,2052,1193
728,1710927169255316148,2053,2050,2052,2065,2053,2052,1196
729,1710927169265311982,2052,2046,2052,2052,2050,2053,1195
730,1710927169275309488,2050,2052,2039,2050,2050,2052,1194
731,1710927169285321141,2045,2036,1983,2052,2058,2043,1193
732,1710927169295385153,2056,2044,2020,2039,2048,2050,1193
733,1710927169305315011,2050,2047,2045,2078,2065,2054,1195
734,1710927169315320653,2062,2071,2066,2056,2052,2052,1196
735,1710927169325311256,2057,2064,2043,2057,2055,2055,1196
736,1710927169335304544,2054,2052,2033,2060,2049,2053,1195
737,1710927169345310336,2050,2047,2024,2060,2056,2052,1196
738,1710927169355331147,2058,2057,2021,2039,2056,2056,1197
739,1710927169365313795,2057,2053,2041,2053,2044,2052,1193
740,1710927169375314036,2056,2047,2052,2058,2040,2049,1194
741,1710927169385311672,2052,2051,2054,2066,2056,2055,1196
742,1710927169395274813,2066,2097,2062,2062,2068,2056,1194
743,1710927169405330731,2066,2089,2151,2061,2049,2052,1194
744,1710927169415314741,2059,2054,2061,2054,2050,2056,1194
745,1710927169425305294,2052,2044,2048,2056,2053,2054,1196
746,1710927169435304153,2058,2067,2064,2068,2056,2056,1194
747,1710927169445304284,2058,2065,2104,2052,2053,2052,1193
748,1710927169455304916,2056,2050,2073,2064,2056,2058,1193
749,1710927169465305688,2061,2062,2028,2056,2058,2051,1195
750,1710927169475305469,2052,2030,2022,2055,2068,2052,1193
751,1710927169485342470,2052,2048,2039,2060,2051,2050,1195
752,1710927169495333374,2054,2052,2081,2061,2052,2053,1196
753,1710927169505329568,2046,2024,2043,2064,2056,2051,1195
754,1710927169515278081,2049,2059,2093,2069,2049,2056,1193
755,1710927169525307988,2050,2041,2039,2054,2054,2051,1196
756,1710927169535305595,2054,2050,2054,2055,2050,2052,1195
757,1710927169545305346,2060,2040,2037,2064,2050,2049,1193
758,1710927169555312790,2056,2054,2061,2074,2060,2053,1196
759,1710927169565314435,2066,2101,2082,2064,2045,2051,1193
760,1710927169575307222,2058,2064,2072,2058,2053,2052,1195
761,1710927169585315228,2044,2046,2040,2037,2043,2048,1194
762,1710927169595335277,2053,2053,2080,2074,2069,2052,1195
763,1710927169605302335,2061,2082,2090,2064,2064,2056,1195
764,1710927169615311483,2059,2088,2194,2082,2057,2057,1195
765,1710927169625307607,2051,2050,2038,2058,2052,2048,1197
766,1710927169635305344,2045,2041,2049,2034,2040,2042,1192
767,1710927169645318039,2057,2058,2078,2057,2059,2056,1195
768,1710927169655305456,2047,2049,2056,2070,2053,2052,1194
769,1710927169665334201,2064,2068,2058,2042,2051,2056,1197
770,1710927169675312722,2051,2046,2043,2051,2056,2050,1193
771,1710927169685318274,2052,2046,2039,2039,2054,2051,1195
772,1710927169695328203,2056,2056,2059,2060,2056,2053,1194
773,1710927169705317434,2052,2051,2053,2074,2053,2054,1194
774,1710927169715301605,2065,2061,2056,2084,2057,2057,1193
775,1710927169725304762,2058,2074,2120,2062,2056,2051,1198
776,1710927169735304863,2056,2025,2044,2072,2057,2060,1195
777,1710927169745316626,2064,2045,2075,2052,2066,2056,1197
778,1710927169755324702,2061,2076,2047,2059,2052,2050,1195
779,1710927169765291520,2067,2068,2044,2064,2068,2052,1192
780,1710927169775303464,2047,2060,2056,2047,2049,2054,1195
781,1710927169785296551,2057,2056,2049,2047,2052,2056,1195
782,1710927169795307744,2056,2046,2044,2078,2053,2052,1194
783,1710927169805302415,2048,2049,2082,2066,2056,2046,1193
784,1710927169815295923,2060,2068,2040,2041,2049,2054,1194
785,1710927169825296224,2047,2041,2020,2052,2054,2052,1194
786,1710927169835294212,2056,2066,2074,2051,2050,2056,1192
787,1710927169845323268,2060,2065,2036,2068,2052,2050,1194
788,1710927169855307399,2063,2060,2047,2055,2046,2053,1195
789,1710927169865268466,2057,2046,2030,2010,2050,2057,1194
790,1710927169875285589,2052,2044,2042,2052,2044,2054,1196
791,1710927169885299537,2066,2065,2052,2067,2058,2056,1194
792,1710927169895296732,2060,2072,2134,2055,2053,2056,1196
793,1710927169905358551,2062,2046,2035,2031,2040,2053,1193
794,1710927169915302214,2051,2080,2041,2064,2051,2055,1195
795,1710927169925295653,2052,2048,2052,2056,2044,2046,1191
796,1710927169935293500,2053,2044,2045,2058,2056,2055,1195
797,1710927169945294152,2047,2042,2040,2056,2047,2050,1195
798,1710927169955316395,2054,2038,2047,2029,2053,2050,1197
799,1710927169965304143,2054,2040,2040,2066,2055,2051,1194
800,1710927169975286039,2054,2056,2065,2007,2054,2056,1195
801,1710927169985300448,2062,2041,2036,2049,2053,2056,1195
802,1710927169995325948,2057,2065,2116,2057,2046,2056,1196
803,1710927170005300209,2052,2045,2028,2048,2058,2051,1196
804,1710927170015299910,2060,2072,2058,2066,2053,2054,1194
805,1710927170025302726,2056,2054,2041,2058,2057,2056,1195
806,1710927170035295423,2052,2024,2037,2084,2061,2057,1195
807,1710927170045298730,2063,2045,2054,2052,2045,2047,1192
808,1710927170055293771,2044,2037,2024,2052,2049,2054,1194
809,1710927170065323930,2050,2043,2004,2064,2064,2050,1195
810,1710927170075301659,2059,2065,2047,2059,2064,2054,1196
811,1710927170085299716,2053,2044,2025,2047,2048,2054,1196
812,1710927170095309185,2052,2054,2043,2044,2056,2053,1195
813,1710927170105306471,2061,2045,2046,2065,2057,2056,1195
814,1710927170115312533,2054,2048,2057,2029,2050,2052,1194
815,1710927170125303587,2052,2056,2133,2067,2053,2053,1194
816,1710927170135295663,2052,2042,2022,2040,2046,2052,1195
817,1710927170145296195,2057,2068,2061,2036,2053,2052,1197
818,1710927170155295575,2049,2046,2045,2058,2047,2052,1195
819,1710927170165305264,2054,2054,2045,2074,2056,2052,1192
820,1710927170175302430,2049,2094,2068,2068,2057,2053,1194
821,1710927170185316156,2046,2043,2047,2057,2052,2044,1192
822,1710927170195297632,2052,2049,2030,2053,2051,2052,1193
823,1710927170205298114,2052,2040,2039,2056,2041,2053,1194
824,1710927170215329003,2058,2050,2047,2035,2053,2056,1195
825,1710927170225303887,2058,2052,2028,2019,2045,2054,1197
826,1710927170235298488,2056,2044,2045,2067,2054,2057,1194
827,1710927170245303719,2045,2047,2037,2056,2061,2052,1196
828,1710927170255319419,2056,2047,2057,2052,2052,2056,1193
829,1710927170265303830,2056,2045,2032,2055,2053,2051,1196
830,1710927170275301918,2061,2068,2061,2026,2055,2058,1195
831,1710927170285330824,2052,2043,2043,2052,2051,2051,1195
832,1710927170295310015,2052,2050,2057,2054,2052,2053,1195
833,1710927170305307782,2058,2056,2068,2030,2047,2045,1192
834,1710927170315344322,2056,2058,2057,2049,2049,2056,1195
835,1710927170325325427,2041,2040,2072,2036,2047,2054,1197
836,1710927170335324516,2050,2044,2025,2062,2061,2052,1196
837,1710927170345317273,2066,2063,2066,2064,2053,2056,1193
838,1710927170355309269,2058,2062,2067,2058,2054,2058,1195
839,1710927170365310743,2057,2082,2069,2080,2058,2056,1195
840,1710927170375312237,2049,2048,2076,2065,2048,2053,1193
841,1710927170385314662,2064,2075,2121,2059,2055,2053,1194
842,1710927170395308662,2049,2050,2021,2072,2057,2054,1194
843,1710927170405310516,2061,2088,2089,2052,2048,2055,1195
844,1710927170415310036,2054,2047,2045,2031,2055,2056,1195
845,1710927170425336217,2049,2053,2040,2045,2051,2046,1191
846,1710927170435314707,2054,2067,2061,2058,2070,2054,1194
847,1710927170445311452,2058,2055,2047,2067,2056,2056,1192
848,1710927170455311513,2053,2058,2079,2062,2051,2052,1195
849,1710927170465310502,2061,2058,2036,2061,2051,2049,1195
850,1710927170475310894,2051,2062,2059,2029,2046,2053,1196
851,1710927170485313880,2052,2053,2101,2072,2053,2048,1196
852,1710927170495313721,2058,2059,2086,2042,2051,2053,1195
853,1710927170505314904,2054,2047,2042,2021,2054,2056,1196
854,1710927170515327719,2049,2042,2047,2061,2047,2051,1194
855,1710927170525311079,2046,2051,2051,2042,2066,2050,1193
856,1710927170535307623,2056,2047,2036,2071,2056,2057,1196
857,1710927170545311462,2052,2061,2045,2051,2052,2051,1195
858,1710927170555311693,2053,2063,2058,2049,2056,2052,1194
859,1710927170565312545,2047,2042,2034,2066,2053,2048,1195
860,1710927170575315722,2044,2021,2027,2061,2050,2049,1194
861,1710927170585288993,2064,2068,2096,2052,2055,2053,1194
862,1710927170595312337,2053,2049,2049,2062,2057,2056,1195
863,1710927170605314022,2053,2064,2044,2056,2053,2050,1194
864,1710927170615297652,2054,2052,2081,2028,2052,2050,1195
865,1710927170625326337,2056,2060,2088,2046,2057,2052,1195
866,1710927170635296141,2056,2068,2080,2029,2056,2056,1195
867,1710927170645297825,2048,2041,2044,2064,2061,2051,1195
868,1710927170655296914,2054,2053,2054,2045,2058,2056,1193
869,1710927170665297657,2050,2052,2040,2036,2046,2054,1194
870,1710927170675295944,2061,2088,2078,2064,2061,2053,1196
871,1710927170685321403,2055,2038,2040,2053,2051,2051,1193
872,1710927170695293101,2056,2054,2074,2064,2062,2053,1197
873,1710927170705298993,2064,2062,2040,2057,2051,2053,1194
874,1710927170715294405,2042,2049,2048,2006,2048,2048,1195
875,1710927170725269228,2051,2062,2034,2042,2048,2052,1195
876,1710927170735352687,2056,2077,2055,2057,2052,2056,1196
877,1710927170745300139,2044,2037,2032,2065,2047,2053,1193
878,1710927170755299648,2058,2065,2062,2054,2049,2049,1194
879,1710927170765300241,2053,2051,2052,2059,2046,2049,1192
880,1710927170775298168,2055,2052,2054,2045,2048,2051,1193
881,1710927170785299892,2067,2112,2118,2040,2050,2049,1195
882,1710927170795306585,2042,2041,2057,2060,2045,2050,1195
883,1710927170805305705,2041,2024,2053,2046,2055,2047,1194
884,1710927170815297821,2068,2070,2040,2036,2053,2056,1194
885,1710927170825295127,2048,2041,2037,2053,2057,2053,1197
886,1710927170835326297,2056,2068,2076,2063,2061,2058,1196
887,1710927170845263498,2056,2056,2026,2050,2053,2052,1195
888,1710927170855299618,2064,2072,2059,2060,2052,2054,1194
889,1710927170865282837,2048,2025,2050,2068,2052,2053,1195
890,1710927170875301794,2066,2040,2094,2061,2053,2058,1196
891,1710927170885308307,2049,2037,2025,2040,2056,2058,1196
892,1710927170895301796,2056,2068,2058,2055,2052,2056,1196
893,1710927170905294673,2047,2046,2046,2042,2044,2046,1192
894,1710927170915284115,2056,2068,2058,2053,2056,2056,1194
895,1710927170925299033,2047,2029,2082,2072,2056,2048,1197
896,1710927170935299445,2064,2040,2025,2057,2052,2056,1195
897,1710927170945298414,2068,2081,2046,2064,2056,2056,1195
898,1710927170955301431,2050,2075,2034,2056,2049,2053,1195
899,1710927170965294819,2044,2033,2053,2055,2048,2049,1193
900,1710927170975273509,2048,2089,2050,2056,2049,2051,1195
901,1710927170985300071,2050,2028,2050,2060,2067,2058,1195
902,1710927170995290785,2065,2062,2060,2065,2060,2059,1196
903,1710927171005291667,2050,2054,2064,2062,2072,2056,1194
904,1710927171015297459,2052,2056,2053,2037,2045,2052,1194
905,1710927171025293562,2044,2036,2048,2053,2055,2049,1194
906,1710927171035293062,2053,2072,2108,2064,2052,2050,1194
907,1710927171045297962,2050,2048,2075,2061,2048,2054,1196
908,1710927171055264380,2059,2055,2031,2056,2065,2053,1195
909,1710927171065296582,2057,2047,2015,2056,2049,2047,1192
910,1710927171075298306,2053,2052,2041,2060,2051,2050,1194
911,1710927171085296935,2053,2053,2051,2033,2052,2049,1194
912,1710927171095297647,2049,2064,2053,2064,2062,2054,1197
913,1710927171105301244,2049,2031,2024,2060,2051,2052,1196
914,1710927171115293230,2053,2060,2053,2084,2060,2054,1195
915,1710927171125298010,2047,2015,2038,2052,2057,2053,1195
916,1710927171135293582,2064,2072,2092,2052,2063,2059,1194
917,1710927171145293524,2066,2075,2104,2055,2050,2052,1197
918,1710927171155306069,2046,2051,2048,2044,2053,2052,1195
919,1710927171165299838,2047,2040,2040,2049,2044,2051,1194
920,1710927171175293146,2062,2056,2041,2057,2052,2048,1194
921,1710927171185303576,2056,2044,2024,2065,2050,2048,1197
922,1710927171195298788,2061,2117,2069,2058,2055,2054,1195
923,1710927171205306824,2049,2036,2037,2060,2056,2051,1196
924,1710927171215297187,2049,2056,2069,2047,2055,2056,1193
925,1710927171225302087,2052,2045,2041,2068,2061,2054,1194
926,1710927171235300676,2056,2053,2122,2013,2043,2047,1192
927,1710927171245295456,2065,2074,2078,2065,2062,2058,1196
928,1710927171255300738,2046,2024,2044,2052,2045,2047,1192
929,1710927171265299446,2057,2051,2045,2053,2053,2055,1196
930,1710927171275256135,2056,2037,2042,2064,2054,2055,1194
931,1710927171285301091,2053,2052,2051,2061,2072,2052,1194
932,1710927171295258591,2054,2077,2036,2053,2042,2053,1194
933,1710927171305320329,2053,2052,2058,2063,2045,2050,1197
934,1710927171315291065,2056,2052,2046,2042,2056,2057,1195
935,1710927171325290454,2059,2056,2040,2052,2049,2053,1196
936,1710927171335289874,2049,2047,2047,2008,2052,2056,1194
937,1710927171345290326,2052,2051,2054,2046,2053,2052,1194
938,1710927171355290648,2058,2064,2050,2063,2048,2049,1193
939,1710927171365303232,2052,2050,2033,2050,2050,2053,1193
940,1710927171375302321,2049,2045,2045,2056,2050,2048,1194
941,1710927171385301922,2056,2048,2020,2070,2052,2052,1197
942,1710927171395329806,2049,2058,2063,2072,2056,2052,1194
943,1710927171405300501,2053,2058,2057,2052,2054,2050,1195
944,1710927171415300582,2072,2077,2088,2059,2052,2056,1194
945,1710927171425298950,2046,2025,2083,2064,2058,2056,1196
946,1710927171435295344,2062,2101,2065,2029,2048,2051,1194
947,1710927171445297509,2057,2037,2024,2052,2052,2049,1195
948,1710927171455296718,2085,2116,2053,2063,2061,2056,1193
949,1710927171465298363,2064,2110,2052,2056,2047,2054,1197
950,1710927171475295418,2037,2033,2037,2064,2051,2050,1195
951,1710927171485321708,2045,2008,2012,2052,2050,2045,1193
952,1710927171495300149,2060,2056,2052,2076,2058,2055,1195
953,1710927171505313054,2053,2052,2065,2075,2072,2060,1195
954,1710927171515300601,2052,2024,2038,2046,2053,2054,1195
955,1710927171525298358,2056,2039,2047,2056,2057,2050,1195
956,1710927171535296956,2052,2055,2052,2049,2052,2047,1195
957,1710927171545299292,2054,2088,2072,2061,2053,2052,1196
958,1710927171555291689,2053,2052,2060,2072,2053,2054,1196
959,1710927171565297650,2047,2050,2045,2047,2044,2047,1190
960,1710927171575296439,2058,2066,2049,2054,2064,2055,1195
961,1710927171585301119,2052,2063,2057,2013,2042,2045,1192
962,1710927171595300008,2066,2105,2065,2057,2051,2049,1195
963,1710927171605296702,2054,2057,2021,2061,2053,2052,1198
964,1710927171615315829,2057,2080,2108,2075,2043,2057,1193
965,1710927171625292827,2061,2047,2039,2068,2052,2054,1193
966,1710927171635292498,2040,2041,2047,2058,2040,2048,1194
967,1710927171645296826,2059,2068,2093,2069,2056,2056,1194
968,1710927171655296006,2056,2074,2045,2060,2062,2051,1195
969,1710927171665293322,2046,2046,2050,2075,2052,2056,1196
970,1710927171675299414,2043,2059,2061,2059,2047,2046,1192
971,1710927171685300387,2065,2067,2112,2063,2052,2054,1197
972,1710927171695302281,2057,2072,2032,2057,2050,2052,1195
973,1710927171705301982,2058,2056,2058,2051,2045,2049,1194
974,1710927171715302043,2049,2038,2032,2067,2050,2050,1196
975,1710927171725305901,2056,2059,2064,2044,2051,2053,1194
976,1710927171735301313,2057,2094,2061,2052,2048,2053,1193
977,1710927171745301675,2051,2057,2052,2026,2056,2056,1193
978,1710927171755301626,2059,2065,2061,2058,2057,2056,1193
979,1710927171765304392,2049,2044,2045,2056,2054,2052,1192
980,1710927171775304703,2054,2044,2050,2040,2052,2050,1195
981,1710927171785299645,2057,2048,2056,2060,2056,2060,1194
982,1710927171795310255,2060,2085,2065,2065,2061,2064,1193
983,1710927171805308493,2052,2059,2065,2056,2052,2052,1194
984,1710927171815306791,2051,2031,2053,2052,2051,2048,1196
985,1710927171825302434,2052,2054,2062,2065,2057,2059,1193
986,1710927171835301823,2062,2061,2076,2064,2057,2054,1193
987,1710927171845301904,2056,2052,2044,2047,2052,2052,1198
988,1710927171855305722,2067,2112,2053,2056,2051,2051,1196
989,1710927171865305584,2049,2052,2056,2059,2054,2052,1195
990,1710927171875325151,2057,2050,2044,2012,2049,2057,1195
991,1710927171885305786,2056,2053,2050,2050,2050,2050,1196
992,1710927171895307019,2080,2063,2056,2046,2056,2060,1195
993,1710927171905300898,2018,2034,2058,2051,2049,2047,1192
994,1710927171915762333,2034,2072,2070,2057,2056,2050,1195
995,1710927171925317592,2053,2053,2076,2052,2054,2055,1193
996,1710927171935326860,2059,2050,2061,2070,2056,2056,1195
997,1710927171945308086,2062,2056,2052,2067,2048,2050,1196
998,1710927171955305351,2046,2060,2047,2047,2052,2054,1195
999,1710927171965305923,2041,2045,2045,2061,2054,2053,1194
1000,1710927171975307848,2066,2121,2089,2054,2056,2053,1195
1001,1710927171985324330,2049,2034,2022,2044,2050,2046,1193
1002,1710927171995306317,2059,2056,2060,2076,2056,2057,1193
1003,1710927172005310806,2038,2057,2054,2054,2052,2042,1190
1004,1710927172015294296,2065,2050,2036,2056,2051,2053,1194
1005,1710927172025310197,2033,2028,2042,2033,2048,2046,1191
1006,1710927172035294788,2037,2038,2043,2061,2056,2051,1195
1007,1710927172045309908,2054,2039,2063,2015,2045,2056,1196
1008,1710927172055315260,2053,2046,2048,2040,2053,2054,1194
1009,1710927172065295864,2053,2040,2047,2041,2048,2053,1196
1010,1710927172075296135,2056,2062,2097,2094,2056,2053,1195
1011,1710927172085318949,2049,2029,2039,2047,2046,2052,1194
1012,1710927172095297489,2037,2036,2049,2038,2047,2049,1194
1013,1710927172105294955,2061,2029,2044,2060,2060,2059,1195
1014,1710927172115300006,2097,2057,2048,2047,2059,2059,1193
1015,1710927172125296831,2046,2055,2037,2060,2047,2046,1194
1016,1710927172135298796,2056,2061,2045,2066,2055,2053,1194
1017,1710927172145298205,2056,2056,2064,2064,2057,2052,1194
1018,1710927172155296443,2056,2053,2048,2042,2055,2056,1195
1019,1710927172165294240,2054,2064,2096,2064,2056,2056,1193
1020,1710927172175294421,2058,2055,2058,2057,2054,2048,1197
1021,1710927172185299271,2044,2056,2046,2038,2042,2042,1192
1022,1710927172195307788,2057,2059,2030,2073,2062,2053,1196
1023,1710927172205348216,2055,2053,2032,2024,2050,2052,1195
1024,1710927172215311837,2052,2045,2043,2065,2049,2056,1193
1025,1710927172225309464,2055,2057,2071,2030,2042,2060,1194
1026,1710927172235313212,2054,2060,2067,2050,2057,2052,1194
1027,1710927172245311370,2047,2028,2036,2057,2052,2049,1194
1028,1710927172255311150,2060,2063,2048,2064,2053,2052,1195
1029,1710927172265310550,2061,2045,2052,2063,2052,2048,1194
1030,1710927172275320309,2060,2038,2047,2052,2055,2053,1194
1031,1710927172285326482,2040,2038,2053,2049,2046,2044,1193
1032,1710927172295302837,2060,2072,2078,2052,2061,2056,1197
1033,1710927172305296837,2045,2034,2017,2052,2049,2047,1193
1034,1710927172315301017,2052,2047,2058,2060,2053,2053,1196
1035,1710927172325300166,2075,2069,2056,2074,2059,2056,1194
1036,1710927172335316037,2051,2044,2045,2028,2053,2056,1197
1037,1710927172345313222,2058,2059,2086,2065,2052,2052,1197
1038,1710927172355299687,2070,2064,2054,2057,2055,2056,1195
1039,1710927172365356255,2053,2042,2040,2053,2056,2056,1197
1040,1710927172375300490,2059,2052,2027,2058,2056,2054,1195
1041,1710927172385305772,2049,2039,2008,2033,2051,2044,1192
1042,1710927172395310392,2053,2056,2054,2061,2057,2051,1195
1043,1710927172405292108,2051,2049,2041,2073,2053,2052,1194
1044,1710927172415299733,2049,2044,2047,2042,2048,2050,1196
1045,1710927172425295646,2064,2040,2040,2066,2054,2053,1196
1046,1710927172435260901,2058,2052,2051,2060,2049,2047,1194
1047,1710927172445298303,2062,2084,2064,2064,2053,2053,1196
1048,1710927172455290489,2049,2036,2045,2058,2053,2053,1196
1049,1710927172465288777,2049,2040,2058,2072,2056,2055,1196
1050,1710927172475290151,2056,2052,2057,2071,2047,2049,1194
1051,1710927172485314668,2052,2050,2053,2061,2053,2052,1196
1052,1710927172495287568,2045,2052,2051,2050,2046,2047,1192
1053,1710927172505296475,2061,2090,2072,2039,2064,2056,1195
1054,1710927172515289353,2056,2056,2046,2066,2055,2051,1196
1055,1710927172525301857,2070,2069,2058,2054,2049,2051,1195
1056,1710927172535296368,2064,2082,2134,2054,2057,2054,1195
1057,1710927172545299485,2056,2059,2052,2060,2047,2052,1196
1058,1710927172555304004,2062,2060,2053,2064,2056,2060,1195
1059,1710927172565302482,2058,2045,2056,2052,2047,2058,1193
1060,1710927172575297815,2061,2060,2092,2030,2059,2064,1194
1061,1710927172585300050,2053,2060,2020,2053,2050,2061,1194
1062,1710927172595308486,2052,2047,2092,2041,2045,2045,1194
1063,1710927172605291014,2059,2038,2028,2048,2049,2060,1194
1064,1710927172615308017,2040,2030,2004,2058,2044,2046,1192
1065,1710927172625295394,2064,2088,2127,2033,2048,2056,1195
1066,1710927172635294914,2064,2068,2047,2059,2056,2054,1195
1067,1710927172645300937,2064,2070,2098,2053,2052,2053,1193
1068,1710927172655295457,2047,2041,2035,2064,2054,2053,1195
1069,1710927172665339281,2053,2059,2065,2058,2050,2052,1195
1070,1710927172675295169,2061,2060,2050,2036,2058,2056,1197
1071,1710927172685338842,2057,2091,2112,2071,2058,2052,1194
1072,1710927172695338532,2048,2034,2016,2026,2044,2048,1193
1073,1710927172705288619,2052,2043,2002,2050,2049,2056,1196
1074,1710927172715294651,2056,2043,2059,2052,2047,2056,1195
1075,1710927172725294462,2047,2032,2037,2047,2044,2048,1196
1076,1710927172735291918,2056,2047,2077,2070,2057,2054,1195
1077,1710927172745334088,2042,2043,2047,2021,2039,2048,1196
1078,1710927172755338418,2061,2048,2052,2049,2057,2056,1195
1079,1710927172765335463,2058,2029,2056,2048,2055,2056,1195
1080,1710927172775338750,2057,2051,2068,2027,2054,2056,1195
1081,1710927172785338891,2046,2037,2025,2050,2050,2054,1197
1082,1710927172795268950,2069,2084,2100,2053,2051,2052,1195
1083,1710927172805334996,2060,2056,2036,2062,2056,2058,1197
1084,1710927172815330307,2051,2056,2037,2052,2053,2052,1195
1085,1710927172825330429,2063,2045,2028,2056,2054,2049,1195
1086,1710927172835330581,2045,2029,2077,2051,2056,2056,1195
1087,1710927172845327946,2047,2018,2038,2060,2052,2056,1193
1088,1710927172855332195,2048,2052,2038,2040,2046,2049,1195
1089,1710927172865329100,2056,2061,2132,2068,2043,2052,1197
1090,1710927172875328059,2056,2047,2046,2059,2057,2052,1195
1091,1710927172885335083,2053,2042,2052,2058,2047,2053,1199
1092,1710927172895334443,2055,2045,2034,2056,2044,2048,1195
1093,1710927172905340095,2060,2057,2074,2032,2061,2056,1194
1094,1710927172915330708,2065,2058,2052,2040,2053,2050,1194
1095,1710927172925327342,2054,2053,2040,2067,2057,2054,1195
1096,1710927172935337493,2050,2053,2015,2068,2054,2050,1194
1097,1710927172945328667,2048,2077,2066,2053,2056,2054,1195
1098,1710927172955335230,2056,2051,2053,2062,2053,2052,1195
1099,1710927172965330712,2049,2037,2036,2058,2052,2050,1192
1100,1710927172975323590,2064,2042,2044,2056,2055,2051,1194
1101,1710927172985326286,2058,2050,2037,2052,2046,2053,1194
1102,1710927172995327239,2045,2045,2024,2058,2053,2053,1197
1103,1710927173005308754,2057,2064,2033,2060,2043,2050,1194
1104,1710927173015324816,2058,2060,2064,2068,2058,2057,1195
1105,1710927173025320719,2047,2041,2033,2056,2048,2049,1194
1106,1710927173035322543,2060,2061,2057,2064,2058,2057,1195
1107,1710927173045322765,2041,2012,2015,2045,2048,2048,1193
1108,1710927173055321844,2071,2105,2076,2077,2060,2056,1195
1109,1710927173065316935,2041,2036,2032,2051,2062,2051,1195
1110,1710927173075312969,2044,2038,2029,2064,2054,2049,1194
1111,1710927173085315475,2060,2045,2037,2045,2053,2056,1196
1112,1710927173095317339,2059,2079,2121,2047,2060,2056,1196
1113,1710927173105316508,2056,2057,2053,2022,2052,2053,1196
1114,1710927173115312722,2063,2095,2112,2047,2072,2056,1195
1115,1710927173125315208,2057,2025,2034,2056,2050,2056,1194
1116,1710927173135318645,2050,2008,2001,2052,2069,2057,1196
1117,1710927173145319077,2075,2074,2066,2069,2069,2058,1194
1118,1710927173155319408,2053,2044,2027,2067,2051,2052,1193
1119,1710927173165318217,2052,2047,2043,2053,2048,2049,1193
1120,1710927173175322906,2067,2092,2109,2053,2056,2061,1194
1121,1710927173185324090,2065,2076,2072,2058,2054,2057,1194
1122,1710927173195325804,2059,2042,2041,2045,2054,2056,1194
1123,1710927173205335934,2054,2047,2041,2056,2046,2051,1194
1124,1710927173215326507,2056,2056,2031,2052,2052,2056,1196
1125,1710927173225321489,2062,2068,2077,2071,2054,2058,1194
1126,1710927173235325527,2049,2053,2026,2069,2057,2054,1194
1127,1710927173245313195,2056,2064,2025,2051,2064,2056,1196
1128,1710927173255313767,2060,2068,2045,2040,2070,2056,1196
1129,1710927173265311373,2051,2094,2071,2069,2052,2052,1195
1130,1710927173275312356,2048,2035,2023,2076,2056,2053,1195
1131,1710927173285312567,2062,2090,2070,2088,2064,2056,1196
1132,1710927173295309322,2052,2052,2032,2034,2049,2052,1196
1133,1710927173305308041,2052,2043,2054,2057,2053,2053,1194
1134,1710927173315317509,2064,2052,2040,2068,2056,2053,1196
1135,1710927173325307852,2051,2046,2024,2041,2046,2050,1197
1136,1710927173335306260,2040,1992,2004,2061,2052,2053,1195
1137,1710927173345306892,2063,2056,2046,2055,2053,2052,1196
1138,1710927173355308345,2053,2040,2034,2056,2057,2054,1197
1139,1710927173365311853,2049,2027,2045,2065,2060,2055,1194
1140,1710927173375264625,2050,2021,2019,2070,2056,2055,1194
1141,1710927173385307998,2052,2042,2036,2056,2042,2051,1196
1142,1710927173395307548,2051,2056,2020,2074,2067,2056,1196
1143,1710927173405307018,2061,2082,2066,2072,2062,2058,1193
1144,1710927173415305987,2057,2056,2040,2069,2057,2056,1193
1145,1710927173425311628,2054,2073,2112,2077,2053,2058,1194
1146,1710927173435311068,2056,2036,2020,2068,2056,2056,1194
1147,1710927173445315969,2060,2047,2058,2052,2047,2051,1193
1148,1710927173455305739,2048,2050,2033,2046,2051,2048,1194
1149,1710927173465307604,2068,2065,2040,2064,2050,2053,1195
1150,1710927173475309820,2059,2050,2053,2051,2045,2053,1193
1151,1710927173485245759,2047,2051,2044,2017,2028,2049,1196
1152,1710927173495308799,2051,2060,2051,2012,2045,2051,1196
1153,1710927173505301466,2050,2046,2050,2062,2060,2052,1196
1154,1710927173515329009,2064,2072,2078,2052,2056,2053,1195
1155,1710927173525304854,2066,2072,2081,2061,2054,2053,1196
1156,1710927173535307059,2056,2045,2068,2048,2049,2053,1196
1157,1710927173545310938,2056,2050,2087,2040,2054,2052,1195
1158,1710927173555308264,2056,2049,2033,2043,2042,2051,1194
1159,1710927173565308916,2054,2069,2064,2060,2042,2053,1196
1160,1710927173575317964,2052,2056,2042,2062,2050,2053,1195
1161,1710927173585312815,2052,2068,2056,2062,2056,2054,1195
1162,1710927173595289802,2056,2036,1998,2053,2053,2052,1196
1163,1710927173605316754,2044,2014,2047,2049,2052,2050,1195
1164,1710927173615277761,2061,2058,2052,2045,2051,2050,1195
1165,1710927173625325463,2057,2064,2092,2032,2056,2056,1193
1166,1710927173635321386,2061,2045,2035,2048,2053,2052,1196
1167,1710927173645310877,2054,2049,2069,2052,2056,2054,1194
1168,1710927173655308784,2061,2060,2028,2028,2052,2051,1196
1169,1710927173665314907,2053,2048,2058,2068,2053,2056,1197
1170,1710927173675312653,2051,2059,2053,2059,2043,2050,1195
1171,1710927173685310901,2052,2023,2040,2034,2055,2056,1196
1172,1710927173695311683,2045,2014,2024,2052,2046,2049,1194
1173,1710927173705312345,2058,2047,2074,2051,2053,2057,1195
1174,1710927173715289132,2068,2065,2053,2059,2053,2055,1196
1175,1710927173725314111,2050,2058,2050,2066,2056,2054,1194
1176,1710927173735310455,2054,2039,2074,2061,2052,2054,1195
1177,1710927173745308712,2056,2044,2045,2068,2073,2049,1195
1178,1710927173755308783,2052,2044,2024,2042,2052,2054,1195
1179,1710927173765312201,2055,2068,2040,2058,2052,2051,1195
1180,1710927173775312392,2053,2051,2042,2017,2056,2052,1194
1181,1710927173785312032,2050,2039,2029,2058,2051,2052,1196
1182,1710927173795309879,2057,2056,2046,2028,2049,2053,1194
1183,1710927173805308246,2058,2062,2104,2025,2056,2056,1194
1184,1710927173815305903,2050,2046,2128,2070,2054,2052,1196
1185,1710927173825308739,2061,2069,2037,2072,2051,2056,1196
1186,1710927173835306667,2040,2034,2039,2057,2056,2044,1194
1187,1710927173845249258,2056,2052,2060,2030,2053,2056,1195
1188,1710927173855310656,2073,2061,2053,2084,2062,2056,1193
1189,1710927173865268106,2052,2053,2048,2053,2047,2052,1193
1190,1710927173875268478,2056,2050,2044,2039,2056,2056,1195
1191,1710927173885314395,2056,2052,2058,2055,2051,2056,1196
1192,1710927173895309507,2060,2060,2056,2067,2076,2056,1198
1193,1710927173905309488,2061,2080,2053,2047,2045,2052,1195
1194,1710927173915320109,2043,2029,2003,2043,2052,2052,1195
1195,1710927173925307636,2058,2053,2058,2057,2052,2056,1196
1196,1710927173935307608,2035,2045,2037,2049,2055,2044,1192
1197,1710927173945335120,2053,2044,2052,2064,2054,2054,1196
1198,1710927173955307459,2058,2067,2120,2052,2059,2057,1194
1199,1710927173965307590,2060,2036,2037,2064,2047,2051,1194
1200,1710927173975333300,2050,2044,2045,2044,2050,2052,1196
1201,1710927173985333741,2064,2049,2045,2044,2060,2056,1197
1202,1710927173995333111,2052,2043,2030,2048,2058,2052,1196
1203,1710927174005324776,2052,2042,2036,2058,2051,2053,1196
1204,1710927174015330739,2053,2053,2031,2058,2057,2048,1196
1205,1710927174025330018,2058,2066,2074,2041,2049,2057,1195
1206,1710927174035329678,2051,2050,2058,2092,2061,2050,1196
1207,1710927174045327645,2056,2058,2081,2056,2062,2054,1192
1208,1710927174055332726,2052,2017,2033,2063,2053,2058,1193
1209,1710927174065334450,2056,2046,2047,2032,2056,2057,1196
1210,1710927174075328299,2056,2077,2074,2072,2058,2053,1193
1211,1710927174085320625,2058,2056,2050,2045,2046,2054,1197
1212,1710927174095327710,2057,2072,2061,2050,2054,2052,1194
1213,1710927174105322982,2044,2029,2056,2061,2068,2053,1194
1214,1710927174115325718,2051,2036,2032,2005,2048,2056,1195
1215,1710927174125323565,2066,2093,2206,2075,2060,2056,1193
1216,1710927174135323616,2060,2058,2060,2058,2056,2055,1195
1217,1710927174145323998,2048,2047,2046,2060,2056,2052,1196
1218,1710927174155319039,2058,2062,2061,2057,2056,2054,1194
1219,1710927174165321895,2056,2064,2056,2066,2059,2049,1192
1220,1710927174175319802,2056,2044,2041,2029,2057,2053,1196
1221,1710927174185323620,2057,2043,2038,2065,2056,2052,1195
1222,1710927174195328510,2060,2050,2052,2050,2061,2048,1195
1223,1710927174205313483,2061,2053,2098,2024,2048,2054,1194
1224,1710927174215320417,2052,2044,2006,2073,2058,2054,1195
1225,1710927174225320087,2058,2051,2013,2060,2052,2052,1194
1226,1710927174235317844,2048,2036,2048,2059,2056,2056,1194
1227,1710927174245320700,2064,2046,2057,2027,2044,2054,1194
1228,1710927174255321593,2060,2058,2050,2051,2049,2051,1193
1229,1710927174265319560,2056,2076,2074,2027,2053,2052,1196
1230,1710927174275318278,2057,2060,2051,2057,2077,2058,1197
1231,1710927174285318079,2056,2040,2070,2061,2053,2053,1195
1232,1710927174295319993,2056,2054,2062,2045,2064,2058,1194
1233,1710927174305257125,2063,2084,2079,2064,2054,2054,1193
1234,1710927174315324464,2056,2056,2069,2066,2063,2056,1196
1235,1710927174325320457,2059,2058,2069,2066,2054,2056,1195
1236,1710927174335318044,2060,2054,2050,2060,2050,2053,1195
1237,1710927174345277087,2059,2062,2060,2052,2043,2052,1197
1238,1710927174355321762,2057,2060,2064,2049,2058,2054,1196
1239,1710927174365323366,2056,2069,2058,2057,2054,2054,1194
1240,1710927174375323647,2056,2040,2033,2058,2052,2050,1196
1241,1710927174385323818,2060,2078,2144,2046,2056,2058,1195
1242,1710927174395323058,2057,2057,2038,2068,2065,2056,1196
1243,1710927174405322608,2041,2045,2049,2050,2044,2047,1194
1244,1710927174415306289,2056,2053,2037,2060,2055,2051,1195
1245,1710927174425325015,2058,2052,2050,2060,2058,2052,1194
1246,1710927174435307382,2056,2051,2050,2054,2060,2051,1196
1247,1710927174445326549,2060,2065,2102,2056,2051,2059,1194
1248,1710927174455263551,2056,2049,2052,2061,2049,2052,1193
1249,1710927174465308777,2051,2056,2056,2045,2048,2050,1194
1250,1710927174475309139,2056,2049,2035,2072,2060,2053,1195
1251,1710927174485327775,2050,2097,2089,2044,2046,2045,1193
1252,1710927174495327355,2057,2060,2083,2061,2053,2053,1193
1253,1710927174505307539,2049,2058,2091,2061,2052,2048,1196
1254,1710927174515259048,2058,2052,2067,2014,2060,2053,1196
1255,1710927174525330584,2047,2046,2028,2072,2060,2056,1197
1256,1710927174535320045,2054,2059,2029,2048,2056,2053,1196
1257,1710927174545345695,2051,2042,2044,2053,2048,2052,1196
1258,1710927174555264392,2057,2057,2046,2069,2056,2054,1194
1259,1710927174565330327,2056,2054,2072,2057,2052,2052,1193
1260,1710927174575297797,2051,2041,2024,2022,2055,2054,1194
1261,1710927174585299861,2057,2056,2051,2060,2055,2058,1196
1262,1710927174595310252,2061,2051,2045,2051,2052,2052,1193
1263,1710927174606603052,2054,2033,2072,2058,2048,2052,1193
1264,1710927174615310835,2058,2050,2044,2076,2056,2049,1194
1265,1710927174625298693,2056,2047,2037,2072,2053,2052,1194
1266,1710927174635296810,2052,2048,2074,2060,2061,2052,1194
1267,1710927174645300769,2041,2041,2046,2074,2069,2047,1189
1268,1710927174655302042,2060,2048,2040,2072,2051,2055,1194
1269,1710927174665302173,2058,2061,2051,2072,2056,2059,1195
1270,1710927174675333173,2057,2052,2034,2054,2055,2049,1195
1271,1710927174685301463,2056,2052,2057,2042,2052,2053,1196
1272,1710927174695309319,2053,2049,2038,2053,2047,2047,1192
1273,1710927174705307968,2053,2056,2056,2054,2053,2052,1195
1274,1710927174715307328,2049,2051,2036,2050,2045,2050,1195
1275,1710927174725293963,2056,2061,2105,2056,2046,2052,1195
1276,1710927174735219253,2058,2056,2047,2065,2052,2047,1192
1277,1710927174745255151,2052,2052,2052,2069,2052,2054,1196
1278,1710927174755320917,2051,2049,2033,2055,2051,2053,1195
1279,1710927174765292133,2051,2046,2046,2049,2050,2053,1194
1280,1710927174775308866,2054,2046,2032,2053,2052,2054,1194
1281,1710927174785303686,2052,2065,2097,2061,2057,2056,1195
1282,1710927174795306493,2044,2041,2042,2068,2050,2049,1194
1283,1710927174805301875,2075,2064,2086,2076,2065,2064,1193
1284,1710927174815337865,2051,2052,2055,2049,2053,2050,1196
1285,1710927174825301817,2050,2047,2043,2056,2052,2052,1194
1286,1710927174835299975,2052,2045,2042,2066,2057,2056,1195
1287,1710927174845302741,2052,2045,2042,2064,2054,2056,1195
1288,1710927174855285048,2060,2064,2040,2068,2061,2056,1194
1289,1710927174865309044,2057,2068,2085,2058,2055,2058,1194
1290,1710927174875300549,2052,2045,2029,2062,2055,2053,1195
1291,1710927174885306801,2056,2051,2059,2064,2055,2056,1196
1292,1710927174895312613,2054,2050,2040,2041,2056,2054,1196
1293,1710927174905328254,2055,2043,2016,2060,2054,2055,1196
1294,1710927174915307987,2054,2050,2049,2061,2057,2053,1195
1295,1710927174925290124,2054,2061,2096,2080,2056,2052,1194
1296,1710927174935300354,2054,2050,2045,2040,2049,2049,1196
1297,1710927174945303942,2056,2047,2053,2057,2053,2057,1193
1298,1710927174955302560,2065,2073,2073,2068,2060,2056,1196
1299,1710927174965305336,2047,2043,2043,2047,2046,2052,1194
1300,1710927174975321187,2062,2079,2111,2056,2052,2052,1194
1301,1710927174985300489,2056,2048,2064,2024,2050,2051,1194
1302,1710927174995322191,2060,2049,2040,2053,2050,2052,1196
1303,1710927175005305300,2052,2046,2030,2058,2048,2052,1194
1304,1710927175015315310,2057,2050,2024,2057,2059,2054,1195
1305,1710927175025305802,2048,2045,2060,2052,2056,2053,1195
1306,1710927175035303038,2057,2081,2061,2061,2052,2051,1194
1307,1710927175045302438,2052,2050,2034,2016,2046,2040,1192
1308,1710927175055301537,2060,2065,2092,2057,2053,2053,1194
1309,1710927175065328018,2056,2054,2057,2059,2048,2052,1196
1310,1710927175075269558,2058,2053,2045,2068,2055,2052,1194
1311,1710927175085246535,2055,2044,2033,2055,2050,2051,1196
1312,1710927175095305217,2056,2058,2054,2060,2056,2050,1194
1313,1710927175105300289,2061,2054,2059,2069,2057,2052,1196
1314,1710927175115323865,2063,2056,2052,2060,2053,2052,1196
1315,1710927175125303136,2060,2060,2100,2060,2055,2056,1194
1316,1710927175135309820,2054,2052,2053,2060,2056,2051,1196
1317,1710927175145309120,2061,2076,2105,2081,2058,2057,1195
1318,1710927175155307918,2056,2036,1981,2042,2054,2053,1194
1319,1710927175165314552,2057,2068,2062,2068,2055,2055,1194
1320,1710927175175276420,2053,2048,2056,2057,2058,2056,1194
1321,1710927175185303803,2056,2052,2043,2059,2055,2060,1194
1322,1710927175195303363,2068,2064,2050,2049,2047,2047,1192
1323,1710927175205311149,2059,2066,2113,2070,2056,2054,1196
1324,1710927175215303896,2054,2052,2022,2067,2054,2048,1195
1325,1710927175225294339,2053,2065,2086,2065,2050,2054,1197
1326,1710927175235256128,2056,2058,2051,2065,2056,2051,1196
1327,1710927175245312274,2053,2068,2108,2064,2052,2058,1195
1328,1710927175255213819,2047,2038,2018,2056,2056,2053,1195
1329,1710927175265254928,2056,2065,2095,2024,2052,2052,1196
1330,1710927175275296337,2054,2045,2032,2060,2053,2050,1196
1331,1710927175285306237,2049,2056,2045,2044,2054,2055,1198
1332,1710927175295306037,2059,2054,2016,2040,2057,2052,1195
1333,1710927175305306980,2050,2045,2074,2056,2047,2053,1195
1334,1710927175315299065,2054,2056,2057,2056,2058,2052,1195
1335,1710927175325299017,2054,2054,2060,2053,2058,2052,1195
1336,1710927175335307043,2059,2064,2082,2027,2048,2051,1196
1337,1710927175345306392,2057,2052,2060,2067,2052,2053,1195
1338,1710927175355306093,2045,2041,2013,2051,2049,2052,1196
1339,1710927175365307556,2053,2052,2035,2054,2053,2053,1190
1340,1710927175375307267,2053,2044,2048,2059,2053,2058,1194
1341,1710927175385312167,2050,2048,2042,2064,2049,2047,1193
1342,1710927175395309372,2063,2064,2070,2046,2052,2058,1194
1343,1710927175405308011,2046,2027,2044,2050,2039,2046,1192
1344,1710927175415276011,2058,2042,2044,2029,2050,2053,1195
1345,1710927175425311189,2056,2076,2129,2030,2046,2054,1195
1346,1710927175435310287,2058,2056,2065,2051,2070,2052,1196
1347,1710927175445321269,2057,2054,2064,2064,2058,2053,1194
1348,1710927175455309619,2054,2045,2030,2056,2045,2050,1196
1349,1710927175465312074,2056,2043,2031,2030,2048,2047,1192
1350,1710927175475315151,2057,2052,2003,2052,2044,2050,1196
1351,1710927175485323608,2056,2047,2056,2049,2053,2060,1195
1352,1710927175495321925,2051,2044,2019,2058,2050,2052,1196
1353,1710927175505315514,2061,2076,2104,2064,2057,2061,1195
1354,1710927175515318029,2054,2052,2050,2058,2056,2052,1194
1355,1710927175525327118,2056,2049,2053,2038,2056,2052,1195
1356,1710927175535317730,2054,2047,2068,2052,2056,2056,1195
1357,1710927175545344973,2052,2045,2026,2058,2047,2056,1194
1358,1710927175555314487,2054,2053,2051,2052,2049,2052,1197
1359,1710927175565315770,2050,2050,2055,2030,2046,2050,1192
1360,1710927175575300111,2056,2046,2057,2042,2054,2056,1195
1361,1710927175585318467,2052,2048,2048,2053,2046,2050,1194
1362,1710927175595319480,2049,2041,2016,2005,2045,2048,1195
1363,1710927175605303550,2056,2067,2112,2059,2056,2055,1195
1364,1710927175615330743,2045,2026,2033,2048,2049,2057,1194
1365,1710927175626327331,2056,2046,2056,2064,2062,2058,1195
1366,1710927175635305717,2051,2042,2015,2058,2050,2048,1195
1367,1710927175645295118,2053,2040,2060,2043,2057,2059,1194
1368,1710927175655293797,2057,2053,2050,2049,2052,2052,1195
1369,1710927175665298466,2053,2064,2102,2056,2052,2053,1195
1370,1710927175675282627,2037,2044,2021,2057,2050,2045,1193
1371,1710927175685293899,2060,2062,2068,2072,2051,2054,1196
1372,1710927175695300893,2058,2050,2014,2080,2060,2059,1195
1373,1710927175705300153,2058,2090,2102,2029,2050,2054,1195
1374,1710927175715306426,2060,2056,2058,2059,2050,2054,1194
1375,1710927175725302779,2046,2046,2062,2058,2050,2052,1192
1376,1710927175735304604,2054,2050,2050,2049,2055,2049,1197
1377,1710927175745303112,2053,2063,2080,2054,2054,2056,1194
1378,1710927175755299816,2064,2054,2041,2006,2046,2053,1195
1379,1710927175765299697,2055,2037,2027,2068,2050,2051,1194
1380,1710927175775307634,2052,2045,2011,2042,2055,2052,1195
1381,1710927175785313145,2052,2047,2041,2052,2050,2052,1194
1382,1710927175795295923,2052,2051,2048,2043,2057,2051,1195
1383,1710927175805296294,2044,2044,2054,2018,2046,2045,1192
1384,1710927175815289773,2053,2062,2068,2061,2064,2049,1195
1385,1710927175825287299,2058,2065,2083,2060,2065,2057,1196
1386,1710927175835292209,2052,2036,2016,2036,2054,2051,1194
1387,1710927175845292511,2056,2047,2052,2036,2048,2054,1197
1388,1710927175855297421,2060,2047,2038,2061,2070,2054,1196
1389,1710927175865301370,2054,2018,2032,2070,2044,2054,1196
1390,1710927175875299167,2054,2046,2045,2044,2055,2054,1194
1391,1710927175885298856,2042,2045,2056,2060,2045,2045,1193
1392,1710927175895301402,2067,2069,2069,2084,2055,2056,1195
1393,1710927175905303177,2056,2052,2052,2068,2015,2052,1197
1394,1710927175915300803,2045,2038,2016,2060,2056,2048,1195
1395,1710927175925301375,2054,2056,2056,2052,2040,2050,1194
1396,1710927175935298540,2052,2053,2045,2077,2045,2053,1193
1397,1710927175945306025,2048,2043,2056,2053,2046,2048,1196
1398,1710927175955300025,2065,2098,2109,2074,2056,2052,1195
1399,1710927175965298293,2043,2036,2004,2045,2045,2052,1192
1400,1710927175975298715,2064,2057,2035,2053,2056,2056,1195
1401,1710927175985301861,2061,2064,2069,2061,2057,2057,1196
1402,1710927175995312202,2051,2045,2037,2043,2068,2051,1196
1403,1710927176005297395,2053,2054,2060,2057,2053,2056,1195
1404,1710927176015295001,2058,2054,2038,2069,2058,2056,1195
1405,1710927176025303838,2057,2032,2048,2080,2057,2061,1196
1406,1710927176035295493,2064,2037,2028,2062,2076,2060,1193
1407,1710927176045301486,2057,2040,2042,2059,2042,2056,1197
1408,1710927176055323168,2061,2075,2104,2051,2054,2056,1195
1409,1710927176065302931,2056,2062,2057,2075,2056,2054,1196
1410,1710927176075297901,2052,2047,2047,2060,2057,2052,1193
1411,1710927176085298494,2060,2064,2050,2066,2046,2051,1196
1412,1710927176095291151,2051,2060,2069,2054,2056,2049,1196
1413,1710927176105306240,2054,2080,2085,2059,2050,2052,1192
1414,1710927176115297765,2054,2044,2033,2047,2053,2048,1195
1415,1710927176125298928,2051,2050,2044,2047,2052,2053,1195
1416,1710927176135296925,2049,2046,2031,2056,2056,2053,1196
1417,1710927176145346790,2054,2052,2053,2074,2077,2060,1194
1418,1710927176155304631,2049,2050,2049,2064,2046,2050,1193
1419,1710927176165302157,2048,2045,2044,2088,2075,2050,1193
1420,1710927176175299894,2056,2061,2061,2061,2061,2057,1195
1421,1710927176185336755,2052,2047,2048,2067,2088,2056,1196
1422,1710927176195262325,2054,2053,2045,2056,2045,2050,1195
1423,1710927176205308984,2048,2051,2045,2040,2043,2052,1195
1424,1710927176215299477,2059,2078,2057,2029,2047,2053,1193
1425,1710927176225299879,2056,2084,2157,2041,2048,2051,1193
1426,1710927176235297756,2054,2051,2047,2002,2050,2046,1192
1427,1710927176245328184,2058,2054,2049,2047,2058,2054,1193
1428,1710927176255301705,2059,2048,2036,2056,2059,2051,1193
1429,1710927176265299552,2049,2060,2046,2035,2031,2044,1193
1430,1710927176275304281,2057,2028,2040,2053,2062,2054,1195
1431,1710927176285301868,2054,2044,2061,2047,2059,2058,1194
1432,1710927176295308782,2059,2080,2128,2047,2052,2056,1196
1433,1710927176305296079,2051,2059,2120,2059,2052,2053,1194
1434,1710927176315293915,2053,2040,2049,2040,2050,2054,1193
1435,1710927176325296531,2041,2042,2040,2024,2040,2046,1192
1436,1710927176335270042,2050,2024,2022,2030,2057,2054,1193
1437,1710927176345319086,2053,2059,2085,2058,2050,2052,1194
1438,1710927176355299440,2053,2048,2040,2052,2052,2053,1195
1439,1710927176365295944,2063,2080,2054,2054,2043,2056,1191
1440,1710927176375299010,2049,2052,2077,2066,2055,2050,1195
1441,1710927176385310443,2061,2064,2075,2071,2064,2052,1194
1442,1710927176395304322,2068,2050,2037,2064,2056,2052,1195
1443,1710927176405302570,2052,2050,2056,2072,2053,2051,1194
1444,1710927176415296709,2049,2051,2045,2045,2042,2053,1193
1445,1710927176425302632,2064,2078,2105,2056,2049,2055,1193
1446,1710927176435298454,2056,2053,2036,2034,2046,2049,1194
1447,1710927176445309496,2057,2044,2057,2062,2056,2053,1194
1448,1710927176455297755,2057,2056,2047,2056,2055,2054,1194
1449,1710927176465295452,2049,2014,2044,2014,2046,2050,1195
1450,1710927176475305522,2048,2054,2063,2048,2057,2047,1194
1451,1710927176485334748,2056,2048,2053,2064,2068,2058,1194
1452,1710927176495302127,2060,2070,2082,2040,2052,2056,1193
1453,1710927176505299062,2041,2053,2077,2089,2092,2055,1194
1454,1710927176515299644,2056,2052,2020,2073,2046,2056,1193
1455,1710927176525294605,2056,2072,2081,2064,2056,2056,1194
1456,1710927176535294135,2046,2060,2010,2069,2036,2045,1193
1457,1710927176545298545,2056,2040,2040,2053,2033,2053,1193
1458,1710927176555251085,2052,2048,2050,2050,2049,2042,1192
1459,1710927176565294619,2056,2055,2054,2085,2050,2056,1193
1460,1710927176575296063,2058,2064,2048,2034,2041,2047,1191
1461,1710927176585303778,2047,2050,2057,2065,2048,2051,1194
1462,1710927176595298479,2065,2052,2015,2058,2074,2047,1192
1463,1710927176605296917,2060,2047,2025,2060,2056,2058,1193
1464,1710927176615294233,2066,2056,2042,2030,2046,2049,1192
1465,1710927176625297610,2061,2049,2056,2065,2066,2053,1194
1466,1710927176635299434,2050,2052,2059,2043,2026,2048,1195
1467,1710927176645296088,2060,2053,2049,2060,2047,2057,1195
1468,1710927176655299656,2056,2057,2057,2060,2041,2053,1196
1469,1710927176665299197,2058,2062,2100,2072,2074,2058,1193
1470,1710927176675301482,2060,2064,2070,2068,2053,2052,1196
1471,1710927176685296513,2056,2052,2053,2067,2050,2051,1193
1472,1710927176695290232,2062,2029,2050,2077,2056,2053,1195
1473,1710927176705298529,2052,2040,2056,2054,2053,2051,1195
1474,1710927176715296506,2044,2050,2069,2050,2039,2044,1192
1475,1710927176725296266,2049,2045,2050,2042,2049,2050,1196
1476,1710927176735296738,2062,2073,2109,2074,2078,2055,1195
1477,1710927176745294825,2056,2048,2036,2056,2038,2049,1196
1478,1710927176755301048,2069,2082,2129,2028,2044,2058,1193
1479,1710927176765299807,2058,2068,2106,2068,2040,2052,1193
1480,1710927176775301550,2054,2040,2058,2052,2050,2050,1195
1481,1710927176785300770,2052,2041,2056,2025,2050,2056,1194
1482,1710927176795287587,2058,2052,2050,2040,2056,2056,1193
1483,1710927176805302625,2050,2049,2049,2062,2041,2056,1192
1484,1710927176815295543,2060,2049,2043,2047,2043,2054,1193
1485,1710927176825299381,2058,2054,2053,2059,2045,2056,1195
1486,1710927176835294533,2056,2054,2045,2071,2054,2053,1196
1487,1710927176845303821,2056,2067,2072,2066,2057,2056,1194
1488,1710927176855300927,2054,2068,2108,2048,2050,2056,1195
1489,1710927176865299324,2054,2046,2045,2057,2046,2049,1196
1490,1710927176875298053,2047,2017,2028,2052,2053,2051,1196
1491,1710927176885288957,2056,2039,2056,2070,2056,2052,1195
1492,1710927176895296391,2048,2044,2042,2048,2042,2051,1195
1493,1710927176905300791,2060,2057,2058,2068,2051,2054,1195
1494,1710927176915315420,2049,2023,2055,2054,2050,2056,1194
1495,1710927176925299089,2049,2042,2054,2036,2056,2049,1194
1496,1710927176935295043,2051,2046,2046,2044,2052,2054,1195
1497,1710927176945299963,2056,2057,2068,2038,2050,2054,1194
1498,1710927176955296948,2048,2040,2036,2064,2054,2047,1192
1499,1710927176965296999,2061,2061,2069,2060,2055,2060,1193
1500,1710927176975301498,2058,2060,2056,2046,2056,2053,1193
1501,1710927176985298814,2054,2056,2056,2064,2056,2057,1195
1502,1710927176995298765,2042,2055,2057,2048,2052,2049,1193
1503,1710927177005303515,2057,2073,2101,2079,2067,2053,1194
1504,1710927177015301852,2053,2051,2038,2060,2052,2050,1194
1505,1710927177025300381,2052,2050,2059,2084,2054,2054,1193
1506,1710927177035298468,2057,2056,2044,2060,2047,2052,1194
1507,1710927177045300583,2060,2063,2074,2059,2053,2056,1195
1508,1710927177055300063,2053,2060,2084,2084,2064,2051,1193
1509,1710927177065298130,2058,2053,2052,2062,2042,2053,1196
1510,1710927177075299313,2056,2064,2088,2056,2059,2053,1194
1511,1710927177085303492,2061,2091,2116,2066,2049,2056,1196
1512,1710927177095304214,2056,2052,2047,2069,2057,2056,1193
1513,1710927177105301830,2056,2055,2060,2053,2050,2056,1195
1514,1710927177115311469,2059,2056,2049,2045,2037,2052,1194
1515,1710927177125301852,2050,2068,2072,2052,2039,2053,1195
1516,1710927177135298406,2057,2050,2052,2048,2055,2057,1193
1517,1710927177145298177,2050,2040,2045,2057,2053,2052,1194
1518,1710927177155298840,2057,2054,2054,2049,2052,2052,1196
1519,1710927177165300453,2049,2029,2044,2067,2060,2047,1190
1520,1710927177175305564,2060,2045,2044,2036,2052,2052,1193
1521,1710927177185303301,2042,2044,2039,2064,2052,2047,1192
1522,1710927177195301267,2064,2072,2085,2054,2054,2053,1195
1523,1710927177205306578,2058,2054,2049,2044,2056,2056,1195
1524,1710927177215307731,2057,2047,2041,2028,2048,2051,1195
1525,1710927177225265672,2055,2065,2066,2072,2045,2052,1197
1526,1710927177235302653,2066,2064,2042,2063,2050,2056,1193
1527,1710927177245302754,2051,2050,2089,2061,2050,2056,1192
1528,1710927177255302635,2053,2053,2041,2032,2038,2047,1192
1529,1710927177265302787,2058,2054,2052,2050,2040,2050,1193
1530,1710927177275308007,2053,2049,2043,2060,2050,2050,1197
1531,1710927177285301556,2052,2046,2040,2061,2058,2054,1195
1532,1710927177295305164,2049,2028,2057,2045,2056,2055,1194
1533,1710927177305305675,2052,2053,2086,2033,2056,2056,1195
1534,1710927177315316667,2049,2047,2044,2063,2053,2052,1194
1535,1710927177325305307,2048,2045,2047,2074,2056,2053,1195
1536,1710927177335313202,2052,2047,2024,2077,2056,2050,1193
1537,1710927177345306921,2048,2049,2033,2072,2059,2047,1191
1538,1710927177355306201,2052,2026,2023,2018,2036,2052,1192
1539,1710927177365306452,2053,2037,2054,2046,2052,2056,1191
1540,1710927177375555444,2058,2045,2060,2052,2053,2050,1193
1541,1710927177385304160,2056,2056,2080,2068,2052,2052,1195
1542,1710927177395308037,2047,2049,2060,2040,2048,2048,1193
1543,1710927177405307748,2062,2073,2150,2053,2052,2056,1194
1544,1710927177415309182,2053,2048,2040,2076,2074,2054,1192
1545,1710927177425316727,2047,2014,2024,2053,2060,2057,1193
1546,1710927177435306549,2052,2037,2038,2074,2056,2052,1194
1547,1710927177445309896,2051,2041,2042,2060,2049,2056,1194
1548,1710927177455309947,2057,2077,2065,2066,2065,2054,1193
1549,1710927177465309897,2054,2062,2064,2046,2042,2052,1194
1550,1710927177475258341,2052,2053,2036,2056,2082,2048,1193
1551,1710927177485320128,2051,2030,2053,2056,2052,2054,1196
1552,1710927177495281646,2062,2053,2064,2065,2057,2056,1196
1553,1710927177505312666,2054,2045,2033,2050,2046,2055,1193
1554,1710927177515317075,2057,2052,2025,2067,2052,2053,1193
1555,1710927177525313119,2060,2067,2043,2058,2048,2051,1195
1556,1710927177535313390,2052,2043,2032,2058,2056,2053,1195
1557,1710927177545313672,2049,2033,2057,2082,2077,2056,1193
1558,1710927177555295158,2053,2035,2056,2092,2058,2055,1194
1559,1710927177565313884,2049,2050,2077,2071,2070,2056,1195
1560,1710927177575325647,2049,2040,2036,2035,2046,2049,1195
1561,1710927177585329225,2056,2056,2036,2042,2048,2052,1195
1562,1710927177595315930,2056,2054,2025,2074,2060,2056,1192
1563,1710927177605297496,2051,2043,2049,2084,2050,2052,1194
1564,1710927177615295904,2051,2046,2026,2034,2061,2052,1194
1565,1710927177625279293,2055,2068,2091,2066,2060,2056,1192
1566,1710927177635297819,2049,2050,2063,2062,2053,2054,1193
1567,1710927177645243237,2054,2032,2037,2061,2056,2056,1194
1568,1710927177655266211,2059,2050,2045,2068,2058,2057,1193
1569,1710927177665325835,2040,2034,2020,2056,2046,2046,1192
1570,1710927177675267947,2056,2068,2077,2043,2050,2052,1194
1571,1710927177685316900,2057,2061,2047,2056,2052,2050,1195
1572,1710927177695291503,2060,2075,2078,2056,2060,2054,1194
1573,1710927177705296143,2057,2049,2052,2052,2050,2054,1196
1574,1710927177715289130,2061,2062,2060,2049,2055,2053,1194
1575,1710927177725302506,2056,2064,2122,2057,2049,2054,1194
1576,1710927177735322305,2060,2048,2036,2057,2056,2056,1194
1577,1710927177745301967,2052,2045,2058,2061,2045,2053,1194
1578,1710927177755284725,2049,2041,2047,2046,2056,2049,1195
1579,1710927177765293302,2047,2037,2020,2072,2044,2049,1192
1580,1710927177775295076,2056,2045,2021,2048,2053,2053,1194
1581,1710927177785326036,2055,2065,2092,2043,2041,2052,1193
1582,1710927177795292153,2052,2045,2036,2053,2049,2052,1193
1583,1710927177805304978,2052,2056,2064,2056,2054,2056,1194
1584,1710927177815302354,2052,2073,2069,2033,2047,2050,1193
1585,1710927177825302365,2048,2020,2030,2048,2047,2053,1194
1586,1710927177835325189,2051,2055,2058,2052,2043,2049,1195
1587,1710927177845299080,2051,2047,2046,2056,2049,2052,1194
1588,1710927177855297338,2053,2057,2044,2051,2064,2055,1194
1589,1710927177865294934,2056,2045,2053,2056,2061,2053,1195
1590,1710927177875300055,2054,2050,2045,2062,2057,2056,1196
1591,1710927177885308652,2045,2045,2067,2055,2044,2051,1198
1592,1710927177895297281,2060,2056,2107,2060,2059,2058,1197
1593,1710927177905329594,2053,2029,2019,2061,2060,2048,1195
1594,1710927177915297653,2057,2045,2061,2034,2065,2058,1194
1595,1710927177925296983,2056,2046,2062,2064,2052,2047,1190
1596,1710927177935295522,2072,2058,2042,2057,2073,2058,1196
1597,1710927177945296434,2053,2047,2066,2037,2055,2050,1196
1598,1710927177955302817,2052,2045,2028,2034,2065,2052,1195
1599,1710927177965299602,2050,2051,2057,2052,2043,2051,1194
1600,1710927177975296357,2057,2104,2064,2057,2057,2053,1195
1601,1710927177985296518,2061,2064,2089,2091,2076,2060,1194
1602,1710927177995302460,2056,2060,2051,2067,2061,2052,1196
1603,1710927178005288544,2057,2052,2049,2039,2054,2053,1193
1604,1710927178015291120,2053,2064,2078,2033,2044,2048,1195
1605,1710927178025287645,2052,2056,2084,2061,2044,2056,1195
1606,1710927178035299778,2062,2080,2070,2068,2056,2057,1194
1607,1710927178045315299,2047,2036,2074,2056,2048,2048,1196
1608,1710927178055302356,2052,2041,2037,2047,2050,2049,1194
1609,1710927178065299450,2060,2056,2058,2080,2059,2058,1195
1610,1710927178075301636,2048,2054,2046,2048,2052,2049,1193
1611,1710927178085313869,2054,2049,2081,2056,2055,2057,1195
1612,1710927178095296548,2056,2051,2052,2061,2055,2052,1197
1613,1710927178105284155,2059,2052,2061,2067,2049,2054,1198
1614,1710927178115257495,2043,2036,2029,2026,2026,2046,1192
1615,1710927178125298233,2054,2049,2026,2056,2040,2052,1196
1616,1710927178135302903,2058,2052,2028,2059,2051,2052,1195
1617,1710927178145307462,2067,2056,2056,2061,2057,2056,1196
1618,1710927178155296943,2060,2073,2056,2059,2053,2054,1194
1619,1710927178165295982,2058,2075,2068,2063,2060,2053,1194
1620,1710927178175298037,2061,2057,2040,2053,2068,2056,1194
1621,1710927178185315521,2046,2039,2054,2077,2044,2045,1192
1622,1710927178195302297,2070,2075,2097,2073,2058,2058,1194
1623,1710927178205319420,2051,2044,2046,2058,2048,2046,1192
1624,1710927178215269477,2050,2032,2018,2040,2050,2051,1193
1625,1710927178225296408,2050,2040,2040,2060,2049,2051,1196
1626,1710927178235312180,2060,2052,2033,2059,2054,2053,1193
1627,1710927178245297503,2052,2045,2040,2041,2049,2050,1192
1628,1710927178255299848,2063,2083,2112,2067,2058,2056,1195
1629,1710927178265297163,2052,2052,2041,2068,2050,2056,1194
1630,1710927178275296824,2065,2081,2071,2056,2054,2056,1193
1631,1710927178285315520,2053,2054,2068,2068,2052,2059,1194
1632,1710927178295294461,2059,2057,2074,2082,2061,2057,1195
1633,1710927178305299291,2057,2059,2077,2061,2049,2054,1194
1634,1710927178315296025,2058,2052,2064,2025,2059,2052,1194
1635,1710927178325296307,2054,2047,2068,2068,2051,2056,1196
1636,1710927178335309553,2054,2045,2046,2058,2052,2049,1194
1637,1710927178345246064,2054,2046,2018,2057,2070,2059,1195
1638,1710927178355306409,2052,2047,2039,2064,2052,2052,1195
1639,1710927178365298745,2054,2053,2060,2051,2040,2048,1193
1640,1710927178375299598,2061,2059,2052,2064,2060,2055,1196
1641,1710927178385309558,2054,2057,2095,2049,2050,2052,1196
1642,1710927178395259183,2058,2048,2050,2041,2050,2049,1194
1643,1710927178405294931,2047,2050,2038,2047,2049,2051,1192
1644,1710927178415294141,2056,2059,2043,2078,2066,2053,1193
1645,1710927178425294242,2066,2084,2130,2059,2052,2056,1194
1646,1710927178435316986,2053,2056,2094,2033,2047,2048,1195
1647,1710927178445296137,2064,2056,2073,2032,2044,2052,1196
1648,1710927178455271571,2068,2101,2086,2018,2056,2063,1194
1649,1710927178465299485,2052,2058,2066,2062,2056,2057,1193
1650,1710927178475298424,2045,2037,2024,2045,2044,2049,1194
1651,1710927178485316249,2052,2048,2047,2056,2052,2051,1195
1652,1710927178495298927,2049,2063,2088,2088,2053,2050,1195
1653,1710927178505299719,2054,2059,2094,2069,2052,2057,1195
1654,1710927178515297496,2056,2051,2080,2068,2053,2053,1195
1655,1710927178525296445,2056,2072,2053,2064,2041,2053,1195
1656,1710927178535267180,2053,2048,2018,2066,2060,2054,1194
1657,1710927178545303370,2053,2049,2028,2062,2056,2051,1197
1658,1710927178555300856,2061,2057,2046,2041,2050,2056,1196
1659,1710927178565298933,2044,2040,2040,2028,2045,2051,1193
1660,1710927178575301168,2058,2070,2025,2060,2048,2050,1195
1661,1710927178585290559,2050,2039,2047,2048,2052,2053,1196
1662,1710927178595283646,2058,2092,2064,2032,2053,2050,1193
1663,1710927178605298195,2057,2059,2089,2028,2059,2057,1192
1664,1710927178615297454,2054,2052,2042,2070,2056,2050,1195
1665,1710927178625298077,2059,2056,2072,2049,2052,2054,1195
1666,1710927178635298759,2057,2052,2075,2065,2056,2056,1194
1667,1710927178645301845,2052,2053,2063,2058,2056,2056,1198
1668,1710927178655273132,2056,2083,2125,2074,2060,2048,1194
1669,1710927178665300765,2056,2046,2065,2072,2068,2056,1195
1670,1710927178675307609,2068,2091,2056,2052,2056,2056,1194
1671,1710927178685299434,2053,2054,2051,2062,2051,2056,1193
1672,1710927178695300928,2056,2044,2031,2060,2056,2053,1194
1673,1710927178705299266,2051,2044,2030,2063,2053,2054,1195
1674,1710927178715299016,2036,2028,2005,2025,2045,2045,1192
1675,1710927178725301982,2056,2055,2044,2076,2053,2054,1196
1676,1710927178735300551,2056,2064,2068,2048,2049,2053,1196
1677,1710927178745305952,2054,2040,2049,2041,2049,2056,1194
1678,1710927178755313557,2050,2045,2044,2066,2056,2052,1194
1679,1710927178765314520,2056,2048,2056,2058,2045,2051,1193
1680,1710927178775317437,2057,2056,2054,2035,2055,2052,1195
1681,1710927178785299223,2055,2043,2052,2062,2054,2054,1194
1682,1710927178795297561,2052,2056,2068,2056,2048,2051,1195
1683,1710927178805303012,2052,2044,2050,2061,2046,2056,1194
1684,1710927178815303604,2058,2068,2065,2045,2049,2053,1195
1685,1710927178825304206,2052,2054,2062,2064,2057,2054,1194
1686,1710927178835304928,2058,2047,2037,2045,2054,2052,1194
1687,1710927178845277176,2058,2058,2083,2057,2056,2059,1195
1688,1710927178855303938,2053,2045,2040,2063,2051,2053,1197
1689,1710927178865305712,2059,2067,2082,2064,2056,2058,1194
1690,1710927178875306594,2047,2056,2063,2044,2055,2052,1196
1691,1710927178885308479,2063,2092,2066,2046,2053,2052,1196
1692,1710927178895305975,2058,2055,2064,2072,2057,2052,1196
1693,1710927178905299213,2049,2056,2057,2049,2050,2052,1197
1694,1710927178915302901,2050,2053,2046,2052,2053,2052,1196
1695,1710927178925307741,2056,2050,2044,2033,2050,2052,1195
1696,1710927178935307812,2046,2044,2032,2065,2051,2045,1194
1697,1710927178945306821,2051,2056,2061,2056,2060,2052,1196
1698,1710927178955263460,2052,2049,2036,2062,2053,2053,1194
1699,1710927178965310580,2051,2041,2058,2044,2052,2051,1196
1700,1710927178975331631,2046,2019,2040,2082,2074,2052,1194
1701,1710927178985313397,2049,2036,2057,2068,2052,2056,1194
1702,1710927178995305373,2055,2044,2046,2042,2053,2056,1194
1703,1710927179005294292,2046,2047,2060,2064,2050,2051,1192
1704,1710927179015297690,2052,2050,2030,2058,2053,2050,1194
1705,1710927179025295597,2053,2053,2066,2085,2056,2052,1192
1706,1710927179035295397,2045,2052,2073,2060,2052,2050,1196
1707,1710927179045314214,2058,2060,2100,2056,2056,2056,1194
1708,1710927179055321910,2055,2047,2041,2066,2054,2055,1193
1709,1710927179065296652,2058,2047,2061,2064,2057,2057,1194
1710,1710927179075296223,2057,2035,2011,2062,2053,2048,1193
1711,1710927179085297816,2053,2041,2022,2069,2056,2055,1196
1712,1710927179095326311,2047,2046,2047,2041,2054,2050,1195
1713,1710927179105325611,2052,2036,2039,2047,2044,2056,1194
1714,1710927179115322986,2046,2029,2043,2060,2064,2047,1193
1715,1710927179125306666,2053,2064,2063,2067,2060,2057,1196
1716,1710927179135304763,2054,2046,2035,2072,2061,2056,1194
1717,1710927179145304854,2061,2072,2124,2075,2066,2059,1195
1718,1710927179155319924,2048,2038,2043,2062,2050,2052,1193
1719,1710927179165303944,2050,2074,2151,2052,2057,2053,1194
1720,1710927179175307352,2056,2072,2061,2062,2053,2058,1193
1721,1710927179185309587,2052,2046,2036,2064,2052,2050,1192
1722,1710927179195339093,2056,2053,2026,2041,2056,2053,1194
1723,1710927179205323826,2058,2050,2052,2073,2052,2052,1193
1724,1710927179215306354,2060,2050,2045,2074,2059,2052,1194
1725,1710927179225312837,2054,2056,2054,2051,2050,2053,1194
1726,1710927179235308600,2056,2062,2086,2057,2053,2051,1196
1727,1710927179245310955,2054,2078,2029,2067,2064,2054,1195
1728,1710927179255316076,2055,2053,2049,2070,2072,2050,1196
1729,1710927179265315605,2053,2052,2077,2056,2050,2056,1195
1730,1710927179275310787,2046,2052,2045,2044,2048,2049,1193
1731,1710927179285333671,2050,2061,2058,2054,2049,2049,1195
1732,1710927179295329544,2056,2054,2051,2055,2052,2052,1194
1733,1710927179305307934,2057,2093,2056,2044,2041,2057,1195
1734,1710927179315305591,2050,2050,2026,2069,2060,2053,1195
1735,1710927179325308366,2059,2049,2040,2072,2049,2056,1195
1736,1710927179335306714,2053,2052,2074,2045,2053,2052,1196
1737,1710927179345310353,2059,2050,2047,2059,2066,2056,1195
1738,1710927179355312226,2060,2054,2052,2056,2050,2049,1196
1739,1710927179365314562,2050,2049,2056,2056,2045,2053,1193
1740,1710927179375310285,2062,2041,2031,2052,2053,2050,1193
1741,1710927179385325054,2063,2052,2113,2072,2056,2060,1197
1742,1710927179395322360,2058,2053,2053,2057,2053,2052,1197
1743,1710927179405301922,2056,2051,2036,2036,2048,2054,1195
1744,1710927179415307443,2053,2053,2054,2065,2049,2051,1194
1745,1710927179425309949,2048,2043,2045,2056,2039,2048,1195
1746,1710927179435304098,2057,2039,2064,2057,2046,2050,1193
1747,1710927179445305933,2056,2040,2066,2067,2054,2056,1195
1748,1710927179455318667,2059,2072,2094,2061,2053,2054,1194
1749,1710927179465308048,2047,2047,2062,2055,2052,2053,1194
1750,1710927179475313449,2059,2052,2047,2049,2051,2056,1192
1751,1710927179485331885,2057,2072,2096,2062,2056,2056,1197
1752,1710927179495306448,2066,2074,2100,2077,2066,2056,1196
1753,1710927179505297452,2053,2057,2118,2066,2053,2055,1196
1754,1710927179515258328,2051,2046,2021,2069,2064,2052,1196
1755,1710927179525299708,2046,2045,2054,2032,2037,2045,1194
1756,1710927179535297715,2058,2062,2084,2064,2052,2053,1192
1757,1710927179545301393,2047,2037,2057,2040,2050,2049,1194
1758,1710927179555298568,2052,2043,2025,2036,2060,2053,1195
1759,1710927179565300683,2056,2070,2068,2064,2052,2052,1193
1760,1710927179575300544,2047,2041,2043,2059,2066,2056,1194
1761,1710927179585311145,2049,2042,2036,2058,2050,2052,1196
1762,1710927179595306707,2059,2056,2050,2065,2052,2050,1195
1763,1710927179605287281,2057,2053,2033,2056,2053,2054,1193
1764,1710927179615292912,2045,2050,2047,2051,2054,2047,1191
1765,1710927179625292482,2052,2048,2052,2057,2054,2053,1195
1766,1710927179635291091,2052,2053,2047,2066,2067,2054,1194
1767,1710927179645301170,2058,2052,2046,2065,2064,2055,1194
1768,1710927179655290261,2048,2032,2007,2046,2046,2047,1194
1769,1710927179665305010,2057,2054,2045,2056,2057,2050,1197
1770,1710927179675297456,2052,2075,2079,2077,2053,2056,1196
1771,1710927179685298409,2064,2057,2060,2057,2053,2056,1196
1772,1710927179695299583,2062,2046,2035,2060,2055,2057,1196
1773,1710927179705306416,2056,2044,2034,2064,2054,2056,1194
1774,1710927179715294865,2047,2036,1998,2035,2053,2050,1195
1775,1710927179725299385,2046,2062,2026,2055,2051,2054,1196
1776,1710927179735293494,2058,2053,2054,2077,2057,2056,1196
1777,1710927179745296441,2052,2048,2056,2064,2056,2060,1196
1778,1710927179755314756,2053,2068,2053,2018,2046,2051,1196
1779,1710927179765302444,2060,2072,2093,2057,2050,2057,1194
1780,1710927179775298036,2051,2049,2045,2053,2049,2047,1192
1781,1710927179785300311,2061,2062,2042,2047,2049,2050,1194
1782,1710927179795298929,2056,2040,2001,2047,2056,2049,1194
1783,1710927179805295814,2054,2056,2085,2068,2054,2058,1195
1784,1710927179815293080,2059,2068,2044,2053,2053,2056,1193
1785,1710927179825270358,2055,2052,2073,2032,2053,2051,1194
1786,1710927179835300215,2052,2047,2013,2060,2050,2052,1193
1787,1710927179845300246,2057,2064,2060,2051,2048,2051,1196
1788,1710927179855302893,2056,2027,2042,2058,2064,2052,1195
1789,1710927179865296451,2056,2040,2050,2034,2052,2062,1195
1790,1710927179875290130,2055,2055,2064,2074,2053,2052,1195
1791,1710927179885304538,2054,2041,2021,2052,2062,2053,1196
1792,1710927179895300171,2052,2045,2048,2057,2056,2052,1196
1793,1710927179905342972,2064,2090,2106,2061,2050,2058,1194
1794,1710927179915294311,2053,2040,2013,2045,2056,2052,1196
1795,1710927179925294663,2046,2024,2038,2061,2055,2060,1194
1796,1710927179935307037,2056,2040,2045,2052,2044,2054,1197
1797,1710927179945304974,2052,2052,2068,2062,2062,2057,1195
1798,1710927179955310435,2060,2056,2086,2044,2057,2053,1193
1799,1710927179965297892,2056,2052,2050,2057,2053,2056,1192
1800,1710927179975300989,2052,2047,2033,2056,2059,2052,1195
1801,1710927179985300068,2046,2044,2048,2062,2044,2045,1193
1802,1710927179995303946,2052,2038,2055,2061,2053,2053,1196
1803,1710927180005296703,2056,2045,2048,2058,2053,2053,1194
1804,1710927180015307886,2060,2053,2048,2044,2057,2056,1195
1805,1710927180025301224,2056,2051,2053,2064,2052,2054,1198
1806,1710927180035300203,2056,2056,2066,2045,2056,2057,1196
1807,1710927180045298400,2056,2052,2044,2058,2056,2052,1196
1808,1710927180055296437,2054,2053,2028,2045,2060,2054,1194
1809,1710927180065311817,2052,2050,2052,2069,2068,2056,1194
1810,1710927180075289816,2056,2057,2056,2066,2073,2055,1195
1811,1710927180085296189,2056,2080,2066,2069,2051,2052,1196
1812,1710927180095302221,2058,2049,2042,2054,2056,2053,1195
1813,1710927180105295820,2052,2060,2050,2045,2052,2056,1194
1814,1710927180115292445,2055,2050,2032,2050,2047,2050,1195
1815,1710927180125306181,2054,2033,2038,2049,2046,2056,1196
1816,1710927180135297967,2045,2037,2041,2068,2050,2048,1193
1817,1710927180145300783,2052,2064,2096,2029,2056,2052,1195
1818,1710927180155298239,2054,2048,2044,2054,2056,2052,1193
1819,1710927180165319530,2059,2057,2064,2060,2053,2053,1192
1820,1710927180175297218,2056,2053,2051,2053,2054,2057,1194
1821,1710927180185303792,2052,2036,2049,2075,2046,2055,1193
1822,1710927180195295508,2060,2045,2045,2034,2042,2056,1193
1823,1710927180205330094,2064,2081,2058,2058,2049,2053,1194
1824,1710927180215320056,2056,2052,2068,2061,2055,2052,1195
1825,1710927180225303555,2060,2069,2133,2068,2058,2060,1195
1826,1710927180235307193,2058,2052,2052,2050,2051,2052,1194
1827,1710927180245301513,2051,2058,2046,2051,2048,2050,1193
1828,1710927180255297076,2056,2064,2058,2058,2057,2052,1194
1829,1710927180265299080,2052,2052,2062,2065,2052,2052,1195
1830,1710927180275313689,2056,2066,2038,2052,2052,2050,1193
1831,1710927180285292890,2047,2040,2021,2056,2049,2053,1193
1832,1710927180295295967,2056,2057,2045,2057,2047,2052,1195
1833,1710927180305293883,2056,2052,2044,2057,2051,2054,1195
1834,1710927180315312750,2056,2055,2050,2050,2049,2052,1194
1835,1710927180325302101,2044,2045,2047,2058,2051,2048,1193
1836,1710927180335313583,2056,2046,2048,2054,2053,2050,1195
1837,1710927180345299879,2044,2042,2021,2052,2052,2052,1195
1838,1710927180355295240,2056,2049,2038,2045,2053,2050,1193
1839,1710927180365294740,2055,2041,2073,2070,2057,2056,1195
1840,1710927180375299821,2049,2037,2040,2062,2061,2052,1194
1841,1710927180385291776,2059,2071,2109,2068,2061,2056,1194
1842,1710927180395294072,2056,2061,2060,2029,2061,2053,1193
1843,1710927180405294063,2052,2047,2036,2070,2054,2057,1193
1844,1710927180415303031,2054,2042,2056,2050,2061,2052,1196
1845,1710927180425312760,2054,2064,2085,2047,2061,2058,1196
1846,1710927180435255582,2061,2076,2074,2052,2056,2056,1195
1847,1710927180445298454,2054,2052,2057,2070,2050,2052,1195
1848,1710927180455296541,2058,2054,2033,2056,2054,2050,1194
1849,1710927180465296632,2059,2072,2143,2066,2054,2056,1194
1850,1710927180475302344,2058,2070,2093,2068,2057,2055,1195
1851,1710927180485307164,2056,2048,2048,2041,2050,2053,1196
1852,1710927180495293068,2058,2050,2074,2064,2068,2049,1193
1853,1710927180505292869,2050,2056,2114,2065,2050,2051,1194
1854,1710927180515290495,2049,2049,2036,2050,2052,2053,1197
1855,1710927180525299233,2049,2044,2051,2057,2056,2056,1196
1856,1710927180535296368,2057,2076,2139,2060,2058,2056,1195
1857,1710927180545294766,2047,2046,2043,2033,2034,2046,1192
1858,1710927180555292783,2049,2033,2060,2056,2054,2053,1196
1859,1710927180565295148,2054,2047,2113,2059,2059,2054,1194
1860,1710927180575314456,2068,2102,2100,2075,2058,2054,1194
1861,1710927180585314026,2069,2069,2180,2067,2066,2058,1194
1862,1710927180595310380,2056,2059,2039,2040,2047,2053,1194
1863,1710927180605294130,2052,2052,2052,2088,2072,2052,1196
1864,1710927180615295313,2050,2047,2049,2050,2049,2045,1193
1865,1710927180625309260,2050,2034,2059,2033,2053,2056,1194
1866,1710927180635304382,2056,2053,2048,2073,2054,2056,1195
1867,1710927180645299143,2056,2052,2052,2043,2045,2056,1194
1868,1710927180655295607,2050,2047,2041,2047,2048,2051,1196
1869,1710927180665295327,2052,2060,2054,2053,2040,2052,1194
1870,1710927180675351635,2056,2061,2048,2056,2050,2054,1193
1871,1710927180685315277,2053,2047,2047,2041,2048,2050,1195
1872,1710927180695294969,2052,2090,2040,2062,2057,2054,1195
1873,1710927180705301492,2057,2046,2049,2061,2051,2052,1198
1874,1710927180715299329,2054,2060,2088,2072,2054,2058,1193
1875,1710927180725299410,2057,2056,2037,2055,2048,2053,1193
1876,1710927180735316404,2052,2033,1993,2048,2051,2053,1195
1877,1710927180745301936,2051,2047,2036,2055,2046,2051,1194
1878,1710927180755298732,2065,2092,2037,2061,2068,2048,1195
1879,1710927180765300907,2045,2044,2046,2068,2055,2055,1193
1880,1710927180775301619,2056,2063,2077,2067,2052,2049,1194
1881,1710927180785331486,2058,2052,2041,2053,2053,2053,1195
1882,1710927180795300749,2068,2088,2098,2057,2058,2053,1193
1883,1710927180805302653,2051,2064,2058,2046,2048,2053,1194
1884,1710927180815301281,2063,2055,2046,2055,2052,2051,1192
1885,1710927180825301532,2057,2048,2053,2057,2065,2054,1197
1886,1710927180835302145,2028,2030,2018,2057,2068,2047,1190
1887,1710927180845309890,2033,2047,2048,2050,2050,2050,1195
1888,1710927180855299020,2050,2069,2124,2068,2057,2053,1194
1889,1710927180865301306,2060,2072,2101,2022,2042,2054,1196
1890,1710927180875305113,2072,2057,2062,2072,2049,2051,1193
1891,1710927180885324972,2022,2052,2020,2072,2049,2051,1196
1892,1710927180895326335,2057,2040,2039,2060,2052,2052,1194
1893,1710927180905313041,2071,2052,2018,2037,2043,2052,1193
1894,1710927180915306350,2057,2049,2027,2050,2045,2050,1194
1895,1710927180925305539,2068,2060,2070,2081,2057,2054,1195
1896,1710927180935307664,2056,2054,2050,2060,2060,2053,1194
1897,1710927180945308236,2052,2056,2068,2046,2034,2045,1190
1898,1710927180955258032,2049,2040,2009,2074,2055,2053,1193
1899,1710927180965289973,2068,2045,2086,2073,2066,2057,1192
1900,1710927180975289252,2064,2080,2028,2072,2065,2058,1194
1901,1710927180985287910,2062,2040,1997,2062,2053,2053,1195
1902,1710927180995310935,2056,2076,2080,2057,2054,2050,1194
1903,1710927181005354759,2058,2053,2045,2057,2036,2052,1195
1904,1710927181015307991,2057,2075,2054,2065,2047,2049,1193
1905,1710927181025292943,2047,2066,2068,2064,2050,2057,1194
1906,1710927181035291692,2034,2037,1990,2025,2054,2046,1192
1907,1710927181045311481,2057,2044,2058,2053,2050,2055,1194
1908,1710927181055294408,2054,2037,2068,2074,2057,2052,1193
1909,1710927181065311021,2056,2047,2054,2052,2050,2056,1195
1910,1710927181075316943,2058,2054,2037,2064,2058,2057,1197
1911,1710927181085313718,2057,2052,2036,2060,2051,2054,1196
1912,1710927181095313228,2053,2041,2040,2057,2056,2052,1194
1913,1710927181105312517,2061,2057,2046,2078,2057,2058,1196
1914,1710927181115296137,2056,2066,2077,2062,2061,2050,1193
1915,1710927181125314292,2064,2056,2061,2057,2062,2056,1197
1916,1710927181135314354,2057,2071,2130,2065,2057,2056,1193
1917,1710927181145315547,2053,2054,2061,2050,2079,2060,1196
1918,1710927181155316459,2045,2040,2011,2045,2040,2047,1190
1919,1710927181165297734,2061,2049,2061,2072,2059,2053,1194
1920,1710927181175296954,2059,2060,2096,2069,2056,2053,1195
1921,1710927181185322784,2052,2056,2092,2067,2046,2050,1196
1922,1710927181195299821,2069,2068,2061,2064,2058,2060,1194
1923,1710927181205298359,2052,2048,2067,2065,2050,2052,1193
1924,1710927181215301786,2060,2053,2045,2051,2050,2052,1194
1925,1710927181225298641,2078,2071,2109,2058,2056,2053,1194
1926,1710927181235302379,2048,2037,2042,2045,2045,2048,1195
1927,1710927181245347465,2053,2034,2049,2060,2053,2053,1193
1928,1710927181255302350,2047,2044,2072,2062,2060,2056,1194
1929,1710927181265301009,2058,2057,2075,2046,2044,2053,1194
1930,1710927181275302192,2056,2052,2066,2036,2046,2049,1196
1931,1710927181285298556,2056,2052,2056,2046,2054,2052,1195
1932,1710927181295340537,2048,2056,2061,2063,2061,2054,1195
1933,1710927181305297947,2051,2049,2057,2051,2052,2056,1195
1934,1710927181315286055,2050,2013,2022,2060,2059,2053,1194
1935,1710927181325246932,2046,2028,2034,2050,2050,2057,1196
1936,1710927181335270768,2073,2042,2048,2061,2056,2052,1194
1937,1710927181345313189,2062,2042,2067,2049,2053,2053,1193
1938,1710927181355272593,2056,2044,2057,2080,2050,2053,1193
1939,1710927181365278645,2058,2055,2046,2064,2051,2056,1193
1940,1710927181375298373,2059,2050,2050,2054,2056,2051,1193
1941,1710927181385299727,2058,2047,2033,2056,2056,2056,1195
1942,1710927181395298736,2067,2073,2030,2023,2049,2052,1196
1943,1710927181405304608,2056,2061,2108,2057,2052,2054,1193
1944,1710927181415302164,2055,2053,2032,2061,2054,2050,1196
1945,1710927181425293458,2058,2048,2043,2056,2045,2055,1196
1946,1710927181435297266,2058,2051,2008,2053,2050,2051,1196
1947,1710927181445295894,2049,2047,2031,2064,2053,2051,1195
1948,1710927181455297478,2055,2044,1999,2029,2058,2052,1193
1949,1710927181465301357,2049,2034,2005,2056,2051,2056,1196
1950,1710927181475293903,2053,2056,2050,2034,2052,2052,1194
1951,1710927181485263016,2056,2055,2055,2057,2045,2050,1198
1952,1710927181495301339,2058,2052,2042,2065,2056,2056,1194
1953,1710927181505302011,2056,2047,2040,2053,2052,2057,1193
1954,1710927181515299788,2050,2019,2041,2061,2051,2057,1192
1955,1710927181525301392,2052,2064,2096,2074,2040,2046,1192
1956,1710927181535299119,2048,2057,2100,2058,2059,2050,1196
1957,1710927181545296244,2050,2059,2094,2037,2052,2053,1193
1958,1710927181555302897,2052,2051,2056,2052,2056,2054,1195
1959,1710927181565297979,2049,2047,2039,2050,2054,2052,1194
1960,1710927181575300124,2061,2052,2047,2037,2050,2051,1193
1961,1710927181585300155,2053,2074,2064,2056,2044,2049,1194
1962,1710927181595299705,2056,2053,2056,2056,2045,2051,1195
1963,1710927181605299515,2052,2047,2053,2051,2054,2056,1197
1964,1710927181615301610,2048,2040,2021,2072,2052,2048,1196
1965,1710927181625298835,2058,2066,2064,2044,2054,2054,1196
1966,1710927181635298065,2056,2052,2050,2058,2064,2053,1196
1967,1710927181645297775,2063,2085,2072,2054,2056,2057,1195
1968,1710927181655281655,2045,2044,2041,2060,2055,2054,1194
1969,1710927181665303969,2052,2047,2053,2057,2052,2056,1197
1970,1710927181675303689,2057,2053,2061,2047,2056,2056,1196
1971,1710927181685306946,2046,2042,2039,2069,2058,2056,1197
1972,1710927181695305854,2052,2050,2064,2065,2055,2047,1193
1973,1710927181705225503,2064,2097,2090,2056,2053,2053,1197
1974,1710927181715302390,2047,2044,2041,2063,2057,2055,1195
1975,1710927181725295608,2052,2042,2049,2046,2049,2054,1195
1976,1710927181735292223,2052,2033,2054,2053,2042,2053,1196
1977,1710927181745293606,2047,2018,2045,2073,2052,2056,1194
1978,1710927181755316851,2054,2072,2118,2068,2056,2054,1195
1979,1710927181765303236,2051,2051,2051,2062,2050,2056,1193
1980,1710927181775281015,2049,2044,2044,2055,2053,2053,1193
1981,1710927181785306844,2050,2053,2106,2035,2047,2050,1193
1982,1710927181795215101,2054,2058,2045,2056,2052,2052,1194
1983,1710927181805302217,2047,2042,2037,2056,2048,2048,1195
1984,1710927181815300985,2057,2051,2073,2054,2061,2059,1195
1985,1710927181825303952,2062,2064,2090,2060,2056,2053,1195
1986,1710927181835296378,2056,2047,2033,2040,2049,2053,1194
1987,1710927181845299265,2056,2034,2029,2052,2051,2053,1194
1988,1710927181855293344,2054,2040,2020,2052,2052,2052,1194
1989,1710927181865299777,2048,2036,1994,2064,2053,2052,1194
1990,1710927181875300570,2056,2064,2035,2072,2053,2049,1196
1991,1710927181885299709,2050,2045,2066,2041,2047,2053,1195
1992,1710927181895298898,2052,2043,2041,2060,2058,2056,1195
1993,1710927181905308528,2056,2032,2066,2056,2046,2056,1195
1994,1710927181915310723,2053,2056,2047,2049,2052,2053,1196
1995,1710927181925299181,2051,2021,2046,2053,2056,2054,1193
1996,1710927181935297600,2068,2084,2060,2056,2060,2057,1195
1997,1710927181945322217,2058,2078,2082,2057,2050,2052,1197
1998,1710927181955298914,2052,2041,2041,2035,2052,2052,1196
1999,1710927181965311989,2057,2053,2047,2062,2052,2054,1194
2000,1710927181975300068,2053,2084,2089,2073,2043,2049,1194
2001,1710927181985261325,2053,2040,2059,2051,2051,2057,1196
2002,1710927181995300710,2060,2064,2064,2047,2049,2053,1195
2003,1710927182005299579,2059,2111,2053,2057,2050,2050,1194
2004,1710927182015303467,2048,2053,2042,2049,2052,2052,1194
2005,1710927182025253904,2061,2071,2108,2060,2052,2057,1194
2006,1710927182035266649,2056,2044,2084,2058,2055,2056,1195
2007,1710927182045241342,2052,2048,2014,2050,2056,2056,1195
2008,1710927182055265919,2070,2084,2098,2033,2060,2054,1193
2009,1710927182065294214,2056,2064,2073,2049,2070,2056,1195
2010,1710927182075345201,2059,2088,2073,2051,2048,2052,1195
2011,1710927182085331486,2054,2040,2028,2040,2052,2049,1196
2012,1710927182095300849,2050,2042,2038,2049,2050,2051,1195
2013,1710927182105299648,2062,2100,2077,2068,2055,2056,1195
2014,1710927182115300550,2055,2046,2046,2052,2047,2051,1195
2015,1710927182125298898,2052,2073,2052,2056,2053,2048,1195
2016,1710927182135298087,2068,2081,2067,2055,2050,2052,1195
2017,1710927182145298078,2056,2045,2044,2059,2056,2056,1195
2018,1710927182155298770,2049,2024,1978,2057,2055,2050,1193
2019,1710927182165301546,2053,2061,2058,2053,2056,2052,1193
2020,1710927182175309112,2053,2024,2036,2059,2052,2052,1194
2021,1710927182185298652,2072,2072,2072,2058,2056,2057,1195
2022,1710927182195299585,2052,2101,2052,2045,2048,2050,1196
2023,1710927182205299826,2052,2042,2044,2066,2056,2053,1195
2024,1710927182215300639,2052,2048,2032,2037,2054,2052,1193
2025,1710927182225285531,2062,2083,2128,2072,2056,2057,1196
2026,1710927182235269020,2046,2034,2037,2048,2051,2051,1196
2027,1710927182245305110,2057,2065,2068,2057,2056,2057,1195
2028,1710927182255303397,2061,2061,2063,2056,2056,2053,1195
2029,1710927182265305221,2050,2052,2053,2057,2057,2050,1195
2030,1710927182275303719,2045,2060,2025,2049,2047,2048,1195
2031,1710927182285293781,2053,2046,2044,2041,2053,2057,1197
2032,1710927182295303531,2049,2021,2014,2037,2047,2054,1195
2033,1710927182305304774,2046,2024,2045,2040,2040,2050,1193
2034,1710927182315314162,2056,2065,2092,2052,2049,2049,1196
2035,1710927182325305246,2056,2049,2058,2044,2052,2052,1195
2036,1710927182335267125,2054,2056,2037,2054,2050,2046,1191
2037,1710927182345310078,2053,2071,2059,2050,2052,2052,1193
2038,1710927182355264141,2045,2035,2037,2056,2053,2052,1196
2039,1710927182365239215,2052,2068,2032,2066,2051,2051,1193
2040,1710927182375309558,2046,2041,2051,2054,2053,2051,1195
2041,1710927182385300723,2054,2047,2025,2060,2052,2056,1195
2042,1710927182395307577,2056,2042,2024,2052,2076,2052,1196
2043,1710927182405309571,2060,2055,2049,2055,2036,2052,1195
2044,1710927182415306627,2060,2097,2056,2050,2052,2050,1196
2045,1710927182425316216,2056,2057,2068,2072,2058,2056,1194
2046,1710927182435301779,2061,2082,2113,2036,2048,2050,1194
2047,1710927182445305227,2052,2032,2036,2058,2054,2051,1195
2048,1710927182455307512,2062,2056,2052,2058,2057,2053,1194
2049,1710927182465305329,2069,2081,2040,2057,2054,2056,1195
2050,1710927182475307263,2057,2047,2040,2058,2045,2056,1194
2051,1710927182485314317,2049,2050,2068,2066,2051,2054,1193
2052,1710927182495257040,2061,2060,2069,2065,2057,2050,1195
2053,1710927182505281316,2053,2028,2028,2067,2054,2056,1197
2054,1710927182515310031,2050,2022,2066,2061,2060,2054,1196
2055,1710927182525313920,2057,2052,2080,2060,2052,2053,1195
2056,1710927182535252685,2051,2053,2037,2052,2052,2057,1196
2057,1710927182545285668,2060,2031,2052,2081,2053,2056,1194
2058,1710927182555212670,2064,2061,2047,2066,2052,2057,1194
2059,1710927182565294195,2052,2047,2042,2056,2050,2053,1193
2060,1710927182575250433,2057,2061,2053,2057,2052,2052,1197
2061,1710927182585253240,2053,2058,2065,2062,2053,2054,1196
2062,1710927182595300109,2053,2056,2097,2044,2050,2053,1194
2063,1710927182605239345,2052,2043,2033,2056,2049,2052,1197
2064,1710927182615264133,2056,2060,2052,2052,2056,2053,1194
2065,1710927182625241832,2049,2048,2046,2046,2049,2050,1196
2066,1710927182635306956,2047,2044,2041,2038,2056,2050,1194
2067,1710927182645246712,2043,2045,2039,2041,2052,2052,1195
2068,1710927182655305495,2061,2072,2047,2061,2054,2053,1194
2069,1710927182665297610,2048,2033,2036,2058,2048,2050,1195
2070,1710927182675269228,2046,2028,2044,2056,2052,2050,1194
2071,1710927182685301490,2050,2015,2055,2046,2054,2057,1195
2072,1710927182695306039,2061,2057,2057,2068,2052,2053,1195
2073,1710927182705304066,2058,2092,2074,2069,2055,2055,1195
2074,1710927182715292635,2057,2036,2008,2060,2053,2051,1193
2075,1710927182725298828,2059,2053,2050,2050,2053,2060,1193
2076,1710927182735298658,2054,2054,2057,2057,2052,2049,1195
2077,1710927182745301134,2056,2066,2053,2032,2046,2050,1195
2078,1710927182755302197,2051,2047,2044,2048,2051,2051,1194
2079,1710927182765300905,2056,2066,2080,2061,2054,2053,1194
2080,1710927182775305274,2062,2054,2051,2061,2039,2052,1195
2081,1710927182785241174,2052,2060,2056,2064,2053,2053,1193
2082,1710927182795257245,2052,2053,2060,2032,2047,2045,1191
2083,1710927182805302511,2051,2061,2109,2068,2056,2054,1195
2084,1710927182815213684,2061,2054,2051,2059,2056,2054,1197
2085,1710927182825235717,2053,2058,2070,2060,2053,2051,1196
2086,1710927182835301472,2054,2060,2045,2066,2056,2053,1192
2087,1710927182845320409,2049,2043,2044,2060,2052,2052,1196
2088,1710927182855293057,2054,2054,2049,2056,2051,2051,1193
2089,1710927182865297678,2056,2054,2056,2074,2056,2056,1196
2090,1710927182875303570,2043,2036,2112,2061,2058,2048,1195
2091,1710927182885302208,2052,2045,2045,2052,2052,2053,1196
2092,1710927182895310475,2049,2040,2044,2061,2056,2051,1194
2093,1710927182905312950,2058,2072,2073,2058,2050,2056,1194
2094,1710927182915317359,2054,2042,2028,2063,2055,2051,1196
2095,1710927182925307692,2064,2079,2088,2069,2056,2058,1194
2096,1710927182935322901,2049,2045,2049,2060,2053,2056,1193
2097,1710927182945297474,2055,2021,2053,2064,2053,2056,1196
2098,1710927182955298397,2058,2069,2128,2053,2057,2057,1195
2099,1710927182965305391,2053,2043,2049,2058,2052,2056,1194
2100,1710927182975299891,2048,2043,2041,2063,2053,2054,1195
2101,1710927182985311213,2067,2068,2058,2041,2048,2050,1194
2102,1710927182995301686,2050,2047,2028,2053,2047,2051,1194
2103,1710927183005301777,2061,2101,2056,2045,2049,2052,1193
2104,1710927183015298752,2046,2045,2048,2055,2056,2053,1195
2105,1710927183025299755,2040,2045,2045,2057,2047,2048,1198
2106,1710927183035297471,2059,2068,2035,2058,2056,2055,1194
2107,1710927183045328771,2057,2045,2052,2060,2053,2054,1195
2108,1710927183055304386,2056,2040,2013,2046,2049,2048,1194
2109,1710927183065305228,2048,2041,2033,2046,2052,2052,1196
2110,1710927183075293587,2060,2047,2040,2066,2058,2051,1196
2111,1710927183085300542,2058,2057,2049,2069,2056,2056,1195
2112,1710927183095298518,2069,2081,2026,2053,2056,2052,1193
2113,1710927183105304370,2054,2051,2050,2069,2054,2049,1195
2114,1710927183115300884,2058,2076,2057,2056,2056,2052,1192
2115,1710927183125297870,2051,2044,2025,2045,2053,2052,1196
2116,1710927183135298351,2056,2065,2049,2061,2056,2052,1195
2117,1710927183145295627,2058,2060,2056,2059,2050,2056,1195
2118,1710927183155296109,2057,2054,2027,2065,2056,2054,1193
2119,1710927183165299716,2057,2039,2056,2070,2056,2056,1193
2120,1710927183175296071,2060,2061,2094,2069,2058,2055,1196
2121,1710927183185300389,2057,2091,2128,2066,2053,2054,1193
2122,1710927183195294379,2058,2085,2049,2049,2052,2050,1194
2123,1710927183205323986,2049,2045,2036,2064,2056,2053,1193
2124,1710927183215308357,2056,2076,2047,2066,2056,2048,1195
2125,1710927183225304030,2052,2068,2147,2088,2058,2057,1194
2126,1710927183235297378,2056,2056,2050,2053,2049,2056,1195
2127,1710927183245297980,2060,2061,2053,2043,2056,2056,1192
2128,1710927183255295215,2045,2029,2032,2068,2060,2054,1195
2129,1710927183265295747,2064,2061,2076,2040,2055,2056,1194
2130,1710927183275303683,2056,2064,2063,2077,2060,2051,1193
2131,1710927183285298544,2054,2054,2057,2058,2050,2052,1196
2132,1710927183295296751,2060,2069,2053,2058,2054,2052,1193
2133,1710927183305301591,2056,2052,2047,2063,2053,2053,1195
2134,1710927183315320819,2051,2030,2024,2013,2049,2051,1194
2135,1710927183325297054,2047,2036,2037,2056,2052,2052,1195
2136,1710927183335298678,2058,2052,2046,2050,2056,2053,1195
2137,1710927183345301905,2057,2056,2056,2075,2056,2056,1194
2138,1710927183355300473,2058,2061,2101,2062,2056,2053,1193
2139,1710927183365301656,2043,2071,2036,2046,2048,2047,1190
2140,1710927183375294273,2057,2049,2026,2055,2054,2053,1193
2141,1710927183385304153,2053,2046,2053,2049,2052,2053,1196
2142,1710927183395302320,2060,2074,2077,2047,2058,2052,1196
2143,1710927183405300568,2057,2059,2064,2036,2051,2052,1195
2144,1710927183415303754,2057,2059,2096,2076,2057,2056,1194
2145,1710927183425306270,2056,2060,2065,2070,2053,2053,1193
2146,1710927183435303335,2048,2051,2050,2049,2053,2052,1195
2147,1710927183445299339,2051,2050,2025,2039,2048,2052,1194
2148,1710927183455299280,2066,2076,2078,2052,2056,2053,1195
2149,1710927183465301925,2056,2056,2090,2076,2054,2058,1195
2150,1710927183475326002,2053,2042,2043,2035,2052,2052,1194
2151,1710927183485300524,2052,2090,2062,2061,2050,2049,1197
2152,1710927183495298432,2049,2038,2037,2052,2054,2051,1196
2153,1710927183505302210,2050,2044,2044,2060,2053,2050,1195
2154,1710927183515300517,2053,2053,2038,2066,2053,2049,1198
2155,1710927183525290549,2056,2062,2089,2069,2056,2058,1195
2156,1710927183535306861,2051,2058,2048,2061,2047,2050,1194
2157,1710927183545310508,2056,2061,2060,2061,2054,2053,1195
2158,1710927183555308275,2057,2035,2047,2051,2050,2054,1196
2159,1710927183565311742,2047,2040,2029,2065,2052,2051,1192
2160,1710927183575313837,2055,2053,2049,2058,2053,2053,1193
2161,1710927183585303208,2060,2049,2038,2045,2053,2052,1194
2162,1710927183595307797,2057,2068,2066,2052,2056,2053,1195
2163,1710927183605325842,2048,2047,2045,2053,2051,2051,1197
2164,1710927183615325272,2053,2044,2047,2048,2053,2052,1196
2165,1710927183625315895,2047,2056,2045,2062,2049,2053,1194
2166,1710927183635315966,2054,2047,2039,2064,2052,2056,1197
2167,1710927183645311909,2054,2052,2053,2047,2053,2054,1194
2168,1710927183655310317,2062,2066,2116,2078,2060,2052,1195
2169,1710927183665320627,2046,2050,2050,2052,2050,2050,1195
2170,1710927183675312012,2051,2057,2065,2060,2051,2051,1196
2171,1710927183685321802,2057,2051,2053,2057,2057,2056,1194
2172,1710927183695313997,2058,2054,2058,2052,2050,2053,1194
2173,1710927183705310041,2056,2056,2052,2053,2052,2055,1193
2174,1710927183715309761,2061,2061,2116,2044,2057,2053,1196
2175,1710927183725307478,2069,2095,2164,2061,2058,2060,1193
2176,1710927183735327697,2052,2046,2041,2066,2054,2051,1196
2177,1710927183745304934,2057,2053,2047,2063,2056,2059,1195
2178,1710927183755298173,2052,2054,2067,2050,2058,2053,1194
2179,1710927183765300888,2056,2061,2066,2048,2057,2057,1192
2180,1710927183775304286,2053,2056,2043,2046,2044,2050,1194
2181,1710927183785309426,2057,2040,2054,2068,2056,2055,1196
2182,1710927183795298937,2057,2048,2054,2072,2056,2053,1195
2183,1710927183805305621,2052,2036,2036,2057,2052,2057,1195
2184,1710927183815302105,2057,2061,2080,2064,2060,2057,1194
2185,1710927183825309099,2058,2054,2051,2075,2050,2057,1192
2186,1710927183835304461,2049,2044,2032,2056,2047,2047,1193
2187,1710927183845302829,2051,2053,2064,2064,2057,2056,1196
2188,1710927183855307068,2054,2085,2084,2061,2053,2053,1194
2189,1710927183865302189,2056,2049,2042,2066,2055,2056,1193
2190,1710927183875302541,2060,2058,2050,2060,2056,2052,1195
2191,1710927183885307771,2052,2039,2047,2055,2052,2052,1196
2192,1710927183895304817,2060,2054,2069,2029,2051,2052,1196
2193,1710927183905313604,2060,2059,2040,2049,2054,2053,1195
2194,1710927183915298286,2052,2030,2037,2038,2052,2053,1196
2195,1710927183925303567,2060,2047,2082,2033,2057,2056,1196
2196,1710927183935301934,2048,2036,2045,2059,2053,2054,1196
2197,1710927183945321051,2050,2051,2050,2062,2056,2054,1194
2198,1710927183955302347,2056,2053,2057,2066,2056,2054,1197
2199,1710927183965302508,2043,2036,2019,2068,2050,2045,1192
2200,1710927183975297509,2062,2066,2068,2057,2056,2053,1196
2201,1710927183985306928,2052,2032,2049,2072,2053,2056,1194
2202,1710927183995300757,2049,2036,2047,2058,2056,2053,1195
2203,1710927184005301409,2047,2045,2058,2057,2051,2054,1192
2204,1710927184015297633,2053,2043,2038,2060,2050,2049,1194
2205,1710927184025299227,2049,2050,2035,2057,2050,2052,1195
2206,1710927184035296632,2057,2056,2056,2077,2052,2052,1194
2207,1710927184045297135,2057,2068,2136,2049,2049,2052,1196
2208,1710927184055325700,2067,2068,2050,2054,2052,2048,1197
2209,1710927184065300683,2046,2032,2049,2055,2057,2052,1194
2210,1710927184075300774,2059,2079,2050,2065,2054,2052,1194
2211,1710927184085298230,2064,2047,2040,2060,2056,2057,1196
2212,1710927184095302329,2052,2038,2022,2056,2052,2054,1195
