seq,time,data[0],data[1],data[2],data[3],data[4],data[5],data[6]
201,1710994464779344587,1815,2292,2378,2137,2581,2142,1193
202,1710994464789385738,2285,1800,1805,1972,1499,1962,1191
203,1710994464799346805,1837,2270,2296,2122,2579,2130,1195
204,1710994464809377235,2268,1808,1820,1985,1498,1967,1191
205,1710994464819348101,1835,2292,2272,2124,2560,2138,1196
206,1710994464829363272,2273,1841,1858,2000,1537,1976,1192
207,1710994464839345249,1838,2286,2247,2136,2572,2125,1194
208,1710994464849365189,2244,1832,1865,2000,1547,1972,1192
209,1710994464859343419,1853,2278,2298,2116,2538,2129,1192
210,1710994464869369381,2248,1853,1849,1997,1554,1981,1192
211,1710994464879344886,1845,2281,2313,2120,2533,2112,1194
212,1710994464889364565,2232,1848,1871,1989,1569,1979,1191
213,1710994464899362462,1874,2278,2253,2130,2538,2126,1195
214,1710994464909367024,2240,1824,1867,1997,1602,1977,1191
215,1710994464919346626,1876,2280,2208,2131,2525,2128,1194
216,1710994464929366175,2232,1847,1890,2000,1585,1979,1192
217,1710994464939346870,1867,2303,2236,2107,2477,2105,1193
218,1710994464949364836,2208,1834,1873,1992,1588,1980,1191
219,1710994464959348337,1870,2280,2291,2118,2492,2095,1194
220,1710994464969365912,2201,1824,1848,2001,1616,1984,1192
221,1710994464979348069,1901,2272,2317,2104,2489,2107,1195
222,1710994464989363661,2210,1849,1873,2007,1586,2004,1192
223,1710994464999346530,1888,2268,2217,2109,2508,2096,1194
224,1710994465009363975,2199,1827,1878,2009,1631,2024,1190
225,1710994465019345561,1916,2264,2164,2114,2476,2102,1193
226,1710994465029365991,2166,1854,1868,1992,1660,2008,1192
227,1710994465039345533,1900,2265,2209,2103,2464,2090,1194
228,1710994465049362286,2193,1875,1952,2021,1640,2015,1192
229,1710994465059346116,1901,2253,2276,2096,2461,2098,1193
230,1710994465069365746,2181,1838,1877,2011,1632,2016,1192
231,1710994465079344876,1906,2263,2236,2097,2457,2080,1192
232,1710994465089364375,2205,1889,1934,2018,1661,2012,1190
233,1710994465099346282,1946,2265,2133,2096,2456,2074,1193
234,1710994465109366852,2183,1838,1928,2005,1706,2013,1189
235,1710994465119345061,1947,2246,2298,2092,2420,2072,1193
236,1710994465129365532,2157,1842,1899,2009,1680,2032,1189
237,1710994465139346927,1932,2241,2222,2094,2413,2084,1193
238,1710994465149364833,2150,1864,1913,2018,1712,2028,1189
239,1710994465159345768,1940,2200,2113,2089,2402,2088,1195
240,1710994465169366398,2154,1851,1915,2015,1699,2056,1193
241,1710994465179347262,1953,2243,2280,2095,2392,2085,1195
242,1710994465189364106,2143,1854,1924,2025,1766,2051,1194
243,1710994465199346173,1960,2249,2257,2098,2361,2069,1195
244,1710994465209364920,2134,1858,1934,2031,1754,2041,1193
245,1710994465219348209,1961,2236,2120,2091,2385,2088,1193
246,1710994465229372427,2143,1862,1926,2028,1732,2062,1195
247,1710994465239348041,1965,2228,2224,2083,2372,2071,1194
248,1710994465249367870,2145,1877,1919,2018,1755,2054,1197
249,1710994465259347152,1973,2242,2235,2068,2343,2070,1192
250,1710994465269367291,2122,1868,1936,2019,1756,2041,1192
251,1710994465279348496,1965,2235,2267,2089,2382,2074,1195
252,1710994465289396830,2120,1859,1938,2031,1753,2060,1194
253,1710994465299358548,1996,2248,2248,2085,2388,2082,1195
254,1710994465309370122,2109,1869,1921,2029,1776,2068,1195
255,1710994465319345475,1989,2222,2260,2082,2365,2052,1193
256,1710994465329371276,2074,1865,1916,2035,1790,2080,1196
257,1710994465339350126,1992,2257,2163,2077,2340,2056,1196
258,1710994465349370156,2112,1909,2037,2038,1798,2077,1196
259,1710994465359348415,2002,2243,2155,2080,2369,2065,1196
260,1710994465369369557,2101,1885,1963,2034,1805,2097,1193
261,1710994465379349781,1992,2241,2085,2080,2340,2050,1194
262,1710994465389368307,2092,1874,1957,2052,1800,2095,1195
263,1710994465399351636,1986,2221,2160,2086,2343,2061,1196
264,1710994465409368149,2100,1860,1962,2041,1813,2108,1195
265,1710994465419356638,1992,2221,2218,2077,2332,2050,1194
266,1710994465429369073,2086,1892,1979,2039,1816,2097,1196
267,1710994465439354196,2004,2219,2109,2068,2336,2044,1192
268,1710994465449367873,2104,1932,1986,2043,1850,2090,1195
269,1710994465459355490,2010,2218,2214,2080,2292,2043,1189
270,1710994465469369038,2073,1889,1957,2031,1824,2094,1195
271,1710994465479357136,2015,2224,2102,2059,2276,2044,1192
272,1710994465489366385,2083,1911,1992,2049,1880,2104,1194
273,1710994465499358410,2008,2220,2159,2068,2312,2021,1189
274,1710994465509366838,2057,1882,1970,2057,1851,2096,1196
275,1710994465519343294,2034,2292,2260,2076,2301,2041,1189
276,1710994465529365979,2057,1889,1992,2046,1850,2116,1194
277,1710994465539360510,2005,2221,2204,2073,2288,2026,1190
278,1710994465549367203,2042,1897,1957,2046,1905,2112,1195
279,1710994465559345282,2039,2222,2227,2065,2264,2024,1192
280,1710994465569366224,2052,1913,1964,2043,1880,2127,1195
281,1710994465579365694,2026,2202,2169,2074,2258,2036,1192
282,1710994465589371957,2049,1888,1977,2046,1904,2126,1194
283,1710994465599348894,2028,2217,2138,2070,2252,2033,1189
284,1710994465609368172,2033,1902,1975,2054,1929,2122,1196
285,1710994465619348635,2034,2194,2154,2059,2242,2025,1191
286,1710994465629368786,2030,1900,1996,2057,1899,2139,1193
287,1710994465639349049,2023,2204,2168,2068,2234,2017,1190
288,1710994465649370230,2036,1896,1985,2061,1936,2138,1196
289,1710994465659346796,2044,2195,2146,2066,2240,2005,1189
290,1710994465669373279,2026,1912,2004,2057,1937,2138,1194
291,1710994465679349624,2031,2204,2196,2074,2214,2018,1189
292,1710994465689373572,2008,1909,2007,2058,1952,2157,1194
293,1710994465699348695,2048,2217,2206,2064,2220,1984,1191
294,1710994465709374556,2012,1920,1993,2069,1968,2152,1194
295,1710994465719347484,2043,2220,2110,2062,2218,1993,1187
296,1710994465729375991,2002,1912,2034,2061,1936,2160,1193
297,1710994465739349241,2052,2198,2073,2053,2184,1992,1190
298,1710994465749377466,2005,1917,2010,2069,1969,2138,1194
299,1710994465759350926,2050,2198,2116,2061,2191,1982,1191
300,1710994465769378561,2016,1905,1996,2066,1973,2161,1196
301,1710994465779349826,2062,2188,2134,2060,2172,1994,1192
302,1710994465789380757,1989,1911,1978,2068,2003,2164,1197
303,1710994465799348817,2069,2213,2139,2064,2195,1974,1191
304,1710994465809381621,1990,1909,2034,2076,1957,2180,1197
305,1710994465819349661,2068,2222,2097,2054,2168,1968,1193
306,1710994465829366124,1980,1921,2040,2077,1980,2168,1197
307,1710994465839347919,2077,2205,2088,2057,2188,1961,1189
308,1710994465849366657,1985,1929,2010,2073,2037,2167,1194
309,1710994465859348784,2076,2246,2105,2052,2177,1967,1189
310,1710994465869368382,1986,1921,2036,2072,2016,2173,1193
311,1710994465879352853,2070,2167,2106,2045,2153,1963,1192
312,1710994465889370619,1965,1932,2046,2076,2026,2194,1195
313,1710994465899348467,2094,2184,2160,2050,2170,1981,1190
314,1710994465909368577,1970,1951,2025,2070,2036,2188,1197
315,1710994465919347568,2080,2147,2124,2040,2137,1967,1190
316,1710994465929365945,1973,1930,2060,2074,2050,2197,1195
317,1710994465939391745,2106,2158,2168,2049,2145,1953,1190
318,1710994465949372379,1955,1926,2029,2075,2052,2188,1194
319,1710994465959346971,2099,2193,2052,2049,2120,1958,1191
320,1710994465969369667,1963,1944,2056,2076,2018,2197,1197
321,1710994465979350711,2092,2172,2144,2043,2133,1952,1190
322,1710994465989370951,1949,1929,2052,2077,2053,2185,1196
323,1710994465999349761,2120,2168,2065,2049,2090,1955,1189
324,1710994466009369450,1942,1953,2092,2084,2064,2192,1195
325,1710994466019350564,2116,2176,2094,2049,2079,1951,1189
326,1710994466029370894,1944,1958,2039,2075,2093,2189,1196
327,1710994466039349133,2108,2176,2075,2037,2076,1939,1189
328,1710994466049370404,1928,1956,2086,2082,2081,2208,1193
329,1710994466059349915,2129,2176,2133,2042,2077,1917,1186
330,1710994466069369313,1932,1990,2064,2087,2120,2209,1195
331,1710994466079349736,2113,2160,2085,2043,2095,1936,1188
332,1710994466089369565,1911,1947,2057,2089,2086,2221,1196
333,1710994466099350358,2136,2189,2039,2041,2076,1921,1190
334,1710994466109369275,1930,1954,2068,2086,2124,2238,1196
335,1710994466119351882,2131,2177,2006,2030,2052,1932,1192
336,1710994466129371210,1928,1995,2109,2085,2136,2210,1197
337,1710994466139354739,2136,2155,2061,2036,2043,1920,1190
338,1710994466149372794,1917,1962,2074,2093,2128,2221,1196
339,1710994466159355301,2143,2176,2146,2043,2052,1914,1189
340,1710994466169362596,1910,1950,2075,2095,2150,2211,1195
341,1710994466179355312,2136,2161,2113,2027,2028,1923,1189
342,1710994466189369109,1910,1961,2067,2096,2144,2226,1195
343,1710994466199355464,2169,2202,2074,2028,2022,1898,1191
344,1710994466209367738,1891,1964,2058,2091,2145,2226,1196
345,1710994466219358310,2152,2150,2074,2026,2041,1912,1190
346,1710994466229367318,1880,1972,2069,2098,2168,2229,1196
347,1710994466239359804,2162,2160,2073,2025,1998,1921,1192
348,1710994466249368251,1889,1963,2078,2112,2186,2260,1197
349,1710994466259345488,2158,2158,2005,2025,2010,1907,1188
350,1710994466269363753,1896,1968,2118,2105,2190,2264,1197
351,1710994466279360728,2159,2164,2064,2021,2009,1904,1189
352,1710994466289367943,1872,1961,2086,2106,2171,2236,1197
353,1710994466299344889,2162,2152,2009,2019,2012,1894,1188
354,1710994466309339498,1881,1962,2084,2099,2209,2249,1196
355,1710994466319348827,2165,2137,2024,2000,1955,1884,1189
356,1710994466329367985,1882,1989,2079,2097,2204,2240,1195
357,1710994466339347847,2172,2179,1972,2010,1964,1878,1189
358,1710994466349367014,1881,1962,2096,2093,2206,2248,1196
359,1710994466359351033,2176,2148,2062,2022,1945,1882,1191
360,1710994466369370942,1873,1965,2083,2101,2221,2260,1199
361,1710994466379349231,2172,2132,2080,2042,1961,1880,1189
362,1710994466389372226,1858,1965,2130,2106,2230,2269,1196
363,1710994466399348961,2193,2129,2000,2017,1968,1861,1189
364,1710994466409371816,1879,2022,2141,2102,2234,2285,1195
365,1710994466419348883,2179,2134,2028,2018,1949,1871,1189
366,1710994466429373531,1862,1990,2123,2109,2240,2290,1196
367,1710994466439347481,2207,2136,2024,2008,1924,1857,1189
368,1710994466449373922,1857,1968,2135,2107,2280,2295,1195
369,1710994466459348214,2220,2166,1974,2009,1909,1853,1187
370,1710994466469374204,1852,1996,2115,2104,2251,2288,1195
371,1710994466479349637,2228,2130,2055,2006,1896,1858,1190
372,1710994466489377792,1838,1988,2127,2109,2250,2289,1196
373,1710994466499348005,2219,2137,2045,2013,1912,1838,1188
374,1710994466509378965,1829,1996,2129,2118,2245,2291,1196
375,1710994466519345260,2227,2142,2072,2007,1871,1849,1191
376,1710994466529379818,1828,1970,2092,2109,2283,2271,1197
377,1710994466539351484,2232,2136,2079,2002,1880,1845,1190
378,1710994466549379979,1803,1952,2120,2117,2315,2293,1196
379,1710994466559351755,2233,2119,1990,2002,1890,1840,1192
380,1710994466569368228,1808,2003,2165,2119,2293,2282,1195
381,1710994466579351827,2221,2132,1985,1998,1884,1843,1188
382,1710994466589369812,1787,1980,2142,2117,2330,2296,1196
383,1710994466599350605,2226,2128,2039,2003,1857,1846,1192
384,1710994466609370604,1793,1996,2162,2116,2335,2301,1197
385,1710994466619349524,2251,2132,2016,2018,1849,1830,1189
386,1710994466629367720,1804,2008,2160,2120,2344,2305,1196
387,1710994466639349526,2248,2145,2014,2003,1824,1836,1189
388,1710994466649368803,1825,2012,2171,2122,2320,2294,1196
389,1710994466659350989,2259,2140,1976,2002,1809,1816,1187
390,1710994466669370938,1796,2012,2152,2117,2337,2312,1195
391,1710994466679354127,2236,2108,2040,1994,1839,1824,1192
392,1710994466689369266,1794,2010,2179,2119,2347,2314,1196
393,1710994466699348316,2268,2113,1985,1995,1832,1821,1191
394,1710994466709368115,1783,2005,2182,2134,2347,2326,1198
395,1710994466719346965,2273,2109,1949,1997,1832,1822,1189
396,1710994466729367285,1797,2021,2197,2132,2372,2315,1196
397,1710994466739351635,2268,2123,1989,1990,1808,1823,1190
398,1710994466749366274,1780,2025,2147,2123,2376,2318,1197
399,1710994466759349121,2270,2091,1991,1992,1797,1812,1189
400,1710994466769366164,1784,2018,2192,2122,2388,2314,1196
401,1710994466779349142,2268,2109,2025,1997,1794,1797,1189
402,1710994466789369903,1774,2037,2190,2134,2372,2312,1197
403,1710994466799347821,2273,2088,1960,1991,1773,1802,1189
404,1710994466809368040,1771,2027,2185,2136,2380,2324,1199
405,1710994466819346950,2289,2090,1992,1993,1752,1808,1190
406,1710994466829366769,1761,2022,2157,2132,2396,2316,1196
407,1710994466839357161,2279,2098,1942,1993,1796,1788,1190
408,1710994466849365918,1750,2016,2200,2136,2392,2315,1197
409,1710994466859344106,2304,2102,1945,1999,1779,1805,1188
410,1710994466869366560,1756,2018,2232,2138,2364,2320,1198
411,1710994466879344789,2299,2109,2005,1981,1796,1788,1189
412,1710994466889365079,1722,2033,2181,2148,2408,2314,1196
413,1710994466899346443,2308,2082,1962,1984,1754,1789,1189
414,1710994466909366843,1752,2050,2196,2134,2400,2325,1195
415,1710994466919345763,2313,2103,1983,1986,1774,1797,1189
416,1710994466929365772,1738,2044,2204,2137,2436,2324,1195
417,1710994466939345032,2311,2085,1887,1982,1719,1784,1189
418,1710994466949371043,1736,2047,2200,2123,2413,2334,1198
419,1710994466959347589,2304,2080,1959,1985,1722,1786,1190
420,1710994466969367718,1736,2030,2197,2144,2450,2326,1197
421,1710994466979351186,2321,2092,1944,1985,1700,1786,1189
422,1710994466989371727,1741,2045,2220,2138,2446,2328,1196
423,1710994466999348783,2336,2090,1945,1979,1720,1786,1187
424,1710994467009367901,1756,2069,2194,2144,2424,2330,1197
425,1710994467019349615,2330,2074,1944,1976,1740,1779,1189
426,1710994467029366598,1760,2060,2226,2139,2442,2316,1196
427,1710994467039346458,2332,2068,1952,1974,1719,1764,1188
428,1710994467049366237,1726,2052,2216,2143,2458,2337,1196
429,1710994467059346820,2332,2069,1915,1983,1699,1773,1188
430,1710994467069368100,1698,2056,2184,2144,2473,2326,1196
431,1710994467079348362,2331,2072,1906,1976,1705,1772,1187
432,1710994467089348081,1728,2056,2214,2140,2470,2337,1195
433,1710994467099348392,2345,2081,1952,1974,1700,1760,1189
434,1710994467109366627,1712,2069,2236,2144,2463,2336,1196
435,1710994467119349945,2349,2041,1919,1975,1678,1764,1191
436,1710994467129365414,1702,2064,2238,2144,2484,2340,1197
437,1710994467139350946,2352,2067,1936,1973,1683,1765,1189
438,1710994467149366327,1712,2065,2240,2136,2493,2344,1196
439,1710994467159352520,2374,2067,1931,1973,1668,1761,1189
440,1710994467169366186,1701,2046,2181,2142,2453,2353,1198
441,1710994467179354082,2347,2075,1925,1980,1674,1764,1189
442,1710994467189364832,1704,2065,2226,2144,2472,2359,1197
443,1710994467199355996,2366,2096,1872,1968,1672,1759,1189
444,1710994467209366105,1690,2062,2193,2138,2486,2343,1197
445,1710994467219357949,2372,2069,1916,1973,1642,1753,1188
446,1710994467229365083,1688,2056,2196,2149,2494,2352,1199
447,1710994467239359482,2361,2042,1914,1962,1664,1753,1188
448,1710994467249367267,1675,2072,2208,2155,2525,2359,1196
449,1710994467259342870,2372,2039,1909,1967,1665,1751,1188
450,1710994467269366445,1706,2085,2246,2143,2526,2350,1196
451,1710994467279344563,2387,2052,1868,1965,1636,1763,1188
452,1710994467289367878,1660,2059,2229,2133,2465,2379,1196
453,1710994467299345625,2384,2051,1884,1969,1653,1760,1190
454,1710994467309366796,1650,2064,2220,2150,2544,2368,1198
455,1710994467319347157,2376,2044,1870,1972,1620,1754,1189
456,1710994467329365633,1683,2056,2228,2144,2501,2376,1197
457,1710994467339347499,2382,2040,1880,1953,1616,1752,1190
458,1710994467349366866,1690,2088,2250,2144,2504,2362,1195
459,1710994467359347368,2400,2042,1889,1966,1628,1740,1189
460,1710994467369369370,1691,2088,2248,2145,2502,2346,1198
461,1710994467379352788,2390,2054,1897,1973,1616,1732,1189
462,1710994467389373388,1656,2065,2266,2144,2520,2374,1196
463,1710994467399348089,2386,2026,1908,1964,1629,1733,1189
464,1710994467409372496,1678,2080,2229,2148,2548,2367,1197
465,1710994467419347848,2404,2046,1888,1959,1592,1750,1189
466,1710994467429373638,1663,2084,2276,2152,2533,2377,1197
467,1710994467439348880,2422,2051,1876,1966,1613,1744,1188
468,1710994467449376443,1637,2117,2273,2152,2564,2368,1196
469,1710994467459350663,2410,2035,1913,1968,1583,1742,1189
470,1710994467469376603,1655,2083,2205,2166,2574,2393,1196
471,1710994467479350032,2392,2033,1853,1962,1582,1736,1186
472,1710994467489378076,1664,2095,2269,2159,2579,2372,1195
473,1710994467499350523,2409,2029,1838,1949,1583,1729,1188
474,1710994467509380761,1669,2117,2263,2152,2563,2365,1197
475,1710994467519348147,2404,2026,1885,1966,1584,1736,1191
476,1710994467529364560,1653,2098,2267,2156,2564,2380,1199
477,1710994467539349380,2432,2031,1867,1952,1550,1727,1189
478,1710994467549382754,1657,2072,2240,2165,2576,2378,1197
479,1710994467559348598,2416,2024,1889,1962,1535,1712,1190
480,1710994467569367003,1648,2082,2258,2172,2560,2384,1200
481,1710994467579346595,2450,2062,1859,1956,1556,1715,1190
482,1710994467589367705,1636,2085,2232,2154,2576,2389,1198
483,1710994467599347376,2433,2033,1844,1955,1560,1731,1190
484,1710994467609366332,1629,2088,2252,2157,2564,2378,1197
485,1710994467619347506,2445,2028,1906,1960,1565,1725,1188
486,1710994467629368757,1637,2085,2267,2164,2561,2388,1199
487,1710994467639345141,2439,2029,1858,1954,1563,1717,1191
488,1710994467649369037,1622,2122,2266,2155,2610,2384,1196
489,1710994467659345331,2426,2020,1850,1963,1536,1726,1188
490,1710994467669368166,1630,2099,2278,2156,2580,2400,1197
491,1710994467679345131,2437,2017,1853,1954,1533,1721,1190
492,1710994467689368476,1631,2096,2272,2157,2579,2380,1197
493,1710994467699347595,2444,1980,1812,1948,1548,1714,1191
494,1710994467709367964,1632,2096,2250,2154,2593,2401,1195
495,1710994467719348287,2446,2019,1827,1950,1523,1716,1190
496,1710994467729367504,1633,2109,2236,2160,2597,2398,1199
497,1710994467739345611,2447,2010,1825,1952,1541,1717,1189
498,1710994467749366451,1637,2104,2299,2168,2632,2402,1198
499,1710994467759347274,2459,2013,1833,1955,1503,1709,1190
500,1710994467769366401,1618,2081,2259,2154,2597,2392,1197
501,1710994467779345280,2456,1997,1862,1952,1503,1713,1187
502,1710994467789367954,1627,2104,2278,2160,2622,2419,1198
503,1710994467799349668,2444,2024,1816,1951,1531,1707,1189
504,1710994467809367944,1618,2100,2302,2174,2636,2409,1197
505,1710994467819348226,2473,2012,1817,1963,1531,1697,1187
506,1710994467829366751,1609,2104,2275,2147,2619,2401,1197
507,1710994467839349638,2461,1989,1812,1961,1524,1714,1188
508,1710994467849368734,1614,2076,2283,2165,2642,2421,1197
509,1710994467859350330,2447,2006,1794,1953,1507,1692,1187
510,1710994467869364406,1613,2106,2282,2162,2645,2402,1197
511,1710994467879350129,2470,2020,1820,1949,1493,1694,1189
512,1710994467889364175,1604,2107,2269,2161,2654,2401,1198
513,1710994467899350418,2470,2005,1832,1945,1468,1692,1189
514,1710994467909364476,1610,2121,2270,2157,2648,2412,1198
515,1710994467919352944,2461,2014,1805,1948,1455,1685,1191
516,1710994467929364416,1640,2122,2288,2158,2625,2412,1197
517,1710994467939355137,2468,2020,1828,1948,1483,1688,1190
518,1710994467949365588,1603,2102,2266,2169,2657,2425,1197
519,1710994467959356440,2487,1992,1813,1942,1459,1672,1189
520,1710994467969364015,1620,2112,2270,2168,2676,2429,1198
521,1710994467979356981,2469,1996,1833,1941,1477,1685,1188
522,1710994467989366409,1597,2116,2280,2164,2699,2424,1196
523,1710994467999359286,2485,1986,1804,1938,1444,1672,1187
524,1710994468009364795,1601,2114,2281,2170,2694,2439,1197
525,1710994468019347630,2488,2025,1813,1946,1472,1674,1188
526,1710994468029370444,1608,2126,2282,2166,2664,2429,1198
527,1710994468039346688,2488,2000,1840,1936,1459,1673,1190
528,1710994468049365152,1609,2104,2279,2170,2664,2430,1196
529,1710994468059344432,2488,1976,1831,1945,1434,1662,1186
530,1710994468069364430,1604,2114,2276,2141,2708,2444,1197
531,1710994468079345422,2488,2004,1797,1934,1437,1666,1190
532,1710994468089364508,1624,2124,2302,2170,2702,2450,1196
533,1710994468099345151,2489,1982,1839,1947,1432,1652,1188
534,1710994468109366581,1592,2125,2301,2178,2716,2458,1197
535,1710994468119346732,2497,1977,1784,1963,1400,1645,1188
536,1710994468129369886,1590,2133,2322,2175,2735,2453,1197
537,1710994468139345298,2514,1988,1776,1936,1394,1656,1190
538,1710994468149369644,1586,2128,2336,2174,2697,2461,1199
539,1710994468159344626,2492,2008,1764,1938,1379,1632,1190
540,1710994468169370334,1587,2144,2320,2176,2756,2456,1198
541,1710994468179345305,2521,1990,1758,1924,1365,1646,1189
542,1710994468189374931,1584,2130,2328,2172,2760,2480,1197
543,1710994468199342859,2512,1987,1774,1944,1367,1636,1189
544,1710994468209350724,1577,2149,2321,2168,2765,2463,1198
545,1710994468219332888,2516,1971,1804,1913,1348,1622,1188
546,1710994468229375960,1579,2136,2328,2192,2763,2483,1199
547,1710994468239345331,2515,1960,1797,1940,1340,1624,1189
548,1710994468249380197,1576,2185,2320,2184,2764,2491,1196
549,1710994468259347614,2501,1945,1776,1925,1317,1612,1187
550,1710994468269381559,1589,2172,2369,2178,2782,2495,1195
551,1710994468279349145,2509,1953,1739,1938,1310,1597,1188
552,1710994468289369814,1561,2155,2336,2198,2818,2485,1197
553,1710994468299357811,2537,1948,1787,1920,1300,1613,1188
554,1710994468309372338,1557,2163,2353,2180,2796,2493,1196
555,1710994468319356096,2523,1955,1736,1915,1320,1598,1189
556,1710994468329371736,1565,2167,2342,2186,2813,2498,1197
557,1710994468339350994,2542,1954,1748,1913,1268,1597,1187
558,1710994468349373477,1550,2209,2346,2190,2816,2508,1198
559,1710994468359349591,2537,1938,1719,1913,1278,1595,1189
560,1710994468369369167,1545,2164,2376,2190,2812,2511,1199
561,1710994468379350200,2561,1938,1753,1906,1277,1586,1190
562,1710994468389370509,1557,2168,2350,2201,2829,2513,1198
563,1710994468399358825,2562,1947,1775,1905,1272,1584,1188
564,1710994468409374365,1540,2179,2348,2201,2857,2513,1197
565,1710994468419353073,2565,1934,1754,1903,1245,1560,1189
566,1710994468429366969,1536,2200,2399,2202,2840,2516,1196
567,1710994468439345477,2584,1917,1722,1907,1234,1572,1190
568,1710994468449366006,1512,2178,2399,2190,2863,2535,1198
569,1710994468459347700,2576,1920,1725,1889,1201,1552,1186
570,1710994468469366806,1506,2194,2396,2218,2896,2530,1199
571,1710994468479351366,2577,1932,1690,1899,1192,1558,1189
572,1710994468489371814,1509,2196,2413,2204,2880,2522,1198
573,1710994468499347737,2592,1913,1721,1902,1209,1557,1189
574,1710994468509373948,1501,2210,2442,2222,2932,2548,1197
575,1710994468519349799,2581,1905,1672,1906,1205,1563,1188
576,1710994468529367163,1480,2176,2377,2212,2911,2561,1198
577,1710994468539348196,2608,1910,1720,1873,1185,1541,1187
578,1710994468549367421,1505,2207,2403,2216,2920,2546,1199
579,1710994468559346030,2627,1926,1688,1896,1203,1571,1189
580,1710994468569366278,1454,2176,2385,2219,2929,2533,1198
581,1710994468579352060,2640,1900,1706,1883,1165,1546,1190
582,1710994468589367189,1468,2206,2420,2214,2943,2534,1201
583,1710994468599345617,2644,1899,1704,1887,1141,1556,1188
584,1710994468609366155,1458,2208,2437,2220,2939,2538,1199
585,1710994468619347168,2658,1891,1658,1883,1165,1552,1188
586,1710994468629365332,1457,2213,2413,2213,2948,2534,1197
587,1710994468639345954,2649,1876,1667,1893,1146,1563,1186
588,1710994468649366233,1462,2222,2438,2220,2973,2543,1198
589,1710994468659345141,2664,1898,1672,1887,1172,1562,1184
590,1710994468669366411,1451,2221,2424,2220,2962,2537,1199
591,1710994468679349989,2664,1890,1674,1885,1144,1560,1189
592,1710994468689368835,1452,2227,2441,2222,2974,2526,1200
593,1710994468699348334,2669,1876,1666,1900,1147,1568,1189
594,1710994468709365998,1426,2204,2444,2210,2958,2524,1200
595,1710994468719344124,2690,1897,1660,1884,1144,1557,1188
596,1710994468729367359,1427,2250,2457,2233,2945,2534,1199
597,1710994468739346889,2693,1885,1672,1888,1141,1564,1188
598,1710994468749366646,1429,2220,2484,2230,2961,2513,1196
599,1710994468759347989,2707,1885,1689,1874,1156,1572,1186
600,1710994468769364210,1405,2237,2446,2213,2931,2510,1198
601,1710994468779346615,2698,1861,1646,1877,1145,1566,1187
602,1710994468789366924,1413,2216,2474,2219,2932,2516,1199
603,1710994468799345121,2690,1875,1656,1876,1126,1569,1188
604,1710994468809366060,1387,2245,2435,2225,2946,2504,1199
605,1710994468819356131,2706,1864,1682,1890,1160,1585,1188
606,1710994468829366100,1390,2228,2466,2227,2948,2521,1197
607,1710994468839347973,2685,1876,1666,1868,1139,1578,1187
608,1710994468849366559,1406,2248,2464,2207,2920,2497,1196
609,1710994468859349215,2725,1883,1646,1879,1157,1588,1186
610,1710994468869365365,1390,2223,2475,2210,2916,2497,1197
611,1710994468879350686,2720,1875,1717,1894,1155,1583,1187
612,1710994468889364853,1408,2233,2424,2219,2915,2505,1199
613,1710994468899352087,2704,1846,1702,1896,1152,1584,1188
614,1710994468909365994,1381,2229,2482,2210,2890,2500,1194
615,1710994468919353339,2688,1855,1695,1873,1183,1582,1188
616,1710994468929368266,1412,2229,2477,2217,2894,2484,1197
617,1710994468939354900,2696,1870,1658,1870,1188,1588,1188
618,1710994468949366953,1402,2220,2450,2216,2872,2500,1196
619,1710994468959356772,2712,1868,1654,1888,1177,1582,1188
620,1710994468969367643,1392,2240,2432,2221,2896,2478,1199
621,1710994468979357894,2709,1870,1676,1893,1136,1592,1188
622,1710994468989365326,1394,2253,2449,2213,2940,2466,1199
623,1710994468999361769,2701,1861,1644,1896,1171,1602,1189
624,1710994469009366417,1402,2224,2460,2212,2916,2479,1199
625,1710994469019343011,2708,1881,1694,1892,1193,1597,1188
626,1710994469029368970,1412,2226,2412,2205,2888,2484,1197
627,1710994469039362185,2698,1872,1663,1896,1183,1592,1186
628,1710994469049366973,1404,2214,2440,2214,2897,2480,1197
629,1710994469059343306,2693,1901,1652,1895,1204,1592,1185
630,1710994469069365828,1411,2228,2405,2208,2881,2473,1197
631,1710994469079342432,2696,1878,1666,1886,1192,1581,1188
632,1710994469089367439,1428,2233,2452,2204,2906,2478,1197
633,1710994469099341948,2688,1901,1694,1886,1148,1592,1186
634,1710994469109368588,1420,2232,2428,2201,2898,2485,1197
635,1710994469119342928,2684,1873,1637,1887,1185,1576,1186
636,1710994469129368826,1413,2234,2393,2208,2908,2476,1198
637,1710994469139342083,2684,1900,1697,1887,1160,1591,1187
638,1710994469149370096,1417,2233,2469,2205,2868,2489,1195
639,1710994469159343343,2689,1874,1672,1891,1148,1579,1187
640,1710994469169373780,1444,2227,2441,2205,2929,2478,1199
641,1710994469179342819,2696,1864,1661,1898,1162,1582,1188
642,1710994469189373317,1423,2230,2429,2196,2898,2483,1197
643,1710994469199346615,2685,1866,1638,1895,1180,1562,1188
644,1710994469209374547,1429,2236,2439,2208,2909,2497,1198
645,1710994469219343115,2688,1868,1665,1884,1157,1572,1188
646,1710994469229376097,1449,2251,2428,2222,2909,2485,1198
647,1710994469239344044,2682,1916,1647,1893,1155,1561,1188
648,1710994469249377918,1428,2226,2444,2204,2910,2504,1199
649,1710994469259343300,2686,1895,1713,1887,1125,1555,1186
650,1710994469269361935,1428,2229,2460,2206,2909,2514,1196
651,1710994469279357534,2698,1890,1696,1891,1135,1550,1188
652,1710994469289383574,1427,2230,2424,2205,2890,2517,1196
653,1710994469299348615,2689,1890,1658,1892,1152,1548,1186
654,1710994469309367430,1421,2257,2464,2204,2910,2509,1197
655,1710994469319349093,2698,1866,1671,1887,1116,1544,1188
656,1710994469329368579,1434,2230,2452,2207,2924,2521,1198
657,1710994469339349942,2709,1865,1608,1870,1106,1554,1188
658,1710994469349369058,1418,2244,2483,2237,2930,2506,1198
659,1710994469359350741,2696,1879,1671,1891,1138,1547,1188
660,1710994469369368674,1425,2197,2480,2208,2930,2515,1200
661,1710994469379350358,2711,1867,1636,1899,1129,1540,1188
662,1710994469389372379,1425,2243,2441,2205,2938,2514,1196
663,1710994469399349524,2701,1848,1637,1881,1088,1530,1188
664,1710994469409368739,1416,2237,2462,2205,2953,2514,1197
665,1710994469419348739,2709,1870,1658,1898,1116,1523,1189
666,1710994469429369117,1424,2228,2466,2208,2952,2523,1197
667,1710994469439349979,2693,1852,1627,1897,1150,1537,1187
668,1710994469449372140,1429,2248,2456,2212,2962,2531,1198
669,1710994469459349275,2720,1866,1620,1902,1132,1516,1185
670,1710994469469368451,1423,2254,2464,2210,2940,2521,1197
671,1710994469479352880,2712,1864,1615,1896,1108,1527,1187
672,1710994469489370512,1437,2272,2473,2209,2937,2521,1199
673,1710994469499348789,2712,1853,1650,1887,1079,1531,1187
674,1710994469509369718,1408,2256,2462,2208,2925,2509,1198
675,1710994469519350710,2701,1854,1589,1904,1105,1527,1186
676,1710994469529367992,1420,2244,2420,2201,2929,2522,1197
677,1710994469539351258,2723,1858,1632,1891,1054,1524,1188
678,1710994469549369623,1420,2252,2392,2204,2940,2506,1197
679,1710994469559349793,2708,1826,1620,1888,1082,1538,1186
680,1710994469569368748,1407,2232,2464,2203,2952,2516,1200
681,1710994469579350973,2730,1849,1674,1860,1066,1528,1186
682,1710994469589369327,1407,2248,2459,2198,2957,2508,1197
683,1710994469599352142,2708,1838,1665,1888,1061,1532,1189
684,1710994469609368222,1428,2274,2437,2206,2979,2519,1198
685,1710994469619353562,2720,1834,1625,1898,1090,1536,1188
686,1710994469629369311,1418,2263,2517,2227,2958,2523,1196
687,1710994469639354752,2729,1848,1626,1915,1102,1549,1189
688,1710994469649367996,1417,2254,2416,2224,2968,2512,1200
689,1710994469659356323,2731,1836,1694,1894,1083,1567,1186
690,1710994469669380538,1412,2248,2493,2208,2946,2511,1197
691,1710994469679358644,2716,1848,1612,1892,1116,1526,1189
692,1710994469689371227,1394,2252,2428,2190,2920,2501,1198
693,1710994469699358521,2728,1836,1600,1882,1089,1542,1187
694,1710994469709367036,1394,2256,2412,2201,2950,2510,1196
695,1710994469719359751,2728,1865,1646,1892,1098,1533,1187
696,1710994469729368266,1410,2248,2458,2200,2944,2498,1197
697,1710994469739345771,2704,1854,1605,1891,1080,1540,1187
698,1710994469749366831,1424,2249,2401,2208,2929,2498,1195
699,1710994469759347903,2713,1839,1641,1890,1084,1545,1186
700,1710994469769367830,1423,2257,2431,2192,2928,2509,1199
701,1710994469779346267,2712,1816,1651,1897,1108,1540,1187
702,1710994469789368308,1422,2260,2494,2211,2915,2507,1198
703,1710994469799347286,2719,1862,1647,1886,1089,1540,1187
704,1710994469809365801,1428,2255,2485,2193,2928,2495,1198
705,1710994469819346572,2721,1841,1675,1886,1085,1544,1189
706,1710994469829367462,1430,2252,2456,2207,2931,2475,1199
707,1710994469839345608,2715,1840,1709,1889,1122,1574,1190
708,1710994469849370655,1432,2259,2427,2226,2937,2493,1198
709,1710994469859346918,2706,1850,1592,1894,1125,1556,1186
710,1710994469869370622,1431,2269,2428,2194,2917,2480,1197
711,1710994469879346374,2716,1825,1604,1897,1091,1559,1192
712,1710994469889371982,1427,2246,2478,2192,2944,2488,1200
713,1710994469899347544,2715,1824,1661,1894,1079,1560,1188
714,1710994469909373994,1442,2268,2419,2193,2917,2490,1198
715,1710994469919344435,2708,1835,1648,1896,1105,1553,1187
716,1710994469929375564,1436,2244,2481,2189,2900,2483,1197
717,1710994469939346457,2722,1836,1585,1904,1096,1575,1188
718,1710994469949376193,1440,2250,2385,2203,2924,2482,1199
719,1710994469959349430,2705,1832,1682,1902,1112,1559,1186
720,1710994469969378044,1445,2255,2434,2189,2894,2484,1197
721,1710994469979345860,2708,1842,1646,1922,1128,1562,1187
722,1710994469989379193,1448,2276,2394,2189,2926,2482,1199
723,1710994469999345096,2714,1830,1599,1904,1123,1560,1188
724,1710994470009380603,1448,2297,2422,2195,2912,2486,1198
725,1710994470019344812,2709,1831,1677,1904,1119,1572,1189
726,1710994470029366602,1440,2249,2459,2197,2916,2466,1200
727,1710994470039344638,2716,1858,1649,1907,1112,1562,1190
728,1710994470049366037,1457,2265,2440,2194,2930,2464,1197
729,1710994470059346027,2712,1848,1720,1903,1079,1569,1187
730,1710994470069366745,1439,2264,2401,2203,2924,2474,1199
731,1710994470079346123,2717,1826,1647,1915,1112,1565,1188
732,1710994470089366491,1458,2250,2438,2205,2920,2477,1199
733,1710994470099347922,2696,1825,1590,1893,1107,1557,1188
734,1710994470109320889,1479,2265,2397,2189,2908,2485,1201
735,1710994470119352477,2704,1839,1686,1894,1075,1563,1187
736,1710994470129388335,1469,2250,2412,2186,2911,2469,1197
737,1710994470139348196,2702,1838,1629,1892,1114,1557,1189
738,1710994470149370597,1451,2236,2448,2188,2890,2480,1196
739,1710994470159347410,2701,1821,1652,1904,1090,1576,1189
740,1710994470169367136,1451,2269,2436,2200,2911,2488,1200
741,1710994470179348078,2704,1828,1570,1896,1090,1567,1189
742,1710994470189368465,1454,2257,2392,2180,2889,2472,1198
743,1710994470199354727,2713,1849,1664,1908,1088,1552,1190
744,1710994470209371597,1440,2205,2440,2188,2912,2506,1197
745,1710994470219346968,2727,1854,1665,1909,1080,1558,1189
746,1710994470229367195,1460,2267,2390,2194,2906,2494,1199
747,1710994470239348336,2724,1840,1710,1901,1104,1539,1188
748,1710994470249366008,1446,2259,2408,2170,2921,2508,1197
749,1710994470259348082,2732,1858,1745,1903,1053,1544,1185
750,1710994470269368199,1460,2260,2451,2189,2904,2498,1197
751,1710994470279345703,2711,1804,1577,1902,1070,1537,1188
752,1710994470289366011,1463,2273,2466,2185,2928,2492,1197
753,1710994470299348335,2712,1803,1581,1903,1085,1545,1189
754,1710994470309367049,1457,2261,2397,2188,2933,2484,1198
755,1710994470319351988,2713,1830,1621,1888,1069,1532,1189
756,1710994470329367436,1461,2251,2392,2196,2936,2494,1198
757,1710994470339347666,2703,1820,1654,1894,1070,1556,1188
758,1710994470349374576,1467,2265,2468,2184,2932,2494,1197
759,1710994470359346670,2716,1866,1589,1907,1059,1541,1190
760,1710994470369367138,1461,2261,2476,2187,2949,2519,1200
761,1710994470379348670,2701,1827,1552,1881,1029,1537,1187
762,1710994470389369037,1453,2261,2463,2194,2911,2502,1198
763,1710994470399347494,2703,1815,1672,1901,1065,1536,1187
764,1710994470409370396,1445,2272,2501,2184,2916,2508,1198
765,1710994470419349103,2722,1818,1650,1894,1051,1535,1188
766,1710994470429369160,1448,2245,2441,2195,2940,2497,1197
767,1710994470439348728,2712,1816,1571,1892,1039,1540,1185
768,1710994470449367693,1450,2281,2464,2190,2945,2514,1197
769,1710994470459346671,2717,1827,1665,1897,1042,1528,1184
770,1710994470469366357,1456,2254,2450,2185,2969,2518,1197
771,1710994470479345174,2710,1810,1565,1902,1060,1541,1189
772,1710994470489368287,1430,2261,2503,2185,2976,2500,1198
773,1710994470499347144,2726,1816,1658,1887,1017,1538,1190
774,1710994470509367381,1452,2266,2416,2203,2955,2512,1198
775,1710994470519348102,2729,1811,1597,1896,1038,1534,1189
776,1710994470529368109,1433,2277,2501,2192,2965,2520,1198
777,1710994470539346766,2714,1788,1669,1900,1024,1524,1189
778,1710994470549367323,1464,2301,2469,2191,2984,2521,1195
779,1710994470559348014,2740,1785,1555,1904,1058,1536,1188
780,1710994470569366217,1448,2261,2422,2187,2954,2526,1198
781,1710994470579348691,2736,1852,1540,1896,1068,1544,1187
782,1710994470589368127,1442,2280,2420,2200,2990,2520,1197
783,1710994470599351042,2720,1795,1542,1886,1042,1516,1188
784,1710994470609369586,1428,2296,2458,2213,2984,2515,1197
785,1710994470619353223,2740,1797,1618,1892,1031,1540,1188
786,1710994470629366987,1442,2276,2472,2204,2954,2492,1196
787,1710994470639353820,2736,1795,1641,1908,1064,1537,1188
788,1710994470649372183,1448,2281,2499,2203,2996,2499,1199
789,1710994470659355890,2730,1802,1586,1889,1045,1538,1186
790,1710994470669370156,1454,2304,2456,2200,2956,2488,1197
791,1710994470679356918,2746,1792,1578,1892,1033,1534,1185
792,1710994470689368509,1440,2285,2502,2198,2974,2491,1196
793,1710994470699358097,2745,1802,1675,1887,1049,1554,1187
794,1710994470709367212,1433,2277,2452,2196,2954,2505,1197
795,1710994470719360066,2752,1796,1617,1912,1067,1547,1189
796,1710994470729371056,1432,2248,2488,2200,2950,2504,1198
797,1710994470739361505,2756,1778,1593,1888,1039,1544,1187
798,1710994470749370712,1426,2274,2404,2198,2962,2506,1197
799,1710994470759346011,2728,1794,1633,1890,1041,1565,1188
800,1710994470769368553,1434,2283,2449,2199,2968,2518,1197
801,1710994470779346178,2724,1794,1600,1890,1050,1544,1188
802,1710994470789367748,1437,2281,2484,2178,2948,2496,1196
803,1710994470799348670,2728,1790,1600,1897,1057,1551,1188
804,1710994470809367093,1443,2272,2478,2192,2944,2491,1196
805,1710994470819347223,2735,1785,1623,1895,1070,1566,1188
806,1710994470829367530,1445,2280,2478,2189,2965,2486,1200
807,1710994470839347439,2717,1798,1648,1898,1069,1573,1188
808,1710994470849368127,1450,2292,2438,2194,2949,2490,1197
809,1710994470859346113,2728,1791,1654,1881,1049,1567,1185
810,1710994470869370878,1453,2266,2464,2192,2952,2478,1197
811,1710994470879348373,2718,1793,1581,1896,1090,1573,1188
812,1710994470889371486,1438,2290,2412,2199,2957,2500,1196
813,1710994470899348048,2709,1800,1608,1908,1083,1583,1188
814,1710994470909378405,1440,2292,2510,2180,2926,2469,1200
815,1710994470919349137,2725,1801,1590,1893,1081,1581,1187
816,1710994470929374694,1440,2278,2425,2181,2928,2471,1197
817,1710994470939347239,2732,1810,1662,1899,1090,1578,1188
818,1710994470949375592,1448,2272,2421,2202,2964,2488,1196
819,1710994470959348829,2705,1826,1564,1898,1071,1558,1190
820,1710994470969377462,1445,2299,2428,2189,2945,2486,1197
821,1710994470979349106,2716,1808,1557,1916,1079,1551,1186
822,1710994470989378430,1450,2282,2392,2192,2940,2473,1199
823,1710994470999350144,2713,1800,1629,1899,1080,1572,1188
824,1710994471009380831,1469,2289,2422,2194,2914,2485,1198
825,1710994471019351601,2698,1786,1704,1895,1073,1563,1189
826,1710994471029365456,1475,2292,2477,2192,2922,2482,1197
827,1710994471039348811,2696,1780,1605,1899,1080,1552,1188
828,1710994471049366473,1446,2287,2381,2195,2936,2502,1196
829,1710994471059348275,2723,1801,1533,1896,1100,1560,1187
830,1710994471069365195,1462,2285,2401,2182,2953,2497,1196
831,1710994471079348841,2694,1800,1608,1918,1068,1565,1189
832,1710994471089368927,1463,2284,2384,2172,2944,2490,1199
833,1710994471099355669,2717,1804,1660,1910,1074,1565,1187
834,1710994471109368331,1464,2277,2440,2189,2929,2488,1199
835,1710994471119348440,2724,1781,1576,1900,1060,1571,1188
836,1710994471129369558,1469,2291,2492,2187,2956,2489,1198
837,1710994471139350168,2704,1797,1603,1904,1062,1558,1189
838,1710994471149368070,1461,2276,2472,2188,2938,2480,1198
839,1710994471159349051,2704,1802,1598,1896,1041,1570,1188
840,1710994471169367404,1448,2298,2488,2189,2950,2477,1200
841,1710994471179348585,2716,1793,1572,1905,1085,1558,1186
842,1710994471189368561,1453,2254,2468,2186,2952,2510,1198
843,1710994471199347789,2698,1792,1582,1886,1052,1562,1190
844,1710994471209373456,1449,2304,2526,2176,2936,2500,1197
845,1710994471219347584,2705,1787,1617,1908,1081,1538,1188
846,1710994471229356057,1475,2284,2404,2187,2948,2500,1198
847,1710994471239354502,2699,1780,1660,1905,1078,1550,1189
848,1710994471249364538,1470,2290,2411,2188,2971,2516,1200
849,1710994471259347333,2712,1785,1660,1899,1064,1545,1188
850,1710994471269364814,1456,2335,2392,2196,2968,2508,1198
851,1710994471279345214,2716,1800,1705,1900,1046,1545,1190
852,1710994471289365319,1453,2293,2443,2190,2953,2512,1198
853,1710994471299355278,2706,1781,1566,1900,1068,1553,1188
854,1710994471309366917,1461,2312,2525,2192,2976,2520,1198
855,1710994471319350293,2717,1802,1572,1920,1046,1559,1188
856,1710994471329369247,1465,2310,2379,2192,2968,2512,1200
857,1710994471339352362,2685,1779,1528,1899,1052,1538,1188
858,1710994471349367639,1446,2282,2493,2200,2949,2512,1197
859,1710994471359353098,2744,1805,1635,1900,1057,1538,1189
860,1710994471369366762,1456,2296,2413,2196,2971,2506,1198
861,1710994471379354135,2722,1804,1593,1905,1065,1549,1188
862,1710994471389366696,1457,2300,2509,2197,2968,2498,1198
863,1710994471399354882,2719,1800,1625,1903,1052,1540,1188
864,1710994471409366271,1436,2294,2492,2194,2982,2513,1198
865,1710994471419357351,2726,1832,1595,1900,1049,1567,1188
866,1710994471429367798,1445,2290,2506,2198,2972,2517,1198
867,1710994471439355984,2709,1788,1597,1897,1029,1535,1186
868,1710994471449366761,1446,2307,2391,2191,2990,2527,1200
869,1710994471459345067,2720,1787,1654,1896,1049,1554,1188
870,1710994471469366616,1440,2309,2515,2194,2973,2509,1197
871,1710994471479345834,2723,1779,1535,1885,1036,1557,1189
872,1710994471489366000,1439,2318,2520,2197,2978,2518,1198
873,1710994471499348133,2714,1791,1527,1889,1036,1556,1186
874,1710994471509369322,1421,2309,2418,2192,2998,2504,1197
875,1710994471519348278,2722,1785,1584,1888,1028,1556,1188
876,1710994471529366090,1437,2305,2413,2202,2988,2520,1197
877,1710994471539364835,2724,1765,1594,1897,1054,1563,1187
878,1710994471549369161,1439,2305,2393,2193,2988,2509,1200
879,1710994471559348679,2720,1778,1636,1894,1045,1543,1189
880,1710994471569369597,1440,2309,2528,2193,3005,2536,1201
881,1710994471579348022,2711,1777,1614,1900,1040,1549,1187
882,1710994471589369802,1443,2312,2428,2192,2971,2510,1197
883,1710994471599369749,2728,1784,1605,1900,1045,1560,1189
884,1710994471609368464,1422,2309,2536,2197,2972,2509,1199
885,1710994471619347932,2724,1761,1540,1892,1043,1548,1188
886,1710994471629372788,1453,2319,2497,2192,2976,2508,1200
887,1710994471639348348,2724,1760,1527,1900,1021,1574,1192
888,1710994471649551417,1442,2309,2469,2199,2965,2505,1200
889,1710994471659359204,2719,1780,1580,1894,1031,1569,1186
890,1710994471669375623,1437,2310,2510,2192,2997,2497,1198
891,1710994471679345773,2698,1775,1526,1891,1042,1572,1189
892,1710994471689376921,1426,2328,2413,2198,2979,2492,1197
893,1710994471699353943,2714,1772,1679,1897,1020,1564,1188
894,1710994471709380252,1437,2313,2532,2187,2991,2514,1196
895,1710994471719353137,2712,1777,1538,1897,1063,1572,1189
896,1710994471729351882,1442,2322,2481,2197,2982,2506,1198
897,1710994471739348503,2724,1765,1588,1919,1070,1572,1188
898,1710994471749368579,1452,2326,2565,2198,2982,2505,1199
899,1710994471759348678,2707,1762,1602,1901,1039,1583,1189
900,1710994471769367161,1449,2313,2497,2191,2959,2500,1200
901,1710994471779347300,2698,1764,1569,1908,1083,1577,1190
902,1710994471789366736,1431,2317,2540,2188,2980,2492,1198
903,1710994471799354529,2696,1772,1597,1896,1044,1570,1187
904,1710994471809368454,1442,2331,2570,2184,2947,2489,1197
905,1710994471819347290,2703,1785,1656,1905,1073,1568,1190
906,1710994471829335585,1451,2309,2521,2187,2964,2488,1197
907,1710994471839347615,2721,1769,1622,1908,1078,1579,1186
908,1710994471849368153,1446,2318,2461,2204,2942,2490,1197
909,1710994471859346478,2704,1782,1611,1901,1085,1577,1186
910,1710994471869367296,1463,2327,2560,2196,2950,2497,1197
911,1710994471879348577,2687,1778,1513,1900,1062,1595,1188
912,1710994471889368614,1445,2310,2415,2200,2986,2506,1197
913,1710994471899347440,2706,1793,1592,1895,1069,1573,1189
914,1710994471909368639,1442,2312,2487,2190,2958,2493,1196
915,1710994471919349098,2693,1766,1630,1889,1080,1586,1190
916,1710994471929368874,1466,2316,2408,2193,2954,2478,1199
917,1710994471939347620,2701,1782,1641,1906,1097,1593,1189
918,1710994471949368258,1447,2296,2440,2197,2954,2483,1197
919,1710994471959349599,2690,1748,1611,1906,1080,1592,1187
920,1710994471969367160,1466,2313,2540,2188,2940,2490,1200
921,1710994471979348401,2681,1807,1598,1907,1089,1591,1188
922,1710994471989369810,1451,2318,2479,2187,2973,2485,1197
923,1710994471999346904,2688,1767,1583,1911,1096,1605,1189
924,1710994472009368091,1448,2302,2483,2185,2962,2481,1199
925,1710994472019349492,2682,1765,1547,1913,1110,1590,1189
926,1710994472029372183,1456,2313,2460,2188,2956,2481,1195
927,1710994472039352962,2682,1762,1626,1903,1067,1596,1190
928,1710994472049366415,1465,2346,2547,2188,2958,2474,1200
929,1710994472059349219,2693,1783,1607,1904,1086,1589,1188
930,1710994472069369415,1448,2312,2493,2201,2987,2499,1198
931,1710994472079347960,2680,1765,1609,1898,1101,1589,1188
932,1710994472089368467,1464,2326,2537,2189,2944,2480,1200
933,1710994472099353485,2680,1768,1568,1903,1092,1604,1189
934,1710994472109367699,1454,2314,2394,2187,2975,2484,1197
935,1710994472119353458,2676,1764,1592,1908,1084,1592,1190
936,1710994472129368474,1464,2342,2468,2193,2979,2500,1200
937,1710994472139350465,2677,1772,1582,1907,1098,1588,1187
938,1710994472149357786,1456,2330,2504,2189,2944,2491,1198
939,1710994472159356290,2680,1766,1679,1911,1097,1588,1189
940,1710994472169366838,1458,2325,2404,2184,2958,2476,1201
941,1710994472179350543,2676,1768,1601,1909,1080,1588,1190
942,1710994472189367963,1465,2331,2445,2201,2972,2490,1200
943,1710994472199351889,2682,1765,1659,1913,1068,1591,1190
944,1710994472209370302,1456,2362,2512,2189,2954,2480,1198
945,1710994472219349068,2682,1768,1624,1907,1081,1597,1191
946,1710994472229370877,1468,2317,2432,2189,2952,2484,1199
947,1710994472239352468,2683,1770,1617,1914,1068,1603,1190
948,1710994472249370129,1439,2314,2407,2194,2968,2488,1197
949,1710994472259357311,2675,1791,1675,1921,1092,1594,1188
950,1710994472269381926,1464,2313,2436,2197,2956,2499,1199
951,1710994472279347376,2704,1748,1648,1908,1091,1587,1188
952,1710994472289368133,1451,2308,2435,2182,2969,2496,1198
953,1710994472299348582,2682,1764,1641,1902,1090,1593,1190
954,1710994472309368427,1449,2318,2527,2186,2980,2507,1198
955,1710994472319350950,2691,1755,1660,1900,1079,1580,1188
956,1710994472329367780,1454,2323,2537,2199,2976,2492,1196
957,1710994472339351084,2698,1776,1631,1912,1069,1598,1189
958,1710994472349366781,1453,2323,2432,2200,2976,2496,1196
959,1710994472359352370,2681,1800,1609,1896,1099,1600,1188
960,1710994472369368539,1454,2308,2477,2195,2966,2458,1198
961,1710994472379357584,2677,1766,1647,1909,1065,1605,1189
962,1710994472389367991,1457,2323,2544,2184,2976,2482,1198
963,1710994472399355765,2704,1776,1606,1907,1054,1599,1187
964,1710994472409367013,1423,2331,2440,2191,2981,2474,1196
965,1710994472419357281,2696,1762,1543,1914,1119,1603,1189
966,1710994472429368519,1446,2340,2437,2200,2980,2479,1196
967,1710994472439357955,2682,1730,1664,1908,1069,1608,1188
968,1710994472449366589,1466,2328,2435,2196,2960,2464,1198
969,1710994472459359943,2716,1750,1563,1909,1090,1606,1187
970,1710994472469368126,1450,2329,2520,2196,2953,2473,1198
971,1710994472479362371,2690,1749,1621,1915,1100,1614,1189
972,1710994472489369722,1444,2331,2536,2182,2944,2481,1198
973,1710994472499362956,2694,1758,1625,1900,1091,1612,1188
974,1710994472509369516,1449,2345,2534,2188,2931,2469,1198
975,1710994472519347089,2696,1772,1531,1912,1100,1623,1189
976,1710994472529368087,1437,2356,2513,2201,2962,2474,1197
977,1710994472539347414,2697,1768,1614,1914,1093,1618,1191
978,1710994472549365616,1441,2344,2421,2184,2957,2464,1199
979,1710994472559346345,2693,1752,1594,1911,1111,1604,1189
980,1710994472569366762,1446,2341,2540,2200,2972,2461,1200
981,1710994472579345778,2688,1752,1617,1908,1079,1623,1188
982,1710994472589368539,1451,2329,2462,2184,2956,2453,1197
983,1710994472599346523,2686,1752,1646,1919,1123,1626,1187
984,1710994472609369785,1440,2331,2534,2202,2958,2474,1197
985,1710994472619345295,2675,1762,1648,1907,1136,1616,1190
986,1710994472629370931,1444,2362,2541,2195,2941,2452,1198
987,1710994472639349547,2679,1778,1637,1916,1142,1627,1188
988,1710994472649373770,1457,2330,2454,2192,2940,2443,1196
989,1710994472659347677,2698,1757,1593,1909,1113,1618,1187
990,1710994472669375838,1433,2320,2560,2192,2940,2443,1196
991,1710994472679348412,2683,1759,1514,1912,1174,1651,1189
992,1710994472689376483,1472,2318,2435,2194,2938,2442,1196
993,1710994472699348737,2664,1819,1685,1919,1138,1638,1190
994,1710994472709380204,1453,2334,2400,2193,2931,2464,1196
995,1710994472719349080,2667,1760,1529,1910,1142,1648,1188
996,1710994472729379405,1454,2327,2396,2198,2945,2448,1200
997,1710994472739350025,2670,1782,1797,1920,1148,1645,1189
998,1710994472749381213,1473,2317,2511,2186,2929,2438,1198
999,1710994472759348787,2658,1775,1706,1908,1137,1659,1188
1000,1710994472769383451,1464,2333,2390,2192,2936,2443,1197
1001,1710994472779347749,2663,1764,1628,1903,1163,1662,1189
1002,1710994472789366462,1474,2355,2486,2184,2905,2432,1199
1003,1710994472799346750,2665,1821,1701,1923,1157,1658,1190
1004,1710994472809366956,1454,2310,2416,2185,2885,2440,1197
1005,1710994472819346584,2650,1756,1656,1920,1177,1647,1188
1006,1710994472829365217,1482,2318,2392,2180,2900,2441,1197
1007,1710994472839346247,2641,1756,1731,1918,1185,1658,1187
1008,1710994472849368667,1491,2328,2469,2181,2904,2433,1199
1009,1710994472859351862,2616,1773,1560,1916,1172,1663,1186
1010,1710994472869369473,1495,2318,2496,2176,2898,2436,1197
1011,1710994472879349321,2635,1768,1662,1917,1178,1666,1189
1012,1710994472889368995,1489,2321,2428,2183,2884,2410,1198
1013,1710994472899348653,2649,1784,1682,1916,1174,1668,1189
1014,1710994472909350043,1490,2331,2492,2176,2874,2438,1196
1015,1710994472919329249,2635,1762,1605,1924,1194,1673,1189
1016,1710994472929369855,1489,2336,2521,2182,2901,2430,1200
1017,1710994472939348220,2615,1774,1597,1926,1174,1676,1189
1018,1710994472949367664,1501,2324,2407,2182,2880,2402,1196
1019,1710994472959351109,2611,1773,1577,1927,1183,1667,1187
1020,1710994472969368610,1508,2325,2478,2178,2868,2424,1197
1021,1710994472979348117,2620,1776,1662,1928,1211,1673,1190
1022,1710994472989368062,1482,2321,2412,2182,2884,2416,1197
1023,1710994472999349654,2614,1770,1703,1932,1201,1664,1187
1024,1710994473009352164,1515,2312,2495,2172,2852,2415,1196
1025,1710994473019336191,2600,1774,1708,1919,1192,1679,1189
1026,1710994473029370763,1524,2352,2409,2177,2890,2443,1196
1027,1710994473039349098,2602,1776,1646,1929,1182,1658,1188
1028,1710994473049357039,1510,2320,2451,2169,2889,2410,1199
1029,1710994473059351003,2597,1787,1600,1930,1211,1678,1190
1030,1710994473069369696,1510,2328,2498,2169,2878,2418,1197
1031,1710994473079352569,2607,1774,1731,1930,1204,1676,1192
1032,1710994473089371292,1519,2313,2434,2178,2860,2424,1197
1033,1710994473099355046,2581,1774,1674,1929,1218,1670,1187
1034,1710994473109370052,1517,2301,2378,2179,2868,2427,1195
1035,1710994473119355660,2612,1793,1706,1937,1229,1676,1189
1036,1710994473129368812,1531,2324,2456,2176,2868,2416,1197
1037,1710994473139356895,2574,1746,1735,1921,1200,1665,1186
1038,1710994473149369215,1515,2308,2361,2177,2886,2424,1196
1039,1710994473159359984,2574,1761,1660,1926,1197,1654,1187
1040,1710994473169368606,1526,2348,2441,2177,2813,2408,1196
1041,1710994473179359075,2584,1777,1693,1932,1214,1669,1190
1042,1710994473189371164,1552,2314,2426,2172,2853,2413,1198
1043,1710994473199360349,2586,1778,1601,1923,1232,1660,1189
1044,1710994473209369443,1512,2309,2469,2173,2852,2409,1200
1045,1710994473219361945,2576,1775,1702,1926,1208,1669,1189
1046,1710994473229371149,1532,2314,2444,2171,2872,2416,1198
1047,1710994473239347389,2580,1803,1664,1932,1210,1658,1189
1048,1710994473249368236,1546,2318,2416,2165,2860,2416,1196
1049,1710994473259348694,2576,1771,1796,1936,1230,1668,1189
1050,1710994473269368919,1535,2321,2396,2165,2864,2424,1196
1051,1710994473279347695,2584,1772,1655,1931,1209,1668,1189
1052,1710994473289368030,1540,2314,2508,2174,2857,2414,1197
1053,1710994473299348950,2581,1779,1608,1960,1225,1673,1190
1054,1710994473309368684,1550,2321,2380,2176,2842,2424,1197
1055,1710994473319347960,2584,1768,1737,1941,1224,1679,1190
1056,1710994473329370109,1528,2325,2369,2180,2844,2408,1198
1057,1710994473339347712,2568,1785,1682,1934,1208,1677,1189
1058,1710994473349370593,1534,2320,2439,2178,2841,2424,1196
1059,1710994473359348436,2583,1775,1644,1928,1221,1678,1189
1060,1710994473369371968,1532,2320,2423,2167,2829,2421,1198
1061,1710994473379347507,2580,1777,1731,1929,1250,1673,1187
1062,1710994473389372962,1560,2324,2477,2174,2841,2417,1197
1063,1710994473399347189,2576,1778,1700,1931,1245,1683,1188
1064,1710994473409375680,1533,2312,2444,2169,2849,2413,1196
1065,1710994473419346079,2580,1816,1593,1936,1229,1683,1188
1066,1710994473429377285,1541,2336,2384,2176,2849,2432,1197
1067,1710994473439346712,2573,1776,1588,1947,1261,1681,1189
1068,1710994473449378280,1528,2320,2385,2153,2853,2395,1196
1069,1710994473459346104,2572,1775,1692,1937,1238,1678,1186
1070,1710994473469379505,1550,2330,2486,2172,2833,2415,1198
1071,1710994473479345215,2580,1789,1688,1918,1239,1687,1188
1072,1710994473489366833,1539,2326,2377,2165,2840,2417,1196
1073,1710994473499349235,2568,1782,1631,1932,1244,1690,1189
1074,1710994473509366915,1544,2312,2358,2168,2827,2405,1198
1075,1710994473519347865,2576,1803,1756,1934,1272,1682,1190
1076,1710994473529365906,1538,2310,2461,2173,2833,2405,1197
1077,1710994473539347517,2563,1773,1643,1941,1249,1700,1189
1078,1710994473549368523,1539,2328,2502,2173,2829,2403,1197
1079,1710994473559348601,2566,1797,1631,1937,1241,1687,1188
1080,1710994473569366272,1549,2314,2388,2168,2853,2404,1198
1081,1710994473579347541,2562,1803,1659,1937,1239,1689,1190
1082,1710994473589368609,1548,2324,2481,2170,2801,2406,1195
1083,1710994473599347304,2574,1786,1630,1940,1263,1689,1187
1084,1710994473609366537,1558,2340,2412,2168,2824,2394,1196
1085,1710994473619350442,2556,1798,1789,1928,1235,1695,1191
1086,1710994473629370908,1548,2320,2386,2168,2837,2401,1196
1087,1710994473639347329,2562,1791,1627,1941,1247,1680,1188
1088,1710994473649365319,1568,2340,2383,2168,2818,2400,1197
1089,1710994473659348504,2545,1774,1741,1928,1243,1704,1187
1090,1710994473669366765,1557,2314,2448,2163,2800,2403,1198
1091,1710994473679349889,2544,1781,1736,1932,1241,1688,1188
1092,1710994473689366868,1565,2314,2477,2168,2800,2392,1196
1093,1710994473699347706,2548,1812,1660,1945,1273,1704,1189
1094,1710994473709332945,1578,2292,2444,2169,2828,2392,1194
1095,1710994473719343371,2531,1756,1645,1927,1251,1695,1189
1096,1710994473729367163,1576,2308,2372,2155,2805,2390,1196
1097,1710994473739346039,2522,1796,1768,1935,1273,1696,1189
1098,1710994473749366104,1587,2304,2462,2172,2800,2385,1197
1099,1710994473759347173,2522,1800,1691,1946,1273,1697,1190
1100,1710994473769366857,1561,2299,2430,2165,2782,2385,1198
1101,1710994473779344431,2545,1792,1706,1938,1274,1705,1188
1102,1710994473789366579,1578,2305,2453,2172,2802,2398,1196
1103,1710994473799348942,2536,1796,1746,1944,1274,1714,1189
1104,1710994473809369798,1588,2293,2420,2157,2789,2386,1195
1105,1710994473819350667,2536,1769,1729,1932,1269,1707,1189
1106,1710994473829367506,1573,2310,2401,2171,2809,2384,1196
1107,1710994473839349237,2528,1760,1633,1941,1280,1701,1188
1108,1710994473849367078,1587,2299,2358,2175,2825,2393,1196
1109,1710994473859348458,2532,1778,1674,1948,1278,1699,1186
1110,1710994473869368874,1593,2324,2444,2164,2808,2392,1196
1111,1710994473879346778,2507,1791,1715,1958,1313,1695,1189
1112,1710994473889367333,1583,2302,2360,2169,2824,2379,1196
1113,1710994473899348353,2528,1778,1782,1938,1278,1712,1188
1114,1710994473909365783,1595,2312,2361,2165,2812,2380,1196
1115,1710994473919347214,2533,1810,1667,1954,1275,1714,1189
1116,1710994473929368000,1592,2302,2416,2159,2782,2373,1197
1117,1710994473939365010,2516,1796,1749,1945,1284,1692,1189
1118,1710994473949359145,1613,2306,2413,2170,2768,2385,1197
1119,1710994473959348981,2504,1784,1771,1941,1287,1721,1192
1120,1710994473969368997,1588,2309,2429,2167,2813,2372,1200
1121,1710994473979346639,2510,1800,1752,1940,1312,1705,1189
1122,1710994473989367255,1600,2321,2384,2158,2781,2408,1197
1123,1710994473999348315,2507,1805,1736,1947,1297,1694,1189
1124,1710994474009366677,1592,2306,2408,2152,2782,2394,1196
1125,1710994474019349830,2506,1777,1729,1932,1286,1690,1191
1126,1710994474029367419,1605,2309,2332,2162,2804,2386,1197
1127,1710994474039348449,2501,1805,1674,1949,1276,1695,1188
1128,1710994474049367291,1601,2304,2383,2156,2801,2412,1197
1129,1710994474059350013,2480,1790,1608,1942,1293,1686,1186
1130,1710994474069365829,1592,2304,2354,2167,2784,2414,1197
1131,1710994474079351236,2505,1788,1752,1942,1288,1680,1187
1132,1710994474089369477,1591,2340,2425,2155,2826,2412,1197
1133,1710994474099352610,2493,1774,1801,1939,1265,1692,1190
1134,1710994474109366573,1590,2314,2456,2166,2800,2404,1198
1135,1710994474119355447,2497,1801,1769,1933,1289,1693,1188
1136,1710994474129368117,1595,2308,2368,2154,2811,2421,1196
1137,1710994474139355870,2507,1784,1701,1936,1267,1678,1188
1138,1710994474149368900,1582,2306,2328,2157,2832,2406,1198
1139,1710994474159356722,2514,1784,1691,1949,1278,1685,1189
1140,1710994474169366236,1604,2320,2431,2164,2829,2408,1198
1141,1710994474179358286,2496,1767,1740,1938,1258,1666,1189
1142,1710994474189367079,1619,2302,2436,2169,2812,2426,1197
1143,1710994474199360252,2504,1795,1777,1937,1225,1681,1188
1144,1710994474209367511,1602,2313,2388,2168,2831,2410,1197
1145,1710994474219360494,2508,1776,1657,1942,1276,1680,1188
1146,1710994474229372151,1589,2301,2358,2168,2836,2416,1196
1147,1710994474239366977,2516,1794,1712,1928,1230,1667,1189
1148,1710994474249364117,1582,2324,2392,2164,2829,2432,1196
1149,1710994474259345897,2506,1789,1662,1939,1268,1666,1188
1150,1710994474269367314,1585,2309,2398,2170,2841,2425,1195
1151,1710994474279365887,2521,1771,1729,1933,1257,1669,1187
1152,1710994474289367086,1585,2322,2369,2167,2834,2432,1200
1153,1710994474299346001,2514,1787,1658,1942,1246,1656,1188
1154,1710994474309367107,1580,2314,2418,2167,2826,2416,1195
1155,1710994474319347654,2524,1763,1754,1949,1253,1677,1190
1156,1710994474329368370,1587,2328,2400,2168,2888,2448,1196
1157,1710994474339371161,2537,1774,1720,1938,1251,1661,1189
1158,1710994474349369925,1586,2316,2496,2155,2844,2428,1196
1159,1710994474359346074,2529,1780,1642,1938,1243,1661,1189
1160,1710994474369371479,1572,2325,2376,2173,2849,2437,1198
1161,1710994474379346897,2528,1770,1728,1929,1244,1656,1190
1162,1710994474389372923,1578,2344,2389,2170,2874,2429,1196
1163,1710994474399346006,2520,1783,1693,1942,1240,1649,1189
1164,1710994474409374246,1576,2333,2368,2162,2862,2445,1198
1165,1710994474419343513,2532,1775,1700,1936,1239,1651,1191
1166,1710994474429375550,1569,2319,2387,2169,2860,2445,1199
1167,1710994474439344917,2537,1771,1753,1939,1237,1639,1187
1168,1710994474449377325,1578,2328,2484,2170,2872,2437,1198
1169,1710994474459346522,2536,1768,1755,1928,1225,1651,1188
1170,1710994474469378489,1568,2360,2437,2173,2889,2448,1197
1171,1710994474479345570,2544,1799,1734,1934,1226,1652,1189
1172,1710994474489379872,1563,2323,2377,2168,2852,2432,1197
1173,1710994474499346233,2544,1766,1646,1929,1186,1662,1191
1174,1710994474509381206,1548,2341,2460,2175,2891,2445,1197
1175,1710994474519347547,2550,1764,1728,1936,1245,1649,1188
1176,1710994474529383292,1560,2329,2483,2166,2874,2443,1196
1177,1710994474539356827,2550,1770,1753,1929,1207,1664,1190
1178,1710994474549367723,1564,2309,2470,2170,2879,2444,1198
1179,1710994474559353280,2555,1780,1635,1926,1182,1659,1189
1180,1710994474569368766,1559,2340,2434,2180,2885,2440,1199
1181,1710994474579351649,2549,1782,1695,1929,1219,1636,1189
1182,1710994474589367355,1560,2324,2471,2166,2882,2450,1195
1183,1710994474599348103,2566,1768,1560,1940,1199,1644,1189
1184,1710994474609366545,1563,2341,2416,2173,2869,2446,1197
1185,1710994474619349267,2560,1772,1635,1928,1199,1652,1188
1186,1710994474629364402,1547,2357,2412,2184,2878,2437,1196
1187,1710994474639347083,2560,1770,1720,1920,1207,1643,1189
1188,1710994474649367980,1542,2333,2521,2177,2892,2443,1196
1189,1710994474659344901,2557,1754,1723,1927,1188,1642,1188
1190,1710994474669373001,1557,2336,2492,2177,2881,2467,1196
1191,1710994474679344081,2568,1782,1704,1937,1197,1638,1189
1192,1710994474689363584,1569,2339,2500,2171,2894,2452,1198
1193,1710994474699347569,2544,1765,1760,1933,1214,1649,1188
1194,1710994474709365018,1533,2349,2431,2180,2901,2436,1198
1195,1710994474719354934,2548,1745,1678,1935,1226,1661,1189
1196,1710994474729366351,1553,2349,2485,2176,2883,2460,1196
1197,1710994474739345166,2561,1765,1654,1936,1228,1655,1191
1198,1710994474749363507,1556,2336,2437,2175,2879,2440,1197
1199,1710994474759346100,2552,1753,1556,1932,1204,1658,1189
1200,1710994474769363910,1549,2335,2417,2176,2885,2461,1200
1201,1710994474779344698,2538,1757,1648,1935,1208,1652,1188
1202,1710994474789363390,1536,2341,2374,2185,2869,2457,1197
1203,1710994474799348957,2569,1765,1534,1926,1205,1646,1189
1204,1710994474809350055,1549,2348,2419,2171,2889,2449,1198
1205,1710994474819348478,2552,1778,1632,1933,1242,1651,1188
1206,1710994474829365466,1565,2330,2478,2178,2876,2451,1198
1207,1710994474839349411,2542,1753,1657,1934,1223,1664,1189
1208,1710994474849365077,1573,2328,2428,2181,2872,2445,1195
1209,1710994474859350946,2541,1745,1648,1925,1205,1659,1188
1210,1710994474869364958,1552,2336,2482,2184,2929,2445,1197
1211,1710994474879352599,2565,1758,1610,1922,1213,1664,1189
1212,1710994474889363416,1549,2341,2413,2179,2876,2437,1198
1213,1710994474899354124,2556,1753,1612,1941,1218,1656,1188
1214,1710994474909380240,1564,2344,2369,2176,2878,2448,1198
1215,1710994474919357381,2548,1775,1688,1940,1181,1644,1188
1216,1710994474929345184,1549,2340,2425,2176,2896,2456,1199
1217,1710994474939363795,2560,1760,1755,1931,1208,1668,1189
1218,1710994474949374862,1553,2337,2424,2173,2872,2440,1198
1219,1710994474959351332,2544,1764,1578,1929,1206,1663,1189
1220,1710994474969368912,1552,2349,2504,2184,2881,2452,1196
1221,1710994474979346244,2554,1754,1751,1932,1194,1635,1188
1222,1710994474989368913,1535,2348,2429,2178,2886,2465,1198
1223,1710994474999347017,2561,1764,1673,1924,1203,1644,1189
1224,1710994475009369375,1562,2344,2412,2189,2881,2478,1198
1225,1710994475019346336,2568,1765,1629,1920,1180,1661,1187
1226,1710994475029365458,1560,2343,2501,2175,2892,2448,1197
1227,1710994475039342549,2560,1759,1652,1930,1174,1641,1190
1228,1710994475049363724,1551,2332,2492,2183,2897,2462,1198
1229,1710994475059353189,2540,1769,1649,1917,1195,1645,1187
1230,1710994475069369295,1555,2358,2509,2188,2910,2448,1198
1231,1710994475079346125,2552,1736,1592,1923,1188,1652,1189
1232,1710994475089368003,1543,2333,2497,2178,2904,2469,1197
1233,1710994475099345755,2547,1761,1615,1924,1192,1640,1189
1234,1710994475109368424,1569,2366,2555,2196,2917,2455,1198
1235,1710994475119344552,2542,1766,1659,1946,1197,1654,1189
1236,1710994475129372712,1560,2333,2470,2181,2928,2465,1199
1237,1710994475139345054,2554,1758,1720,1918,1150,1646,1189
1238,1710994475149372402,1549,2336,2508,2188,2922,2483,1197
1239,1710994475159345515,2567,1765,1649,1928,1192,1618,1189
1240,1710994475169373514,1532,2366,2396,2180,2955,2476,1198
1241,1710994475179344132,2568,1745,1576,1925,1173,1614,1188
1242,1710994475189374896,1560,2361,2540,2188,2923,2458,1198
1243,1710994475199348550,2565,1741,1640,1928,1169,1637,1188
1244,1710994475209376950,1535,2335,2522,2186,2949,2468,1196
1245,1710994475219344583,2584,1727,1672,1928,1170,1627,1190
1246,1710994475229377151,1532,2353,2481,2182,2933,2485,1197
1247,1710994475239345885,2577,1740,1557,1918,1152,1617,1188
1248,1710994475249364176,1528,2348,2440,2182,2964,2472,1198
1249,1710994475259342759,2577,1754,1596,1920,1154,1621,1187
1250,1710994475269384545,1525,2358,2482,2186,2941,2492,1197
1251,1710994475279355665,2577,1749,1683,1920,1146,1610,1188
1252,1710994475289416176,1511,2350,2465,2170,2953,2492,1196
1253,1710994475299373679,2580,1756,1724,1920,1142,1619,1187
1254,1710994475309391468,1514,2353,2452,2188,2943,2488,1197
1255,1710994475319363971,2581,1758,1620,1912,1126,1622,1188
1256,1710994475329385016,1501,2356,2496,2189,2940,2473,1197
1257,1710994475339363700,2588,1756,1746,1912,1137,1604,1188
1258,1710994475349385387,1496,2345,2548,2202,2970,2482,1198
1259,1710994475359378789,2589,1754,1637,1916,1101,1608,1190
1260,1710994475369382531,1510,2368,2421,2189,2975,2482,1200
1261,1710994475379362598,2576,1752,1660,1914,1133,1629,1189
1262,1710994475389385828,1504,2352,2532,2180,2957,2483,1197
1263,1710994475399362558,2593,1745,1509,1901,1125,1619,1190
1264,1710994475409383393,1515,2355,2505,2194,2980,2486,1197
1265,1710994475419361275,2588,1737,1636,1916,1139,1621,1187
1266,1710994475429383784,1511,2368,2523,2202,2975,2483,1198
1267,1710994475439364802,2580,1739,1536,1917,1140,1616,1189
1268,1710994475449383183,1527,2356,2532,2205,3004,2506,1198
1269,1710994475459363851,2601,1761,1677,1912,1108,1609,1187
1270,1710994475469382552,1510,2360,2480,2197,3012,2472,1199
1271,1710994475479364652,2585,1728,1555,1913,1125,1626,1189
1272,1710994475489381019,1497,2369,2456,2197,2986,2489,1196
1273,1710994475499365243,2592,1743,1645,1912,1132,1620,1188
1274,1710994475509384215,1489,2356,2394,2196,2998,2484,1199
1275,1710994475519368190,2644,1732,1650,1909,1079,1614,1188
1276,1710994475529342645,1475,2363,2532,2197,2981,2480,1198
1277,1710994475539370213,2621,1737,1496,1906,1121,1608,1189
1278,1710994475549383604,1467,2345,2405,2198,2984,2502,1196
1279,1710994475559364873,2601,1744,1545,1920,1108,1606,1192
1280,1710994475569385668,1490,2345,2451,2205,2969,2490,1198
1281,1710994475579363962,2614,1736,1700,1904,1084,1630,1186
1282,1710994475589383384,1478,2363,2392,2203,2973,2465,1197
1283,1710994475599363240,2634,1742,1490,1911,1142,1617,1188
1284,1710994475609381660,1486,2366,2535,2202,2980,2472,1197
1285,1710994475619361156,2624,1733,1710,1919,1120,1628,1188
1286,1710994475629381540,1476,2356,2498,2202,2979,2463,1196
1287,1710994475639363100,2603,1724,1595,1908,1132,1625,1189
1288,1710994475649384045,1480,2376,2559,2194,2961,2471,1196
1289,1710994475659362148,2611,1746,1679,1909,1112,1626,1188
1290,1710994475669382542,1484,2365,2584,2196,2957,2462,1196
1291,1710994475679361857,2605,1732,1654,1901,1118,1634,1188
1292,1710994475689381100,1480,2364,2488,2192,2973,2474,1196
1293,1710994475699360595,2616,1734,1500,1921,1113,1629,1188
1294,1710994475709383174,1472,2351,2485,2190,2984,2461,1198
1295,1710994475719361727,2621,1766,1684,1915,1150,1635,1189
1296,1710994475729381480,1490,2336,2438,2196,2964,2460,1195
1297,1710994475739360365,2616,1730,1545,1902,1137,1640,1189
1298,1710994475749381290,1483,2365,2513,2187,2952,2461,1198
1299,1710994475759361416,2622,1749,1528,1910,1130,1653,1189
1300,1710994475769382051,1479,2348,2440,2196,2980,2456,1197
1301,1710994475779361166,2614,1745,1690,1914,1144,1641,1188
1302,1710994475789383514,1495,2382,2416,2182,2939,2449,1195
1303,1710994475799365946,2588,1733,1525,1906,1138,1641,1189
1304,1710994475809382462,1476,2365,2524,2210,2977,2443,1197
1305,1710994475819363480,2628,1736,1557,1912,1137,1631,1189
1306,1710994475829387572,1483,2389,2550,2182,2957,2456,1196
1307,1710994475839361557,2607,1725,1704,1909,1152,1634,1188
1308,1710994475849383545,1480,2353,2474,2194,2936,2450,1195
1309,1710994475859361026,2591,1731,1555,1913,1163,1646,1186
1310,1710994475869382072,1504,2364,2424,2191,2933,2461,1198
1311,1710994475879361988,2622,1738,1700,1908,1169,1629,1188
1312,1710994475889383995,1471,2356,2467,2197,2944,2447,1194
1313,1710994475899364563,2604,1715,1576,1920,1140,1645,1189
1314,1710994475909382222,1505,2362,2537,2189,2942,2460,1196
1315,1710994475919364864,2608,1688,1671,1915,1171,1640,1189
1316,1710994475929381811,1486,2376,2435,2180,2939,2448,1195
1317,1710994475939366657,2616,1725,1550,1913,1175,1656,1187
1318,1710994475949382102,1519,2366,2480,2185,2976,2440,1197
1319,1710994475959368150,2609,1752,1653,1917,1164,1652,1188
1320,1710994475969380579,1481,2356,2392,2192,2936,2462,1196
1321,1710994475979367710,2608,1722,1498,1914,1135,1639,1190
1322,1710994475989429884,1492,2393,2534,2180,2929,2449,1197
1323,1710994475999366937,2605,1755,1597,1912,1170,1641,1187
1324,1710994476009375770,1506,2370,2573,2197,2940,2464,1197
1325,1710994476019371796,2620,1749,1729,1913,1182,1645,1188
1326,1710994476029374356,1496,2365,2508,2192,2942,2457,1197
1327,1710994476039376144,2593,1739,1662,1926,1149,1644,1188
1328,1710994476049376569,1477,2377,2477,2184,2930,2454,1196
1329,1710994476059353810,2578,1728,1532,1921,1174,1637,1185
1330,1710994476069374544,1510,2392,2489,2180,2916,2480,1195
1331,1710994476079354329,2586,1740,1519,1926,1190,1645,1188
1332,1710994476089372329,1506,2370,2508,2190,2936,2471,1197
1333,1710994476099351633,2614,1729,1728,1915,1157,1636,1188
1334,1710994476109373950,1514,2371,2518,2185,2946,2478,1198
1335,1710994476119350149,2582,1740,1700,1920,1161,1642,1192
1336,1710994476129376495,1508,2402,2503,2186,2974,2459,1199
1337,1710994476139351591,2593,1749,1689,1912,1140,1640,1187
1338,1710994476149376914,1507,2368,2433,2186,2938,2460,1198
1339,1710994476159353774,2616,1748,1578,1920,1188,1643,1188
1340,1710994476169378236,1511,2364,2520,2187,2960,2460,1198
1341,1710994476179353472,2588,1723,1612,1920,1153,1625,1190
1342,1710994476189379416,1516,2360,2497,2193,2954,2470,1199
1343,1710994476199352219,2597,1741,1613,1914,1154,1633,1188
1344,1710994476209380948,1493,2370,2467,2204,2988,2466,1196
1345,1710994476219360333,2589,1754,1656,1926,1144,1625,1188
1346,1710994476229381919,1504,2372,2509,2190,2948,2466,1198
1347,1710994476239364119,2613,1760,1716,1911,1130,1636,1189
1348,1710994476249383070,1498,2367,2456,2198,2970,2472,1197
1349,1710994476259353407,2592,1732,1535,1917,1144,1629,1188
1350,1710994476269385804,1498,2376,2527,2196,2956,2468,1197
1351,1710994476279383214,2602,1690,1608,1918,1138,1626,1189
1352,1710994476289392846,1496,2366,2496,2186,2984,2477,1197
1353,1710994476299388112,2596,1742,1705,1917,1132,1635,1189
1354,1710994476309388637,1493,2388,2488,2198,2969,2469,1198
1355,1710994476319356239,2592,1732,1623,1911,1146,1633,1191
1356,1710994476329371953,1484,2371,2449,2203,3004,2480,1197
1357,1710994476339349415,2581,1721,1649,1898,1110,1633,1188
1358,1710994476349370650,1489,2349,2484,2186,3004,2472,1197
1359,1710994476359353321,2625,1751,1555,1910,1122,1621,1189
1360,1710994476369372824,1488,2388,2452,2186,2977,2477,1197
1361,1710994476379354633,2620,1724,1635,1914,1146,1641,1190
1362,1710994476389371018,1488,2389,2485,2193,2985,2476,1197
1363,1710994476399350553,2604,1725,1676,1905,1108,1621,1188
1364,1710994476409369805,1474,2381,2472,2190,2965,2473,1199
1365,1710994476419346575,2608,1737,1636,1901,1154,1641,1188
1366,1710994476429367800,1475,2384,2578,2200,3009,2470,1198
1367,1710994476439356964,2594,1738,1541,1917,1136,1627,1188
1368,1710994476449372087,1477,2379,2480,2191,2996,2477,1198
1369,1710994476459352584,2607,1737,1682,1905,1151,1631,1188
1370,1710994476469371856,1470,2380,2497,2198,2980,2470,1196
1371,1710994476479356601,2617,1756,1567,1921,1141,1631,1188
1372,1710994476489378297,1450,2368,2482,2182,2988,2476,1197
1373,1710994476499367811,2604,1725,1512,1928,1170,1626,1187
1374,1710994476509398575,1481,2383,2452,2198,3003,2478,1197
1375,1710994476519370655,2613,1734,1513,1910,1096,1624,1189
1376,1710994476529402481,1485,2398,2579,2177,2980,2460,1197
1377,1710994476539387376,2630,1729,1584,1892,1092,1634,1188
1378,1710994476549375428,1468,2378,2579,2192,2984,2453,1196
1379,1710994476559366495,2629,1717,1631,1921,1116,1629,1188
1380,1710994476569387089,1451,2372,2402,2195,2991,2479,1197
1381,1710994476579350133,2616,1724,1495,1912,1147,1646,1188
1382,1710994476589368552,1450,2370,2472,2196,2989,2472,1198
1383,1710994476599349309,2632,1716,1528,1899,1112,1652,1189
1384,1710994476609371487,1451,2368,2428,2201,2976,2453,1195
1385,1710994476619360961,2644,1728,1701,1916,1152,1644,1187
1386,1710994476629480636,1458,2390,2512,2200,2969,2468,1197
1387,1710994476639348185,2621,1711,1611,1908,1143,1637,1190
1388,1710994476649379230,1468,2388,2605,2186,2960,2445,1195
1389,1710994476659352983,2652,1721,1644,1915,1143,1650,1188
1390,1710994476669388155,1472,2380,2416,2197,2969,2450,1197
1391,1710994476679366028,2640,1700,1637,1893,1146,1647,1188
1392,1710994476689367204,1463,2390,2422,2196,2957,2456,1197
1393,1710994476699361227,2619,1723,1657,1912,1139,1656,1192
1394,1710994476709373765,1455,2394,2540,2192,2948,2451,1198
1395,1710994476719372828,2618,1725,1553,1901,1138,1656,1190
1396,1710994476729378694,1473,2376,2458,2198,2961,2436,1197
1397,1710994476739364681,2608,1705,1708,1913,1141,1658,1190
1398,1710994476749370186,1475,2387,2540,2196,2960,2444,1198
1399,1710994476759345132,2626,1711,1504,1908,1133,1664,1189
1400,1710994476769369994,1459,2373,2530,2193,2938,2448,1199
1401,1710994476779345772,2622,1732,1608,1908,1155,1659,1191
1402,1710994476789364553,1472,2366,2424,2192,2958,2443,1197
1403,1710994476799346663,2620,1738,1520,1910,1144,1657,1190
1404,1710994476809369241,1466,2380,2488,2190,2952,2440,1197
1405,1710994476819345991,2615,1716,1603,1920,1176,1663,1189
1406,1710994476829367276,1492,2435,2549,2183,2926,2432,1195
1407,1710994476839345027,2624,1721,1723,1912,1135,1663,1188
1408,1710994476849368998,1472,2383,2411,2198,2949,2436,1197
1409,1710994476859346329,2615,1728,1560,1907,1154,1666,1186
1410,1710994476869371091,1513,2378,2487,2193,2940,2420,1197
1411,1710994476879347479,2624,1754,1636,1915,1189,1672,1189
1412,1710994476889373866,1465,2373,2485,2192,2925,2425,1198
1413,1710994476899377587,2613,1768,1677,1918,1176,1684,1189
1414,1710994476909382931,1496,2381,2481,2184,2915,2422,1195
1415,1710994476919360111,2600,1717,1685,1909,1157,1673,1188
1416,1710994476929371909,1486,2367,2421,2194,2900,2432,1197
1417,1710994476939372535,2600,1728,1501,1922,1192,1674,1189
1418,1710994476949383009,1459,2377,2482,2190,2939,2427,1197
1419,1710994476959369488,2560,1740,1597,1912,1173,1677,1189
1420,1710994476969389170,1507,2382,2524,2184,2928,2428,1200
1421,1710994476979351772,2578,1735,1544,1921,1180,1669,1190
1422,1710994476989382897,1494,2376,2436,2187,2906,2429,1197
1423,1710994476999350689,2580,1736,1589,1920,1212,1689,1189
1424,1710994477009369078,1511,2371,2565,2188,2913,2419,1197
1425,1710994477019346779,2600,1717,1744,1922,1169,1680,1189
1426,1710994477029387120,1520,2356,2456,2184,2897,2427,1199
1427,1710994477039355753,2566,1689,1501,1920,1182,1674,1190
1428,1710994477049368332,1506,2345,2391,2192,2922,2417,1196
1429,1710994477059347415,2584,1720,1523,1938,1208,1682,1188
1430,1710994477069369451,1500,2376,2508,2188,2898,2408,1197
1431,1710994477079348044,2584,1758,1693,1925,1213,1697,1189
1432,1710994477089365932,1508,2372,2383,2196,2892,2413,1196
1433,1710994477099347040,2604,1736,1604,1924,1196,1689,1192
1434,1710994477109368765,1513,2360,2522,2193,2920,2406,1198
1435,1710994477119348870,2592,1732,1572,1932,1207,1700,1189
1436,1710994477129368152,1534,2361,2496,2181,2899,2422,1197
1437,1710994477139347546,2578,1730,1626,1921,1225,1697,1189
1438,1710994477149395672,1501,2372,2518,2187,2902,2408,1198
1439,1710994477159357102,2559,1733,1540,1932,1215,1697,1189
1440,1710994477169372195,1517,2406,2516,2179,2900,2397,1198
1441,1710994477179361358,2548,1709,1516,1917,1196,1693,1188
1442,1710994477189372673,1514,2377,2452,2188,2921,2413,1195
1443,1710994477199348661,2553,1744,1604,1916,1227,1696,1188
1444,1710994477209368763,1528,2384,2552,2186,2908,2401,1196
1445,1710994477219347527,2577,1732,1567,1939,1208,1701,1187
1446,1710994477229367959,1501,2376,2580,2186,2910,2398,1196
1447,1710994477239343917,2561,1725,1521,1923,1215,1708,1189
1448,1710994477249364781,1505,2384,2404,2188,2889,2399,1198
1449,1710994477259345718,2555,1736,1652,1930,1177,1695,1189
1450,1710994477269365760,1519,2370,2424,2181,2878,2398,1194
1451,1710994477279435108,2568,1748,1737,1920,1217,1686,1188
1452,1710994477289378312,1518,2364,2436,2181,2899,2393,1195
1453,1710994477299364720,2543,1741,1552,1934,1243,1705,1190
1454,1710994477309374382,1519,2385,2450,2186,2872,2400,1197
1455,1710994477319357554,2608,1733,1725,1929,1245,1706,1189
1456,1710994477329378398,1512,2368,2440,2176,2882,2378,1196
1457,1710994477339390285,2549,1719,1721,1927,1255,1712,1188
1458,1710994477349382493,1521,2393,2560,2191,2882,2388,1197
1459,1710994477359354443,2588,1709,1530,1924,1244,1721,1190
1460,1710994477369374155,1517,2376,2424,2184,2884,2386,1198
1461,1710994477379351135,2564,1725,1707,1915,1256,1711,1191
1462,1710994477389373040,1510,2366,2549,2188,2852,2392,1196
1463,1710994477399355180,2542,1728,1701,1926,1274,1710,1192
1464,1710994477409377467,1509,2391,2505,2180,2860,2392,1197
1465,1710994477419353424,2553,1732,1558,1925,1240,1717,1191
1466,1710994477429372785,1540,2359,2499,2184,2858,2380,1197
1467,1710994477439351418,2560,1760,1628,1924,1249,1718,1189
1468,1710994477449372372,1524,2364,2452,2180,2887,2378,1197
1469,1710994477459360623,2570,1720,1666,1929,1272,1722,1190
1470,1710994477469370526,1521,2377,2451,2182,2852,2364,1197
1471,1710994477479347485,2570,1731,1657,1918,1233,1718,1190
1472,1710994477489369802,1528,2356,2506,2184,2825,2367,1197
1473,1710994477499354186,2573,1734,1616,1923,1240,1742,1189
1474,1710994477509374959,1519,2347,2432,2184,2849,2366,1196
1475,1710994477519353051,2533,1681,1660,1923,1287,1723,1190
1476,1710994477529374867,1549,2370,2397,2188,2832,2376,1196
1477,1710994477539362097,2562,1743,1605,1934,1261,1738,1188
1478,1710994477549373752,1517,2378,2499,2194,2893,2368,1194
1479,1710994477559361673,2562,1732,1752,1928,1276,1737,1191
1480,1710994477569371556,1553,2376,2402,2180,2806,2376,1197
1481,1710994477579364747,2577,1739,1631,1935,1312,1738,1189
1482,1710994477589375200,1538,2360,2353,2189,2804,2346,1195
1483,1710994477599356218,2553,1729,1744,1924,1265,1754,1190
1484,1710994477609374748,1549,2381,2461,2182,2834,2360,1193
1485,1710994477619357819,2564,1753,1765,1934,1278,1758,1189
1486,1710994477629373282,1525,2372,2411,2172,2809,2344,1195
1487,1710994477639358938,2569,1776,1747,1934,1290,1751,1189
1488,1710994477649371286,1549,2365,2420,2170,2824,2344,1198
1489,1710994477659359827,2540,1745,1707,1929,1279,1768,1187
1490,1710994477669375682,1544,2360,2358,2180,2843,2338,1197
1491,1710994477679361378,2533,1738,1653,1932,1298,1765,1191
1492,1710994477689395889,1544,2373,2376,2168,2816,2336,1196
1493,1710994477699363429,2544,1747,1647,1941,1326,1771,1191
1494,1710994477709371700,1554,2372,2512,2168,2788,2328,1194
1495,1710994477719364630,2543,1744,1584,1933,1342,1774,1190
1496,1710994477729373261,1550,2378,2403,2178,2776,2323,1197
1497,1710994477739366050,2525,1748,1674,1922,1339,1764,1191
1498,1710994477749371865,1558,2361,2520,2171,2776,2325,1197
1499,1710994477759348594,2537,1748,1581,1934,1314,1781,1188
1500,1710994477769373126,1545,2341,2365,2165,2756,2322,1196
1501,1710994477779350365,2505,1745,1724,1948,1351,1794,1189
1502,1710994477789372171,1583,2352,2350,2173,2777,2314,1196
1503,1710994477799352457,2525,1746,1688,1942,1316,1789,1190
1504,1710994477809371949,1575,2348,2352,2160,2741,2309,1194
1505,1710994477819350090,2510,1768,1624,1929,1344,1791,1190
1506,1710994477829372417,1584,2355,2492,2170,2757,2304,1196
1507,1710994477839351711,2522,1773,1716,1944,1361,1804,1192
1508,1710994477849373226,1598,2354,2393,2171,2758,2289,1196
1509,1710994477859349704,2496,1746,1701,1946,1391,1809,1188
1510,1710994477869375037,1592,2333,2387,2172,2732,2301,1195
1511,1710994477879351386,2474,1763,1665,1934,1360,1800,1188
1512,1710994477889376218,1627,2356,2465,2165,2730,2288,1196
1513,1710994477899355240,2508,1772,1745,1936,1366,1804,1192
1514,1710994477909379120,1602,2354,2482,2153,2728,2291,1196
1515,1710994477919351922,2448,1742,1620,1948,1409,1810,1188
1516,1710994477929379449,1606,2330,2437,2162,2690,2280,1196
1517,1710994477939352330,2476,1760,1736,1945,1377,1821,1190
1518,1710994477949344669,1612,2336,2376,2153,2712,2276,1196
1519,1710994477959365393,2489,1749,1758,1946,1393,1822,1192
1520,1710994477969384224,1624,2333,2405,2158,2707,2276,1196
1521,1710994477979357816,2493,1782,1724,1950,1406,1819,1190
1522,1710994477989385453,1605,2325,2324,2160,2668,2278,1194
1523,1710994477999357724,2445,1765,1619,1944,1389,1819,1189
1524,1710994478009387224,1608,2340,2417,2157,2708,2280,1194
1525,1710994478019360175,2460,1768,1731,1948,1396,1826,1192
1526,1710994478029399414,1626,2345,2296,2160,2684,2275,1195
1527,1710994478039358418,2448,1764,1788,1955,1434,1829,1190
1528,1710994478049412376,1642,2336,2368,2153,2672,2276,1195
1529,1710994478059357353,2448,1769,1696,1962,1444,1842,1188
1530,1710994478069395530,1647,2324,2361,2156,2660,2257,1195
1531,1710994478079363290,2463,1780,1700,1939,1424,1816,1190
1532,1710994478089375777,1625,2338,2334,2149,2636,2285,1194
1533,1710994478099362314,2457,1767,1800,1959,1420,1835,1191
1534,1710994478109397205,1656,2340,2329,2155,2679,2257,1196
1535,1710994478119373082,2420,1777,1790,1967,1454,1830,1190
1536,1710994478129400208,1646,2328,2424,2154,2689,2267,1197
1537,1710994478139371034,2431,1776,1788,1960,1440,1840,1188
1538,1710994478149370156,1661,2308,2390,2149,2670,2258,1196
1539,1710994478159348949,2449,1766,1757,1950,1477,1862,1190
1540,1710994478169345746,1652,2327,2393,2148,2632,2244,1195
1541,1710994478179349446,2446,1786,1742,1959,1445,1837,1192
1542,1710994478189369547,1666,2322,2333,2154,2617,2253,1196
1543,1710994478199355804,2428,1784,1657,1963,1445,1848,1192
1544,1710994478209368192,1665,2350,2456,2160,2663,2256,1195
1545,1710994478219349419,2410,1778,1796,1954,1484,1842,1190
1546,1710994478229365563,1657,2288,2248,2141,2657,2246,1194
1547,1710994478239367960,2437,1788,1724,1961,1482,1858,1189
1548,1710994478249365920,1670,2327,2308,2139,2644,2236,1195
1549,1710994478259347097,2422,1787,1704,1961,1473,1856,1188
1550,1710994478269365225,1675,2333,2438,2160,2636,2240,1193
1551,1710994478279353736,2413,1772,1738,1953,1457,1849,1190
1552,1710994478289366373,1681,2312,2280,2148,2629,2234,1194
1553,1710994478299346740,2436,1768,1724,1967,1466,1856,1190
1554,1710994478309363906,1664,2280,2414,2146,2617,2228,1197
1555,1710994478319354671,2424,1796,1821,1964,1490,1856,1191
1556,1710994478329366958,1691,2330,2377,2146,2613,2240,1194
1557,1710994478339356260,2399,1782,1755,1956,1484,1876,1191
1558,1710994478349367385,1696,2311,2348,2144,2621,2228,1192
1559,1710994478359357209,2401,1791,1814,1964,1494,1864,1191
1560,1710994478369365879,1677,2323,2356,2139,2604,2230,1196
1561,1710994478379355411,2412,1778,1818,1963,1501,1884,1192
1562,1710994478389369763,1679,2317,2389,2137,2587,2222,1193
1563,1710994478399357352,2392,1804,1832,1970,1538,1875,1192
1564,1710994478409369148,1701,2305,2410,2136,2584,2232,1194
1565,1710994478419358590,2388,1806,1812,1968,1501,1872,1191
1566,1710994478429369134,1677,2310,2299,2145,2607,2215,1194
1567,1710994478439360460,2392,1800,1850,1967,1525,1885,1189
1568,1710994478449366485,1713,2328,2278,2144,2603,2222,1196
1569,1710994478459359746,2385,1803,1832,1962,1505,1872,1188
1570,1710994478469366792,1687,2312,2322,2136,2576,2213,1195
1571,1710994478479347268,2402,1788,1742,1974,1512,1900,1192
1572,1710994478489371157,1679,2321,2301,2149,2572,2196,1194
1573,1710994478499372253,2370,1786,1701,1969,1521,1890,1189
1574,1710994478509375933,1708,2292,2234,2138,2600,2198,1195
1575,1710994478519347040,2407,1794,1853,1969,1532,1897,1191
1576,1710994478529365779,1721,2304,2369,2139,2562,2208,1194
1577,1710994478539349271,2357,1782,1863,1973,1562,1902,1192
1578,1710994478549369393,1701,2332,2318,2136,2565,2193,1195
1579,1710994478559347484,2376,1797,1862,1980,1554,1906,1192
1580,1710994478569366614,1720,2296,2339,2133,2555,2184,1195
1581,1710994478579361096,2381,1808,1699,1982,1565,1892,1192
1582,1710994478589370508,1740,2302,2369,2142,2571,2186,1196
1583,1710994478599353288,2362,1786,1806,1969,1554,1912,1192
1584,1710994478609372569,1726,2324,2269,2130,2536,2182,1197
1585,1710994478619353034,2392,1800,1853,1981,1574,1908,1190
1586,1710994478629373447,1736,2306,2314,2134,2523,2190,1194
1587,1710994478639382538,2348,1777,1789,1984,1609,1917,1192
1588,1710994478649375828,1756,2306,2348,2130,2536,2180,1194
1589,1710994478659352085,2357,1826,1821,1983,1552,1924,1190
1590,1710994478669376976,1759,2292,2254,2123,2503,2180,1196
1591,1710994478679347723,2346,1810,1841,1983,1578,1926,1189
1592,1710994478689378876,1744,2298,2265,2130,2522,2174,1194
1593,1710994478699347850,2335,1829,1888,1984,1588,1928,1192
1594,1710994478709379524,1738,2268,2305,2120,2496,2168,1194
1595,1710994478719348257,2339,1821,1847,1979,1586,1933,1192
1596,1710994478729379230,1748,2290,2383,2120,2483,2169,1195
1597,1710994478739348845,2329,1839,1831,1988,1619,1938,1190
1598,1710994478749382122,1761,2289,2302,2125,2484,2157,1193
1599,1710994478759347679,2322,1836,1733,1986,1618,1936,1191
1600,1710994478769367600,1776,2300,2308,2108,2459,2156,1194
1601,1710994478779349097,2322,1842,1778,1990,1640,1952,1190
1602,1710994478789368057,1801,2308,2256,2115,2470,2141,1195
1603,1710994478799346119,2315,1823,1830,1980,1645,1941,1192
1604,1710994478809368835,1776,2276,2339,2128,2456,2148,1195
1605,1710994478819350012,2316,1824,1727,2002,1650,1954,1192
1606,1710994478829370175,1792,2272,2256,2124,2444,2150,1193
1607,1710994478839345480,2270,1804,1779,1986,1660,1961,1192
1608,1710994478849366935,1794,2270,2222,2114,2428,2148,1193
1609,1710994478859345206,2301,1848,1900,1990,1630,1960,1188
1610,1710994478869368344,1798,2280,2240,2118,2444,2140,1193
1611,1710994478879347557,2284,1834,1963,1988,1656,1956,1191
1612,1710994478889369433,1802,2273,2361,2112,2441,2136,1195
1613,1710994478899350379,2309,1833,1766,1993,1657,1972,1192
1614,1710994478909368807,1808,2271,2234,2122,2424,2132,1194
1615,1710994478919344463,2282,1818,1934,1998,1680,1980,1190
1616,1710994478929367361,1796,2271,2285,2105,2414,2130,1193
1617,1710994478939349059,2279,1851,1719,1992,1687,1967,1190
1618,1710994478949367358,1825,2225,2232,2117,2413,2128,1193
1619,1710994478959347242,2274,1829,1800,1993,1683,1980,1192
1620,1710994478969365841,1826,2268,2268,2116,2385,2134,1195
1621,1710994478979346417,2251,1825,1776,2004,1702,1984,1190
1622,1710994478989370316,1869,2256,2200,2120,2409,2118,1195
1623,1710994478999347556,2264,1835,1940,2000,1701,1982,1191
1624,1710994479009367707,1853,2258,2227,2114,2396,2120,1194
1625,1710994479019348774,2240,1847,1875,1997,1690,1988,1191
1626,1710994479029366370,1845,2281,2277,2121,2415,2128,1196
1627,1710994479039352837,2248,1834,1880,2003,1712,1976,1190
1628,1710994479049367167,1864,2234,2192,2109,2395,2104,1193
1629,1710994479059344565,2240,1851,1821,2010,1710,1987,1187
1630,1710994479069365769,1857,2261,2283,2100,2408,2116,1193
1631,1710994479079342638,2224,1857,1810,2006,1712,1982,1190
1632,1710994479089367879,1876,2240,2235,2108,2402,2114,1194
1633,1710994479099346600,2221,1898,1918,2009,1691,1993,1190
1634,1710994479109370859,1870,2256,2200,2112,2401,2102,1195
1635,1710994479119344481,2228,1856,2006,1997,1709,1979,1191
1636,1710994479129366977,1876,2253,2163,2105,2368,2106,1195
1637,1710994479139345719,2233,1873,1813,1999,1756,1980,1191
1638,1710994479149371181,1884,2247,2245,2100,2370,2114,1193
1639,1710994479159349141,2220,1867,1936,2008,1772,1984,1192
1640,1710994479169367709,1869,2248,2206,2100,2360,2117,1195
1641,1710994479179352352,2229,1864,2006,2005,1729,1989,1190
1642,1710994479189367714,1910,2249,2215,2104,2372,2114,1192
1643,1710994479199348210,2193,1866,1885,2018,1755,1998,1193
1644,1710994479209369002,1907,2245,2184,2105,2328,2114,1195
1645,1710994479219347122,2204,1852,1821,2001,1753,2003,1191
1646,1710994479229367725,1895,2238,2169,2097,2340,2096,1196
1647,1710994479239348821,2198,1876,1822,2013,1762,2008,1191
1648,1710994479249369534,1900,2280,2306,2103,2336,2097,1191
1649,1710994479259352944,2178,1871,1765,2008,1752,1999,1191
1650,1710994479269368006,1905,2234,2160,2090,2334,2096,1193
1651,1710994479279348761,2188,1867,1954,2007,1774,2001,1192
1652,1710994479289369494,1929,2234,2290,2093,2349,2100,1193
1653,1710994479299350519,2190,1881,1892,2019,1783,2009,1191
1654,1710994479309397213,1914,2253,2192,2090,2336,2097,1193
1655,1710994479319350435,2185,1869,1858,2012,1800,2020,1193
1656,1710994479329367040,1934,2273,2218,2102,2350,2089,1192
1657,1710994479339351612,2179,1874,1905,2018,1768,2001,1189
1658,1710994479349368708,1922,2242,2306,2088,2292,2093,1192
1659,1710994479359353170,2185,1861,1886,2000,1787,1992,1192
1660,1710994479369367661,1935,2249,2184,2080,2313,2096,1193
1661,1710994479379357014,2170,1871,1845,2008,1778,2012,1192
1662,1710994479389368488,1940,2233,2243,2095,2298,2103,1192
1663,1710994479399356457,2173,1872,1908,2025,1804,2012,1190
1664,1710994479409367472,1931,2220,2226,2097,2308,2089,1194
1665,1710994479419357574,2176,1881,1857,2016,1796,2013,1192
1666,1710994479429365673,1936,2236,2258,2088,2298,2085,1194
1667,1710994479439367489,2160,1877,1916,2009,1800,2009,1189
1668,1710994479449376730,1930,2225,2178,2097,2308,2091,1194
1669,1710994479459364739,2184,1881,1981,2014,1797,2024,1190
1670,1710994479469377948,1928,2221,2253,2091,2318,2081,1195
1671,1710994479479365846,2145,1861,1903,2018,1803,2018,1192
1672,1710994479489376069,1947,2242,2240,2104,2292,2087,1192
1673,1710994479499367365,2156,1871,1938,2031,1829,2016,1192
1674,1710994479509377597,1954,2248,2269,2093,2308,2081,1193
1675,1710994479519371398,2153,1880,1908,2017,1819,2021,1190
1676,1710994479529377422,1944,2220,2165,2095,2284,2083,1194
1677,1710994479539371322,2141,1885,1968,2017,1805,2022,1192
1678,1710994479549382116,1948,2189,2176,2085,2303,2085,1194
1679,1710994479559403771,2153,1867,1965,2015,1827,2038,1192
1680,1710994479569385217,1967,2222,2229,2092,2276,2077,1193
1681,1710994479579358037,2130,1932,2052,2022,1817,2024,1192
1682,1710994479589380694,1937,2212,2235,2086,2276,2076,1193
1683,1710994479599359074,2121,1882,1937,2030,1846,2033,1192
1684,1710994479609382412,1963,2213,2116,2082,2270,2081,1196
1685,1710994479619376794,2134,1885,1933,2024,1845,2033,1191
1686,1710994479629380985,1959,2238,2208,2086,2289,2084,1195
1687,1710994479639358053,2133,1882,1921,2019,1834,2034,1192
1688,1710994479649377995,1966,2195,2204,2089,2282,2073,1191
1689,1710994479659380261,2140,1895,1889,2026,1835,2045,1191
1690,1710994479669380083,1955,2214,2151,2084,2260,2070,1195
1691,1710994479679357343,2146,1902,1958,2018,1833,2036,1192
1692,1710994479689382363,1984,2205,2222,2090,2287,2069,1194
1693,1710994479699365493,2113,1894,1953,2024,1829,2037,1191
1694,1710994479709382479,1989,2237,2231,2080,2257,2064,1194
1695,1710994479719358214,2128,1892,1969,2024,1844,2037,1191
1696,1710994479729384167,1992,2214,2275,2088,2266,2076,1194
1697,1710994479739367568,2105,1913,1829,2028,1868,2041,1192
1698,1710994479749385305,1988,2203,2222,2085,2248,2065,1194
1699,1710994479759356852,2122,1900,1857,2030,1882,2046,1193
1700,1710994479769393907,1988,2222,2216,2084,2244,2066,1199
1701,1710994479779359071,2106,1890,2064,2034,1869,2056,1195
1702,1710994479789388571,1981,2227,2138,2077,2264,2071,1196
1703,1710994479799367934,2099,1883,1874,2036,1871,2042,1190
1704,1710994479809389498,1984,2221,2168,2078,2246,2066,1192
1705,1710994479819355926,2097,1915,1944,2030,1892,2055,1196
1706,1710994479829391468,1992,2208,2186,2071,2232,2059,1194
1707,1710994479839358015,2117,1908,2020,2030,1885,2062,1194
1708,1710994479849374279,1992,2205,2135,2084,2240,2053,1193
1709,1710994479859355897,2088,1909,1884,2034,1888,2053,1193
1710,1710994479869376649,2004,2185,2201,2085,2232,2044,1190
1711,1710994479879356723,2094,1909,1864,2026,1898,2057,1193
1712,1710994479889377356,1997,2218,2056,2083,2242,2065,1192
1713,1710994479899358592,2113,1898,2001,2033,1896,2068,1192
1714,1710994479909377201,2019,2205,2150,2083,2229,2061,1192
1715,1710994479919357826,2073,1905,1906,2034,1899,2056,1194
1716,1710994479929380152,2024,2210,2245,2080,2227,2054,1194
1717,1710994479939356288,2088,1896,1920,2032,1888,2068,1194
1718,1710994479949379245,2016,2215,2116,2077,2220,2040,1189
1719,1710994479959367074,2069,1915,1993,2033,1902,2061,1194
1720,1710994479969379390,2026,2186,2108,2084,2186,2041,1192
1721,1710994479979356940,2087,1930,1956,2040,1936,2069,1194
1722,1710994479989379456,2030,2201,2088,2079,2200,2044,1190
1723,1710994479999356895,2077,1909,2004,2036,1908,2069,1194
1724,1710994480009379240,2017,2185,2232,2079,2200,2041,1189
1725,1710994480019359925,2050,1898,1966,2034,1924,2078,1194
1726,1710994480029380988,2031,2175,2086,2072,2194,2040,1192
1727,1710994480039356643,2059,1918,1988,2037,1920,2078,1194
1728,1710994480049379189,2059,2190,2098,2085,2188,2044,1190
1729,1710994480059358019,2072,1938,1985,2033,1939,2085,1195
1730,1710994480069381487,2060,2257,2187,2061,2185,2039,1192
1731,1710994480079360980,2048,1904,1922,2033,1936,2076,1193
1732,1710994480089376962,2040,2180,2112,2076,2194,2052,1193
1733,1710994480099361635,2052,1922,1952,2040,1940,2076,1194
1734,1710994480109377016,2056,2228,2145,2075,2182,2037,1192
1735,1710994480119361538,2028,1926,2009,2041,1952,2091,1194
1736,1710994480129377361,2052,2185,2127,2073,2180,2038,1188
1737,1710994480139363105,2034,1945,1987,2065,1951,2095,1193
1738,1710994480149378457,2051,2176,2117,2067,2152,2030,1190
1739,1710994480159364142,2038,1944,1899,2040,1946,2082,1196
1740,1710994480169378511,2046,2185,2110,2074,2194,2032,1192
1741,1710994480179367442,2031,1928,2042,2040,1962,2078,1195
1742,1710994480189380239,2064,2174,2188,2068,2186,2033,1192
1743,1710994480199367676,2031,1939,1923,2038,1956,2076,1194
1744,1710994480209379251,2059,2166,2070,2081,2182,2047,1187
1745,1710994480219357821,2056,1907,2049,2041,1962,2081,1192
1746,1710994480229379195,2068,2196,2075,2072,2174,2039,1190
1747,1710994480239356153,2046,1929,1970,2040,1954,2085,1194
1748,1710994480249376483,2072,2178,2117,2064,2153,2033,1191
1749,1710994480259355936,2035,1934,1936,2043,1982,2090,1191
1750,1710994480269375255,2059,2152,2157,2072,2157,2037,1190
1751,1710994480279354878,2027,1951,1894,2060,1979,2093,1192
1752,1710994480289374237,2066,2191,2178,2076,2163,2040,1190
1753,1710994480299355472,2014,1927,2018,2054,1972,2089,1195
1754,1710994480309377638,2072,2152,2110,2066,2133,2029,1192
1755,1710994480319354906,2021,1926,2100,2041,1990,2094,1193
1756,1710994480329384284,2064,2164,2144,2062,2160,2028,1192
1757,1710994480339353778,2029,1956,1969,2044,1974,2089,1194
1758,1710994480349380842,2074,2184,2038,2064,2172,2036,1192
1759,1710994480359355635,2006,1938,1994,2045,2005,2100,1196
1760,1710994480369379333,2084,2176,2149,2065,2138,2041,1193
1761,1710994480379354988,2016,1944,1996,2040,1985,2108,1195
1762,1710994480389381201,2090,2191,2109,2081,2142,2040,1192
1763,1710994480399353720,2004,1929,1895,2043,2009,2101,1195
1764,1710994480409383308,2073,2188,2162,2058,2142,2029,1193
1765,1710994480419354896,2013,1925,1986,2068,2004,2108,1194
1766,1710994480429385807,2070,2176,2096,2070,2160,2026,1191
1767,1710994480439353697,2010,1947,2042,2056,1986,2106,1193
1768,1710994480449385942,2088,2162,2034,2074,2155,2030,1191
1769,1710994480459355044,2004,1951,2008,2056,2004,2097,1195
1770,1710994480469386477,2076,2170,2046,2069,2140,2016,1190
1771,1710994480479354297,2009,1949,1993,2062,2028,2100,1196
1772,1710994480489390238,2090,2218,2152,2078,2122,2015,1190
1773,1710994480499356134,1993,1956,2000,2048,1999,2120,1193
1774,1710994480509376415,2092,2177,2066,2066,2131,2020,1192
1775,1710994480519354315,2014,1964,2018,2047,1996,2097,1195
1776,1710994480529374827,2088,2160,2190,2075,2136,2026,1189
1777,1710994480539353678,1978,1954,2020,2061,2061,2108,1194
1778,1710994480549375281,2096,2167,2154,2077,2143,2010,1189
1779,1710994480559355576,1993,1966,2032,2056,2016,2108,1193
1780,1710994480569377780,2099,2165,2032,2068,2129,2016,1192
1781,1710994480579356762,1995,1968,2028,2038,2005,2118,1196
1782,1710994480589377093,2093,2164,2069,2058,2138,2009,1190
1783,1710994480599355824,1980,1954,2040,2039,2007,2124,1193
1784,1710994480609375845,2099,2164,2018,2066,2117,2021,1193
1785,1710994480619357261,1988,1953,2038,2052,2056,2120,1193
1786,1710994480629376940,2090,2150,2027,2059,2114,2004,1190
1787,1710994480639356353,1969,2030,2117,2057,2050,2124,1194
1788,1710994480649375151,2088,2145,2189,2057,2112,2020,1190
1789,1710994480659356858,1976,1964,2050,2053,2014,2125,1193
1790,1710994480669377861,2104,2176,2047,2058,2128,2012,1192
1791,1710994480679356180,1971,1908,2048,2073,2048,2116,1195
1792,1710994480689376211,2109,2180,2188,2059,2117,2008,1191
1793,1710994480699354863,1969,1960,2046,2056,2041,2128,1195
1794,1710994480709377808,2096,2159,2108,2061,2110,2002,1189
1795,1710994480719356570,1978,1964,2048,2048,2035,2132,1194
1796,1710994480729377331,2101,2161,2096,2072,2105,2002,1191
1797,1710994480739358246,1965,1984,2042,2056,2042,2119,1195
1798,1710994480749377195,2094,2205,2176,2068,2094,2002,1190
1799,1710994480759357759,1972,1974,2107,2060,2047,2142,1195
1800,1710994480769374233,2104,2128,2043,2064,2118,2000,1193
1801,1710994480779355870,1974,1976,2108,2052,2048,2142,1196
1802,1710994480789376261,2097,2152,2079,2064,2086,1994,1192
1803,1710994480799361535,1960,1924,2009,2047,2056,2121,1195
1804,1710994480809379682,2113,2155,2104,2061,2105,1989,1189
1805,1710994480819358112,1952,1973,2037,2059,2068,2137,1194
1806,1710994480829377502,2104,2149,2081,2059,2096,2003,1188
1807,1710994480839358807,1936,1951,1973,2068,2069,2129,1194
1808,1710994480849378057,2120,2177,2090,2064,2085,1992,1191
1809,1710994480859359914,1948,1966,2010,2056,2073,2149,1193
1810,1710994480869378552,2114,2156,2035,2060,2088,1995,1190
1811,1710994480879361551,1959,1963,2131,2068,2071,2132,1196
1812,1710994480889378636,2110,2152,2076,2068,2088,1993,1192
1813,1710994480899361084,1942,1967,2017,2062,2090,2139,1195
1814,1710994480909378019,2131,2160,2124,2061,2098,1996,1192
1815,1710994480919359034,1944,1965,2060,2062,2085,2144,1193
1816,1710994480929376851,2126,2133,2046,2054,2060,1996,1189
1817,1710994480939358558,1961,1956,2008,2056,2098,2145,1194
1818,1710994480949378698,2117,2140,2021,2058,2058,1978,1192
1819,1710994480959359473,1930,1970,2049,2065,2110,2156,1196
1820,1710994480969378171,2122,2141,2129,2058,2070,1994,1192
1821,1710994480979366040,1934,1979,2032,2066,2089,2156,1193
1822,1710994480989379248,2125,2156,2015,2056,2068,1970,1192
1823,1710994480999360352,1923,1967,2005,2058,2073,2149,1193
1824,1710994481009377808,2122,2132,2021,2056,2056,1982,1187
1825,1710994481019359504,1924,1966,2078,2050,2100,2144,1194
1826,1710994481029379244,2132,2150,2017,2062,2064,1977,1192
1827,1710994481039358655,1929,1997,2064,2061,2083,2154,1194
1828,1710994481049378966,2145,2160,2099,2070,2056,1984,1191
1829,1710994481059357616,1932,1979,2120,2056,2078,2148,1193
1830,1710994481069376635,2134,2136,2054,2051,2052,1979,1189
1831,1710994481079358111,1926,1982,2024,2056,2099,2147,1196
1832,1710994481089382439,2144,2139,2052,2056,2027,1976,1190
1833,1710994481099361300,1923,1991,1972,2051,2118,2153,1196
1834,1710994481109378163,2144,2137,1991,2052,2045,1973,1189
1835,1710994481119359368,1921,1983,2012,2056,2124,2157,1195
1836,1710994481129379589,2148,2136,2034,2056,2021,1970,1192
1837,1710994481139359451,1912,1981,2113,2050,2120,2166,1195
1838,1710994481149378319,2132,2153,2008,2052,2045,1970,1190
1839,1710994481159363141,1928,2014,2056,2065,2134,2161,1195
1840,1710994481169377520,2150,2144,2088,2059,2012,1970,1192
1841,1710994481179365950,1912,1991,2066,2060,2137,2158,1195
1842,1710994481189380950,2145,2124,2013,2057,2027,1969,1190
1843,1710994481199364440,1917,1996,2033,2064,2128,2170,1194
1844,1710994481209380672,2142,2129,2036,2060,2037,1973,1189
1845,1710994481219365645,1914,1986,1989,2061,2137,2157,1194
1846,1710994481229379773,2149,2134,2097,2044,2025,1980,1192
1847,1710994481239367691,1911,1980,2038,2064,2153,2157,1194
1848,1710994481249378984,2141,2137,2017,2052,2034,1968,1192
1849,1710994481259369357,1885,1978,2066,2060,2120,2157,1193
1850,1710994481269377324,2148,2121,1971,2056,2010,1966,1189
1851,1710994481279370151,1919,1994,2128,2060,2133,2162,1194
1852,1710994481289381084,2141,2123,2056,2052,2008,1964,1190
1853,1710994481299375966,1898,1994,2096,2064,2156,2159,1193
1854,1710994481309380156,2162,2122,2102,2054,2028,1963,1189
1855,1710994481319372442,1883,1977,2043,2065,2131,2169,1194
1856,1710994481329376692,2164,2143,2025,2055,2005,1967,1190
1857,1710994481339375741,1877,1989,2120,2065,2157,2167,1194
1858,1710994481349380972,2168,2114,2010,2052,1993,1961,1190
1859,1710994481359359653,1912,2026,2145,2064,2159,2176,1196
1860,1710994481369376426,2161,2127,2020,2050,2004,1956,1192
1861,1710994481379359685,1889,2000,2122,2067,2172,2171,1195
1862,1710994481389381048,2170,2122,2012,2044,2004,1954,1192
1863,1710994481399362384,1897,2000,2104,2064,2132,2160,1195
1864,1710994481409378517,2157,2112,2012,2053,2012,1962,1190
1865,1710994481419359181,1896,2008,2172,2067,2154,2173,1196
1866,1710994481429381615,2162,2112,2023,2048,2002,1962,1191
1867,1710994481439358221,1892,2002,2130,2069,2166,2171,1194
1868,1710994481449381668,2177,2119,2075,2059,1983,1948,1190
1869,1710994481459359476,1875,1996,2022,2066,2181,2171,1195
1870,1710994481469383183,2168,2124,2024,2044,1995,1951,1188
1871,1710994481479359639,1881,2009,2068,2065,2162,2185,1194
1872,1710994481489384088,2173,2113,2000,2046,1978,1941,1191
1873,1710994481499359742,1881,1990,2143,2061,2182,2172,1191
1874,1710994481509385744,2180,2112,2113,2047,1975,1951,1191
1875,1710994481519357562,1869,2007,2020,2072,2184,2181,1195
1876,1710994481529387651,2177,2122,2018,2043,1980,1952,1189
1877,1710994481539367794,1877,2004,2074,2072,2177,2185,1194
1878,1710994481549389157,2181,2136,2026,2048,1963,1949,1189
1879,1710994481559360503,1877,2025,2205,2068,2205,2187,1196
1880,1710994481569390963,2165,2098,1949,2044,1955,1944,1192
1881,1710994481579359603,1888,2012,2166,2076,2186,2184,1194
1882,1710994481589391997,2167,2120,2013,2045,1968,1949,1189
1883,1710994481599367471,1882,2005,2174,2068,2201,2190,1196
1884,1710994481609402951,2174,2144,2020,2043,1960,1938,1189
1885,1710994481619358247,1872,1997,2013,2070,2212,2193,1195
1886,1710994481629412804,2180,2112,2024,2041,1976,1940,1189
1887,1710994481639374110,1874,2022,2079,2072,2201,2182,1194
1888,1710994481649379572,2172,2100,2058,2044,1965,1925,1192
1889,1710994481659361048,1874,2029,2101,2079,2206,2200,1192
1890,1710994481669381579,2176,2112,2091,2045,1955,1933,1192
1891,1710994481679361040,1874,1993,2153,2080,2222,2193,1196
1892,1710994481689379708,2196,2109,2060,2048,1969,1937,1190
1893,1710994481699386272,1864,2021,2193,2068,2186,2196,1195
1894,1710994481709388177,2188,2120,2047,2048,1939,1938,1193
1895,1710994481719360815,1886,2020,2154,2067,2199,2202,1196
1896,1710994481729381558,2186,2117,1962,2043,1954,1933,1192
1897,1710994481739364125,1864,2032,2200,2072,2226,2196,1193
1898,1710994481749374416,2190,2155,2040,2049,1938,1932,1191
1899,1710994481759361603,1858,2008,2003,2081,2216,2200,1194
1900,1710994481769381252,2184,2108,2090,2041,1949,1916,1191
1901,1710994481779359512,1866,2006,2072,2076,2220,2202,1197
1902,1710994481789375454,2191,2114,2028,2045,1941,1936,1190
1903,1710994481799359915,1869,2025,2157,2069,2242,2190,1194
1904,1710994481809379294,2194,2100,1973,2049,1939,1923,1192
1905,1710994481819362433,1858,2018,2212,2081,2223,2200,1196
1906,1710994481829385168,2202,2108,2052,2038,1925,1915,1189
1907,1710994481839405409,1858,2052,2120,2075,2234,2216,1195
1908,1710994481849382566,2200,2157,2102,2044,1928,1917,1190
1909,1710994481859360535,1844,2015,2120,2080,2244,2198,1194
1910,1710994481869379693,2201,2100,2041,2042,1930,1922,1192
1911,1710994481879371339,1840,2020,2089,2072,2229,2200,1194
1912,1710994481889368304,2200,2100,2013,2041,1920,1929,1188
1913,1710994481899380769,1851,2030,2093,2077,2246,2207,1196
1914,1710994481909378396,2203,2097,1975,2041,1916,1928,1190
1915,1710994481919366595,1835,2020,2080,2078,2252,2218,1194
1916,1710994481929383308,2202,2096,2100,2041,1908,1905,1188
1917,1710994481939357951,1842,2024,2109,2080,2240,2211,1194
1918,1710994481949379785,2206,2101,2080,2040,1906,1919,1191
1919,1710994481959360279,1826,2042,2113,2077,2234,2209,1194
1920,1710994481969378786,2206,2101,1987,2044,1913,1919,1189
1921,1710994481979362005,1850,2014,2156,2068,2245,2202,1194
1922,1710994481989388537,2202,2151,2086,2037,1922,1917,1191
1923,1710994481999378038,1829,2021,2052,2088,2256,2211,1196
1924,1710994482009380593,2227,2111,2038,2041,1904,1910,1189
1925,1710994482019377960,1838,2025,2107,2073,2256,2216,1196
1926,1710994482029380946,2228,2105,1946,2040,1908,1912,1192
1927,1710994482039363123,1832,2051,2197,2078,2255,2218,1195
1928,1710994482049385115,2228,2096,2041,2037,1896,1907,1189
1929,1710994482059361551,1822,2028,2164,2084,2277,2210,1194
1930,1710994482069380197,2237,2060,2047,2037,1888,1906,1192
1931,1710994482079363276,1844,2021,2037,2074,2278,2223,1195
1932,1710994482089413754,2242,2088,1961,2040,1889,1904,1190
1933,1710994482099392694,1819,2036,2230,2072,2260,2220,1194
1934,1710994482109372376,2220,2098,2012,2039,1896,1901,1190
1935,1710994482119354572,1818,2043,2165,2075,2262,2216,1195
1936,1710994482129376466,2233,2080,1953,2034,1896,1898,1189
1937,1710994482139351097,1835,2036,2178,2075,2270,2221,1196
1938,1710994482149376848,2242,2083,2043,2032,1888,1908,1189
1939,1710994482159390605,1822,2040,2185,2084,2302,2217,1197
1940,1710994482169378793,2236,2091,1976,2038,1880,1908,1192
1941,1710994482179363364,1808,2049,2205,2080,2281,2234,1193
1942,1710994482189379817,2235,2076,1942,2038,1907,1903,1189
1943,1710994482199352746,1796,2045,2112,2080,2283,2217,1197
1944,1710994482209407351,2236,2094,2061,2029,1880,1899,1188
1945,1710994482219362967,1821,2029,2141,2080,2307,2237,1196
1946,1710994482229380441,2240,2061,1982,2036,1861,1902,1190
1947,1710994482239361165,1842,2033,2121,2081,2280,2231,1195
1948,1710994482249382847,2240,2083,1952,2029,1878,1897,1189
1949,1710994482259357920,1798,2021,2074,2091,2294,2226,1193
1950,1710994482269383510,2240,2090,1971,2038,1892,1900,1190
1951,1710994482279353623,1808,2037,2201,2076,2285,2224,1197
1952,1710994482289387920,2236,2080,2019,2029,1881,1896,1189
1953,1710994482299356821,1814,2058,2057,2089,2281,2233,1194
1954,1710994482309374757,2259,2070,1946,2033,1873,1884,1192
1955,1710994482319347715,1802,2060,2108,2091,2275,2225,1197
1956,1710994482329369258,2251,2090,2085,2034,1876,1884,1192
1957,1710994482339346143,1801,2052,2056,2088,2292,2239,1196
1958,1710994482349992802,2259,2077,1953,2037,1852,1880,1188
1959,1710994482359363138,1818,2058,2217,2092,2293,2244,1195
1960,1710994482369367427,2243,2104,2032,2029,1852,1871,1192
1961,1710994482379349023,1794,2033,2241,2081,2304,2235,1198
1962,1710994482389368310,2244,2092,1904,2040,1861,1887,1192
1963,1710994482399347472,1806,2032,2249,2080,2300,2236,1196
1964,1710994482409369795,2253,2074,2037,2024,1846,1888,1188
1965,1710994482419350900,1787,2053,2099,2083,2264,2240,1194
1966,1710994482429369907,2265,2049,2028,2035,1844,1881,1189
1967,1710994482439348517,1802,2068,2218,2087,2308,2228,1194
1968,1710994482449389055,2261,2068,2002,2025,1867,1891,1189
1969,1710994482459361493,1785,2049,2185,2083,2320,2218,1194
1970,1710994482469372495,2268,2068,1972,2025,1833,1886,1190
1971,1710994482479352638,1788,2056,2160,2085,2296,2236,1195
1972,1710994482489366405,2273,2097,1960,2029,1844,1882,1192
1973,1710994482499350244,1786,2050,2132,2084,2333,2237,1194
1974,1710994482509367860,2260,2032,1997,2027,1834,1892,1190
1975,1710994482519360736,1808,2052,2233,2091,2300,2235,1194
1976,1710994482529374564,2241,2069,1920,2030,1832,1885,1191
1977,1710994482539356049,1796,2045,2122,2091,2325,2232,1195
1978,1710994482549386709,2285,2081,2010,2036,1829,1877,1190
1979,1710994482559372773,1791,2051,2124,2084,2313,2238,1195
1980,1710994482569364939,2295,2069,1926,2032,1834,1884,1192
1981,1710994482579362235,1777,2054,2184,2091,2316,2245,1196
1982,1710994482589372555,2262,2069,1974,2029,1829,1876,1191
1983,1710994482599351445,1800,2064,2192,2092,2308,2234,1196
1984,1710994482609397334,2281,2066,1936,2026,1815,1885,1189
1985,1710994482619353541,1789,2074,2153,2093,2328,2242,1195
1986,1710994482629380734,2276,2064,1942,2029,1837,1883,1189
1987,1710994482639356729,1760,2018,2195,2090,2324,2240,1197
1988,1710994482649375165,2293,2051,1958,2028,1838,1882,1191
1989,1710994482659359425,1785,2064,2193,2091,2336,2238,1194
1990,1710994482669371750,2271,2068,1923,2026,1807,1868,1189
1991,1710994482679359777,1762,2068,2221,2096,2331,2241,1195
1992,1710994482689370109,2285,2065,1987,2025,1824,1867,1190
1993,1710994482699353076,1764,2062,2155,2091,2341,2242,1195
1994,1710994482709392203,2286,2064,1928,2026,1820,1877,1189
1995,1710994482719352647,1766,2029,2094,2089,2330,2252,1194
1996,1710994482729397334,2276,2057,1914,2037,1823,1871,1189
1997,1710994482739355393,1762,2057,2205,2100,2328,2242,1192
1998,1710994482749381114,2287,2072,1930,2032,1823,1872,1190
1999,1710994482759359544,1770,2061,2151,2092,2332,2254,1197
2000,1710994482769377980,2277,2077,1933,2029,1825,1869,1192
2001,1710994482779355638,1787,2076,2210,2077,2318,2244,1198
2002,1710994482789378833,2278,2053,1924,2029,1812,1877,1192
2003,1710994482799359988,1777,2100,2200,2086,2339,2248,1196
2004,1710994482809376310,2307,2073,1950,2017,1796,1864,1187
2005,1710994482819353547,1774,2085,2162,2086,2322,2258,1197
2006,1710994482829373917,2314,2066,1950,2032,1803,1869,1190
2007,1710994482839360382,1751,2070,2105,2096,2345,2255,1194
2008,1710994482849389439,2290,2068,1936,2028,1808,1864,1189
2009,1710994482859354602,1775,2072,2252,2090,2336,2248,1194
2010,1710994482869373079,2297,2060,1929,2038,1795,1856,1189
2011,1710994482879372638,1768,2064,2231,2092,2336,2258,1196
2012,1710994482889377960,2293,2062,2015,2028,1781,1867,1189
2013,1710994482899361138,1771,2071,2124,2083,2336,2250,1195
2014,1710994482909378422,2295,2053,1983,2013,1813,1866,1192
2015,1710994482919382771,1755,2067,2230,2068,2339,2260,1195
2016,1710994482929375949,2329,2071,2018,2018,1797,1867,1189
2017,1710994482939365690,1753,2064,2164,2092,2382,2251,1197
2018,1710994482949405207,2308,2044,2019,2026,1781,1861,1189
2019,1710994482959365281,1770,2103,2108,2099,2353,2249,1197
2020,1710994482969381944,2304,2062,1925,2020,1771,1867,1192
2021,1710994482979373629,1774,2069,2236,2088,2342,2256,1196
2022,1710994482989379090,2304,2029,1929,2037,1810,1872,1189
2023,1710994482999368350,1757,2083,2190,2090,2352,2252,1196
2024,1710994483009381496,2313,2069,2033,2029,1797,1864,1190
2025,1710994483019369453,1761,2076,2173,2095,2376,2252,1195
2026,1710994483029381597,2293,2046,1877,2021,1773,1855,1190
2027,1710994483039372870,1756,2062,2224,2082,2357,2264,1194
2028,1710994483049368772,2312,2076,2027,2035,1774,1860,1192
2029,1710994483059351970,1742,2082,2083,2091,2369,2266,1193
2030,1710994483069368132,2305,2050,1897,2019,1753,1860,1190
2031,1710994483079376949,1756,2098,2186,2087,2373,2255,1196
2032,1710994483089390315,2314,2037,1937,2011,1764,1853,1191
2033,1710994483099349266,1761,2116,2147,2084,2365,2251,1196
2034,1710994483109376238,2312,2033,1988,2024,1785,1856,1189
2035,1710994483119352824,1733,2082,2192,2077,2349,2266,1196
2036,1710994483129375116,2325,2044,1963,2020,1784,1844,1190
2037,1710994483139376850,1757,2112,2200,2093,2360,2262,1196
2038,1710994483149401938,2307,2022,1856,2025,1763,1849,1190
2039,1710994483159377532,1744,2084,2141,2085,2353,2264,1196
2040,1710994483169371911,2332,2054,1990,2027,1775,1853,1190
2041,1710994483179390487,1727,2084,2176,2083,2366,2266,1196
2042,1710994483189385949,2312,2037,1869,2024,1765,1857,1188
2043,1710994483199359318,1747,2081,2194,2085,2388,2256,1196
2044,1710994483209382983,2320,2040,2026,2033,1778,1850,1192
2045,1710994483219359238,1742,2110,2248,2092,2366,2258,1197
2046,1710994483229383284,2319,2025,1856,2030,1764,1853,1192
2047,1710994483239404946,1741,2079,2261,2096,2361,2265,1196
2048,1710994483249393324,2336,2046,1897,2028,1764,1842,1192
2049,1710994483259366723,1725,2081,2225,2090,2365,2263,1193
2050,1710994483269399036,2336,2027,1902,2025,1768,1848,1189
2051,1710994483279388736,1750,2077,2305,2085,2382,2261,1194
2052,1710994483289388095,2310,2048,1965,2020,1761,1842,1188
2053,1710994483299369479,1738,2104,2104,2088,2377,2268,1196
2054,1710994483309389909,2346,2040,1887,2028,1777,1844,1189
2055,1710994483319358208,1742,2076,2230,2098,2374,2260,1195
2056,1710994483329391152,2326,2055,1893,2028,1739,1845,1190
2057,1710994483339376023,1718,2080,2200,2079,2373,2272,1194
2058,1710994483349394418,2336,2018,2000,2026,1729,1840,1189
2059,1710994483359361545,1748,2091,2173,2083,2392,2252,1200
2060,1710994483369393767,2326,2041,1976,2016,1742,1850,1189
2061,1710994483379381684,1729,2092,2107,2085,2370,2269,1195
2062,1710994483389413065,2358,2060,1952,2024,1727,1850,1189
2063,1710994483399360383,1720,2085,2154,2095,2408,2267,1198
2064,1710994483409378699,2334,2056,1851,2016,1753,1844,1189
2065,1710994483419358220,1728,2108,2160,2106,2401,2277,1195
2066,1710994483429379070,2331,2018,1936,2021,1765,1848,1189
2067,1710994483439390893,1715,2095,2257,2093,2384,2274,1194
2068,1710994483449378970,2340,2044,1987,2029,1741,1841,1189
2069,1710994483459354854,1726,2095,2174,2091,2382,2264,1193
2070,1710994483469377688,2332,2036,1873,2019,1728,1844,1189
2071,1710994483479380043,1733,2099,2160,2092,2404,2267,1197
2072,1710994483489382679,2328,2006,1892,2022,1731,1844,1191
2073,1710994483499357951,1721,2112,2267,2092,2384,2270,1195
2074,1710994483509382168,2344,2061,1906,2032,1745,1849,1190
2075,1710994483519358462,1707,2093,2269,2084,2353,2266,1195
2076,1710994483529378702,2342,2038,2037,2019,1718,1847,1189
2077,1710994483539371478,1730,2098,2264,2088,2424,2277,1198
2078,1710994483549381147,2348,2027,1903,2041,1740,1845,1189
2079,1710994483559363903,1724,2114,2213,2095,2416,2258,1196
2080,1710994483569403480,2348,2028,1954,2013,1724,1841,1192
2081,1710994483579395785,1716,2094,2132,2088,2398,2272,1196
2082,1710994483589363313,2334,2020,1951,2020,1719,1843,1189
2083,1710994483599353786,1733,2132,2293,2101,2401,2269,1198
2084,1710994483609367872,2364,2028,1921,2012,1724,1841,1191
2085,1710994483619365569,1706,2098,2284,2074,2400,2280,1192
2086,1710994483629369436,2350,2022,1909,2015,1720,1846,1188
2087,1710994483639359728,1711,2099,2221,2100,2413,2274,1198
2088,1710994483649371630,2338,2053,1948,2019,1729,1841,1190
2089,1710994483659357674,1722,2115,2186,2094,2402,2272,1195
2090,1710994483669368775,2356,2021,1961,2019,1737,1837,1188
2091,1710994483679359158,1720,2097,2118,2084,2393,2267,1194
2092,1710994483689366843,2354,2012,1984,2022,1724,1842,1190
2093,1710994483699360200,1710,2088,2112,2100,2419,2280,1195
2094,1710994483709376391,2356,1994,1952,2005,1719,1834,1190
2095,1710994483719349279,1728,2132,2281,2090,2398,2276,1196
2096,1710994483729368657,2353,2030,1877,2018,1709,1837,1192
2097,1710994483739353618,1698,2094,2102,2087,2421,2270,1194
2098,1710994483749369539,2354,2036,1977,2025,1730,1844,1189
2099,1710994483759346735,1701,2095,2152,2101,2426,2261,1194
2100,1710994483769366714,2359,2017,1964,2041,1755,1835,1191
2101,1710994483779345734,1718,2100,2118,2094,2435,2275,1193
2102,1710994483789372846,2353,2029,1875,2014,1732,1835,1187
2103,1710994483799368778,1722,2145,2216,2104,2410,2268,1197
2104,1710994483809368578,2354,2020,1868,2024,1730,1827,1186
2105,1710994483819351686,1689,2095,2290,2096,2416,2276,1197
2106,1710994483829377446,2381,2031,1881,2017,1720,1833,1190
2107,1710994483839352197,1717,2108,2296,2093,2402,2270,1197
2108,1710994483849366345,2371,2014,1960,2006,1725,1836,1191
2109,1710994483859343511,1694,2109,2187,2092,2408,2276,1193
2110,1710994483869367257,2358,2015,1853,2012,1720,1836,1188
2111,1710994483879342549,1700,2148,2173,2112,2426,2281,1195
2112,1710994483889368450,2361,2026,1944,2024,1717,1829,1188
2113,1710994483899339845,1705,2132,2125,2100,2429,2271,1196
2114,1710994483909365955,2365,2017,1961,2010,1704,1836,1188
2115,1710994483919350375,1712,2113,2270,2098,2408,2284,1193
2116,1710994483929373670,2370,2006,1851,2025,1725,1838,1188
2117,1710994483939355315,1698,2133,2187,2114,2424,2280,1195
2118,1710994483949382087,2374,1980,1900,2019,1695,1828,1188
2119,1710994483959351468,1723,2113,2296,2092,2427,2277,1196
2120,1710994483969379182,2350,2012,1865,2013,1700,1830,1188
2121,1710994483979381867,1693,2107,2308,2105,2426,2274,1196
2122,1710994483989381607,2385,2015,1954,2015,1716,1828,1189
2123,1710994483999354024,1690,2114,2156,2101,2432,2272,1193
2124,1710994484009388711,2360,2008,1932,2029,1721,1828,1190
2125,1710994484019352772,1693,2100,2187,2090,2408,2277,1194
2126,1710994484029370986,2373,2005,1896,2015,1692,1829,1189
2127,1710994484039367670,1683,2104,2325,2097,2424,2276,1196
2128,1710994484049389822,2376,2005,1953,2026,1719,1837,1190
2129,1710994484059350175,1688,2141,2136,2105,2434,2271,1193
2130,1710994484069364282,2381,2003,1881,2020,1692,1844,1188
2131,1710994484079353781,1699,2120,2186,2100,2431,2274,1194
2132,1710994484089377627,2378,2024,1872,2016,1676,1827,1187
2133,1710994484099353410,1693,2123,2184,2109,2448,2280,1194
2134,1710994484109373488,2379,1995,1918,2016,1704,1834,1187
2135,1710994484119358409,1706,2105,2163,2104,2446,2280,1196
2136,1710994484129373808,2369,2011,1842,2020,1682,1845,1189
2137,1710994484139387184,1705,2124,2304,2098,2430,2283,1195
2138,1710994484149370451,2386,1996,1952,2017,1692,1821,1190
2139,1710994484159351274,1702,2116,2156,2088,2444,2278,1195
2140,1710994484169369448,2369,2004,1851,2022,1701,1826,1189
2141,1710994484179376260,1693,2105,2331,2098,2440,2280,1196
2142,1710994484189368145,2371,1994,1923,2015,1688,1821,1190
2143,1710994484199349147,1714,2159,2315,2098,2429,2289,1197
2144,1710994484209368805,2376,1997,1846,2014,1688,1834,1190
2145,1710994484219350830,1704,2130,2213,2107,2461,2289,1195
2146,1710994484229367702,2378,1998,1852,2019,1703,1828,1189
2147,1710994484239376949,1681,2101,2224,2100,2414,2280,1195
2148,1710994484249394874,2410,2013,1905,2020,1691,1818,1189
2149,1710994484259354245,1704,2112,2267,2095,2437,2285,1196
2150,1710994484269370967,2381,2011,1928,2009,1680,1820,1190
2151,1710994484279367640,1702,2117,2201,2098,2436,2280,1195
2152,1710994484289373201,2381,2007,1995,2020,1684,1823,1189
2153,1710994484299353953,1688,2144,2142,2097,2426,2275,1196
2154,1710994484309368160,2395,2020,1911,2008,1661,1824,1188
2155,1710994484319364703,1692,2121,2211,2100,2455,2277,1196
2156,1710994484329365734,2388,2009,1979,2025,1683,1834,1188
2157,1710994484339354292,1674,2116,2245,2093,2440,2268,1196
2158,1710994484349358239,2394,2012,1917,2019,1683,1816,1190
2159,1710994484359345674,1679,2127,2232,2110,2462,2280,1195
2160,1710994484369367827,2384,2002,1854,2013,1678,1829,1190
2161,1710994484379374459,1688,2123,2202,2104,2457,2281,1195
2162,1710994484389380430,2380,1984,1910,2009,1664,1825,1189
2163,1710994484399374859,1686,2100,2161,2104,2469,2283,1195
2164,1710994484409374057,2388,1993,1830,2015,1673,1817,1191
2165,1710994484419347406,1688,2112,2254,2098,2454,2284,1196
2166,1710994484429370450,2385,2001,1956,2015,1696,1825,1189
2167,1710994484439354258,1674,2126,2166,2101,2460,2289,1196
2168,1710994484449362754,2393,1995,1840,2014,1661,1825,1189
2169,1710994484459346202,1668,2130,2228,2097,2466,2290,1196
2170,1710994484469366791,2396,2001,1940,2016,1682,1823,1189
2171,1710994484479377892,1691,2123,2264,2102,2452,2285,1196
2172,1710994484489372582,2404,2003,1829,2020,1690,1834,1191
2173,1710994484499349236,1664,2104,2206,2112,2480,2280,1194
2174,1710994484509371088,2400,2006,1906,2015,1664,1824,1189
2175,1710994484519352041,1681,2124,2228,2097,2448,2286,1196
2176,1710994484529369945,2388,1998,1930,2029,1692,1827,1189
2177,1710994484539365957,1669,2109,2208,2098,2447,2277,1195
2178,1710994484549390564,2397,2012,1877,2015,1693,1825,1191
2179,1710994484559349825,1680,2140,2320,2094,2433,2281,1197
2180,1710994484569367439,2399,1977,1923,2020,1668,1817,1191
2181,1710994484579392026,1694,2136,2250,2100,2450,2284,1197
2182,1710994484589374672,2378,1985,1914,2009,1682,1815,1191
2183,1710994484599351737,1680,2122,2162,2101,2458,2292,1196
2184,1710994484609367698,2384,1989,1844,2012,1663,1821,1190
2185,1710994484619353881,1672,2121,2200,2100,2456,2287,1197
2186,1710994484629369671,2414,2010,1894,2020,1657,1814,1188
2187,1710994484639355343,1677,2125,2154,2104,2472,2280,1193
2188,1710994484649370802,2408,1984,1849,2015,1688,1827,1188
2189,1710994484659356023,1665,2126,2258,2105,2450,2281,1194
2190,1710994484669369539,2384,1994,1926,2010,1691,1808,1192
2191,1710994484679371172,1681,2122,2140,2100,2467,2287,1198
2192,1710994484689372524,2399,2008,1956,2012,1699,1825,1188
2193,1710994484699371301,1667,2121,2125,2105,2465,2288,1194
2194,1710994484709370399,2404,1990,1904,2004,1653,1816,1187
2195,1710994484719365730,1685,2129,2270,2099,2453,2283,1196
2196,1710994484729370789,2413,1984,1829,2011,1660,1820,1190
2197,1710994484739341362,1662,2128,2264,2100,2468,2288,1196
2198,1710994484749373203,2423,1995,1869,2009,1663,1821,1190
2199,1710994484759364606,1682,2137,2232,2104,2446,2285,1197
2200,1710994484769372851,2409,2008,1944,2008,1672,1817,1189
2201,1710994484779365968,1678,2134,2278,2104,2473,2290,1196
2202,1710994484789370266,2407,1980,1860,1998,1660,1817,1188
2203,1710994484799350017,1679,2137,2184,2100,2465,2282,1194
2204,1710994484809367630,2412,2024,1924,2012,1657,1815,1189
2205,1710994484819350427,1678,2134,2212,2102,2458,2293,1196
2206,1710994484829369132,2420,1995,1906,2022,1665,1818,1187
2207,1710994484839382358,1663,2122,2304,2096,2447,2289,1195
2208,1710994484849369652,2424,1985,1804,2008,1666,1821,1189
2209,1710994484859353571,1676,2147,2233,2101,2458,2286,1194
2210,1710994484869372276,2409,2028,1868,2010,1665,1822,1190
2211,1710994484879373097,1668,2116,2279,2103,2459,2277,1193
2212,1710994484889373298,2412,2003,1925,2006,1666,1820,1190
