seq,time,data[0],data[1],data[2],data[3],data[4],data[5],data[6]
201,1710926456621672015,2051,2060,2056,2062,2047,2047,1192
202,1710926456631671368,2058,2064,2096,2056,2050,2057,1193
203,1710926456641671421,2054,2040,2021,2054,2056,2049,1193
204,1710926456651670985,2053,2052,2047,2067,2049,2058,1195
205,1710926456661673564,2053,2039,2014,2053,2052,2050,1194
206,1710926456671657447,2056,2034,1976,2058,2048,2043,1191
207,1710926456681655608,2062,2074,2049,2057,2056,2049,1194
208,1710926456691673736,2051,2040,2097,2047,2052,2042,1191
209,1710926456701656467,2056,2069,2082,2060,2060,2052,1195
210,1710926456711656311,2051,2048,2055,2061,2049,2050,1195
211,1710926456721657487,2054,2076,2089,2061,2060,2053,1195
212,1710926456731657342,2053,2051,2049,2063,2052,2053,1193
213,1710926456741657486,2052,2054,2053,2050,2048,2043,1193
214,1710926456751657800,2064,2056,2113,2058,2056,2057,1197
215,1710926456761657755,2065,2057,2020,2053,2063,2054,1195
216,1710926456771658440,2067,2075,2169,2081,2062,2061,1196
217,1710926456781655989,2064,2044,2026,2056,2061,2059,1193
218,1710926456791654420,2055,2049,2047,2050,2051,2058,1195
219,1710926456801656318,2056,2052,2042,2052,2040,2054,1196
220,1710926456811654749,2045,2040,1990,2057,2044,2050,1194
221,1710926456821659752,2056,2051,2013,2068,2052,2056,1195
222,1710926456831658153,2027,2047,2086,2050,2040,2042,1193
223,1710926456841658228,2055,2066,2080,2059,2057,2049,1195
224,1710926456851660586,2056,2064,2078,2058,2058,2058,1194
225,1710926456861655961,2056,2049,2037,2057,2057,2049,1195
226,1710926456871657478,2056,2045,2030,2047,2049,2059,1193
227,1710926456881660949,2074,2064,2069,2064,2062,2060,1195
228,1710926456891653700,2060,2056,2053,2060,2054,2060,1194
229,1710926456901657130,2050,2028,2023,2049,2058,2057,1194
230,1710926456911654048,2064,2079,2123,2061,2050,2058,1194
231,1710926456921658220,2051,2036,1982,2044,2052,2052,1193
232,1710926456931654357,2039,2041,2034,2050,2041,2045,1192
233,1710926456941654791,2056,2061,2036,2054,2066,2050,1194
234,1710926456951658543,2056,2050,2062,2064,2051,2057,1193
235,1710926456961656382,2062,2055,2048,2056,2060,2054,1193
236,1710926456971687585,2057,2066,2041,2055,2052,2053,1196
237,1710926456981736242,2050,2046,2017,2048,2052,2057,1193
238,1710926456991650613,2053,2047,2061,2065,2052,2056,1196
239,1710926457001658724,2048,2056,2105,2052,2057,2050,1195
240,1710926457011660721,2060,2048,2027,2059,2050,2055,1196
241,1710926457021662638,2060,2047,2021,2053,2064,2064,1196
242,1710926457031659948,2049,2042,2020,2050,2044,2056,1193
243,1710926457041660573,2056,2040,2025,2056,2055,2058,1193
244,1710926457051659605,2046,2034,2064,2057,2043,2050,1194
245,1710926457061680799,2045,2044,2037,2040,2050,2045,1192
246,1710926457071661767,2068,2057,2056,2064,2053,2057,1192
247,1710926457081652603,2058,2052,2049,2052,2057,2050,1195
248,1710926457091655914,2046,2037,1970,2056,2042,2040,1193
249,1710926457101654145,2036,2043,1993,2056,2047,2041,1192
250,1710926457111657986,2063,2062,2093,2056,2059,2057,1195
251,1710926457121661888,2054,2047,2041,2047,2052,2052,1194
252,1710926457131661370,2050,2047,2046,2052,2047,2061,1194
253,1710926457141653941,2044,2041,1996,2046,2056,2048,1192
254,1710926457151657802,2052,2068,2117,2066,2045,2054,1196
255,1710926457161657004,2050,2044,2025,2051,2060,2052,1195
256,1710926457171663630,2056,2046,2011,2059,2051,2056,1192
257,1710926457181657764,2052,2052,2032,2030,2048,2050,1194
258,1710926457191648029,2056,2062,2104,2070,2055,2065,1196
259,1710926457201652432,2046,2043,2021,2044,2045,2046,1191
260,1710926457211648418,2051,2049,2050,2046,2044,2056,1196
261,1710926457221663881,2050,2053,2040,2058,2070,2057,1194
262,1710926457231654388,2059,2054,2049,2034,2043,2054,1195
263,1710926457241654552,2049,2051,2032,2051,2054,2052,1194
264,1710926457251655337,2030,2028,2012,2050,2032,2036,1193
265,1710926457261655021,2068,2072,2110,2064,2061,2056,1195
266,1710926457271879190,2056,2054,2069,2066,2052,2052,1194
267,1710926457281673483,2056,2055,2056,2069,2059,2052,1193
268,1710926457291653941,2054,2084,2122,2044,2053,2060,1196
269,1710926457301657501,2059,2064,2100,2066,2062,2058,1193
270,1710926457311653918,2056,2049,2048,2056,2054,2058,1192
271,1710926457321684651,2061,2059,2070,2064,2062,2057,1195
272,1710926457331654908,2056,2055,2057,2047,2047,2049,1196
273,1710926457341662517,2058,2046,2047,2053,2049,2056,1193
274,1710926457351663253,2059,2056,2060,2052,2055,2056,1195
275,1710926457361657886,2053,2052,2054,2053,2056,2054,1193
276,1710926457371661146,2058,2056,2068,2051,2045,2051,1196
277,1710926457381657574,2058,2061,2016,2056,2058,2057,1195
278,1710926457391661826,2056,2056,2059,2064,2042,2052,1197
279,1710926457401658232,2065,2054,2030,2057,2053,2051,1197
280,1710926457411673797,2049,2036,2020,2052,2036,2048,1196
281,1710926457421687536,2052,2032,1997,2058,2066,2055,1193
282,1710926457431687891,2066,2083,2184,2051,2056,2065,1196
283,1710926457441657127,2049,2043,2013,2044,2016,2044,1193
284,1710926457451657010,2053,2040,2017,2057,2047,2060,1196
285,1710926457461660050,2071,2064,2053,2051,2055,2057,1193
286,1710926457471664353,2057,2053,2056,2036,2040,2052,1195
287,1710926457481659427,2054,2061,2094,2045,2033,2041,1192
288,1710926457491666645,2015,2019,2009,2053,2034,2035,1192
289,1710926457501659746,2058,2067,2084,2065,2056,2048,1194
290,1710926457511656303,2064,2052,2021,2043,2045,2061,1197
291,1710926457521663431,2062,2077,2097,2056,2056,2056,1196
292,1710926457531657283,2052,2044,2052,2056,2056,2060,1194
293,1710926457541666034,2058,2048,2038,2062,2106,2080,1195
294,1710926457551659586,2064,2047,2038,2054,2077,2091,1196
295,1710926457561659490,2043,2041,2015,2024,2037,2051,1192
296,1710926457571636810,2057,2050,2072,2056,2058,2058,1196
297,1710926457581658836,2036,2040,2032,2047,2076,2058,1192
298,1710926457591661796,2057,2061,2072,2049,2050,2054,1196
299,1710926457601662942,2044,2040,2022,2036,2044,2041,1193
300,1710926457611660422,2052,2064,2154,2058,2040,2054,1194
301,1710926457621660065,2056,2034,2030,2058,2057,2064,1197
302,1710926457631661110,2056,2060,2087,2072,2048,2063,1195
303,1710926457641662127,2064,2058,2093,2056,2093,2037,1194
304,1710926457651660588,2052,2060,2016,2082,2073,2074,1194
305,1710926457661661693,2056,2054,2058,2056,2060,2051,1194
306,1710926457671662670,2059,2042,2047,2045,2026,2046,1192
307,1710926457681661531,2051,2046,2022,2061,2052,2049,1196
308,1710926457691659211,2059,2063,2089,2056,2052,2059,1196
309,1710926457701662973,2053,2052,2031,2039,2048,2048,1196
310,1710926457711656474,2036,2040,2025,2044,2013,2048,1195
311,1710926457721656828,2046,2047,2027,2047,2090,2046,1192
312,1710926457731657634,2059,2057,2062,2049,2064,2049,1194
313,1710926457741660814,2049,2040,2016,2046,2052,2044,1192
314,1710926457751659716,2065,2064,2110,2053,2031,2040,1190
315,1710926457761658418,2050,2040,2033,2052,2044,2034,1194
316,1710926457771659594,2057,2056,2069,2060,2060,2048,1197
317,1710926457781671490,2046,2060,2030,2047,2031,2031,1191
318,1710926457791662147,2043,2043,2049,2052,2044,2056,1195
319,1710926457801659546,2053,2044,2030,2029,2067,2072,1196
320,1710926457811659369,2041,2030,2033,2038,2056,2056,1194
321,1710926457821659364,2054,2061,2046,2057,2049,2051,1196
322,1710926457831659878,2054,2057,2048,2036,2046,2065,1193
323,1710926457841658761,2058,2066,2065,2039,2049,2052,1197
324,1710926457851670577,2061,2073,2096,2056,2056,2047,1192
325,1710926457861668507,2051,2045,2035,2042,2043,2049,1195
326,1710926457871654865,2064,2056,2043,2062,2043,2058,1192
327,1710926457881633739,2041,2037,2013,2031,2040,2041,1193
328,1710926457891668008,2060,2060,2056,2068,2051,2057,1195
329,1710926457901658745,2064,2050,2045,2041,2070,2049,1195
330,1710926457911657296,2063,2060,2065,2068,2053,2058,1195
331,1710926457921687076,2048,2053,2059,2062,2049,2053,1195
332,1710926457931641104,2046,2052,2059,2060,2051,2049,1196
333,1710926457941661366,2064,2056,2024,2062,2037,2052,1193
334,1710926457951658273,2045,2040,2023,2048,2036,2039,1192
335,1710926457961660823,2067,2085,2116,2061,2058,2044,1192
336,1710926457971658282,2057,2056,2066,2057,2049,2052,1195
337,1710926457981679105,2050,2047,2045,2037,2053,2050,1196
338,1710926457991658320,2043,2047,2056,2056,2049,2046,1192
339,1710926458001658184,2057,2057,2057,2056,2060,2059,1196
340,1710926458011657286,2062,2046,2045,2041,2039,2052,1194
341,1710926458021658803,2059,2050,2030,2050,2058,2050,1194
342,1710926458031680638,2056,2053,2060,2023,2043,2045,1193
343,1710926458041662027,2056,2054,2041,2061,2061,2051,1196
344,1710926458051658565,2045,2057,2053,2059,2045,2045,1191
345,1710926458061662586,2049,2041,2020,2052,2064,2073,1196
346,1710926458071658101,2060,2054,2062,2063,2030,2045,1190
347,1710926458081661041,2050,2063,2092,2060,2041,2052,1195
348,1710926458091648301,2058,2069,2117,2067,2057,2053,1196
349,1710926458101657191,2053,2042,2022,2058,2056,2048,1196
350,1710926458111657626,2065,2049,2022,2062,2060,2057,1195
351,1710926458121562240,2057,2059,2056,2056,2071,2052,1195
352,1710926458131638448,2049,2058,2053,2064,2018,2043,1194
353,1710926458141669059,2065,2083,2121,2048,2058,2045,1193
354,1710926458151661841,2051,2050,2038,2008,2055,2048,1194
355,1710926458161661013,2053,2044,1993,2052,2070,2055,1195
356,1710926458171657349,2079,2080,2088,2067,2079,2064,1195
357,1710926458181661151,2056,2047,2031,2083,2044,2051,1196
358,1710926458191666645,2065,2058,2068,2072,2056,2054,1195
359,1710926458201662551,2052,2058,2079,2069,2067,2047,1192
360,1710926458211656384,2048,2040,2043,2046,2046,2045,1193
361,1710926458221656348,2052,2056,2054,2060,2060,2054,1195
362,1710926458231651582,2056,2060,2123,2062,2059,2058,1196
363,1710926458241655965,2032,2040,2043,2056,2033,2041,1192
364,1710926458251658925,2051,2052,2050,2072,2088,2070,1193
365,1710926458261657796,2055,2044,2019,2057,2064,2052,1195
366,1710926458271656738,2054,2046,2028,2056,2041,2050,1192
367,1710926458281663365,2060,2060,2065,2059,2066,2047,1191
368,1710926458291680922,2056,2053,2076,2036,2070,2072,1193
369,1710926458301659355,2064,2062,2024,2079,2074,2059,1192
370,1710926458311658969,2056,2053,2060,2057,2052,2056,1195
371,1710926458321657460,2044,2046,2030,2064,2073,2041,1192
372,1710926458331668073,2056,2055,2070,2043,2044,2052,1196
373,1710926458341665022,2052,2042,2009,2068,2062,2052,1196
374,1710926458351659556,2056,2056,2037,2077,2047,2050,1195
375,1710926458361656874,2043,2052,2033,2068,2058,2043,1193
376,1710926458371655256,2056,2056,2051,2043,2024,2049,1196
377,1710926458381669877,2058,2040,2016,2040,2056,2049,1196
378,1710926458391661104,2056,2051,2113,2036,2052,2061,1195
379,1710926458401651961,2060,2052,2037,2049,2064,2054,1197
380,1710926458411654270,2053,2049,2013,2061,2057,2053,1194
381,1710926458421656808,2050,2049,2051,2060,2056,2049,1192
382,1710926458431658465,2045,2046,2043,2047,2043,2047,1193
383,1710926458441656596,2056,2052,2040,2036,2049,2048,1194
384,1710926458451662851,2058,2065,2088,2041,2060,2064,1194
385,1710926458461662274,2032,2059,2045,2042,2056,2036,1194
386,1710926458471657720,2054,2041,2016,2080,2050,2053,1195
387,1710926458481631614,2044,2047,2052,2068,2050,2052,1196
388,1710926458491635064,2043,2044,2008,2065,2048,2044,1195
389,1710926458501655488,2046,2048,2038,2058,2060,2056,1194
390,1710926458511638339,2065,2057,2050,2056,2052,2059,1195
391,1710926458521656307,2052,2052,2025,2051,2054,2054,1195
392,1710926458531658185,2056,2044,2018,2035,2045,2052,1194
393,1710926458541660012,2059,2061,2058,2025,2056,2056,1193
394,1710926458551646731,2078,2076,2088,2080,2058,2057,1195
395,1710926458561659970,2057,2051,2037,2061,2056,2053,1195
396,1710926458571635808,2044,2044,2076,2058,2044,2045,1193
397,1710926458581667332,2048,2072,2089,2064,2041,2054,1194
398,1710926458591657477,2056,2042,2026,2051,2057,2059,1196
399,1710926458601656479,2050,2041,2004,2060,2056,2048,1195
400,1710926458611659960,2050,2052,2036,2047,2036,2034,1192
401,1710926458621675883,2054,2047,2033,2044,2050,2048,1197
402,1710926458631660790,2057,2057,2058,2045,2045,2052,1194
403,1710926458641661334,2059,2070,2082,2040,2056,2050,1196
404,1710926458651658312,2052,2043,2060,2060,2060,2058,1194
405,1710926458661653598,2056,2053,2049,2047,2062,2052,1194
406,1710926458671657309,2054,2049,2048,2068,2050,2066,1194
407,1710926458681665808,2058,2072,2076,2057,2053,2038,1192
408,1710926458691688185,2059,2049,2032,2077,2056,2057,1194
409,1710926458701654315,2053,2053,2053,2057,2052,2053,1194
410,1710926458711664919,2058,2051,2036,2066,2056,2054,1196
411,1710926458721657329,2054,2052,2028,2033,2060,2052,1194
412,1710926458731658074,2061,2051,2024,2033,2046,2049,1196
413,1710926458741625075,2041,2068,2088,2080,2090,2038,1194
414,1710926458751654004,2062,2042,2032,2045,2052,2077,1195
415,1710926458761661513,2059,2046,2013,2037,2053,2052,1196
416,1710926458771657869,2053,2061,2044,2056,2057,2056,1196
417,1710926458781663494,2053,2040,2030,2051,2059,2050,1194
418,1710926458791643661,2053,2040,2016,2069,2053,2060,1196
419,1710926458801659364,2060,2068,2088,2022,2059,2053,1197
420,1710926458811654088,2053,2064,2110,2018,2055,2056,1194
421,1710926458821655505,2056,2043,2036,2065,2053,2056,1197
422,1710926458831657683,2057,2061,2068,2024,2052,2057,1198
423,1710926458841665752,2053,2044,2033,2056,2053,2053,1196
424,1710926458851665246,2074,2069,2076,2067,2061,2056,1195
425,1710926458861663596,2074,2064,2052,2034,2059,2056,1197
426,1710926458871657598,2058,2054,2059,2058,2063,2065,1193
427,1710926458881690185,2041,2049,2064,2055,2053,2038,1192
428,1710926458891661424,2040,2049,2054,2072,2044,2047,1192
429,1710926458901660165,2053,2056,2041,2061,2054,2052,1194
430,1710926458911692440,2065,2072,2087,2078,2058,2063,1194
431,1710926458921661516,2062,2062,2056,2088,2058,2056,1196
432,1710926458931677961,2055,2052,2028,2088,2080,2056,1195
433,1710926458941661594,2050,2039,2040,2062,2061,2048,1195
434,1710926458951659985,2056,2046,2041,2085,2060,2058,1196
435,1710926458961657695,2053,2054,2044,2059,2046,2051,1193
436,1710926458971653009,2057,2055,2052,2055,2056,2057,1197
437,1710926458981691016,2069,2089,2101,2056,2047,2054,1196
438,1710926458991680360,2059,2058,2049,2064,2061,2053,1196
439,1710926459001664102,2050,2037,2004,2058,2060,2051,1198
440,1710926459011657465,2053,2062,2014,2048,2050,2049,1195
441,1710926459021665353,2064,2068,2059,2074,2056,2051,1195
442,1710926459031661870,2057,2052,2062,2034,2039,2050,1195
443,1710926459041636075,2033,2053,2036,2052,2049,2029,1193
444,1710926459051665375,2058,2056,2080,2045,2047,2053,1196
445,1710926459061658185,2056,2052,2036,2040,2063,2056,1196
446,1710926459071655734,2053,2043,2007,2056,2061,2055,1196
447,1710926459081660027,2049,2050,2036,2060,2051,2046,1192
448,1710926459091660371,2036,2038,2012,2050,2043,2044,1192
449,1710926459101656668,2058,2066,2049,2061,2050,2059,1195
450,1710926459111654477,2056,2046,2056,2041,2056,2048,1196
451,1710926459121655224,2041,2045,2037,2014,2045,2047,1192
452,1710926459131665717,2063,2060,2049,2076,2056,2057,1195
453,1710926459141694766,2065,2058,2079,2056,2072,2057,1196
454,1710926459151665965,2072,2076,2091,2066,2057,2060,1196
455,1710926459161654728,2057,2059,2070,2081,2057,2068,1194
456,1710926459171657788,2054,2056,2060,2066,2040,2051,1196
457,1710926459181657661,2054,2048,2033,2042,2068,2052,1197
458,1710926459191661313,2029,2037,2036,2022,2037,2040,1196
459,1710926459201653091,2044,2048,2031,2066,2058,2047,1194
460,1710926459211650530,2047,2053,2058,2052,2053,2056,1197
461,1710926459221650845,2024,2031,2027,2058,2045,2036,1192
462,1710926459231657261,2048,2052,2049,2060,2052,2049,1194
463,1710926459241660541,2062,2072,2089,2096,2068,2060,1194
464,1710926459251659743,2052,2044,2028,2040,2042,2052,1197
465,1710926459261658886,2050,2050,2047,2049,2052,2049,1194
466,1710926459271660382,2056,2050,2058,2073,2058,2056,1194
467,1710926459281661939,2038,2036,2056,2053,2056,2058,1196
468,1710926459291646954,2050,2041,2015,2071,2062,2052,1195
469,1710926459301658010,2054,2049,2049,2064,2057,2053,1194
470,1710926459311661190,2057,2052,2038,2073,2062,2056,1196
471,1710926459321659019,2071,2074,2114,2052,2056,2049,1194
472,1710926459331659154,2060,2051,2058,2060,2051,2052,1196
473,1710926459341657585,2053,2039,1999,2053,2056,2047,1194
474,1710926459351662788,2061,2056,2042,2062,2052,2051,1194
475,1710926459361659646,2049,2042,1985,2041,2045,2048,1195
476,1710926459371663077,2047,2051,2027,2064,2054,2044,1194
477,1710926459381678530,2057,2049,2056,2052,2058,2054,1195
478,1710926459391665379,2057,2047,2037,2065,2072,2057,1195
479,1710926459401665814,2053,2047,2011,2058,2054,2047,1194
480,1710926459411663033,2066,2082,2074,2077,2048,2047,1193
481,1710926459421659089,2056,2049,2046,2057,2056,2054,1194
482,1710926459431661868,2057,2064,2074,2069,2044,2051,1194
483,1710926459441669998,2065,2066,2084,2052,2059,2064,1195
484,1710926459451670372,2068,2074,2120,2042,2047,2049,1195
485,1710926459461658624,2056,2049,2030,2061,2079,2056,1194
486,1710926459471656805,2038,2047,2056,2008,2038,2043,1191
487,1710926459481655927,2064,2072,2166,2046,2060,2056,1193
488,1710926459491678123,2045,2037,2016,2045,2044,2054,1195
489,1710926459501670001,2051,2039,2026,2053,2048,2051,1195
490,1710926459511647934,2038,2048,2028,2018,2030,2040,1193
491,1710926459521659579,2048,2047,2034,2057,2056,2050,1197
492,1710926459531660184,2056,2056,2047,2027,2050,2051,1197
493,1710926459541673193,2060,2052,2017,2052,2069,2056,1196
494,1710926459551642229,2053,2044,2028,2064,2063,2050,1194
495,1710926459561668352,2041,2034,2000,2028,2055,2048,1195
496,1710926459571655331,2049,2065,2050,2066,2047,2048,1196
497,1710926459581659694,2051,2047,2040,2070,2068,2056,1195
498,1710926459591683021,2046,2057,2121,2060,2040,2045,1193
499,1710926459601674769,2046,2050,2009,2037,2060,2046,1192
500,1710926459611656038,2046,2046,2047,2042,2052,2055,1193
501,1710926459621657856,2054,2052,2042,2074,2062,2062,1194
502,1710926459631658120,2058,2041,1977,2066,2065,2050,1193
503,1710926459641666960,2049,2042,2036,2043,2041,2048,1196
504,1710926459651660112,2056,2072,2072,2044,2042,2051,1195
505,1710926459661666838,2040,2040,2059,2042,2046,2045,1193
506,1710926459671659428,2053,2044,2036,2044,2050,2056,1193
507,1710926459681664071,2070,2057,2026,2060,2058,2057,1196
508,1710926459691640751,2057,2062,2076,2062,2056,2061,1194
509,1710926459701644051,2064,2052,2052,2033,2057,2057,1193
510,1710926459711670935,2061,2060,2094,2079,2054,2057,1198
511,1710926459721659889,2056,2058,2069,2067,2059,2054,1196
512,1710926459731662488,2049,2049,2063,2057,2050,2050,1196
513,1710926459741661049,2057,2057,2053,2049,2056,2045,1192
514,1710926459751666042,2062,2063,2088,2076,2069,2073,1196
515,1710926459761661278,2054,2046,2028,2011,2053,2051,1193
516,1710926459771662694,2046,2036,2034,2066,2047,2056,1195
517,1710926459781662898,2056,2044,2028,2049,2049,2050,1196
518,1710926459791662792,2052,2053,2054,2081,2056,2048,1196
519,1710926459801664800,2050,2054,2040,2094,2050,2046,1192
520,1710926459811662639,2065,2065,2084,2074,2060,2058,1195
521,1710926459821664066,2057,2069,2072,2065,2062,2050,1194
522,1710926459831664181,2059,2056,2021,2002,2042,2060,1194
523,1710926459841667651,2058,2056,2066,2056,2064,2053,1195
524,1710926459851670009,2051,2047,2030,2049,2057,2068,1194
525,1710926459861665926,2047,2050,2050,2044,2058,2050,1196
526,1710926459871642265,2054,2060,2081,2060,2052,2050,1192
527,1710926459881665072,2056,2056,2042,2046,2056,2056,1194
528,1710926459891663592,2058,2056,2056,2062,2056,2059,1193
529,1710926459901664108,2043,2044,2024,2046,2045,2048,1198
530,1710926459911662439,2066,2050,2044,2078,2054,2054,1196
531,1710926459921647113,2065,2038,2009,2040,2062,2063,1195
532,1710926459931647308,2062,2066,2056,2071,2057,2058,1195
533,1710926459941650027,2054,2047,2047,2059,2059,2057,1195
534,1710926459951672383,2044,2042,2035,2060,2047,2050,1196
535,1710926459961647910,2053,2059,2089,2068,2046,2059,1194
536,1710926459971645461,2057,2064,2028,2054,2046,2052,1194
537,1710926459981667546,2053,2041,1992,2046,2053,2052,1195
538,1710926459991725670,2050,2050,2052,2066,2057,2056,1196
539,1710926460001644891,2060,2061,2042,2062,2049,2050,1195
540,1710926460011667608,2044,2042,2036,2048,2044,2049,1196
541,1710926460021649758,2044,2051,2017,2020,2052,2043,1193
542,1710926460031646055,2061,2056,2037,2061,2056,2058,1197
543,1710926460041646470,2046,2041,2051,2055,2066,2062,1195
544,1710926460051650481,2049,2046,2017,2074,2057,2056,1195
545,1710926460061667497,2052,2046,2049,2056,2057,2051,1196
546,1710926460071643656,2061,2057,2100,1983,2047,2058,1198
547,1710926460081653539,2063,2045,2027,2070,2061,2053,1194
548,1710926460091649555,2062,2035,2034,2060,2051,2062,1195
549,1710926460101669226,2058,2057,2067,2048,2052,2053,1197
550,1710926460111653239,2047,2040,2047,2034,2056,2058,1195
551,1710926460121605403,2060,2045,2024,2057,2056,2056,1195
552,1710926460131638830,2060,2056,2076,2056,2056,2061,1198
553,1710926460141650556,2047,2045,2025,2037,2051,2049,1195
554,1710926460151657403,2062,2065,2070,2032,2044,2056,1197
555,1710926460161656606,2066,2041,2026,2030,2052,2050,1198
556,1710926460171659585,2056,2053,2069,2069,2047,2052,1195
557,1710926460181655642,2062,2062,2057,2074,2061,2060,1195
558,1710926460191653120,2050,2048,2058,2050,2052,2059,1194
559,1710926460201652384,2065,2053,2009,2056,2064,2059,1196
560,1710926460211655754,2049,2044,2026,2076,2053,2056,1195
561,1710926460221653253,2053,2039,2003,2047,2056,2064,1194
562,1710926460231648728,2054,2056,2082,2052,2049,2056,1196
563,1710926460241649534,2049,2040,2032,2049,2056,2052,1197
564,1710926460251668464,2060,2054,2060,2047,2047,2053,1195
565,1710926460261639172,2049,2051,2026,2053,2054,2047,1194
566,1710926460271646740,2057,2056,2069,2065,2054,2053,1194
567,1710926460281661282,2057,2047,2034,2060,2057,2056,1195
568,1710926460291651487,2058,2047,2075,2037,2049,2053,1194
569,1710926460301652292,2050,2064,2039,2045,2069,2056,1197
570,1710926460311650192,2050,2048,2049,2020,2045,2053,1193
571,1710926460321650136,2052,2050,2056,2059,2058,2053,1196
572,1710926460331649950,2052,2043,2024,2059,2056,2056,1195
573,1710926460341651727,2060,2048,2030,2047,2049,2050,1194
574,1710926460351669123,2048,2041,2031,2057,2052,2053,1193
575,1710926460361650753,2066,2066,2110,2060,2063,2058,1196
576,1710926460371644415,2047,2041,2051,2081,2052,2057,1196
577,1710926460381658706,2044,2045,2020,2048,2047,2046,1194
578,1710926460391650514,2057,2050,2004,2084,2048,2052,1196
579,1710926460401652312,2049,2041,2037,2052,2066,2049,1197
580,1710926460411659319,2043,2054,2076,2070,2058,2047,1192
581,1710926460421650365,2064,2065,2081,2069,2076,2061,1195
582,1710926460431647554,2049,2053,2058,2051,2053,2053,1193
583,1710926460441648280,2054,2057,2057,2051,2049,2047,1193
584,1710926460451648925,2054,2066,2046,2056,2048,2053,1196
585,1710926460461653026,2067,2072,2085,2054,2067,2070,1196
586,1710926460471654773,2052,2047,2035,2067,2043,2052,1194
587,1710926460481652193,2053,2053,2045,2036,2056,2042,1192
588,1710926460491650022,2054,2048,2027,2065,2067,2062,1194
589,1710926460501667409,2060,2052,2032,2060,2066,2060,1194
590,1710926460511655129,2040,2028,2031,2059,2047,2047,1192
591,1710926460521652910,2060,2050,2043,2032,2051,2050,1194
592,1710926460531646562,2064,2058,2069,2066,2049,2057,1196
593,1710926460541648399,2060,2045,2051,2052,2053,2052,1193
594,1710926460551650757,2056,2058,2060,2057,2047,2048,1194
595,1710926460561668816,2046,2051,2043,2069,2051,2045,1192
596,1710926460571652579,2059,2064,2116,2073,2057,2058,1196
597,1710926460581659335,2052,2067,2101,2040,2054,2054,1193
598,1710926460591646544,2060,2064,2072,2053,2051,2054,1197
599,1710926460601646609,2050,2044,2040,2052,2042,2044,1192
600,1710926460611646282,2052,2046,2061,2042,2049,2065,1193
601,1710926460621645504,2059,2051,2050,2070,2072,2064,1193
602,1710926460631648965,2058,2072,2098,2014,2033,2052,1195
603,1710926460641645753,2058,2055,2046,2044,2052,2058,1195
604,1710926460651645787,2066,2056,2044,2068,2058,2056,1194
605,1710926460661644578,2050,2045,2035,2052,2057,2053,1194
606,1710926460671667105,2052,2047,2045,2047,2046,2053,1192
607,1710926460681643485,2051,2056,1992,2070,2056,2062,1195
608,1710926460691658397,2056,2044,2014,2004,2046,2054,1195
609,1710926460701651667,2065,2055,2052,2040,2053,2056,1194
610,1710926460711649166,2061,2062,2078,2058,2056,2062,1196
611,1710926460721664179,2056,2046,2037,2056,2053,2052,1196
612,1710926460731641670,2053,2045,2046,2053,2052,2053,1194
613,1710926460741650320,2052,2032,1897,2046,2056,2047,1192
614,1710926460751648711,2064,2043,2043,2072,2060,2061,1196
615,1710926460761648856,2047,2052,2047,2053,2056,2054,1194
616,1710926460771675230,2054,2051,2072,2064,2045,2047,1193
617,1710926460781669563,2045,2053,2045,2072,2068,2056,1196
618,1710926460791651943,2050,2050,2050,2057,2015,2042,1193
619,1710926460801650725,2048,2041,2005,2047,2054,2053,1195
620,1710926460811647964,2057,2050,2016,2068,2051,2056,1195
621,1710926460821668667,2068,2068,2035,2048,2051,2054,1194
622,1710926460831700511,2054,2038,2023,2051,2046,2052,1196
623,1710926460841681449,2048,2056,2090,2052,2044,2048,1194
624,1710926460851652738,2077,2062,2047,2026,2049,2056,1196
625,1710926460861647913,2059,2056,2057,2068,2061,2058,1196
626,1710926460871646314,2064,2068,2078,2061,2061,2064,1194
627,1710926460881685893,2056,2052,2047,2044,2052,2056,1197
628,1710926460891646953,2057,2049,2064,2053,2025,2047,1192
629,1710926460901653108,2053,2052,2062,2063,2064,2072,1196
630,1710926460911646960,2045,2040,2043,2064,2047,2045,1193
631,1710926460921647927,2052,2045,2013,2063,2064,2053,1195
632,1710926460931647910,2062,2047,2042,2062,2055,2060,1196
633,1710926460941651280,2059,2072,2100,2070,2064,2066,1193
634,1710926460951654280,2052,2049,2056,2064,2075,2052,1196
635,1710926460961652010,2060,2055,2046,2070,2045,2051,1196
636,1710926460971651002,2049,2052,2058,2044,2050,2050,1194
637,1710926460982347776,2060,2063,2032,2069,2056,2057,1194
638,1710926460991661229,2057,2047,2043,2053,2056,2058,1196
639,1710926461001663708,2040,2052,2047,2035,2045,2044,1192
640,1710926461011648343,2053,2048,2064,2061,2054,2049,1194
641,1710926461021654648,2064,2078,2138,2078,2061,2064,1195
642,1710926461031652698,2066,2055,2052,2051,2047,2055,1195
643,1710926461041661540,2054,2053,2053,2053,2059,2053,1192
644,1710926461051646745,2043,2044,2054,2057,2041,2044,1193
645,1710926461061653792,2071,2057,2061,2046,2065,2057,1196
646,1710926461071651371,2050,2042,2034,2053,2056,2058,1193
647,1710926461081677826,2048,2060,2105,2018,2047,2054,1195
648,1710926461091702006,2053,2051,2046,2066,2047,2050,1194
649,1710926461101665420,2076,2065,2060,2076,2056,2058,1195
650,1710926461111655705,2054,2056,2037,2057,2030,2048,1195
651,1710926461121658354,2057,2059,2096,2084,2065,2056,1197
652,1710926461131656675,2058,2063,2082,2061,2043,2049,1195
653,1710926461141657050,2060,2056,2054,2068,2054,2052,1195
654,1710926461151651352,2054,2053,2049,2062,2051,2056,1194
655,1710926461161657107,2035,2034,2020,2053,2048,2046,1195
656,1710926461171654677,2054,2064,2088,2027,2047,2050,1197
657,1710926461181661955,2060,2069,2056,2058,2056,2056,1197
658,1710926461191657910,2068,2056,2057,2070,2065,2062,1195
659,1710926461201654367,2081,2056,2048,2036,2054,2050,1194
660,1710926461211662046,2063,2058,2047,2064,2051,2056,1196
661,1710926461221658985,2052,2052,2040,2079,2068,2056,1198
662,1710926461231659730,2061,2073,2131,2060,2061,2060,1195
663,1710926461241659563,2057,2077,2125,2056,2053,2052,1194
664,1710926461251666119,2066,2064,2061,2068,2047,2056,1196
665,1710926461261661094,2058,2042,2043,2072,2057,2056,1195
666,1710926461271645739,2058,2052,2056,2038,2042,2054,1196
667,1710926461281657455,2052,2056,2053,2068,2068,2056,1195
668,1710926461291639995,2059,2065,2066,2054,2054,2060,1196
669,1710926461301658594,2050,2054,2044,2030,2056,2056,1195
670,1710926461311662857,2060,2054,2044,2058,2048,2056,1194
671,1710926461321644967,2066,2071,2088,2041,2051,2050,1194
672,1710926461331646834,2056,2053,2042,2053,2053,2052,1194
673,1710926461341648040,2060,2068,2054,2056,2056,2054,1195
674,1710926461351651360,2046,2041,2038,2057,2052,2054,1193
675,1710926461361605507,2057,2053,2045,2060,2067,2059,1194
676,1710926461371644735,2038,2033,1999,2057,2052,2054,1194
677,1710926461381645591,2042,2033,2020,2046,2041,2048,1196
678,1710926461391655052,2052,2049,2050,2041,2064,2052,1193
679,1710926461401577680,2059,2051,2050,2068,2078,2054,1196
680,1710926461411628821,2049,2054,2078,2065,2063,2052,1193
681,1710926461421646237,2054,2046,2037,2073,2058,2051,1195
682,1710926461431647874,2058,2044,2012,2074,2047,2049,1196
683,1710926461441616800,2057,2054,2060,2053,2051,2047,1192
684,1710926461451590945,2037,2047,2061,2048,2040,2050,1192
685,1710926461461652244,2056,2060,2059,2052,2021,2052,1194
686,1710926461471646357,2047,2048,2056,2053,2036,2047,1190
687,1710926461481654757,2056,2046,2056,2041,2056,2054,1195
688,1710926461491662867,2068,2066,2093,2044,2045,2055,1195
689,1710926461501602826,2035,2030,2016,2049,2051,2044,1190
690,1710926461511646763,2045,2040,2033,2052,2051,2050,1194
691,1710926461521570963,2061,2049,2045,2047,2046,2059,1194
692,1710926461531597748,2058,2053,2056,2037,2064,2058,1195
693,1710926461541648599,2058,2066,2065,2051,2061,2053,1193
694,1710926461551653382,2056,2058,2069,2028,2052,2054,1196
695,1710926461561646051,2055,2051,2058,2057,2030,2049,1194
696,1710926461571643530,2054,2032,2023,2048,2046,2053,1194
697,1710926461581666779,2061,2053,1997,2052,2053,2060,1194
698,1710926461591647516,2052,2048,2050,2053,2048,2055,1196
699,1710926461601646107,2050,2050,2032,2078,2057,2049,1193
700,1710926461611656931,2057,2054,2043,2016,2049,2054,1194
701,1710926461621644833,2059,2064,2102,2061,2054,2047,1192
702,1710926461631664614,2064,2069,2103,2061,2053,2059,1193
703,1710926461641645071,2072,2054,2045,2044,2064,2057,1194
704,1710926461651645675,2065,2072,2108,2080,2057,2064,1195
705,1710926461661641551,2059,2070,2050,2064,2060,2054,1196
706,1710926461671643961,2058,2056,2052,2063,2045,2047,1191
707,1710926461681615130,2056,2050,2036,2050,2058,2058,1194
708,1710926461691588813,2057,2055,2061,2053,2058,2054,1195
709,1710926461701648771,2056,2055,2052,2056,2065,2056,1196
710,1710926461711643414,2053,2051,2048,2043,2038,2050,1194
711,1710926461721645783,2054,2052,2047,2045,2052,2052,1196
712,1710926461731662719,2065,2052,2056,2058,2056,2053,1193
713,1710926461741643616,2064,2072,2080,2056,2039,2056,1194
714,1710926461751653749,2061,2047,2038,2046,2047,2052,1196
715,1710926461761649095,2052,2059,2040,2066,2064,2052,1196
716,1710926461771647135,2056,2061,2054,2074,2040,2044,1192
717,1710926461781654793,2057,2052,2042,2055,2048,2053,1198
718,1710926461791652112,2057,2056,2060,2021,2038,2053,1195
719,1710926461801608714,2059,2050,2033,2063,2056,2053,1195
720,1710926461811649465,2062,2056,2024,2057,2056,2053,1196
721,1710926461821649880,2056,2054,2030,2056,2062,2054,1196
722,1710926461831648481,2061,2043,2006,2051,2053,2060,1196
723,1710926461841605172,2074,2060,2088,2063,2057,2062,1196
724,1710926461851588786,2053,2052,2059,2066,2045,2056,1193
725,1710926461861652610,2050,2041,2034,2053,2048,2046,1192
726,1710926461871648166,2053,2045,2052,2074,2058,2052,1194
727,1710926461881651165,2060,2056,2047,2077,2057,2046,1192
728,1710926461891684221,2056,2050,2056,2062,2048,2053,1196
729,1710926461901652997,2056,2057,2047,2084,2072,2053,1196
730,1710926461911646939,2060,2056,2039,2060,2055,2053,1193
731,1710926461921647554,2058,2042,2037,2061,2062,2057,1196
732,1710926461931645574,2049,2044,2041,2046,2024,2049,1194
733,1710926461941649145,2050,2056,2050,2064,2061,2058,1195
734,1710926461951651563,2047,2045,2056,2068,2052,2053,1194
735,1710926461961646938,2054,2101,2227,2063,2061,2058,1195
736,1710926461971647082,2056,2052,2049,2062,2050,2050,1195
737,1710926461981666913,2057,2057,2053,2046,2055,2054,1193
738,1710926461991660105,2059,2062,2077,2061,2045,2052,1198
739,1710926462001662133,2064,2056,2054,2037,2033,2058,1196
740,1710926462011642850,2068,2089,2179,2067,2047,2056,1196
741,1710926462021640910,2058,2053,2040,2068,2053,2049,1196
742,1710926462031642497,2048,2046,2048,2050,2034,2050,1193
743,1710926462041601503,2043,2048,2061,2052,2049,2053,1194
744,1710926462051651402,2052,2046,2049,2062,2048,2052,1195
745,1710926462061659260,2053,2056,2048,2069,2060,2053,1196
746,1710926462071658693,2056,2049,2056,2059,2052,2049,1193
747,1710926462081662964,2056,2051,2054,2055,2046,2044,1193
748,1710926462091677206,2049,2045,2046,2050,2056,2048,1195
749,1710926462101658284,2056,2049,2040,2072,2073,2056,1195
750,1710926462111657546,2049,2052,2058,2055,2050,2056,1194
751,1710926462121657720,2050,2048,2033,2069,2071,2056,1194
752,1710926462131658195,2061,2046,2042,2051,2047,2049,1195
753,1710926462141691873,2045,2052,2041,2051,2049,2043,1193
754,1710926462151658003,2057,2056,2046,2053,2039,2052,1194
755,1710926462161655431,2057,2052,2048,2053,2052,2050,1196
756,1710926462171658110,2058,2054,2052,2075,2050,2051,1197
757,1710926462181661650,2052,2050,2060,2056,2056,2051,1195
758,1710926462191667616,2057,2057,2056,2058,2059,2057,1199
759,1710926462201654866,2061,2056,2050,2067,2057,2054,1195
760,1710926462211656763,2046,2049,2049,2043,2049,2057,1195
761,1710926462221660484,2052,2054,2041,2033,2044,2051,1196
762,1710926462231654877,2034,2048,2053,2057,2069,2068,1195
763,1710926462241661454,2010,2048,2048,2058,2056,2048,1194
764,1710926462251664744,2050,2058,2066,2072,2036,2054,1193
765,1710926462261669807,2056,2056,2056,2069,2091,2053,1194
766,1710926462271660313,2056,2053,2056,2048,2056,2071,1195
767,1710926462281677629,2046,2052,2036,2039,2024,2060,1196
768,1710926462291676631,2074,2064,2065,2085,2087,2016,1192
769,1710926462301660325,2052,2056,2056,2089,2078,2114,1196
770,1710926462311661000,2071,2069,2060,2073,2041,2002,1192
771,1710926462321655543,2044,2043,2040,2022,2028,2052,1195
772,1710926462331653613,2049,2051,2037,2057,2060,2060,1194
773,1710926462341666431,2050,2054,2044,2042,2040,2031,1192
774,1710926462351653371,2059,2038,2022,2061,2050,2047,1194
775,1710926462361662432,2037,2046,2038,2032,2061,2053,1195
776,1710926462371660221,2039,2053,2050,2054,2041,2044,1198
777,1710926462381683198,2053,2052,2048,2061,2060,2050,1194
778,1710926462391678102,2072,2058,2058,2056,2050,2050,1196
779,1710926462401682095,2042,2056,2046,2052,2064,2005,1192
780,1710926462411651631,2024,2045,2050,2038,2016,2062,1193
781,1710926462421650883,2036,2060,2061,2064,2072,2072,1197
782,1710926462431643763,2052,2047,2043,2056,2041,2058,1196
783,1710926462441641492,2043,2052,2052,2064,2062,2052,1193
784,1710926462451650264,2073,2058,2056,2050,2052,2056,1194
785,1710926462461635559,2067,2051,2042,2076,2103,2068,1194
786,1710926462471647676,2082,2057,2044,2084,2068,2077,1193
787,1710926462481657869,2052,2050,2054,2012,2028,2076,1196
788,1710926462491657933,2021,2036,2031,2064,2056,2054,1196
789,1710926462501650323,2051,2049,2049,2045,2046,2054,1196
790,1710926462511637552,2060,2056,2062,2052,2047,2053,1194
791,1710926462521644670,2054,2050,2061,2057,2040,2045,1192
792,1710926462531645244,2050,2056,2056,2044,2030,2046,1192
793,1710926462541653854,2052,2057,2052,2089,2075,2066,1194
794,1710926462551665741,2048,2064,2104,2042,2064,2052,1193
795,1710926462561654384,2041,2040,2036,2047,2048,2049,1194
796,1710926462571645300,2058,2060,2051,2061,2052,2058,1195
797,1710926462581654431,2048,2056,2057,2066,2066,2066,1195
798,1710926462591674613,2056,2056,2062,2057,2064,2069,1196
799,1710926462601656773,2054,2055,2067,2031,2050,2058,1194
800,1710926462611652279,2062,2063,2068,2053,2046,2066,1195
801,1710926462621650509,2048,2047,2048,2085,2048,2064,1195
802,1710926462631658909,2047,2048,2049,2043,2057,2036,1192
803,1710926462641649154,2071,2057,2053,1996,2065,2050,1194
804,1710926462651646703,2048,2044,2034,2060,2047,2075,1194
805,1710926462661657017,2068,2060,2074,2081,2063,2047,1191
806,1710926462671662150,2048,2045,2052,2045,2040,2057,1194
807,1710926462681661533,2028,2036,2031,2029,2046,2048,1196
808,1710926462691661376,2132,2065,2059,2073,2054,2064,1194
809,1710926462701675797,2037,2056,2046,2067,2079,2011,1192
810,1710926462711671915,2057,2049,2046,2056,2039,2053,1197
811,1710926462721650297,2065,2069,2082,2064,2055,2066,1194
812,1710926462731651633,2084,2061,2073,2103,2076,2060,1194
813,1710926462741651597,2029,2044,2049,2032,2061,2031,1193
814,1710926462751649907,2144,2058,2054,2056,2049,2038,1193
815,1710926462761652366,2047,2055,2056,2064,2068,2064,1195
816,1710926462771652411,2049,2044,2020,2057,2076,2061,1196
817,1710926462781653346,2055,2042,2028,2069,2047,2048,1194
818,1710926462791654712,2049,2047,2040,2053,2053,2045,1194
819,1710926462801617165,2053,2066,2086,2068,2060,2047,1192
820,1710926462811655201,2052,2042,2005,2049,2043,2060,1196
821,1710926462821649765,2061,2051,2035,2037,2072,2057,1194
822,1710926462831650830,2038,2043,2042,2042,2068,2058,1197
823,1710926462841653148,2044,2056,2060,2070,2108,2073,1196
824,1710926462851650828,2052,2051,2058,2045,1900,2014,1191
825,1710926462861664187,2044,2043,2028,2061,2040,2040,1194
826,1710926462871653932,2040,2034,2024,2060,2047,2048,1193
827,1710926462881662742,2069,2058,2040,2071,2058,2059,1194
828,1710926462891650413,2052,2060,2018,2072,2049,2049,1194
829,1710926462901654764,2156,2063,2012,2066,2056,2050,1194
830,1710926462911662944,2048,2048,2049,2042,1936,2040,1192
831,1710926462921654102,2044,2045,2051,2038,2052,2052,1193
832,1710926462931653865,2052,2052,2052,2024,2047,2054,1194
833,1710926462941653387,2057,2051,2056,2062,2097,2053,1195
834,1710926462951654543,2012,2049,2072,2066,2046,2050,1194
835,1710926462961655118,2044,2047,2045,2045,2050,2069,1196
836,1710926462971665121,2047,2053,2057,2044,2038,1989,1193
837,1710926462981667850,2045,2048,2049,2056,2050,2060,1195
838,1710926462991654940,2042,2041,2024,2054,2056,2042,1194
839,1710926463001669721,2036,2045,2025,2045,2044,2066,1195
840,1710926463011643776,2048,2056,2058,2000,2000,2073,1196
841,1710926463021665240,2059,2053,2063,2047,2036,2064,1195
842,1710926463031657360,2038,2049,2052,2050,2048,2046,1192
843,1710926463041658766,2092,2065,2053,2042,2062,2059,1192
844,1710926463051658109,2047,2054,2060,2077,2074,2044,1193
845,1710926463061658523,2054,2057,2058,2064,2077,2112,1197
846,1710926463071662334,2024,2054,2057,2090,2114,2069,1192
847,1710926463081662508,2058,2070,2089,2048,2081,2053,1196
848,1710926463091658936,2048,2049,2060,2061,2083,2152,1193
849,1710926463101659971,2052,2050,2032,2103,2144,2107,1193
850,1710926463111661648,2097,2070,2065,2116,2042,2003,1192
851,1710926463121665709,2030,2047,2037,2054,2072,2121,1194
852,1710926463131661736,2057,2058,2072,2057,2067,2049,1194
853,1710926463141660908,2047,2048,2040,2035,1995,2046,1193
854,1710926463151662766,2053,2057,2082,2058,2065,2053,1192
855,1710926463161662649,2050,2052,2041,2044,2041,2045,1191
856,1710926463171664156,2052,2045,2009,2047,2076,2067,1195
857,1710926463181671293,2047,2049,2072,2058,2101,2051,1196
858,1710926463191660907,2060,2084,2204,2062,2036,2056,1195
859,1710926463201664127,2054,2057,2041,2045,2057,2052,1194
860,1710926463211666174,2034,2041,2032,2080,2064,2047,1192
861,1710926463221689012,2060,2056,2059,2047,2064,2060,1193
862,1710926463231665421,2045,2048,2060,2078,2053,2051,1195
863,1710926463241666026,2060,2059,2049,2064,2068,2044,1192
864,1710926463251666530,2048,2037,2012,2071,2029,2049,1194
865,1710926463261667796,2057,2054,2040,2062,2052,2031,1191
866,1710926463271667390,2047,2048,2046,2061,2069,2062,1194
867,1710926463281682853,2056,2051,2055,2067,2072,2058,1194
868,1710926463291667839,2054,2053,2056,2078,2079,2072,1195
869,1710926463301665818,2035,2047,2045,2043,2061,2040,1190
870,1710926463311667856,2047,2056,2072,2047,2073,2046,1190
871,1710926463321668340,2045,2051,2048,2061,2083,2060,1194
872,1710926463331668074,2040,2047,2040,2016,2044,2041,1193
873,1710926463341668830,2057,2060,2097,2074,2056,2067,1195
874,1710926463351670206,2046,2034,1999,2029,2022,2050,1195
875,1710926463361670731,2060,2052,2052,2091,2096,2072,1194
876,1710926463371670704,2052,2065,2068,2088,2125,2083,1196
877,1710926463381673353,2070,2058,2063,2051,2069,2080,1194
878,1710926463391670100,2056,2045,2048,2059,2050,2106,1197
879,1710926463401671027,2041,2049,2053,2049,2064,2045,1193
880,1710926463411672423,2061,2050,2042,2060,2048,2060,1195
881,1710926463421654823,2051,2038,2002,2052,2058,2061,1195
882,1710926463431674635,2056,2049,2034,2065,2013,2040,1193
883,1710926463441671993,2058,2058,2047,2053,2020,2051,1195
884,1710926463451673790,2052,2050,2044,2054,2043,2048,1194
885,1710926463461673444,2044,2036,2009,2040,2052,2055,1194
886,1710926463471654352,2047,2039,2034,2073,2050,2047,1189
887,1710926463481675295,2057,2050,2044,2053,2076,2047,1193
888,1710926463491641314,2050,2053,2074,2051,2056,2048,1194
889,1710926463501674942,2052,2058,2065,2044,2038,2049,1196
890,1710926463511657332,2053,2050,2015,2060,2049,2046,1193
891,1710926463521657967,2054,2061,2078,2060,2073,2058,1195
892,1710926463531683800,2052,2049,2056,2062,2061,2047,1193
893,1710926463541676470,2060,2054,2056,2044,2091,2059,1194
894,1710926463551658670,2039,2041,2045,2031,2038,2040,1190
895,1710926463561659024,2060,2063,2082,2068,2071,2053,1195
896,1710926463571658998,2060,2054,2058,2060,2049,2058,1194
897,1710926463581666015,2056,2065,2050,2070,2061,2047,1192
898,1710926463591665398,2056,2051,2043,2052,2043,2044,1193
899,1710926463601662326,2057,2056,2057,2058,2053,2051,1195
900,1710926463611648724,2056,2070,2100,2046,2034,2041,1192
901,1710926463621657144,2057,2052,2030,2060,2080,2047,1192
902,1710926463631668689,2053,2052,2036,2051,2057,2043,1191
903,1710926463641640620,2047,2048,2038,2054,2051,2057,1196
904,1710926463651662836,2056,2072,2177,2072,2099,2067,1192
905,1710926463661659474,2047,2057,2106,2051,2052,2050,1196
906,1710926463671657213,2050,2056,2064,2029,2047,2047,1189
907,1710926463681686362,2056,2061,2068,2064,2044,2060,1194
908,1710926463691652762,2052,2053,2075,2050,2074,2058,1195
909,1710926463701646624,2047,2046,2032,2052,2112,2059,1193
910,1710926463711647390,2057,2055,2086,2058,2100,2059,1193
911,1710926463721647274,2050,2046,2008,2067,2051,2041,1190
912,1710926463731647568,2052,2044,2024,2046,2065,2056,1195
913,1710926463741647892,2048,2047,2039,2045,2084,2072,1194
914,1710926463751647435,2064,2099,2125,2056,2088,2058,1197
915,1710926463761651226,2047,2048,2029,2058,2052,2042,1192
916,1710926463771646822,2057,2049,2044,2064,2054,2064,1195
917,1710926463781649200,2056,2047,2070,2068,2073,2064,1195
918,1710926463791646519,2057,2042,2021,2028,2084,2055,1196
919,1710926463801644498,2056,2061,2079,2004,2064,2060,1197
920,1710926463811651776,2048,2046,2040,2064,2053,2052,1195
921,1710926463821656729,2068,2052,2041,2062,2065,2064,1193
922,1710926463831646563,2048,2051,2032,2049,2050,2047,1194
923,1710926463841646808,2040,2040,2041,2056,2073,2056,1193
924,1710926463851648966,2053,2051,2031,2051,2000,2044,1192
925,1710926463861650813,2080,2072,2017,2046,2072,2051,1195
926,1710926463871649284,2052,2047,2020,2076,2056,2049,1195
927,1710926463881622497,2053,2057,2061,2058,2055,2060,1194
928,1710926463891649171,2060,2065,2099,2056,2054,2047,1193
929,1710926463901649146,2058,2048,2002,2032,2058,2073,1193
930,1710926463911647486,2055,2052,2051,2050,2084,2064,1194
931,1710926463921667889,2060,2034,1999,2030,2072,2066,1195
932,1710926463931651060,2056,2057,2044,2050,2078,2062,1194
933,1710926463941648449,2057,2065,2054,2043,2041,2052,1196
934,1710926463951646689,2057,2058,2058,2064,2092,2068,1196
935,1710926463961646844,2056,2064,2078,2060,2061,2050,1194
936,1710926463971649693,2053,2050,2042,2040,2061,2054,1196
937,1710926463981670005,2052,2047,2040,2043,2045,2049,1194
938,1710926463991664739,2061,2084,2237,2069,2066,2062,1196
939,1710926464001649714,2052,2047,2045,2034,2035,2047,1195
940,1710926464011665488,2046,2048,2049,2053,2060,2051,1195
941,1710926464021647539,2045,2041,2034,2057,2047,2047,1192
942,1710926464031646069,2057,2063,2036,2051,2042,2042,1191
943,1710926464041648558,2051,2056,2057,2045,1940,2041,1193
944,1710926464051644303,2054,2050,2044,2057,2053,2051,1196
945,1710926464061650729,2050,2056,2143,2071,2059,2054,1194
946,1710926464071648579,2050,2051,2045,2044,2046,2048,1193
947,1710926464081649634,2050,2047,2030,2054,2047,2052,1195
948,1710926464091650209,2054,2039,2026,2067,2059,2060,1193
949,1710926464101652037,2052,2034,2033,2014,2079,2064,1195
950,1710926464111647152,2053,2033,2012,2024,2041,2052,1195
951,1710926464121663376,2058,2076,2107,2065,2029,2048,1194
952,1710926464131651166,2058,2050,2048,2043,2060,2053,1193
953,1710926464141656350,2053,2052,2028,2054,2060,2059,1194
954,1710926464151651444,2055,2055,2080,2057,2062,2056,1194
955,1710926464161651478,2056,2061,2044,2031,2032,2050,1195
956,1710926464171647775,2056,2075,2034,2066,2076,2028,1193
957,1710926464181655273,2052,2052,2042,2057,2064,2053,1195
958,1710926464191645549,2057,2043,2029,2058,2047,2058,1194
959,1710926464201652175,2051,2044,2025,2040,2051,2056,1195
960,1710926464211654924,2044,2050,2046,2058,2049,2047,1192
961,1710926464221652573,2046,2046,2056,2046,2037,2046,1190
962,1710926464231651715,2049,2049,2068,2063,2044,2060,1195
963,1710926464241640638,2070,2068,2084,2056,2097,2069,1192
964,1710926464251648678,2045,2047,2044,2050,2126,2066,1195
965,1710926464261647900,2036,2092,2084,2058,2044,2032,1193
966,1710926464271647733,2053,2054,2052,2104,2061,2052,1194
967,1710926464281666061,2061,2060,2056,2043,2013,2044,1194
968,1710926464291675353,2062,2096,2070,2056,2057,2066,1194
969,1710926464301656410,2091,2142,2229,2060,2068,2042,1192
970,1710926464311648940,2049,2032,2021,2040,2051,2049,1196
971,1710926464321650977,2064,2083,2077,2036,2058,2060,1196
972,1710926464331657414,2049,2044,2034,2044,2073,2065,1195
973,1710926464341649122,2057,2050,2047,2047,2052,2051,1194
974,1710926464351646922,2061,2064,2075,2029,2034,2060,1196
975,1710926464361651394,2056,2056,2082,2024,2024,2048,1197
976,1710926464371652620,2054,2056,2053,2064,2059,2053,1195
977,1710926464381649057,2056,2052,2056,2065,2068,2053,1192
978,1710926464391649531,2056,2065,2102,2053,2049,2052,1195
979,1710926464401647752,2058,2056,2063,2065,2050,2052,1195
980,1710926464411649940,2049,2043,2034,2056,2054,2052,1195
981,1710926464421656146,2052,2041,1994,2033,2047,2045,1193
982,1710926464431654897,2044,2036,2016,2062,2055,2048,1196
983,1710926464441654620,2053,2052,2056,2053,1993,2053,1196
984,1710926464451658321,2053,2056,2047,2052,2049,2050,1195
985,1710926464461652042,2058,2063,2079,2059,2058,2056,1195
986,1710926464471652767,2058,2060,2108,2058,2065,2059,1193
987,1710926464481653323,2049,2049,2072,2078,2073,2056,1194
988,1710926464491655922,2060,2069,2157,2068,2042,2056,1196
989,1710926464501657669,2056,2070,2080,2047,2051,2046,1192
990,1710926464511657813,2053,2067,2053,2057,2048,2049,1195
991,1710926464521674548,2057,2090,2057,2046,2044,2049,1194
992,1710926464531656167,2052,2068,2092,2062,2020,2046,1192
993,1710926464541652123,2057,2071,2082,2072,2058,2058,1194
994,1710926464551655323,2058,2069,2028,2056,2050,2053,1194
995,1710926464561654966,2046,2040,2041,2052,2043,2046,1191
996,1710926464571654589,2068,2074,2077,2066,2061,2052,1193
997,1710926464581659893,2066,2066,2081,2038,2060,2062,1194
998,1710926464591663363,2052,2041,2028,2068,2060,2056,1197
999,1710926464601664349,2058,2048,2040,2064,2057,2058,1194
1000,1710926464611662228,2054,2038,2017,2060,2068,2045,1192
1001,1710926464621663064,2054,2038,2022,2037,2041,2056,1195
1002,1710926464631655183,2061,2073,2079,2050,2046,2060,1193
1003,1710926464641651971,2057,2054,2070,2046,2049,2052,1196
1004,1710926464651640062,2066,2066,2098,2047,2043,2066,1193
1005,1710926464661644334,2062,2065,2073,2069,2058,2058,1193
1006,1710926464671645159,2053,2050,2055,2064,2074,2068,1195
1007,1710926464681668076,2065,2064,2066,2061,2062,2058,1193
1008,1710926464691652821,2044,2027,2013,2069,2049,2040,1190
1009,1710926464701678082,2056,2046,2031,2049,2047,2054,1195
1010,1710926464711649934,2052,2053,2025,2036,2044,2051,1194
1011,1710926464721647673,2048,2032,2034,2050,2044,2047,1193
1012,1710926464731646494,2054,2045,2050,2064,2058,2058,1195
1013,1710926464741642761,2065,2096,2112,2066,2043,2055,1197
1014,1710926464751646572,2053,2041,2037,2054,2048,2044,1192
1015,1710926464761644371,2057,2057,2066,2069,2050,2061,1195
1016,1710926464771642311,2058,2050,2044,1997,2047,2056,1197
1017,1710926464781647335,2054,2052,2049,2047,2049,2052,1193
1018,1710926464791650906,2054,2047,2009,2054,2061,2053,1194
1019,1710926464801648274,2066,2052,2021,2068,2060,2040,1193
1020,1710926464811645733,2056,2064,2074,2075,2057,2056,1194
1021,1710926464821643342,2055,2077,2049,2029,2041,2050,1193
1022,1710926464831659506,2058,2048,2053,2054,2046,2050,1196
1023,1710926464841648018,2058,2066,2082,2048,2056,2057,1194
1024,1710926464851655175,2055,2056,2056,2044,2032,2048,1195
1025,1710926464861645602,2060,2051,2051,2061,2056,2061,1195
1026,1710926464871645696,2050,2045,2032,2068,2064,2046,1190
1027,1710926464881652472,2043,2053,2105,2050,2037,2050,1194
1028,1710926464891648448,2053,2043,2056,2043,2049,2051,1194
1029,1710926464901649444,2049,2047,2050,2056,2048,2051,1194
1030,1710926464911647804,2054,2050,2033,2053,2056,2056,1195
1031,1710926464921648399,2060,2056,2052,2064,2052,2052,1197
1032,1710926464931642873,2048,2032,2007,2056,2064,2059,1195
1033,1710926464941648137,2054,2064,2033,2061,2036,2048,1193
1034,1710926464951650084,2053,2046,2037,2052,2056,2056,1193
1035,1710926464961644467,2058,2047,2040,2060,2053,2054,1195
1036,1710926464971642347,2052,2053,2061,2068,2052,2052,1197
1037,1710926464981657259,2057,2056,2063,2068,2046,2058,1193
1038,1710926464991654167,2056,2045,2029,2056,2056,2050,1196
1039,1710926465001654671,2061,2073,2154,2042,2072,2067,1196
1040,1710926465011649306,2048,2037,2024,2056,2060,2048,1195
1041,1710926465021643699,2042,2037,2028,2057,2036,2042,1192
1042,1710926465031642170,2061,2048,2034,2060,2041,2050,1193
1043,1710926465041653404,2050,2049,2041,2040,2068,2053,1194
1044,1710926465051647417,2056,2050,2045,2049,2044,2052,1196
1045,1710926465061603908,2054,2051,2054,2064,2056,2060,1196
1046,1710926465071643577,2062,2068,2133,2040,2053,2054,1194
1047,1710926465081651165,2060,2056,2093,2061,2057,2058,1196
1048,1710926465091646710,2051,2053,2056,2059,2044,2054,1195
1049,1710926465101645762,2050,2049,2056,2072,2064,2047,1193
1050,1710926465111603256,2059,2055,2052,2036,2045,2052,1196
1051,1710926465121644207,2049,2052,2088,2058,2049,2043,1192
1052,1710926465131641786,2048,2062,2100,2040,2039,2056,1194
1053,1710926465141646469,2072,2100,2176,2078,2064,2051,1195
1054,1710926465151651702,2059,2056,2042,2031,2046,2058,1195
1055,1710926465161648360,2058,2060,2063,2060,2056,2055,1196
1056,1710926465171650237,2054,2056,2050,2056,2068,2056,1198
1057,1710926465181648587,2042,2042,2039,2100,2076,2057,1193
1058,1710926465191648912,2054,2047,2038,2056,2046,2056,1194
1059,1710926465201649777,2055,2044,2025,2051,2050,2061,1195
1060,1710926465211657907,2057,2056,2048,2072,2050,2047,1194
1061,1710926465221659323,2060,2060,2068,2056,2089,2070,1196
1062,1710926465231660750,2059,2064,2060,2058,2046,2048,1196
1063,1710926465241673598,2056,2052,2051,2044,2055,2053,1198
1064,1710926465251655317,2051,2050,2048,2050,2062,2042,1195
1065,1710926465261655591,2065,2056,2034,2034,2033,2060,1198
1066,1710926465271663499,2052,2042,2031,2047,2060,2059,1195
1067,1710926465281683411,2047,2025,2056,2072,2064,2049,1195
1068,1710926465291695006,2068,2053,2063,2076,2072,2062,1196
1069,1710926465301690802,2048,2045,2061,2058,2062,2056,1193
1070,1710926465311663615,2052,2052,2081,2053,2045,2051,1194
1071,1710926465321664631,2051,2045,2035,2010,2037,2053,1196
1072,1710926465331656299,2052,2048,2050,2056,2057,2058,1196
1073,1710926465341660881,2050,2057,2056,2058,2032,2069,1195
1074,1710926465351666886,2053,2056,2061,2061,2064,2056,1194
1075,1710926465361667461,2059,2064,2053,2033,2052,2054,1197
1076,1710926465371658307,2065,2066,2117,2074,2058,2056,1196
1077,1710926465381677667,2054,2041,2024,2069,2060,2056,1196
1078,1710926465391685075,2059,2045,2025,2058,2049,2055,1196
1079,1710926465401675751,2054,2056,2084,2044,2049,2053,1194
1080,1710926465411656529,2053,2050,2046,2062,2049,2049,1196
1081,1710926465421661703,2051,2044,2040,2062,2060,2046,1193
1082,1710926465431657288,2065,2060,2031,2069,2069,2060,1198
1083,1710926465441657622,2059,2064,2024,2074,2055,2059,1195
1084,1710926465451655402,2058,2044,2028,2055,2041,2052,1194
1085,1710926465461655876,2056,2054,2054,2054,2032,2052,1196
1086,1710926465471656882,2059,2064,2095,2061,2056,2052,1193
1087,1710926465481660632,2049,2049,2045,2056,1997,2044,1192
1088,1710926465491670294,2056,2069,2054,2061,2055,2047,1194
1089,1710926465501605917,2056,2040,2048,2046,2052,2056,1196
1090,1710926465511653170,2050,2045,2008,2056,2048,2049,1196
1091,1710926465521653895,2053,2036,2029,2066,2057,2053,1194
1092,1710926465531647727,2062,2057,2041,2040,2046,2056,1195
1093,1710926465541653953,2064,2065,2122,2073,2062,2056,1194
1094,1710926465551664957,2052,2086,2082,2053,2047,2047,1192
1095,1710926465561656635,2060,2057,2061,2036,2059,2053,1192
1096,1710926465571652130,2061,2058,2056,2073,2058,2060,1196
1097,1710926465581656602,2066,2052,2065,2066,2084,2052,1196
1098,1710926465591665362,2065,2059,2032,2063,2057,2054,1198
1099,1710926465601654586,2053,2050,2032,2016,2048,2044,1193
1100,1710926465611630064,2054,2049,2047,2060,2050,2049,1197
1101,1710926465621650366,2062,2062,2043,2057,2058,2054,1193
1102,1710926465631651462,2056,2079,2074,2049,2045,2049,1196
1103,1710926465641654341,2051,2051,2044,2051,2050,2037,1194
1104,1710926465651654204,2058,2056,2062,2077,2060,2056,1195
1105,1710926465661657604,2060,2062,2068,2057,2053,2053,1196
1106,1710926465671657147,2053,2052,2049,2063,2050,2047,1190
1107,1710926465681662070,2058,2064,2040,2056,2064,2064,1196
1108,1710926465691665881,2048,2040,2020,2037,2045,2047,1192
1109,1710926465701662198,2063,2065,2103,2068,2064,2064,1196
1110,1710926465711655029,2057,2050,2034,2059,2059,2046,1194
1111,1710926465721656345,2048,2024,2083,2065,2041,2049,1195
1112,1710926465731656529,2060,2049,2047,2047,2052,2045,1192
1113,1710926465741667894,2037,2027,2050,2053,2044,2050,1197
1114,1710926465751656496,2056,2050,2056,2057,2046,2047,1192
1115,1710926465761671748,2056,2052,2061,2049,2052,2048,1196
1116,1710926465771657355,2061,2073,2109,2054,2050,2046,1192
1117,1710926465781662478,2056,2052,2041,2050,2053,2057,1195
1118,1710926465791676639,2053,2047,2038,2048,2064,2052,1196
1119,1710926465801649983,2057,2080,2049,2050,2056,2056,1195
1120,1710926465811647351,2063,2062,2096,2077,2056,2053,1197
1121,1710926465821647906,2053,2053,2049,2056,2037,2058,1196
1122,1710926465831644784,2056,2047,2046,2036,2048,2059,1196
1123,1710926465841679413,2068,2062,2053,2060,2040,2048,1195
1124,1710926465851651083,2060,2098,2084,2058,2067,2053,1192
1125,1710926465861616150,2055,2044,2028,2053,2054,2054,1194
1126,1710926465871653775,2052,2045,2021,2044,2030,2043,1192
1127,1710926465881651465,2056,2050,2058,2060,2072,2058,1193
1128,1710926465891652871,2052,2045,2051,2017,2048,2047,1192
1129,1710926465901664898,2067,2085,2188,2059,2052,2051,1193
1130,1710926465911650264,2065,2113,2117,2074,2074,2061,1196
1131,1710926465921652462,2054,2045,2045,2049,2060,2047,1192
1132,1710926465931645963,2047,2058,2050,2053,2054,2051,1194
1133,1710926465941648893,2058,2080,2072,2061,2060,2058,1197
1134,1710926465951646161,2050,2045,2033,2013,2050,2052,1195
1135,1710926465961649150,2056,2053,2053,2066,2064,2052,1192
1136,1710926465971646158,2052,2040,2048,2041,2060,2060,1196
1137,1710926465981650961,2053,2053,2057,2056,2038,2048,1196
1138,1710926465991668869,2056,2047,2073,2074,2082,2056,1195
1139,1710926466001661800,2057,2042,2038,2059,2047,2056,1195
1140,1710926466011654169,2045,2007,2008,2040,2048,2046,1191
1141,1710926466021659573,2048,2031,2019,2057,2058,2047,1192
1142,1710926466031649658,2050,2048,2072,2064,2033,2045,1193
1143,1710926466041650824,2050,2060,2047,2044,2047,2045,1193
1144,1710926466051660416,2056,2050,2052,2050,2052,2050,1197
1145,1710926466061649358,2050,2032,2047,2064,2051,2056,1194
1146,1710926466071645084,2047,2034,2046,2074,2064,2054,1194
1147,1710926466081652782,2050,2051,2047,2056,2054,2053,1196
1148,1710926466091673104,2049,2046,2046,2068,2062,2050,1194
1149,1710926466101658791,2052,2050,2036,2046,2052,2045,1193
1150,1710926466111638235,2054,2048,2036,2056,2074,2056,1194
1151,1710926466121640343,2062,2057,2051,2046,2057,2056,1196
1152,1710926466131638845,2059,2053,2024,2059,2056,2058,1196
1153,1710926466141641423,2046,2080,2081,2059,2032,2045,1189
1154,1710926466151641287,2052,2044,2044,2046,2053,2054,1193
1155,1710926466161641200,2046,2035,2029,2013,2056,2051,1194
1156,1710926466171646183,2060,2060,2075,2057,2058,2054,1195
1157,1710926466181648000,2054,2051,2072,2061,2050,2054,1197
1158,1710926466191649016,2039,2036,2007,2041,2059,2058,1196
1159,1710926466201649611,2060,2060,2045,2050,2058,2062,1194
1160,1710926466211642711,2052,2066,2051,2062,2078,2056,1197
1161,1710926466221645670,2056,2058,2067,2052,2060,2057,1197
1162,1710926466231646926,2056,2050,2050,2056,2057,2055,1195
1163,1710926466241705521,2056,2069,2063,2060,2055,2056,1196
1164,1710926466251647004,2053,2048,2027,2001,2048,2045,1192
1165,1710926466261648029,2059,2045,2052,2042,2034,2058,1195
1166,1710926466271647774,2045,2051,2069,2020,2052,2046,1192
1167,1710926466281665571,2055,2052,2050,2056,2049,2056,1196
1168,1710926466291632252,2052,2046,2047,2037,2044,2044,1193
1169,1710926466301650820,2051,2074,2049,2059,2031,2052,1194
1170,1710926466311652758,2050,2050,2052,2042,2073,2051,1195
1171,1710926466321649435,2053,2047,2041,2066,2064,2060,1192
1172,1710926466331649298,2066,2089,2120,2081,2024,2054,1194
1173,1710926466341650675,2052,2032,2036,2045,2039,2048,1195
1174,1710926466351645759,2060,2052,2046,2054,2056,2056,1196
1175,1710926466361654599,2060,2046,2031,2076,2056,2057,1196
1176,1710926466371652569,2041,2042,2040,2066,2072,2044,1193
1177,1710926466381669665,2058,2054,2082,2060,2054,2048,1195
1178,1710926466391666092,2050,2044,2027,2060,2053,2054,1197
1179,1710926466401653852,2050,2037,2050,2058,2069,2046,1192
1180,1710926466411668655,2066,2063,2070,2077,2047,2055,1197
1181,1710926466421654362,2047,2043,2036,2043,2045,2045,1192
1182,1710926466431655287,2056,2054,2050,2054,2058,2052,1195
1183,1710926466441655211,2057,2056,2047,2056,2051,2058,1193
1184,1710926466451668930,2050,2048,2041,2072,2061,2054,1196
1185,1710926466461660037,2055,2057,2013,2083,2054,2052,1193
1186,1710926466471657205,2037,2041,2010,2021,2046,2041,1192
1187,1710926466481658421,2052,2080,2048,2053,2052,2049,1196
1188,1710926466491657573,2060,2047,2040,2043,2037,2055,1194
1189,1710926466501671473,2056,2043,2052,2032,2050,2057,1195
1190,1710926466511639035,2053,2041,2045,2069,2064,2058,1194
1191,1710926466521658245,2050,2049,2041,2053,2040,2045,1192
1192,1710926466531658880,2050,2056,2053,2072,2074,2056,1195
1193,1710926466541658964,2056,2048,2053,2045,2024,2048,1194
1194,1710926466551666022,2053,2056,2037,2052,2047,2047,1192
1195,1710926466561671997,2059,2038,2045,2077,2044,2048,1197
1196,1710926466571643777,2060,2056,2100,2077,2070,2056,1194
1197,1710926466581660442,2056,2046,2065,2062,2061,2060,1195
1198,1710926466591661398,2050,2050,2048,2061,2059,2054,1194
1199,1710926466601661161,2060,2067,2076,2063,2051,2056,1194
1200,1710926466611661525,2060,2072,2080,2081,2056,2053,1194
1201,1710926466621662150,2061,2064,2064,2042,2058,2058,1194
1202,1710926466631643999,2060,2028,2018,2047,2058,2052,1191
1203,1710926466641645526,2044,2025,2020,2064,2056,2052,1194
1204,1710926466651645359,2052,2042,2042,2072,2069,2060,1194
1205,1710926466661663497,2043,2036,2028,2076,2059,2053,1193
1206,1710926466671646619,2058,2061,2058,2061,2057,2051,1194
1207,1710926466681664527,2050,2048,2036,2065,2054,2045,1192
1208,1710926466691647949,2057,2050,2056,2061,2042,2047,1191
1209,1710926466701672670,2054,2042,2020,2022,2034,2049,1195
1210,1710926466711649119,2055,2055,2022,2065,2038,2045,1191
1211,1710926466721645686,2061,2066,2086,2073,2058,2057,1195
1212,1710926466731648435,2057,2052,2055,2068,2065,2051,1196
1213,1710926466741649461,2052,2052,2057,2062,2061,2053,1193
1214,1710926466751665795,2053,2052,2046,2047,2052,2053,1194
1215,1710926466761649989,2057,2074,2128,2060,2047,2052,1195
1216,1710926466771648600,2058,2080,2047,2038,2058,2056,1195
1217,1710926466781650527,2072,2054,2056,2028,2045,2060,1194
1218,1710926466791645081,2064,2072,2070,2046,2058,2056,1197
1219,1710926466801650414,2063,2068,2088,2056,2058,2052,1194
1220,1710926466811648895,2050,2050,2049,2050,2046,2049,1195
1221,1710926466821643459,2069,2092,2141,2064,2057,2061,1195
1222,1710926466831643563,2052,2047,2040,2030,2050,2047,1192
1223,1710926466841638928,2049,2040,2024,2064,2041,2052,1194
1224,1710926466851644903,2052,2046,2034,2039,2068,2056,1194
1225,1710926466861675014,2050,2033,2022,2057,2059,2057,1196
1226,1710926466871657444,2056,2047,2037,2057,2065,2049,1193
1227,1710926466881645666,2057,2065,2032,2020,2021,2051,1195
1228,1710926466891655458,2063,2047,2045,2042,2056,2052,1192
1229,1710926466901662835,2053,2040,2037,2049,2052,2053,1195
1230,1710926466911652740,2051,2044,2033,2058,2041,2039,1192
1231,1710926466921647584,2049,2052,2056,2054,2047,2050,1194
1232,1710926466931649120,2061,2067,2060,2078,2050,2052,1196
1233,1710926466941646599,2054,2048,2053,2074,2047,2053,1194
1234,1710926466951644920,2052,2044,2044,2084,2084,2045,1193
1235,1710926466961647598,2043,2029,2029,2042,2054,2047,1194
1236,1710926466971647372,2056,2067,2083,2060,2052,2058,1194
1237,1710926466981745222,2052,2046,2066,2068,2053,2052,1195
1238,1710926466991725288,2045,2057,2121,2072,2049,2044,1195
1239,1710926467001649107,2053,2066,2014,2029,2044,2043,1192
1240,1710926467011653439,2052,2044,2052,2057,2052,2041,1192
1241,1710926467021663882,2047,2049,2041,2056,2038,2056,1196
1242,1710926467031660600,2057,2076,2066,2060,2020,2053,1195
1243,1710926467041657387,2050,2052,2056,2045,2035,2054,1195
1244,1710926467051659054,2058,2056,2053,2072,2053,2047,1194
1245,1710926467061684856,2066,2108,2072,2044,2021,2052,1196
1246,1710926467071648331,2056,2058,2069,2069,2069,2051,1193
1247,1710926467081687609,2053,2054,2096,2054,2029,2052,1195
1248,1710926467091660671,2053,2042,2045,2076,2047,2053,1195
1249,1710926467101658411,2064,2064,2120,2064,2051,2053,1194
1250,1710926467111658985,2056,2076,2070,2052,2073,2053,1195
1251,1710926467121701440,2066,2066,2085,2070,2060,2063,1194
1252,1710926467131658782,2051,2056,2052,2047,2046,2040,1192
1253,1710926467141652153,2053,2032,2047,2042,2064,2054,1195
1254,1710926467151667516,2053,2074,2032,2029,2052,2056,1195
1255,1710926467161659074,2058,2053,2029,2076,2036,2053,1194
1256,1710926467171656172,2061,2048,2020,2067,2054,2051,1195
1257,1710926467181673579,2062,2055,2040,2059,2050,2056,1193
1258,1710926467191632295,2058,2051,2049,2007,2040,2050,1194
1259,1710926467201660602,2054,2047,2045,2072,2076,2061,1194
1260,1710926467211656648,2041,2063,2030,2037,2052,2050,1193
1261,1710926467221664908,2058,2061,2104,2047,2058,2056,1195
1262,1710926467231668538,2068,2071,2049,2047,2062,2051,1194
1263,1710926467241661669,2042,2047,2064,2059,2058,2052,1195
1264,1710926467251654088,2055,2062,2074,2042,2029,2052,1195
1265,1710926467261659913,2047,2037,2046,2066,2056,2063,1194
1266,1710926467271672550,2049,2038,2025,2067,2063,2062,1194
1267,1710926467281676071,2057,2050,2032,2050,2052,2054,1194
1268,1710926467291662949,2058,2062,2066,2052,2044,2052,1193
1269,1710926467301659446,2058,2055,2059,2041,2050,2053,1195
1270,1710926467311657346,2053,2052,2078,2058,2051,2053,1194
1271,1710926467321660205,2050,2028,2045,2036,2043,2047,1191
1272,1710926467331667212,2056,2078,2043,2049,2044,2042,1193
1273,1710926467341624124,2049,2051,2042,2034,2028,2044,1193
1274,1710926467351669754,2053,2052,2050,2059,2056,2057,1196
1275,1710926467361657605,2057,2067,2117,2067,2060,2056,1196
1276,1710926467371662267,2054,2049,2042,2047,2048,2049,1196
1277,1710926467381680455,2063,2070,2112,2073,2052,2057,1197
1278,1710926467391677213,2055,2056,2041,2056,2040,2039,1193
1279,1710926467401660745,2056,2045,2039,2046,2047,2052,1195
1280,1710926467411658485,2056,2048,2045,2080,2073,2054,1196
1281,1710926467421680410,2049,2045,2042,2062,2062,2050,1195
1282,1710926467431675195,2053,2054,2069,2049,2053,2055,1195
1283,1710926467441663296,2052,2051,2038,2059,2064,2056,1194
1284,1710926467451663570,2048,2072,2048,2048,2051,2038,1192
1285,1710926467461661510,2055,2061,2072,2068,2076,2063,1195
1286,1710926467471663477,2050,2050,2064,2031,2058,2054,1193
1287,1710926467481678980,2056,2080,2101,2073,2052,2056,1195
1288,1710926467491665789,2058,2071,2128,2032,2047,2056,1195
1289,1710926467501660162,2050,2040,2040,2066,2061,2052,1194
1290,1710926467511663311,2051,2031,2064,1998,2047,2052,1193
1291,1710926467521657864,2050,2048,2060,2053,2036,2043,1193
1292,1710926467531667707,2065,2085,2132,2047,2032,2047,1192
1293,1710926467541668041,2050,2047,2055,2043,2034,2052,1194
1294,1710926467551658617,2053,2053,2051,2072,2013,2048,1195
1295,1710926467561658681,2053,2054,2051,2032,2046,2050,1195
1296,1710926467571655698,2053,2056,2108,2068,2053,2042,1194
1297,1710926467581676231,2061,2057,2052,2072,2056,2057,1196
1298,1710926467591655045,2061,2078,2146,2063,2045,2058,1195
1299,1710926467601668213,2057,2045,2049,2049,2022,2055,1194
1300,1710926467611667626,2056,2078,2043,2058,2053,2053,1195
1301,1710926467621666768,2045,2033,2035,2045,2040,2044,1192
1302,1710926467631659327,2052,2049,2059,2033,2052,2053,1195
1303,1710926467641632350,2050,2047,2065,2058,2047,2053,1194
1304,1710926467651660166,2044,2026,2052,2052,2053,2049,1196
1305,1710926467661657144,2064,2042,2054,2033,2042,2049,1196
1306,1710926467671657539,2063,2057,2057,2052,2054,2059,1193
1307,1710926467681687600,2059,2050,2047,2056,2050,2048,1196
1308,1710926467691655072,2068,2068,2073,2070,2080,2056,1195
1309,1710926467701649595,2048,2047,2045,2060,2056,2058,1194
1310,1710926467711649589,2057,2065,2104,2061,2060,2050,1195
1311,1710926467721647749,2060,2070,2086,2045,2049,2053,1194
1312,1710926467731650177,2052,2026,2088,2056,2028,2048,1197
1313,1710926467741656643,2056,2039,2052,2045,2047,2055,1195
1314,1710926467751654382,2045,2032,2035,2026,2044,2043,1192
1315,1710926467761652533,2057,2036,2025,2054,2042,2051,1196
1316,1710926467771652767,2046,2047,2057,2044,2042,2050,1198
1317,1710926467781653532,2048,2047,2048,2063,2057,2057,1194
1318,1710926467791631744,2045,2028,2013,2069,2072,2040,1194
1319,1710926467801659210,2056,2051,2104,2064,2066,2062,1196
1320,1710926467811654434,2044,2032,1999,2014,2065,2062,1197
1321,1710926467821654488,2061,2064,2047,2071,2043,2052,1194
1322,1710926467831656185,2050,2050,2044,2064,2046,2053,1194
1323,1710926467841669714,2053,2084,2077,2060,2051,2054,1195
1324,1710926467851677983,2059,2062,2042,2066,2052,2044,1193
1325,1710926467861656376,2049,2038,2013,2049,2047,2050,1194
1326,1710926467871655648,2056,2056,2085,2074,2075,2060,1192
1327,1710926467881659640,2050,2056,2092,2065,2040,2049,1197
1328,1710926467891659082,2042,2033,2016,2064,2038,2039,1192
1329,1710926467901659847,2068,2070,2074,2066,2059,2064,1195
1330,1710926467911658630,2050,2072,2025,2072,2052,2056,1194
1331,1710926467921658844,2068,2057,2031,2077,2062,2056,1194
1332,1710926467931658477,2064,2053,2028,2062,2065,2065,1194
1333,1710926467941658751,2053,2045,2029,2052,2037,2056,1196
1334,1710926467951661961,2056,2050,2034,2053,2048,2052,1194
1335,1710926467961661213,2061,2097,2074,2062,2051,2053,1194
1336,1710926467971660094,2047,2049,2051,2054,2025,2044,1193
1337,1710926467981678272,2047,2055,2049,2073,2058,2052,1196
1338,1710926467991678136,2065,2074,2068,2050,2060,2050,1195
1339,1710926468001683530,2060,2056,2060,2066,2061,2050,1196
1340,1710926468011647645,2053,2051,2048,2025,2047,2046,1194
1341,1710926468021645154,2050,2056,2050,2049,2010,2041,1192
1342,1710926468031645088,2057,2049,2052,2053,2051,2056,1193
1343,1710926468041646324,2066,2060,2071,2073,2064,2060,1194
1344,1710926468051661416,2043,2037,2015,2049,2049,2049,1194
1345,1710926468061646461,2058,2066,2094,2057,2061,2044,1192
1346,1710926468071643038,2050,2050,2032,2000,2061,2064,1195
1347,1710926468081659573,2059,2031,2096,2062,2067,2058,1193
1348,1710926468091680577,2058,2050,2021,2080,2076,2052,1196
1349,1710926468101643540,2053,2063,2120,2089,2070,2056,1194
1350,1710926468111649224,2049,2053,2032,2053,2057,2065,1196
1351,1710926468121646984,2057,2066,2039,2059,2056,2059,1193
1352,1710926468131646657,2049,2044,2049,2014,2037,2049,1196
1353,1710926468141656539,2061,2064,2059,2044,2052,2056,1194
1354,1710926468151652145,2054,2046,2053,2077,2079,2058,1196
1355,1710926468161651066,2050,2056,2043,2008,2063,2065,1195
1356,1710926468171648455,2048,2041,2015,2019,2060,2049,1196
1357,1710926468181672524,2054,2060,2085,2072,2048,2046,1193
1358,1710926468191652740,2055,2056,2072,2064,2054,2055,1200
1359,1710926468201657833,2056,2067,2056,2068,2072,2060,1198
1360,1710926468211648019,2066,2063,2055,2059,2074,2061,1196
1361,1710926468221615981,2063,2103,2088,2076,2065,2057,1195
1362,1710926468231647565,2055,2045,2045,2052,2056,2051,1194
1363,1710926468241619215,2057,2056,2089,2065,2048,2049,1194
1364,1710926468251649315,2051,2037,2037,2064,2049,2048,1196
1365,1710926468261646013,2061,2048,2032,2068,2057,2060,1194
1366,1710926468271645986,2041,2030,2004,2044,2036,2057,1192
1367,1710926468281647763,2054,2031,2052,2056,2072,2056,1196
1368,1710926468291637898,2056,2039,2036,2066,2054,2053,1196
1369,1710926468301649684,2047,2046,2036,2057,2049,2047,1193
1370,1710926468311653385,2056,2057,2046,2019,2065,2060,1194
1371,1710926468321647307,2051,2056,2042,2064,2040,2049,1196
1372,1710926468331667028,2052,2040,2046,2056,2037,2046,1194
1373,1710926468341601167,2061,2072,2043,2062,2052,2060,1193
1374,1710926468351594338,2065,2052,2044,2062,2091,2062,1196
1375,1710926468361647021,2064,2064,2064,2044,2056,2061,1195
1376,1710926468371649409,2051,2049,2047,2058,2056,2051,1195
1377,1710926468381699618,2065,2064,2077,2076,2057,2060,1194
1378,1710926468391604521,2058,2061,2053,2093,2055,2051,1196
1379,1710926468401651324,2053,2064,2054,2070,2052,2051,1195
1380,1710926468411648632,2056,2056,2094,2065,2057,2044,1193
1381,1710926468421646612,2054,2049,2052,2052,2056,2057,1196
1382,1710926468431656975,2059,2053,2041,2061,2056,2064,1196
1383,1710926468441653893,2057,2049,2047,2093,2057,2054,1195
1384,1710926468451653396,2048,2045,2042,2069,2059,2056,1193
1385,1710926468461647629,2058,2059,2040,2053,2059,2061,1193
1386,1710926468471645648,2056,2058,2078,2044,2059,2049,1195
1387,1710926468481648828,2050,2042,2069,2085,2050,2053,1195
1388,1710926468491652509,2051,2041,2020,2066,2058,2063,1194
1389,1710926468501649927,2057,2098,2076,2053,2077,2057,1194
1390,1710926468511649060,2058,2059,2064,2076,2062,2051,1194
1391,1710926468521647141,2056,2049,2035,2044,2048,2054,1196
1392,1710926468531649679,2053,2052,2037,2068,2056,2054,1195
1393,1710926468541603846,2050,2068,2137,2081,2064,2052,1197
1394,1710926468551598609,2056,2049,2020,2010,2052,2056,1194
1395,1710926468561646344,2054,2052,2046,2051,2048,2053,1193
1396,1710926468571650315,2057,2082,2035,1996,2049,2053,1197
1397,1710926468581597638,2070,2079,2100,2057,2048,2054,1192
1398,1710926468591646555,2052,2046,2030,2052,2041,2044,1193
1399,1710926468601652189,2053,2044,2040,2056,2053,2043,1192
1400,1710926468611644839,2056,2051,2035,2064,2037,2049,1194
1401,1710926468621644903,2050,2039,2049,2051,2030,2052,1194
1402,1710926468631644045,2054,2052,2034,2056,2057,2052,1195
1403,1710926468641649478,2060,2077,2161,2080,2057,2055,1193
1404,1710926468651649803,2057,2056,2051,2056,2064,2064,1192
1405,1710926468661650027,2056,2067,2124,2037,2072,2056,1194
1406,1710926468671650982,2058,2089,2050,2076,2074,2049,1191
1407,1710926468681720969,2054,2037,2038,2046,2045,2053,1195
1408,1710926468691649827,2044,2049,2050,2052,2051,2041,1189
1409,1710926468701654800,2056,2052,2037,2058,2038,2050,1195
1410,1710926468711651398,2048,2036,2006,2045,2032,2050,1195
1411,1710926468721647824,2052,2047,2040,2059,2079,2053,1194
1412,1710926468731649381,2047,2050,2026,2000,2042,2044,1192
1413,1710926468741653032,2057,2058,2072,2065,2060,2060,1195
1414,1710926468751648146,2052,2068,2006,2052,2052,2056,1193
1415,1710926468761648600,2064,2091,2128,2077,2064,2051,1195
1416,1710926468771648985,2066,2072,2053,2076,2068,2056,1195
1417,1710926468781663837,2058,2067,2086,2057,2070,2043,1192
1418,1710926468791642420,2058,2061,2085,2070,2056,2058,1195
1419,1710926468801649577,2057,2039,2003,2058,2038,2044,1193
1420,1710926468811648649,2054,2074,2017,2033,2053,2056,1192
1421,1710926468821649714,2073,2074,2064,2061,2053,2066,1194
1422,1710926468831661059,2057,2052,2040,2051,2048,2052,1194
1423,1710926468841647287,2056,2046,2030,2049,2036,2047,1192
1424,1710926468851653332,2064,2061,2068,2021,2065,2052,1193
1425,1710926468861651562,2051,2010,1982,2054,2051,2049,1196
1426,1710926468871647087,2059,2047,2064,2061,2077,2053,1193
1427,1710926468881647051,2060,2051,2033,2053,2049,2057,1194
1428,1710926468891652395,2065,2064,2037,2053,2038,2052,1195
1429,1710926468901652719,2056,2052,2037,2050,2065,2057,1196
1430,1710926468911644938,2049,2042,2040,2053,2050,2046,1192
1431,1710926468921650642,2052,2058,2063,2054,2036,2044,1193
1432,1710926468931650846,2050,2047,2040,2040,2040,2049,1194
1433,1710926468941646472,2078,2068,2058,2077,2051,2050,1197
1434,1710926468951616168,2062,2079,2096,2068,2056,2053,1194
1435,1710926468961653532,2056,2059,2046,2049,2046,2052,1197
1436,1710926468971651071,2052,2057,2045,2045,2084,2041,1193
1437,1710926468981657527,2058,2060,2074,2066,2047,2044,1192
1438,1710926468991663192,2055,2047,2014,2032,2028,2049,1197
1439,1710926469001653377,2053,2030,2044,2073,2070,2060,1195
1440,1710926469011644432,2053,2044,2054,2072,2060,2048,1196
1441,1710926469021647702,2049,2048,2061,2055,2044,2050,1195
1442,1710926469031645542,2052,2056,2091,2072,2058,2054,1195
1443,1710926469041645986,2056,2050,2052,2073,2060,2057,1197
1444,1710926469051639728,2055,2057,2084,2074,2048,2056,1194
1445,1710926469061600968,2063,2060,2032,2065,2053,2056,1196
1446,1710926469071646698,2065,2067,2089,2064,2060,2060,1194
1447,1710926469081647944,2052,2025,2054,2051,2041,2047,1191
1448,1710926469091710166,2057,2039,2044,2072,2080,2061,1195
1449,1710926469101726540,2051,2056,2058,2058,2054,2052,1193
1450,1710926469111642936,2047,2036,2014,2040,2049,2043,1192
1451,1710926469121645725,2053,2050,2021,2061,2046,2054,1196
1452,1710926469131645708,2050,2046,2049,2060,2061,2055,1196
1453,1710926469141651403,2053,2045,2040,2046,2063,2043,1195
1454,1710926469151638742,2053,2029,2038,2044,2063,2057,1194
1455,1710926469161655478,2061,2049,2066,2061,2049,2056,1194
1456,1710926469171650792,2054,2047,2056,2052,2050,2049,1197
1457,1710926469181651848,2048,2042,2041,2056,2051,2056,1196
1458,1710926469191646742,2059,2070,2052,2057,2064,2051,1196
1459,1710926469201645724,2048,2045,2044,2008,2068,2045,1192
1460,1710926469211639976,2057,2050,2031,2056,2057,2049,1196
1461,1710926469221657874,2060,2076,2063,2056,2048,2052,1194
1462,1710926469231635255,2056,2056,2053,2050,2057,2056,1194
1463,1710926469241616483,2050,2051,2045,2073,2062,2048,1194
1464,1710926469251715634,2056,2051,2046,2053,2058,2045,1193
1465,1710926469261646827,2056,2044,2048,2064,2046,2055,1197
1466,1710926469271644677,2057,2044,2029,2049,2052,2052,1193
1467,1710926469281615345,2030,2019,2007,2065,2056,2041,1195
1468,1710926469291704257,2053,2046,2011,2047,2068,2057,1194
1469,1710926469301653434,2054,2062,2077,2057,2053,2053,1195
1470,1710926469311652617,2062,2082,2090,2053,2060,2054,1194
1471,1710926469321665655,2044,2024,2011,2047,2045,2060,1194
1472,1710926469331672140,2046,2040,2045,2050,2057,2055,1195
1473,1710926469341698744,2045,2036,2019,2052,2050,2049,1195
1474,1710926469351652530,2052,2053,2043,2041,2056,2050,1194
1475,1710926469361652483,2058,2053,2052,2047,2072,2062,1193
1476,1710926469371645564,2065,2068,2072,2064,2079,2062,1194
1477,1710926469381699971,2059,2069,2058,2050,2046,2049,1194
1478,1710926469391602189,2058,2042,2047,2050,2056,2045,1193
1479,1710926469401692444,2056,2054,2031,2051,2073,2064,1193
1480,1710926469411644647,2066,2073,2136,2085,2054,2053,1196
1481,1710926469421648958,2048,2045,2037,2041,2062,2051,1195
1482,1710926469431647499,2053,2051,2035,2049,2052,2046,1193
1483,1710926469441645489,2051,2035,2044,2051,2045,2058,1195
1484,1710926469451650482,2042,2070,2076,2005,2035,2038,1192
1485,1710926469461697355,2057,2053,2042,2069,2056,2056,1196
1486,1710926469471648536,2051,2053,2074,2062,2084,2056,1193
1487,1710926469481646035,2046,2058,2076,2034,2022,2042,1192
1488,1710926469491647661,2050,2038,2035,2037,2051,2047,1194
1489,1710926469501646363,2058,2051,2056,2064,2088,2057,1195
1490,1710926469511685891,2056,2020,2026,2060,2060,2050,1196
1491,1710926469521685785,2053,2032,2053,2055,2053,2060,1195
1492,1710926469531686289,2051,2049,2037,2060,2042,2057,1195
1493,1710926469541685581,2048,2046,2050,2064,2080,2057,1195
1494,1710926469551682489,2051,2046,2028,2056,2053,2042,1192
1495,1710926469561683344,2049,2052,2053,2026,2042,2050,1194
1496,1710926469571686454,2056,2052,2041,2050,2045,2056,1195
1497,1710926469581685085,2052,2056,2045,2056,2050,2054,1196
1498,1710926469591685950,2049,2060,2098,2052,2054,2047,1193
1499,1710926469601681936,2058,2056,2081,2047,2051,2049,1197
1500,1710926469611683984,2048,2048,2060,2050,2046,2047,1194
1501,1710926469621684088,2060,2054,2056,2052,2053,2056,1195
1502,1710926469631684262,2056,2058,2058,2052,2044,2051,1196
1503,1710926469641686479,2055,2070,2102,2052,2040,2033,1193
1504,1710926469651684720,2044,2045,2051,2053,2039,2049,1196
1505,1710926469661689092,2050,2037,2005,2040,2036,2047,1193
1506,1710926469671689917,2054,2052,2060,2068,2056,2050,1195
1507,1710926469681688438,2055,2040,2056,2020,2042,2057,1197
1508,1710926469691689433,2046,2049,2044,2056,2060,2053,1194
1509,1710926469701671904,2053,2045,2045,2056,2053,2055,1194
1510,1710926469711674452,2056,2051,2041,2066,2045,2065,1194
1511,1710926469721674115,2054,2044,2024,2061,2043,2056,1196
1512,1710926469731672165,2052,2054,2023,2081,2073,2050,1194
1513,1710926469741672349,2056,2041,1993,2058,2061,2057,1194
1514,1710926469751672343,2047,2018,2039,2057,2050,2052,1193
1515,1710926469761676023,2047,2036,2054,2046,2042,2045,1192
1516,1710926469771677760,2057,2057,2046,2068,2064,2056,1197
1517,1710926469781672173,2054,2050,2064,2066,2032,2052,1194
1518,1710926469791671626,2053,2048,2043,2060,2061,2053,1194
1519,1710926469801665388,2045,2025,2050,2052,2057,2050,1195
1520,1710926469811668617,2052,2044,2076,2064,2043,2045,1191
1521,1710926469821668270,2052,2044,2044,2036,2049,2053,1195
1522,1710926469831669256,2058,2054,2032,2060,2054,2053,1194
1523,1710926469841677896,2048,2052,2057,2047,2068,2057,1195
1524,1710926469851666388,2062,2069,2105,2069,2068,2062,1197
1525,1710926469861666552,2057,2061,2056,2056,2051,2055,1197
1526,1710926469871666024,2053,2053,2049,2056,2053,2051,1194
1527,1710926469881704059,2051,2044,2048,2084,2038,2042,1194
1528,1710926469891664758,2033,2046,2057,2074,2040,2030,1192
1529,1710926469901665032,2067,2056,2056,2052,2050,2052,1195
1530,1710926469911666258,2058,2061,2071,2057,2056,2054,1193
1531,1710926469921663797,2053,2050,2048,2052,2056,2064,1194
1532,1710926469931663179,2056,2057,2065,2052,2052,2058,1194
1533,1710926469941661259,2061,2073,2081,2064,2056,2053,1195
1534,1710926469951663297,2061,2056,2037,2059,2052,2056,1194
1535,1710926469961659834,2062,2088,2126,2061,2056,2062,1197
1536,1710926469971661751,2054,2047,2052,2081,2040,2050,1197
1537,1710926469981661104,2047,2047,2049,2037,2047,2050,1194
1538,1710926469991651209,2045,2042,2017,2048,2038,2044,1193
1539,1710926470001702049,2047,2012,2024,2054,2068,2053,1194
1540,1710926470011657808,2053,2044,2046,2044,2072,2057,1195
1541,1710926470021667069,2061,2053,2058,2036,2061,2056,1196
1542,1710926470031640703,2056,2057,2057,2050,2054,2051,1194
1543,1710926470041660214,2053,2044,2053,2062,2056,2054,1196
1544,1710926470051640109,2052,2045,2044,2036,2064,2043,1192
1545,1710926470061655903,2064,2068,2090,2047,2073,2063,1196
1546,1710926470071655095,2053,2043,2025,2057,2053,2049,1193
1547,1710926470081659196,2056,2047,2028,2059,2057,2059,1194
1548,1710926470091660352,2064,2080,2109,2036,2061,2056,1196
1549,1710926470101682608,2054,2047,2047,2061,2056,2052,1197
1550,1710926470111625323,2064,2033,2059,2070,2060,2056,1195
1551,1710926470121658409,2056,2062,2133,2041,2074,2046,1195
1552,1710926470131655578,2047,2036,2011,2040,2046,2049,1196
1553,1710926470141656243,2055,2047,2053,2067,2071,2064,1197
1554,1710926470151673178,2057,2053,2052,2042,2076,2053,1194
1555,1710926470161657372,2067,2044,2055,2077,2058,2069,1194
1556,1710926470171656132,2054,2072,2028,2049,2044,2045,1193
1557,1710926470181657869,2061,2056,2043,2068,2062,2053,1194
1558,1710926470191695855,2050,2047,2038,2058,2053,2047,1193
1559,1710926470201677493,2051,2049,2046,2049,2056,2052,1195
1560,1710926470211658581,2061,2066,2046,2064,2060,2050,1197
1561,1710926470221660819,2066,2077,2096,2076,2053,2050,1196
1562,1710926470231659550,2066,2096,2080,2081,2061,2052,1196
1563,1710926470241714618,2060,2064,2089,2069,2059,2054,1196
1564,1710926470251663104,2052,2043,2044,2067,2048,2057,1194
1565,1710926470261656896,2058,2069,2099,2061,2044,2060,1195
1566,1710926470271654866,2056,2055,2058,2059,2071,2053,1193
1567,1710926470281904663,2058,2059,2064,2085,2054,2054,1196
1568,1710926470291664221,2056,2051,2052,2061,2054,2052,1195
1569,1710926470301684874,2064,2089,2141,2073,2024,2065,1195
1570,1710926470311666933,2054,2056,2081,2053,2047,2047,1191
1571,1710926470321665494,2056,2057,2114,2054,2034,2059,1194
1572,1710926470331663674,2045,2045,2040,2047,2036,2052,1193
1573,1710926470341679538,2056,2048,2038,2044,2004,2044,1191
1574,1710926470351667299,2056,2019,2059,2049,2068,2049,1194
1575,1710926470361664978,2050,2028,2068,2069,2049,2052,1194
1576,1710926470371660824,2056,2046,2042,2033,2029,2041,1194
1577,1710926470381681215,2052,2045,2066,2031,2037,2054,1194
1578,1710926470391691849,2053,2048,2031,2040,2052,2050,1195
1579,1710926470401912911,2068,2066,2081,2053,2046,2054,1196
1580,1710926470411660456,2068,2059,2059,2048,2031,2053,1195
1581,1710926470421657554,2052,2082,2058,2035,2051,2052,1196
1582,1710926470431655624,2056,2044,2049,2052,2046,2051,1195
1583,1710926470441658654,2072,2104,2192,2066,2069,2056,1196
1584,1710926470451660461,2045,2039,2032,2062,2064,2046,1192
1585,1710926470461656838,2061,2057,2069,2045,2053,2059,1195
1586,1710926470471657983,2058,2089,2088,2045,2053,2057,1194
1587,1710926470481656354,2064,2053,2044,2065,2063,2064,1194
1588,1710926470491656127,2056,2052,2034,2029,2054,2046,1193
1589,1710926470501658615,2044,2058,2032,2066,2047,2048,1194
1590,1710926470511657206,2050,2047,2059,2093,2067,2058,1194
1591,1710926470521656389,2050,2048,2037,2046,2013,2056,1193
1592,1710926470531654699,2056,2053,2076,2060,2061,2053,1196
1593,1710926470541654813,2055,2044,2049,2052,2045,2059,1195
1594,1710926470551699681,2052,2059,2122,2078,2059,2054,1195
1595,1710926470561681962,2056,2038,2040,2045,2021,2045,1192
1596,1710926470571658761,2049,2048,2046,2072,2056,2048,1196
1597,1710926470581655949,2056,2064,2090,2067,2040,2042,1192
1598,1710926470591661663,2061,2048,2036,2059,2060,2058,1195
1599,1710926470601667397,2057,2041,2008,2045,2050,2057,1194
1600,1710926470611657652,2056,2055,2056,2056,2056,2054,1194
1601,1710926470621653368,2062,2057,2037,2052,2066,2064,1194
1602,1710926470631653151,2056,2049,2024,2052,2041,2056,1195
1603,1710926470641664987,2052,2090,2040,1999,2052,2052,1194
1604,1710926470651674228,2061,2049,2024,2050,2056,2055,1196
1605,1710926470661656018,2043,2037,2026,2042,2050,2052,1196
1606,1710926470671655480,2054,2055,2045,2080,2108,2060,1196
1607,1710926470681730266,2062,2056,2054,2061,2059,2058,1195
1608,1710926470691656189,2052,2053,2060,2057,2078,2061,1198
1609,1710926470702541330,2051,2074,2104,2053,2054,2049,1195
1610,1710926470711686764,2056,2056,2073,2068,2053,2052,1196
1611,1710926470721698951,2050,2041,2038,2068,2061,2060,1194
1612,1710926470731660812,2058,2065,2058,2053,2062,2057,1194
1613,1710926470741660435,2057,2062,2068,2061,2049,2056,1194
1614,1710926470751695635,2056,2046,2036,2055,2090,2052,1194
1615,1710926470761694707,2060,2058,2069,2046,2050,2054,1194
1616,1710926470771694080,2052,2040,2039,2053,2051,2051,1195
1617,1710926470781696919,2058,2057,2061,2056,2053,2056,1197
1618,1710926470791707983,2047,2042,2023,2052,2038,2046,1195
1619,1710926470801689030,2047,2038,2006,2025,2026,2041,1192
1620,1710926470811693903,2047,2047,2042,2049,2047,2050,1195
1621,1710926470821694998,2057,2052,2065,2062,2052,2064,1196
1622,1710926470831699030,2054,2052,2054,2057,2031,2059,1197
1623,1710926470841696929,2053,2052,2046,2064,2033,2048,1193
1624,1710926470851702353,2045,2050,2044,2068,2053,2052,1196
1625,1710926470861710332,2060,2068,2092,2076,2059,2056,1196
1626,1710926470871677083,2054,2052,2062,2045,2042,2048,1197
1627,1710926470881670343,2048,2047,2045,2064,2056,2054,1194
1628,1710926470891712056,2054,2085,2056,2084,2068,2044,1192
1629,1710926470901703904,2049,2049,2061,2047,2046,2045,1193
1630,1710926470911702696,2060,2056,2045,2040,2057,2048,1195
1631,1710926470921705835,2060,2072,2102,2058,2048,2053,1194
1632,1710926470931702092,2050,2057,2058,2052,2064,2054,1194
1633,1710926470941702396,2049,2034,2102,2077,2056,2053,1193
1634,1710926470951708371,2051,2033,2040,2022,2069,2038,1192
1635,1710926470961703395,2072,2092,2113,2060,2031,2056,1195
1636,1710926470971711003,2061,2064,2038,2056,2041,2061,1195
1637,1710926470981702711,2057,2058,2060,2036,2050,2058,1196
1638,1710926470991698988,2068,2078,2137,2067,2068,2056,1196
1639,1710926471001702257,2060,2053,2060,2034,2048,2052,1194
1640,1710926471011704915,2060,2075,2058,2058,2044,2050,1197
1641,1710926471021716410,2054,2058,2069,2061,2048,2049,1195
1642,1710926471031704702,2056,2056,2040,2066,2060,2053,1197
1643,1710926471041681632,2052,2063,2077,2065,2046,2045,1193
1644,1710926471051678530,2055,2048,2043,2059,2060,2056,1195
1645,1710926471061674596,2060,2049,2064,2069,2068,2057,1196
1646,1710926471071675211,2046,2040,2020,2047,2050,2046,1188
1647,1710926471081672880,2054,2053,2092,2072,2034,2056,1196
1648,1710926471091674516,2051,2045,2047,2049,2065,2056,1195
1649,1710926471101673418,2052,2052,2044,2060,2066,2050,1197
1650,1710926471111671508,2056,2061,2069,2081,2074,2056,1194
1651,1710926471121691830,2052,2045,2046,2057,2041,2047,1191
1652,1710926471131664833,2040,2056,2071,2057,2051,2050,1194
1653,1710926471141679353,2049,2040,2056,2041,2018,2050,1195
1654,1710926471151673736,2052,2046,2037,2050,2057,2056,1195
1655,1710926471161673559,2051,2045,2052,2051,2072,2050,1195
1656,1710926471171672901,2059,2056,2068,2066,2069,2053,1197
1657,1710926471181673556,2058,2047,2053,2073,2064,2058,1195
1658,1710926471191666186,2036,2043,2034,2058,2056,2046,1193
1659,1710926471201673053,2056,2074,2051,2065,2052,2053,1194
1660,1710926471211675851,2058,2053,2037,2052,2069,2044,1192
1661,1710926471221671918,2049,2036,2015,2064,2044,2057,1194
1662,1710926471231684395,2049,2047,2016,2038,2052,2046,1193
1663,1710926471241709626,2057,2042,2045,2058,2056,2063,1194
1664,1710926471251663853,2058,2044,2052,2064,2056,2054,1194
1665,1710926471261667384,2036,2035,2049,2040,2045,2045,1191
1666,1710926471271661044,2053,2044,2049,2056,2060,2056,1192
1667,1710926471281665536,2056,2050,2040,2040,2042,2043,1192
1668,1710926471291669377,2056,2050,2021,2046,2036,2051,1194
1669,1710926471301667828,2053,2045,2033,2060,2044,2053,1195
1670,1710926471311667471,2069,2121,2134,2064,2061,2058,1195
1671,1710926471321668496,2049,2043,2034,2056,2050,2049,1194
1672,1710926471331715068,2052,2050,2067,2050,2057,2052,1197
1673,1710926471341715923,2059,2054,2061,2050,2049,2050,1195
1674,1710926471351672294,2050,2037,2009,2062,2053,2066,1194
1675,1710926471361670475,2052,2072,2032,2059,2066,2054,1194
1676,1710926471371670528,2064,2056,2054,2072,2068,2056,1193
1677,1710926471381671434,2056,2050,2044,2030,2043,2053,1195
1678,1710926471391680254,2054,2044,2003,2054,2065,2056,1197
1679,1710926471401698501,2051,2027,2041,2066,2045,2052,1195
1680,1710926471411659701,2050,2030,2042,2048,2057,2052,1198
1681,1710926471421671627,2054,2044,2053,2056,2047,2045,1193
1682,1710926471431658767,2059,2060,2097,2052,2065,2052,1195
1683,1710926471441698946,2052,2050,2053,2064,2056,2049,1196
1684,1710926471451657792,2051,2057,2029,2076,2065,2052,1197
1685,1710926471461659559,2054,2036,2049,2075,2043,2055,1195
1686,1710926471471657769,2060,2058,2056,2050,2058,2053,1192
1687,1710926471481695044,2050,2054,2076,2076,2061,2051,1196
1688,1710926471491680069,2048,2042,2021,2044,2036,2049,1195
1689,1710926471501662519,2043,2049,2039,2072,2040,2043,1192
1690,1710926471511655299,2047,2045,2032,2046,2055,2056,1193
1691,1710926471521660231,2054,2045,2035,2070,2050,2052,1193
1692,1710926471531660655,2053,2052,2058,2057,2036,2050,1193
1693,1710926471541679385,2053,2040,2032,2064,2051,2053,1196
1694,1710926471551689387,2053,2042,2022,2066,2056,2045,1193
1695,1710926471561689541,2048,2047,2049,2059,2048,2048,1195
1696,1710926471571690196,2052,2052,2044,2047,2072,2047,1192
1697,1710926471581688857,2049,2023,2065,2052,2051,2056,1196
1698,1710926471591678681,2053,2041,2048,2065,2059,2047,1193
1699,1710926471601689245,2058,2047,2066,2078,2045,2053,1192
1700,1710926471611655044,2052,2045,2045,2057,2045,2049,1194
1701,1710926471621687118,2057,2063,2080,2050,2044,2057,1196
1702,1710926471631658999,2057,2050,2043,2046,2076,2052,1195
1703,1710926471641689390,2060,2046,2052,2057,2049,2056,1193
1704,1710926471651655229,2046,2049,2046,2069,2062,2048,1193
1705,1710926471661685669,2052,2040,2030,2050,2046,2050,1193
1706,1710926471671655245,2057,2048,2064,2060,2072,2054,1193
1707,1710926471681659747,2052,2050,2066,2056,2061,2053,1194
1708,1710926471691664019,2059,2040,2028,2057,2063,2060,1196
1709,1710926471701658863,2056,2037,2047,2040,2045,2057,1195
1710,1710926471711683463,2056,2065,2115,2062,2058,2053,1194
1711,1710926471721660313,2057,2051,2057,2060,2049,2055,1192
1712,1710926471731683410,2053,2048,2046,2064,2057,2061,1195
1713,1710926471741680007,2045,2064,2095,2024,2060,2049,1196
1714,1710926471751660845,2067,2097,2101,2046,2052,2064,1195
1715,1710926471761656560,2056,2061,2100,2082,2091,2065,1195
1716,1710926471771678505,2054,2051,2033,2051,2056,2047,1192
1717,1710926471781658781,2061,2056,2091,2060,2053,2054,1195
1718,1710926471791669595,2056,2052,2058,2040,2041,2048,1196
1719,1710926471801674217,2057,2065,2074,2053,2060,2062,1194
1720,1710926471811677697,2042,2064,2027,2042,2044,2049,1194
1721,1710926471821658915,2061,2052,2036,2056,2058,2048,1195
1722,1710926471831656875,2044,2044,2028,2067,2039,2047,1193
1723,1710926471841717584,2055,2053,2047,2057,2049,2047,1194
1724,1710926471852284121,2047,2012,2014,2060,2060,2056,1193
1725,1710926471861649091,2053,2040,2056,2061,2055,2054,1197
1726,1710926471871646159,2056,2047,2048,2063,2050,2053,1192
1727,1710926471881663626,2053,2052,2076,2045,2045,2056,1194
1728,1710926471891656967,2054,2050,2080,2070,2056,2060,1194
1729,1710926471901662030,2056,2047,2029,2056,2063,2056,1193
1730,1710926471911665209,2057,2056,2040,2062,2062,2051,1195
1731,1710926471921649222,2064,2066,2113,2062,2050,2052,1194
1732,1710926471931649666,2062,2059,2062,2048,2056,2053,1195
1733,1710926471941664408,2042,2041,2036,2047,2022,2044,1192
1734,1710926471951639915,2058,2065,2097,2061,2073,2054,1196
1735,1710926471961647463,2060,2052,2056,2076,2062,2053,1196
1736,1710926471971657576,2057,2059,2058,2068,2047,2044,1192
1737,1710926471981668370,2059,2052,2046,2060,2056,2060,1196
1738,1710926471991658445,2036,2052,2054,2057,2067,2041,1192
1739,1710926472001653669,2052,2029,2012,2065,2047,2044,1192
1740,1710926472011648273,2046,2029,2025,2038,2080,2052,1195
1741,1710926472021648557,2041,2056,2029,2060,2060,2050,1195
1742,1710926472031644863,2053,2048,2041,2072,2053,2049,1196
1743,1710926472041654454,2060,2072,2110,2086,2058,2062,1195
1744,1710926472051648457,2056,2044,2037,2054,2064,2064,1194
1745,1710926472061653470,2056,2066,2045,2056,2057,2050,1195
1746,1710926472071654165,2058,2052,2029,2045,2065,2054,1194
1747,1710926472081656523,2060,2055,2100,2070,2056,2056,1194
1748,1710926472091654783,2056,2052,2052,2048,2044,2048,1192
1749,1710926472101649747,2056,2051,2058,2048,2067,2062,1194
1750,1710926472111648629,2057,2034,2069,2052,2060,2056,1195
1751,1710926472121650997,2051,2031,2028,2037,2060,2050,1194
1752,1710926472131644427,2058,2065,2086,2072,2061,2056,1193
1753,1710926472141651374,2055,2038,2025,2076,2052,2049,1196
1754,1710926472151660966,2058,2047,2028,2073,2063,2059,1194
1755,1710926472161653405,2050,2053,2032,2068,2072,2062,1194
1756,1710926472171644872,2059,2077,2052,2064,2064,2049,1195
1757,1710926472181653723,2069,2060,2036,2040,2048,2052,1195
1758,1710926472191651883,2057,2061,2040,2021,2048,2061,1196
1759,1710926472201647689,2043,2056,2082,2073,2049,2046,1194
1760,1710926472211647141,2056,2060,2020,2045,2054,2050,1195
1761,1710926472221648506,2049,2046,2050,2044,2045,2046,1193
1762,1710926472231644352,2056,2038,2041,2080,2064,2056,1194
1763,1710926472241647431,2058,2050,2079,2066,2062,2057,1196
1764,1710926472251640302,2070,2055,2022,2073,2070,2061,1196
1765,1710926472261647268,2057,2058,2074,2060,2052,2052,1197
1766,1710926472271645849,2050,2045,2028,2069,2064,2047,1192
1767,1710926472281666522,2052,2053,2083,2046,2049,2051,1194
1768,1710926472291652489,2057,2055,2041,2056,2053,2054,1195
1769,1710926472301646361,2056,2061,2076,2066,2056,2055,1194
1770,1710926472311649049,2057,2074,2065,2052,2095,2064,1194
1771,1710926472321651176,2052,2051,2058,2052,2058,2052,1196
1772,1710926472331650098,2054,2050,2025,2058,2058,2046,1193
1773,1710926472341650022,2037,2049,2096,2056,2027,2045,1194
1774,1710926472351661437,2059,2072,2106,2064,2058,2060,1196
1775,1710926472361650580,2073,2073,2104,2089,2076,2056,1195
1776,1710926472371645784,2058,2046,2028,2060,2078,2052,1196
1777,1710926472381660195,2056,2058,2094,2064,2033,2047,1192
1778,1710926472391650992,2052,2041,2010,2040,2036,2044,1193
1779,1710926472401651075,2049,2067,2120,2057,2036,2037,1194
1780,1710926472411647010,2059,2059,2036,2047,2066,2056,1196
1781,1710926472421645010,2065,2058,2052,2010,2058,2056,1194
1782,1710926472431647548,2050,2050,2052,2030,2052,2052,1196
1783,1710926472441660607,2058,2054,2053,2047,2050,2052,1195
1784,1710926472451650431,2058,2050,2021,2067,2052,2054,1193
1785,1710926472461653961,2058,2090,2130,2037,2052,2058,1195
1786,1710926472471647272,2060,2059,2072,2062,2063,2062,1192
1787,1710926472481657576,2046,2056,2067,2077,2068,2042,1192
1788,1710926472491677216,2060,2046,2031,2034,2086,2045,1191
1789,1710926472501632003,2052,2053,2051,2063,2040,2048,1195
1790,1710926472511647917,2047,2040,2009,2052,2056,2052,1195
1791,1710926472521645406,2062,2073,2102,2061,2046,2062,1193
1792,1710926472531650730,2056,2068,2047,2040,2034,2051,1195
1793,1710926472541649711,2053,2050,2060,2045,2052,2054,1195
1794,1710926472551651168,2051,2050,2057,2056,2050,2052,1195
1795,1710926472561660559,2054,2062,2096,2068,2052,2048,1196
1796,1710926472571645103,2046,2036,2025,2064,2060,2050,1196
1797,1710926472581653253,2056,2043,2027,2056,2061,2064,1194
1798,1710926472591643497,2053,2060,2028,2056,2060,2056,1197
1799,1710926472601648379,2050,2042,2050,2057,2038,2056,1195
1800,1710926472611647261,2056,2047,2042,2052,2092,2052,1197
1801,1710926472621652064,2057,2041,2070,2031,2053,2049,1196
1802,1710926472631643832,2048,2041,2028,1986,2052,2056,1194
1803,1710926472641649476,2049,2031,2008,2057,2029,2056,1192
1804,1710926472651648328,2061,2046,2011,2056,2051,2052,1195
1805,1710926472661647009,2051,2046,2044,2050,2030,2044,1193
1806,1710926472671648285,2056,2048,2052,2056,2058,2051,1192
1807,1710926472681649030,2053,2054,2047,2044,2048,2052,1193
1808,1710926472691643812,2057,2048,2021,2018,2061,2057,1194
1809,1710926472701656871,2060,2054,2043,2057,2045,2057,1195
1810,1710926472711645954,2058,2049,2047,2047,1997,2041,1192
1811,1710926472721646027,2061,2057,2065,2052,2046,2056,1194
1812,1710926472731646031,2048,2044,2037,2052,2061,2049,1193
1813,1710926472741646035,2069,2092,2216,2054,2056,2056,1196
1814,1710926472751647962,2066,2056,2061,2073,2066,2052,1195
1815,1710926472761644790,2050,2048,2029,2062,2037,2050,1193
1816,1710926472771646446,2045,2044,2037,2049,2059,2052,1196
1817,1710926472781651338,2060,2063,2129,2049,2041,2065,1195
1818,1710926472791647645,2058,2050,2035,2051,2056,2056,1196
1819,1710926472801649472,2052,2043,2036,2072,2041,2052,1196
1820,1710926472811645298,2051,2047,2050,2047,2053,2055,1194
1821,1710926472821645552,2059,2044,2044,2040,2034,2060,1193
1822,1710926472831647239,2066,2058,2102,2046,2038,2048,1196
1823,1710926472841648835,2054,2046,2032,2056,2048,2056,1194
1824,1710926472851651153,2050,2041,2009,2058,2049,2048,1196
1825,1710926472861655345,2062,2089,2128,2062,2052,2063,1196
1826,1710926472871643826,2052,2092,2053,2069,2037,2056,1194
1827,1710926472881651023,2063,2073,2074,2061,2044,2056,1197
1828,1710926472891672257,2052,2050,2020,2054,2052,2047,1193
1829,1710926472901653906,2045,2033,2041,2034,2047,2050,1196
1830,1710926472911645303,2052,2047,2043,2062,2075,2051,1197
1831,1710926472921648152,2060,2068,2060,2058,2080,2045,1194
1832,1710926472931645561,2054,2060,2045,2062,2024,2060,1194
1833,1710926472941651305,2056,2049,2050,2024,2044,2051,1193
1834,1710926472951660176,2052,2058,2085,2032,2056,2050,1195
1835,1710926472961644990,2047,2044,2014,2058,2052,2054,1195
1836,1710926472971618092,2053,2070,2013,2056,2047,2044,1192
1837,1710926472981650447,2050,2042,2040,2056,2045,2044,1194
1838,1710926472991710304,2056,2073,2062,2056,2024,2041,1195
1839,1710926473001649502,2052,2056,2067,2076,2068,2057,1196
1840,1710926473011648614,2056,2047,2015,2056,2055,2048,1193
1841,1710926473021648578,2053,2048,2033,2060,2097,2053,1195
1842,1710926473031648241,2056,2059,2049,2064,2067,2057,1195
1843,1710926473041663293,2056,2037,2044,2059,2041,2053,1194
1844,1710926473051646714,2057,2043,2032,2049,2050,2053,1196
1845,1710926473061650234,2072,2082,2140,2091,2048,2064,1195
1846,1710926473071650368,2064,2056,2028,2056,2058,2053,1193
1847,1710926473081650983,2049,2049,2057,2046,2044,2050,1195
1848,1710926473091651538,2051,2045,2040,2033,2050,2052,1194
1849,1710926473101652994,2061,2078,2023,2081,2065,2052,1194
1850,1710926473111652497,2053,2030,2031,2062,2072,2061,1195
1851,1710926473121652019,2060,2041,2033,2065,2012,2052,1196
1852,1710926473131652232,2057,2044,1989,2048,2049,2047,1192
1853,1710926473141662987,2064,2060,2059,2076,2045,2057,1195
1854,1710926473151650917,2056,2056,2064,2053,2049,2047,1193
1855,1710926473161653295,2051,2048,2080,2052,2035,2053,1194
1856,1710926473171653209,2052,2061,2035,2052,2055,2052,1196
1857,1710926473181655337,2065,2061,2089,2054,2050,2052,1196
1858,1710926473191668645,2057,2050,2039,2037,2050,2055,1196
1859,1710926473201656815,2053,2044,2038,2080,2049,2058,1195
1860,1710926473211652601,2045,2051,2080,2072,2072,2045,1192
1861,1710926473221655711,2057,2061,2040,2057,2050,2053,1194
1862,1710926473231656265,2061,2071,2044,2052,2060,2052,1196
1863,1710926473241657581,2049,2051,2057,1996,1986,2040,1193
1864,1710926473251656824,2054,2050,2029,2069,2065,2056,1196
1865,1710926473261658691,2045,2043,2033,2056,2065,2047,1193
1866,1710926473271657701,2046,2052,2072,2052,2060,2065,1193
1867,1710926473281659859,2058,2059,2073,2044,2072,2057,1194
1868,1710926473291672737,2056,2042,2032,2043,2047,2045,1192
1869,1710926473301656270,2056,2042,2041,2064,2052,2050,1197
1870,1710926473311660091,2056,2048,2077,2062,2061,2060,1197
1871,1710926473321659753,2056,2037,2061,2061,2085,2071,1194
1872,1710926473331662041,2056,2056,2030,2065,2054,2056,1196
1873,1710926473341660672,2050,2051,2056,2056,2034,2033,1191
1874,1710926473351642230,2050,2027,2023,2042,2033,2047,1192
1875,1710926473361662282,2063,2036,2028,2065,2034,2048,1194
1876,1710926473371645213,2057,2052,2001,2068,2063,2056,1194
1877,1710926473381662419,2064,2072,2068,2081,2057,2053,1197
1878,1710926473391663014,2056,2067,2096,2030,2071,2056,1196
1879,1710926473401645785,2046,2037,2032,2051,2016,2050,1196
1880,1710926473411647742,2055,2042,1990,2069,2060,2056,1196
1881,1710926473421646673,2048,2040,2046,2035,2040,2047,1192
1882,1710926473431646947,2051,2074,2040,2060,2068,2043,1193
1883,1710926473441663752,2058,2056,2070,2057,2030,2043,1194
1884,1710926473451665389,2071,2068,2084,2057,2077,2058,1196
1885,1710926473461651827,2066,2054,2052,2061,2040,2060,1197
1886,1710926473471647362,2051,2047,2008,2056,2039,2051,1192
1887,1710926473481654449,2057,2044,2040,2044,2051,2056,1196
1888,1710926473491668929,2051,2016,2036,2066,2058,2056,1193
1889,1710926473501649025,2054,2056,2063,2085,2050,2047,1192
1890,1710926473511648548,2060,2054,2092,2047,2056,2053,1195
1891,1710926473521648542,2059,2037,1993,2053,2035,2055,1194
1892,1710926473531649387,2058,2053,2037,2037,2046,2058,1197
1893,1710926473541654069,2064,2072,2112,2055,2077,2056,1195
1894,1710926473551649274,2064,2062,2038,2072,2052,2054,1194
1895,1710926473561652452,2056,2056,2051,2019,2022,2049,1195
1896,1710926473571647426,2045,2015,2022,2051,2022,2054,1197
1897,1710926473581652830,2056,2031,2030,2045,2035,2058,1197
1898,1710926473591654036,2064,2073,2046,2066,2056,2053,1198
1899,1710926473601645373,2059,2037,2043,2064,2063,2068,1196
1900,1710926473611657460,2060,2052,2044,2069,2060,2059,1197
1901,1710926473621659437,2057,2059,2070,2072,2064,2060,1197
1902,1710926473631660192,2050,2021,2032,2041,2053,2056,1195
1903,1710926473641654735,2060,2045,2045,2075,2049,2058,1195
1904,1710926473651660409,2050,2042,2010,2072,2074,2056,1196
1905,1710926473661646887,2049,2044,2054,2072,2052,2056,1196
1906,1710926473671648564,2048,2045,2042,2068,2064,2056,1195
1907,1710926473681649008,2056,2047,2037,2060,2040,2056,1195
1908,1710926473691664141,2049,2047,2012,2043,2042,2045,1193
1909,1710926473701650388,2052,2039,2036,2061,2065,2054,1195
1910,1710926473711639811,2053,2027,2017,1977,2049,2048,1196
1911,1710926473721637700,2049,2029,2061,2058,2045,2052,1195
1912,1710926473731637513,2064,2069,2088,2060,2068,2060,1195
1913,1710926473741650392,2045,2050,2056,2057,2054,2053,1195
1914,1710926473751648862,2058,2085,2131,2066,2061,2054,1196
1915,1710926473761646982,2045,2042,2028,2036,2058,2058,1194
1916,1710926473771606860,2052,2033,2029,2072,2037,2048,1193
1917,1710926473781650104,2058,2054,2065,2064,2048,2059,1194
1918,1710926473791655288,2049,2048,2035,2064,2057,2054,1196
1919,1710926473801650993,2057,2058,2040,2070,2052,2050,1193
1920,1710926473811643934,2062,2054,2010,2048,2034,2054,1194
1921,1710926473821646151,2052,2074,2137,2081,2064,2049,1192
1922,1710926473831644562,2056,2057,2075,2060,2056,2052,1195
1923,1710926473841651980,2052,2035,2060,2058,2045,2051,1194
1924,1710926473851689164,2060,2064,2072,2056,2048,2061,1195
1925,1710926473861653399,2049,2066,2058,2015,2058,2052,1197
1926,1710926473871638544,2056,2056,2067,2043,2064,2047,1192
1927,1710926473881643998,2057,2045,2096,2037,2056,2068,1197
1928,1710926473891652698,2069,2096,2128,2047,2053,2066,1195
1929,1710926473901650387,2052,2038,2056,2073,2071,2059,1195
1930,1710926473911649820,2056,2047,2041,2069,2060,2052,1196
1931,1710926473921635015,2048,2025,2045,2069,2053,2052,1193
1932,1710926473931645808,2056,2041,2038,2057,2063,2048,1194
1933,1710926473941648187,2057,2070,2088,2046,2041,2044,1193
1934,1710926473951644223,2056,2040,2071,2057,2069,2056,1196
1935,1710926473961646701,2058,2054,2042,2017,2047,2055,1195
1936,1710926473971713551,2062,2066,2090,2060,2061,2053,1196
1937,1710926473981637160,2061,2070,2060,2063,2052,2049,1193
1938,1710926473991647874,2053,2044,2052,2041,2008,2040,1194
1939,1710926474001647386,2056,2049,2026,2060,2034,2047,1192
1940,1710926474011649884,2057,2067,2112,2068,2057,2056,1195
1941,1710926474021648706,2058,2066,2047,2056,2043,2056,1195
1942,1710926474031649691,2056,2054,2047,2050,2048,2054,1194
1943,1710926474041647290,2057,2064,1992,2071,2056,2044,1192
1944,1710926474051648366,2056,2046,2042,2061,2041,2050,1195
1945,1710926474061648098,2055,2046,2053,2004,2040,2052,1194
1946,1710926474071645947,2048,2055,2041,2036,2052,2050,1195
1947,1710926474081648426,2060,2056,2025,2067,2045,2053,1195
1948,1710926474091649942,2049,2043,2032,2035,2042,2049,1194
1949,1710926474101643413,2057,2084,2057,2021,2046,2049,1195
1950,1710926474111648106,2066,2049,2016,2041,2044,2045,1193
1951,1710926474121666834,2064,2089,2096,2063,2082,2060,1196
1952,1710926474131662970,2052,2045,2027,2054,2051,2053,1196
1953,1710926474141656983,2056,2052,2078,2067,2055,2050,1194
1954,1710926474151646256,2058,2056,2038,2068,2046,2059,1191
1955,1710926474161646360,2045,2014,2044,2048,2050,2053,1194
1956,1710926474171646043,2059,2041,2075,2046,2056,2058,1196
1957,1710926474181641427,2058,2072,2137,2063,2009,2042,1192
1958,1710926474191647752,2051,2043,2037,2068,2040,2052,1197
1959,1710926474201646233,2064,2061,2085,2072,2061,2064,1195
1960,1710926474211645024,2057,2041,2024,2033,2027,2051,1194
1961,1710926474221650919,2076,2067,2073,2056,2035,2050,1192
1962,1710926474231650412,2059,2041,2027,2060,2063,2071,1194
1963,1710926474241646908,2056,2048,2048,2060,2080,2058,1195
1964,1710926474251642142,2057,2047,2019,2044,2046,2053,1192
1965,1710926474261645272,2053,2043,2046,2074,2048,2049,1194
1966,1710926474271643452,2053,2040,2024,2057,2045,2059,1193
1967,1710926474281661059,2048,2038,2031,2033,2040,2049,1195
1968,1710926474291643860,2058,2088,2088,2060,2033,2050,1194
1969,1710926474301646788,2063,2070,2121,2082,2058,2056,1193
1970,1710926474311650649,2056,2057,2049,2013,2049,2046,1193
1971,1710926474321649420,2064,2051,2054,2064,2047,2050,1193
1972,1710926474331661817,2064,2060,2037,2061,2057,2056,1194
1973,1710926474341643035,2056,2066,2089,2060,2050,2060,1194
1974,1710926474351648650,2056,2056,2057,2078,2078,2061,1194
1975,1710926474361645867,2065,2076,2151,2075,2045,2057,1195
1976,1710926474371643646,2055,2052,2076,2051,2050,2036,1193
1977,1710926474381661203,2057,2052,2050,2057,2061,2057,1193
1978,1710926474391650847,2056,2051,2032,2051,2052,2056,1196
1979,1710926474401654458,2056,2053,2061,2059,2028,2047,1190
1980,1710926474411649722,2054,2065,2046,2028,2058,2054,1193
1981,1710926474421667910,2053,2040,2045,2072,2056,2054,1195
1982,1710926474431649638,2053,2057,1999,2046,2088,2047,1192
1983,1710926474441649492,2053,2058,2040,2064,2061,2064,1196
1984,1710926474451653854,2051,2050,2046,2060,2069,2062,1193
1985,1710926474461649689,2061,2062,2062,2059,2080,2057,1195
1986,1710926474471647799,2062,2053,2029,2057,2078,2062,1194
1987,1710926474481647742,2052,2033,2040,2040,2073,2057,1195
1988,1710926474491649499,2061,2057,2101,2056,2023,2036,1192
1989,1710926474501651636,2050,2050,2085,2044,2056,2050,1194
1990,1710926474511654485,2056,2060,2055,2053,2016,2050,1194
1991,1710926474521651564,2067,2066,2064,2069,2056,2059,1195
1992,1710926474531652148,2054,2068,2121,2028,2060,2052,1194
1993,1710926474541655658,2046,2044,2060,2051,2047,2058,1196
1994,1710926474551658627,2060,2076,2101,2044,2050,2056,1196
1995,1710926474561650405,2040,2039,2081,2046,2005,2041,1192
1996,1710926474571650549,2045,2015,1994,2053,2041,2027,1192
1997,1710926474581651053,2058,2053,2037,2058,2047,2053,1192
1998,1710926474591658541,2055,2049,2037,2056,2050,2064,1196
1999,1710926474601652713,2056,2058,2057,2077,2076,2066,1197
2000,1710926474611652756,2062,2068,2076,2034,2056,2054,1195
2001,1710926474621652790,2057,2066,2094,2060,2080,2059,1195
2002,1710926474631652784,2050,2047,2041,2034,2040,2044,1192
2003,1710926474641648269,2052,2056,2063,2072,2051,2047,1193
2004,1710926474651655736,2069,2071,2073,2053,2073,2065,1194
2005,1710926474661653695,2053,2056,2067,2062,2051,2051,1194
2006,1710926474671653779,2058,2113,2148,2053,2039,2044,1191
2007,1710926474681665705,2055,2080,2066,2060,2046,2058,1195
2008,1710926474691645901,2051,2057,2065,2051,2065,2059,1194
2009,1710926474701671553,2053,2052,2056,2065,2058,2057,1193
2010,1710926474711632934,2055,2072,2109,2048,2050,2051,1194
2011,1710926474721658365,2050,2049,2053,2042,2045,2060,1193
2012,1710926474731658579,2058,2069,2152,2052,2025,2053,1193
2013,1710926474741660015,2040,2037,2034,2050,2048,2047,1193
2014,1710926474751644269,2056,2043,2041,2045,2040,2046,1193
2015,1710926474761643331,2058,2047,2040,2008,2032,2044,1192
2016,1710926474771643915,2060,2060,2040,2062,2062,2052,1195
2017,1710926474781660369,2052,2050,2072,2056,2058,2060,1197
2018,1710926474791653730,2048,2041,2028,2053,2068,2050,1194
2019,1710926474801635529,2056,2059,2022,2045,2051,2049,1193
2020,1710926474811646474,2049,2059,2099,2072,2068,2053,1197
2021,1710926474821644524,2054,2049,2053,2041,2049,2054,1196
2022,1710926474831646852,2056,2061,2034,2051,2043,2045,1192
2023,1710926474841651022,2062,2049,2052,2050,2059,2052,1195
2024,1710926474851652038,2055,2047,2041,2058,2076,2054,1195
2025,1710926474861655147,2052,2072,2060,2053,2082,2045,1194
2026,1710926474871652826,2064,2063,2074,2077,2038,2055,1194
2027,1710926474881671455,2057,2042,2040,2054,2054,2054,1194
2028,1710926474891670397,2069,2072,2100,2059,2056,2056,1195
2029,1710926474901676642,2056,2067,2064,2062,2053,2057,1194
2030,1710926474911652068,2049,2042,2029,2016,2064,2052,1194
2031,1710926474921655238,2056,2056,2072,2060,2040,2041,1191
2032,1710926474931652997,2060,2068,2081,2072,2064,2045,1192
2033,1710926474941651037,2060,2085,2052,2060,2067,2059,1196
2034,1710926474951688041,2067,2050,2031,2056,2053,2046,1192
2035,1710926474961677604,2046,2029,2041,2047,2044,2052,1194
2036,1710926474971652139,2060,2050,2079,2046,2044,2049,1194
2037,1710926474981663374,2057,2057,2059,2060,2068,2055,1194
2038,1710926474992420412,2060,2059,2076,2067,2064,2061,1198
2039,1710926475001601654,2057,2085,2064,2053,2048,2056,1196
2040,1710926475011657834,2044,2035,1991,2045,2050,2040,1193
2041,1710926475021655312,2052,2045,2040,2047,2072,2063,1195
2042,1710926475031653082,2056,2058,2057,2047,2058,2056,1196
2043,1710926475041652284,2067,2078,2053,2056,2064,2066,1195
2044,1710926475051649993,2047,2034,1996,2057,2078,2060,1194
2045,1710926475061647662,2056,2049,2047,2048,2053,2058,1196
2046,1710926475071645351,2056,2050,2010,2065,2058,2046,1192
2047,1710926475081649963,2053,2075,2169,2056,2046,2056,1194
2048,1710926475091650247,2057,2056,2041,2028,2045,2053,1195
2049,1710926475101643969,2053,2045,2052,2060,2050,2052,1196
2050,1710926475111641598,2047,2057,2030,2055,2060,2037,1193
2051,1710926475121646150,2044,2052,2047,2063,2061,2056,1195
2052,1710926475131644539,2061,2052,2049,2055,2047,2052,1196
2053,1710926475141647769,2057,2080,2038,2000,2027,2050,1195
2054,1710926475151653233,2053,2043,2008,2060,2078,2046,1192
2055,1710926475161647356,2045,2044,2056,2033,2044,2048,1197
2056,1710926475171642700,2054,2044,2047,2053,2056,2051,1197
2057,1710926475181654395,2049,2051,2056,2048,2022,2049,1196
2058,1710926475191653387,2052,2048,2029,2052,2056,2052,1196
2059,1710926475201666095,2047,2054,2047,2057,2052,2056,1193
2060,1710926475211645700,2060,2059,2052,2061,2054,2052,1195
2061,1710926475221644892,2053,2057,2084,2078,2064,2050,1194
2062,1710926475231644984,2048,2045,2040,2044,2056,2043,1191
2063,1710926475241642794,2058,2060,2088,2052,2053,2054,1193
2064,1710926475251633800,2065,2041,1984,2062,2057,2051,1196
2065,1710926475261668009,2062,2085,2042,2072,2037,2061,1196
2066,1710926475271652954,2063,2052,2048,2055,2047,2050,1192
2067,1710926475281663456,2059,2053,2066,2043,2035,2046,1192
2068,1710926475291651287,2065,2065,2081,2057,2030,2052,1196
2069,1710926475301661460,2059,2063,2079,2064,2046,2057,1195
2070,1710926475311648539,2071,2068,2074,2078,2055,2060,1196
2071,1710926475321648032,2058,2049,2035,2075,2060,2063,1196
2072,1710926475331645600,2050,2052,2016,2046,2015,2041,1194
2073,1710926475341650633,2051,2084,2056,2065,2052,2049,1195
2074,1710926475351646979,2045,2042,2016,2060,2028,2049,1196
2075,1710926475361652554,2053,2056,2022,2054,2050,2056,1195
2076,1710926475371648379,2051,2043,2021,2062,2050,2049,1196
2077,1710926475381662428,2058,2067,2136,2039,2044,2054,1194
2078,1710926475391651241,2045,2052,2052,2053,2014,2046,1194
2079,1710926475401651605,2054,2069,2047,2050,2054,2054,1195
2080,1710926475411646950,2054,2044,2036,2054,2069,2053,1195
2081,1710926475421650260,2050,2037,2028,2059,2046,2052,1193
2082,1710926475431650072,2060,2076,2130,2041,2057,2054,1197
2083,1710926475441618736,2048,2040,2041,2024,2029,2056,1194
2084,1710926475451647444,2052,2045,2049,2062,2062,2052,1195
2085,1710926475461645865,2057,2044,2059,2056,2058,2059,1194
2086,1710926475471648624,2048,2056,2048,2056,2064,2048,1195
2087,1710926475481615053,2058,2056,2081,2056,2056,2058,1196
2088,1710926475491647568,2056,2045,2044,2066,2056,2053,1197
2089,1710926475501650387,2056,2044,2056,2059,2052,2055,1194
2090,1710926475511651503,2058,2058,2045,2021,2050,2058,1194
2091,1710926475521649022,2051,2072,2088,2031,2036,2039,1193
2092,1710926475531648975,2061,2068,2050,2052,2075,2054,1193
2093,1710926475541646192,2050,2044,2049,2073,2046,2052,1195
2094,1710926475551644914,2048,2046,2032,2066,2069,2041,1191
2095,1710926475561651440,2060,2060,2034,2064,2060,2056,1198
2096,1710926475571647095,2054,2040,2000,2064,2086,2061,1196
2097,1710926475581645476,2057,2054,2056,2060,2068,2051,1194
2098,1710926475591651950,2054,2072,2033,2062,2060,2052,1195
2099,1710926475601652285,2062,2049,2023,2067,2050,2060,1192
2100,1710926475611645445,2059,2077,2076,2050,2057,2053,1194
2101,1710926475621643195,2057,2052,2061,2050,2039,2046,1194
2102,1710926475631645523,2068,2093,2130,2068,2068,2045,1194
2103,1710926475641644614,2050,2041,2041,2053,2058,2052,1194
2104,1710926475651649867,2051,2056,2058,2065,2063,2054,1196
2105,1710926475661645843,2057,2062,2098,2056,2063,2060,1197
2106,1710926475671644474,2046,2042,2037,2035,2042,2050,1195
2107,1710926475681653004,2056,2050,2049,2047,2060,2057,1195
2108,1710926475691675429,2051,2052,2120,2059,2056,2050,1194
2109,1710926475701671435,2056,2058,2059,2082,2094,2056,1195
2110,1710926475711653986,2045,2039,2028,2049,2046,2044,1193
2111,1710926475721651845,2064,2053,2177,2028,2065,2058,1193
2112,1710926475731646228,2053,2033,2018,2033,2062,2057,1195
2113,1710926475741657672,2061,2052,2034,2041,2038,2042,1193
2114,1710926475751648699,2056,2058,2029,2050,2060,2052,1194
2115,1710926475761651638,2056,2048,2027,2030,2050,2054,1196
2116,1710926475771646953,2062,2066,2080,2062,2057,2047,1192
2117,1710926475781648049,2052,2048,2070,2053,2058,2047,1194
2118,1710926475791676665,2064,2085,2071,2076,2056,2051,1196
2119,1710926475801651892,2057,2049,2049,2088,2051,2050,1195
2120,1710926475811650132,2046,2038,1995,2047,2050,2043,1192
2121,1710926475821657330,2052,2040,2028,2052,2039,2051,1196
2122,1710926475831649629,2050,2044,2041,2048,2056,2051,1196
2123,1710926475841648559,2026,2039,2058,2058,2053,2045,1193
2124,1710926475851657119,2057,2054,2040,2029,2044,2050,1196
2125,1710926475861653496,2053,2060,2091,2066,2063,2053,1194
2126,1710926475871649251,2054,2050,2016,2052,2043,2045,1193
2127,1710926475881674403,2044,2037,2034,2048,2043,2050,1196
2128,1710926475891664817,2060,2059,2076,2089,2073,2066,1195
2129,1710926475901660232,2061,2062,2094,2065,2050,2051,1194
2130,1710926475911682678,2068,2060,2057,2064,2066,2058,1192
2131,1710926475921646533,2057,2045,2064,2050,2060,2060,1194
2132,1710926475931654282,2058,2061,2062,2046,2043,2050,1193
2133,1710926475941648624,2048,2037,2080,2067,2035,2052,1194
2134,1710926475951646763,2052,2033,2048,2046,2044,2052,1196
2135,1710926475961684539,2051,2042,2058,2056,2057,2049,1195
2136,1710926475971645098,2072,2101,2164,2048,2036,2055,1196
2137,1710926475981678845,2053,2064,2092,2072,2052,2057,1196
2138,1710926475991653490,2060,2059,2030,2072,2056,2051,1196
2139,1710926476001671397,2055,2047,2049,2042,2038,2058,1197
2140,1710926476011653266,2064,2063,2096,2059,2048,2057,1196
2141,1710926476021644814,2049,2075,2060,2050,2052,2050,1195
2142,1710926476031654566,2052,2060,2098,2044,2045,2047,1192
2143,1710926476041650832,2056,2043,2029,2065,2048,2054,1197
2144,1710926476051648401,2051,2040,2019,2057,2048,2051,1195
2145,1710926476061671207,2056,2067,2099,2044,2072,2052,1196
2146,1710926476071680619,2057,2084,2053,2052,2038,2051,1193
2147,1710926476081642170,2060,2047,2051,2050,2061,2060,1196
2148,1710926476091652041,2053,2062,2028,2044,2045,2042,1193
2149,1710926476101648338,2047,2044,2009,2079,2057,2049,1194
2150,1710926476111656687,2064,2057,2077,2020,2068,2057,1194
2151,1710926476121664876,2056,2054,2057,2042,2052,2056,1195
2152,1710926476131669207,2042,2009,2031,2049,2048,2044,1194
2153,1710926476141657278,2052,2038,2054,2046,2058,2059,1195
2154,1710926476151655178,2053,2047,2033,2041,2058,2050,1194
2155,1710926476161648719,2049,2074,2052,2042,2047,2048,1195
2156,1710926476171654593,2057,2053,2051,2062,2056,2054,1197
2157,1710926476181652502,2059,2050,2069,2050,2045,2056,1196
2158,1710926476191649360,2045,2044,2036,2048,1997,2039,1193
2159,1710926476201644524,2056,2060,2053,2012,2048,2064,1195
2160,1710926476211648686,2048,2046,2051,2052,2051,2045,1193
2161,1710926476221662545,2069,2062,2062,2072,2040,2068,1196
2162,1710926476231647129,2068,2073,2129,2088,2070,2064,1197
2163,1710926476241649537,2053,2060,2060,2044,2046,2050,1194
2164,1710926476251644762,2058,2051,2031,2040,2065,2059,1195
2165,1710926476261649965,2061,2097,2090,2052,2047,2058,1195
2166,1710926476271652412,2057,2060,2068,2046,2028,2045,1192
2167,1710926476281644671,2062,2064,2112,2062,2093,2051,1193
2168,1710926476291645136,2056,2050,2054,2056,2060,2050,1195
2169,1710926476301683342,2056,2053,2036,2057,2060,2052,1196
2170,1710926476311653468,2050,2060,2106,2047,2045,2049,1196
2171,1710926476321662308,2038,2034,2028,2046,2036,2050,1196
2172,1710926476331660559,2056,2082,2064,2064,2056,2050,1195
2173,1710926476341653088,2057,2053,2035,2053,2045,2049,1196
2174,1710926476351649814,2053,2058,2076,2048,2061,2056,1193
2175,1710926476361650760,2054,2048,2064,2070,2052,2052,1194
2176,1710926476371651715,2066,2065,2114,2076,2051,2042,1193
2177,1710926476381670024,2052,2020,2045,2057,2034,2049,1195
2178,1710926476391647003,2060,2032,2017,2070,2064,2068,1197
2179,1710926476401649020,2052,2054,2038,2045,2045,2046,1192
2180,1710926476411649394,2053,2064,2096,2056,2050,2054,1195
2181,1710926476421674165,2060,2036,2002,2053,2028,2046,1192
2182,1710926476431650173,2053,2038,1982,2036,2053,2049,1195
2183,1710926476441651147,2065,2056,2042,2076,2068,2060,1195
2184,1710926476451654137,2064,2090,2082,2066,2063,2046,1192
2185,1710926476461659390,2045,2043,2048,2028,2056,2050,1196
2186,1710926476471654665,2052,2048,2035,2061,2059,2044,1189
2187,1710926476481683443,2060,2056,2093,2066,2053,2048,1196
2188,1710926476491652978,2056,2046,2020,2077,2053,2053,1193
2189,1710926476501653072,2057,2068,2075,2081,2066,2056,1195
2190,1710926476511653125,2060,2068,2066,2051,2064,2058,1195
2191,1710926476521658649,2052,2043,2047,2050,2048,2052,1196
2192,1710926476531657179,2056,2050,2051,2074,2059,2060,1194
2193,1710926476541633187,2041,2035,2016,2042,2038,2042,1193
2194,1710926476551654521,2050,2038,2023,2048,2077,2052,1193
2195,1710926476561655266,2056,2041,2038,2026,2040,2060,1196
2196,1710926476571655801,2052,2050,2036,2056,2052,2052,1196
2197,1710926476581656064,2062,2053,2046,2067,2061,2064,1195
2198,1710926476591656128,2060,2054,2025,2068,2051,2059,1198
2199,1710926476601656642,2051,2053,2064,2069,2056,2047,1192
2200,1710926476611656907,2058,2050,2056,2047,2060,2045,1195
2201,1710926476621657841,2052,2056,2056,2052,2048,2050,1195
2202,1710926476631658496,2058,2081,2074,2072,2079,2043,1193
2203,1710926476641656015,2054,2049,2040,2052,2052,2060,1194
2204,1710926476651657661,2043,2048,2044,2047,2062,2052,1196
2205,1710926476661657775,2056,2050,2028,2071,2058,2056,1194
2206,1710926476671658339,2064,2052,2045,2044,2065,2049,1194
2207,1710926476681658683,2062,2060,2038,2036,2029,2040,1192
2208,1710926476691659649,2057,2035,2020,2060,2040,2056,1195
2209,1710926476701676023,2060,2050,2073,2067,2053,2052,1196
2210,1710926476711664314,2052,2050,2034,2040,2054,2052,1197
2211,1710926476721643017,2049,2051,2051,2055,2056,2047,1192
2212,1710926476731652579,2056,2058,2062,2057,2056,2048,1194
