seq,time,data[0],data[1],data[2],data[3],data[4],data[5],data[6]
201,1711441335002635587,2052,2053,2078,2052,2050,2045,1194
202,1711441335012647996,2056,2058,2046,2048,2058,2057,1197
203,1711441335022635924,2051,2046,2038,2047,2056,2056,1197
204,1711441335032636258,2057,2057,2072,2049,2047,2058,1196
205,1711441335042637093,2053,2054,2045,2058,2066,2056,1196
206,1711441335052635053,2059,2056,2059,2079,2054,2056,1197
207,1711441335062634425,2052,2045,2046,2064,2042,2047,1194
208,1711441335072636953,2070,2066,2068,2070,2060,2060,1198
209,1711441335082635113,2053,2057,2092,2036,2054,2049,1197
210,1711441335092635086,2053,2042,2026,2053,2057,2057,1197
211,1711441335102634037,2050,2054,2040,2059,2052,2053,1196
212,1711441335112634761,2050,2050,2044,2069,2057,2043,1193
213,1711441335122638442,2052,2048,2036,2050,2056,2056,1196
214,1711441335132633425,2056,2058,2078,2046,2061,2056,1195
215,1711441335142635212,2057,2052,2052,2080,2063,2052,1197
216,1711441335152635967,2051,2056,2053,2062,2052,2051,1195
217,1711441335162640870,2048,2047,2060,2077,2060,2052,1196
218,1711441335172639130,2052,2056,2055,1989,2058,2057,1196
219,1711441335182639985,2044,2073,2056,2061,2050,2048,1196
220,1711441335192641661,2058,2063,2080,2058,2052,2050,1196
221,1711441335202642536,2050,2045,2043,2058,2055,2052,1196
222,1711441335212643571,2054,2045,2032,2052,2047,2047,1195
223,1711441335222645228,2065,2108,2156,2076,2065,2058,1194
224,1711441335232645692,2057,2044,2022,2063,2032,2053,1196
225,1711441335242644303,2051,2052,2040,2056,2042,2053,1195
226,1711441335252645108,2061,2056,2024,2082,2059,2053,1197
227,1711441335262628118,2050,2033,2020,2058,2046,2046,1192
228,1711441335272661006,2064,2055,2050,2056,2056,2056,1195
229,1711441335282631650,2056,2052,2053,2050,2027,2045,1193
230,1711441335292633257,2061,2079,2074,2060,2047,2056,1197
231,1711441335302636577,2053,2049,2042,2056,2042,2045,1191
232,1711441335312636981,2056,2051,2027,2047,2056,2056,1196
233,1711441335322660521,2053,2054,2059,2059,2049,2052,1197
234,1711441335332658650,2052,2050,2025,2061,2053,2056,1198
235,1711441335342636069,2048,2056,2038,2054,2054,2050,1198
236,1711441335352637395,2054,2057,2058,2065,2053,2054,1197
237,1711441335362635263,2053,2051,2056,2059,2056,2049,1195
238,1711441335372665646,2053,2050,2045,2053,2051,2049,1194
239,1711441335382629999,2056,2064,2038,2072,2066,2053,1195
240,1711441335392644692,2058,2060,2088,2003,2064,2060,1196
241,1711441335402628493,2052,2053,2053,2060,2053,2054,1198
242,1711441335412641372,2055,2056,2041,2059,2050,2042,1195
243,1711441335422642357,2064,2056,2030,2047,2047,2047,1193
244,1711441335432642842,2053,2059,2077,2028,2053,2057,1198
245,1711441335442630761,2052,2047,2045,2055,2036,2052,1199
246,1711441335452635052,2058,2056,2059,2057,2057,2056,1198
247,1711441335462632981,2047,2057,2086,2060,2052,2047,1195
248,1711441335472656230,2054,2044,2011,2054,2050,2052,1197
249,1711441335482635302,2056,2058,2064,2033,2053,2052,1196
250,1711441335492640015,2062,2064,2064,2084,2071,2056,1196
251,1711441335502636682,2050,2032,1985,2074,2059,2051,1196
252,1711441335512676594,2054,2048,2038,2063,2051,2052,1197
253,1711441335522633753,2059,2056,2061,2030,2053,2051,1197
254,1711441335532637252,2053,2050,2044,2028,2046,2053,1195
255,1711441335542637566,2054,2050,2053,2072,2057,2057,1196
256,1711441335552634784,2060,2064,2075,2062,2056,2059,1196
257,1711441335562637523,2049,2042,2007,2036,2048,2049,1196
258,1711441335572688026,2053,2059,2061,1961,2043,2052,1196
259,1711441335582635606,2058,2052,2036,2057,2057,2056,1196
260,1711441335592635950,2049,2045,2032,2053,2052,2057,1195
261,1711441335602634640,2052,2053,2056,2056,2057,2053,1197
262,1711441335612634663,2053,2058,2120,2041,2050,2054,1196
263,1711441335622655217,2053,2050,2040,2070,2058,2053,1196
264,1711441335632662885,2053,2061,2089,2061,2053,2054,1196
265,1711441335642640033,2056,2056,2027,2072,2074,2056,1197
266,1711441335652638965,2056,2047,1991,2037,2056,2052,1197
267,1711441335662655190,2049,2060,2113,2043,2058,2054,1197
268,1711441335672666205,2053,2040,1988,1968,2045,2045,1193
269,1711441335682640007,2051,2049,2045,2076,2058,2056,1199
270,1711441335692643467,2053,2040,2026,2056,2047,2057,1197
271,1711441335702644772,2056,2039,2026,2078,2062,2054,1194
272,1711441335712647130,2054,2053,2073,2060,2054,2053,1193
273,1711441335722694827,2056,2058,2032,2012,2053,2056,1196
274,1711441335732640614,2054,2052,2049,2063,2053,2053,1195
275,1711441335742635287,2049,2053,2057,2059,2056,2056,1197
276,1711441335752639749,2057,2064,2058,2060,2052,2060,1196
277,1711441335762636035,2056,2036,2002,2043,2049,2050,1195
278,1711441335772659144,2052,2046,2062,2084,2051,2050,1196
279,1711441335782639928,2048,2047,2033,2061,2050,2053,1194
280,1711441335792632868,2070,2064,2099,2070,2059,2056,1196
281,1711441335802637420,2051,2037,2027,2077,2049,2051,1197
282,1711441335812634868,2054,2047,2086,2040,2047,2053,1197
283,1711441335822637497,2054,2043,2040,2058,2054,2048,1196
284,1711441335832643662,2056,2052,2057,2053,2052,2056,1197
285,1711441335842640249,2056,2057,2039,2072,2052,2049,1196
286,1711441335852636415,2062,2070,2128,2032,2051,2054,1196
287,1711441335862638502,2054,2047,2000,2038,2054,2054,1193
288,1711441335872646350,2061,2053,2028,2041,2052,2053,1196
289,1711441335882643438,2054,2052,2051,2061,2053,2054,1196
290,1711441335892640746,2060,2064,2093,2069,2056,2054,1196
291,1711441335902638905,2056,2061,2092,2070,2055,2053,1193
292,1711441335912647927,2054,2057,2026,2002,2032,2040,1193
293,1711441335922648701,2056,2053,2041,2051,2048,2050,1195
294,1711441335932627022,2057,2056,2025,2050,2056,2053,1193
295,1711441335942646734,2055,2054,2061,2052,2060,2053,1195
296,1711441335952637869,2054,2042,2006,2140,2055,2052,1194
297,1711441335962634486,2045,2017,1946,2092,2043,2045,1194
298,1711441335972659969,2052,2048,2018,2068,2042,2050,1195
299,1711441335982642428,2050,2042,1997,2085,2008,2034,1192
300,1711441335992646179,2055,2047,2028,2101,2051,2054,1194
301,1711441336002634018,2050,2044,2005,2076,2037,2052,1195
302,1711441336012645042,2052,2038,2045,2030,2036,2053,1198
303,1711441336022643670,2043,2045,2046,2058,2081,2047,1192
304,1711441336032631807,2050,2052,2058,2013,2044,2053,1195
305,1711441336042635846,2056,2053,2056,2048,2062,2052,1197
306,1711441336052635457,2048,2042,2036,1977,2049,2048,1196
307,1711441336062636189,2047,2064,2010,2034,2052,2052,1197
308,1711441336072667161,2051,2045,1953,2015,2052,2049,1195
309,1711441336082640388,2049,2044,2049,2033,2050,2056,1194
310,1711441336092638155,2053,2050,2074,2055,2043,2053,1194
311,1711441336102630762,2048,2044,2027,2070,2050,2044,1192
312,1711441336112631404,2056,2059,2089,2055,2056,2052,1197
313,1711441336122635703,2053,2057,2056,2072,2057,2057,1196
314,1711441336132638098,2060,2056,2057,2062,2076,2060,1194
315,1711441336142638219,2057,2060,2087,2031,2049,2051,1196
316,1711441336152633591,2058,2051,2043,2069,2052,2055,1195
317,1711441336162641367,2049,2040,2042,2061,2050,2053,1197
318,1711441336172652931,2064,2072,2145,2055,2065,2068,1197
319,1711441336182644965,2050,2024,2047,2053,2060,2059,1195
320,1711441336192636310,2064,2044,2052,2069,2058,2059,1196
321,1711441336202633776,2054,2056,2064,2080,2056,2054,1197
322,1711441336212636852,2056,2050,2046,2056,2056,2061,1196
323,1711441336222650269,2047,2049,2056,2051,2052,2053,1196
324,1711441336232631894,2056,2048,2057,2041,2052,2053,1195
325,1711441336242638909,2058,2053,2116,2058,2053,2052,1197
326,1711441336252642978,2057,2049,2045,2081,2057,2058,1197
327,1711441336262645223,2050,2085,2070,2042,2024,2050,1197
328,1711441336272698398,2058,2064,2134,2057,2056,2056,1194
329,1711441336282637228,2059,2058,2052,2066,2050,2059,1196
330,1711441336292643212,2047,2042,2047,2073,2046,2056,1196
331,1711441336302645707,2060,2065,2078,2061,2061,2054,1194
332,1711441336312645527,2062,2056,2052,2065,2056,2057,1195
333,1711441336322658784,2060,2053,2041,2092,2057,2053,1196
334,1711441336332652753,2058,2048,2000,2051,2051,2053,1195
335,1711441336342650490,2052,2041,2029,2009,2049,2050,1198
336,1711441336352650952,2061,2067,2104,2070,2069,2054,1198
337,1711441336362634349,2049,2044,2037,2065,2062,2055,1196
338,1711441336372669700,2051,2039,2024,2050,2054,2054,1196
339,1711441336382633389,2049,2060,2072,2092,2048,2052,1197
340,1711441336392636667,2057,2066,2045,2056,2052,2052,1195
341,1711441336402632449,2050,2047,2040,2061,2056,2049,1197
342,1711441336412632420,2042,2036,2013,2050,2056,2054,1195
343,1711441336422678711,2050,2046,2056,2056,2044,2053,1196
344,1711441336432632060,2056,2056,2063,2045,2049,2052,1196
345,1711441336442641601,2054,2049,2025,2060,2056,2060,1196
346,1711441336452636060,2054,2056,2050,2068,2054,2050,1196
347,1711441336462638886,2054,2064,2023,2062,2053,2052,1196
348,1711441336472671692,2061,2059,2054,2058,2058,2056,1195
349,1711441336482652174,2056,2052,2056,2056,2058,2056,1197
350,1711441336492623669,2060,2055,2058,2057,2058,2058,1196
351,1711441336502638329,2052,2042,2028,2050,2050,2052,1195
352,1711441336512633951,2056,2067,2050,2068,2052,2056,1196
353,1711441336522637438,2064,2075,2105,2089,2058,2057,1197
354,1711441336532646717,2057,2045,2032,2070,2056,2053,1197
355,1711441336542631959,2060,2056,2076,2095,2048,2042,1192
356,1711441336552639655,2053,2053,2056,2040,2063,2056,1197
357,1711441336562635918,2052,2046,2042,2056,2051,2052,1196
358,1711441336572657562,2050,2052,2053,2062,2054,2052,1194
359,1711441336582635369,2061,2068,2094,2050,2059,2049,1196
360,1711441336592635080,2056,2060,2066,2068,2056,2058,1196
361,1711441336602638046,2049,2052,2034,2076,2053,2047,1193
362,1711441336612634039,2061,2073,2100,2074,2066,2072,1196
363,1711441336622652676,2052,2047,2037,2061,2033,2056,1196
364,1711441336632649842,2060,2058,2041,2046,2060,2056,1198
365,1711441336642637749,2053,2051,2046,2024,2049,2052,1196
366,1711441336652636467,2049,2056,2052,2057,2054,2053,1197
367,1711441336662644754,2059,2060,2082,2048,2057,2058,1196
368,1711441336672652530,2049,2043,2031,2069,2052,2044,1194
369,1711441336682642731,2056,2046,2048,2074,2049,2054,1197
370,1711441336692628194,2054,2047,1992,2054,2049,2040,1194
371,1711441336702639387,2058,2060,2083,2082,2069,2061,1194
372,1711441336712639237,2047,2050,2044,2041,2050,2051,1198
373,1711441336722657003,2050,2048,2048,2061,2052,2052,1195
374,1711441336732640291,2052,2051,2046,2048,2054,2050,1198
375,1711441336742656414,2060,2057,2036,1977,2054,2058,1196
376,1711441336752640763,2055,2052,2053,2065,2064,2059,1195
377,1711441336762643349,2055,2049,2031,2037,2053,2058,1196
378,1711441336772681335,2060,2064,2120,2047,2050,2057,1197
379,1711441336782639053,2050,2041,2027,2073,2059,2056,1195
380,1711441336792650917,2058,2060,2065,2073,2049,2056,1194
381,1711441336802649414,2048,2050,2058,2058,2052,2049,1196
382,1711441336812634876,2061,2082,2204,2068,2058,2060,1197
383,1711441336822652682,2048,2042,2001,2037,2056,2053,1193
384,1711441336832641251,2054,2052,2060,2044,2054,2052,1194
385,1711441336842641893,2054,2050,2055,2047,2058,2062,1195
386,1711441336852634088,2050,2059,2081,2020,2046,2061,1196
387,1711441336862632796,2051,2050,2051,2070,2061,2054,1196
388,1711441336872655872,2056,2053,2047,2025,2054,2051,1194
389,1711441336882645283,2056,2048,2037,1968,2048,2052,1197
390,1711441336892641687,2051,2045,2036,2053,2054,2054,1195
391,1711441336902634573,2054,2049,2025,2066,2056,2049,1196
392,1711441336912635676,2053,2052,2049,2069,2053,2053,1194
393,1711441336922637701,2055,2057,2053,2068,2056,2056,1196
394,1711441336932639836,2061,2053,2037,2068,2049,2053,1196
395,1711441336942639406,2054,2064,2141,2060,2054,2053,1194
396,1711441336952635529,2052,2057,2065,2078,2058,2049,1195
397,1711441336962636983,2052,2058,2024,2046,2057,2053,1195
398,1711441336972649588,2053,2042,2008,2057,2048,2048,1197
399,1711441336982635201,2053,2052,2046,2053,2054,2047,1195
400,1711441336992637106,2044,2041,2008,2010,2050,2049,1197
401,1711441337002635733,2056,2051,2049,2035,2048,2050,1197
402,1711441337012633508,2056,2052,2057,2053,2073,2056,1194
403,1711441337022649779,2055,2056,2052,2046,2045,2052,1196
404,1711441337032638544,2057,2065,2080,2064,2047,2048,1197
405,1711441337042635918,2052,2046,2010,2088,2060,2054,1196
406,1711441337052636307,2057,2050,2044,2066,2056,2056,1195
407,1711441337062640223,2054,2053,2028,2061,2054,2051,1197
408,1711441337072645332,2054,2046,2040,2072,2046,2033,1194
409,1711441337082656662,2063,2074,2103,2076,2068,2065,1197
410,1711441337092633044,2053,2047,2032,2053,2056,2056,1196
411,1711441337102633173,2053,2060,2064,2047,2056,2054,1194
412,1711441337112632660,2061,2082,2172,2065,2056,2059,1196
413,1711441337122630103,2052,2042,2029,2049,2061,2050,1197
414,1711441337132643839,2053,2045,2028,2021,2054,2055,1196
415,1711441337142635691,2054,2054,2042,2052,2044,2047,1194
416,1711441337152629057,2058,2059,2045,2072,2052,2049,1198
417,1711441337162639235,2050,2038,1980,2047,2056,2053,1195
418,1711441337172668591,2058,2061,2075,2048,2056,2056,1194
419,1711441337182642799,2050,2043,2031,2014,2047,2037,1195
420,1711441337192631274,2050,2046,2048,2056,2058,2054,1195
421,1711441337202632966,2051,2044,2029,2051,2050,2047,1192
422,1711441337212630750,2057,2054,2037,2050,2056,2056,1196
423,1711441337222634136,2058,2056,2047,2001,2048,2053,1197
424,1711441337232636969,2069,2082,2205,2072,2057,2054,1197
425,1711441337242629654,2051,2042,1982,2002,2057,2058,1194
426,1711441337252632096,2060,2064,2104,2073,2059,2056,1195
427,1711441337262636834,2058,2062,2082,2065,2050,2033,1193
428,1711441337272628355,2052,2047,2021,1994,2057,2056,1199
429,1711441337282631250,2063,2072,2090,2059,2041,2050,1199
430,1711441337292632140,2056,2053,2056,2050,2056,2046,1194
431,1711441337302634834,2053,2054,2031,2058,2053,2057,1194
432,1711441337312631445,2054,2051,2035,2056,2046,2056,1197
433,1711441337322655080,2056,2052,2028,2065,2052,2056,1197
434,1711441337332644599,2053,2049,2028,2001,2049,2050,1197
435,1711441337342638304,2045,2047,2049,2070,2049,2047,1193
436,1711441337352639696,2056,2053,2048,2064,2049,2054,1197
437,1711441337362657308,2052,2051,2052,2048,2053,2052,1196
438,1711441337372647608,2056,2063,2097,2050,2056,2056,1197
439,1711441337382659760,2053,2056,2050,2078,2056,2056,1196
440,1711441337392651552,2060,2047,2042,2057,2054,2056,1195
441,1711441337402652582,2053,2047,2066,2057,2057,2057,1196
442,1711441337412652762,2056,2053,2048,2056,2061,2063,1199
443,1711441337422667899,2055,2050,2021,2008,2052,2064,1197
444,1711441337432653640,2062,2060,2044,2112,2064,2061,1196
445,1711441337442655532,2043,2038,2032,2052,2050,2044,1193
446,1711441337452656312,2056,2056,2053,2064,2045,2046,1194
447,1711441337462661100,2050,2046,2048,2054,2057,2052,1196
448,1711441337472675386,2064,2060,2045,2058,2050,2045,1192
449,1711441337482638732,2049,2045,2023,2046,2052,2050,1197
450,1711441337492636045,2053,2056,2004,2078,2056,2052,1195
451,1711441337502630403,2050,2049,2038,1975,2051,2052,1197
452,1711441337512627385,2058,2053,2046,2070,2056,2053,1195
453,1711441337522628145,2061,2057,2089,2053,2050,2054,1196
454,1711441337532624095,2061,2059,2068,2066,2058,2056,1196
455,1711441337542627912,2052,2046,2036,2036,2048,2053,1195
456,1711441337552630905,2044,2037,2012,2056,2038,2052,1198
457,1711441337562630012,2053,2045,2007,2004,2050,2048,1195
458,1711441337572653627,2058,2053,2062,2035,2049,2053,1196
459,1711441337582628596,2060,2045,2006,2065,2054,2054,1196
460,1711441337592640087,2056,2045,2013,2055,2056,2053,1196
461,1711441337602635176,2048,2045,2037,2014,2047,2048,1196
462,1711441337612636217,2055,2048,2033,2064,2056,2053,1197
463,1711441337622638269,2069,2073,2074,2069,2064,2060,1196
464,1711441337632614581,2056,2054,2078,2080,2056,2053,1196
465,1711441337642642905,2060,2056,2038,2080,2048,2054,1195
466,1711441337652629697,2050,2053,2053,2066,2052,2056,1197
467,1711441337662624996,2054,2056,2056,2074,2057,2056,1197
468,1711441337672636758,2056,2061,2096,2088,2063,2060,1198
469,1711441337682641585,2050,2043,2020,2056,2056,2058,1197
470,1711441337692641755,2051,2052,2053,2072,2054,2048,1196
471,1711441337702635871,2059,2056,2067,2058,2072,2059,1193
472,1711441337712635178,2053,2048,2012,2052,2057,2045,1193
473,1711441337722642411,2053,2053,2025,2025,2044,2055,1195
474,1711441337732635796,2056,2065,2088,2067,2053,2054,1197
475,1711441337742630734,2054,2050,2024,2030,2045,2049,1196
476,1711441337752632466,2064,2052,2016,2056,2053,2054,1196
477,1711441337762634408,2060,2056,2043,2077,2056,2053,1196
478,1711441337772648695,2048,2050,2037,2064,2046,2052,1197
479,1711441337782634446,2052,2046,2036,2098,2051,2049,1197
480,1711441337792637309,2060,2056,2075,2058,2046,2049,1195
481,1711441337802642458,2052,2049,2023,2081,2057,2056,1194
482,1711441337812638849,2053,2047,2016,2070,2047,2043,1196
483,1711441337822654138,2060,2054,2058,2077,2056,2048,1196
484,1711441337832630639,2055,2048,2034,2059,2053,2054,1196
485,1711441337842647181,2053,2050,2073,2026,2053,2051,1196
486,1711441337852648481,2074,2088,2152,2078,2061,2064,1195
487,1711441337862651396,2053,2050,2045,2065,2060,2046,1193
488,1711441337872670832,2050,2042,2037,2037,2049,2053,1197
489,1711441337882652645,2056,2075,2158,2090,2068,2056,1194
490,1711441337892633176,2052,2042,2028,2068,2060,2056,1197
491,1711441337902639165,2050,2050,2035,2049,2051,2049,1195
492,1711441337912637491,2056,2050,2040,2054,2047,2053,1196
493,1711441337922640485,2050,2053,2036,2064,2052,2045,1193
494,1711441337932642347,2056,2067,2120,2073,2052,2053,1194
495,1711441337942645351,2056,2053,2044,2046,2050,2054,1196
496,1711441337952639859,2056,2053,2046,2056,2053,2057,1194
497,1711441337962642432,2052,2056,2061,2044,2054,2053,1195
498,1711441337972641369,2050,2039,2017,2032,2050,2049,1197
499,1711441337982630325,2056,2047,2020,1948,2044,2051,1197
500,1711441337992634943,2055,2047,2025,2053,2047,2052,1196
501,1711441338002641063,2052,2045,2042,2047,2054,2053,1198
502,1711441338012634586,2054,2040,2009,2053,2055,2054,1197
503,1711441338022652398,2046,2045,2040,2058,2050,2046,1197
504,1711441338032636482,2049,2056,2057,2069,2050,2054,1198
505,1711441338042633683,2056,2047,2037,1982,2051,2041,1192
506,1711441338052631074,2061,2057,2054,2089,2058,2058,1197
507,1711441338062638694,2048,2044,2021,2087,2049,2053,1197
508,1711441338072640073,2057,2046,2018,2064,2053,2053,1197
509,1711441338082638005,2060,2049,2016,2052,2057,2049,1197
510,1711441338092638973,2057,2052,2044,2064,2047,2048,1197
511,1711441338102643418,2052,2046,2030,2058,2054,2051,1194
512,1711441338112637442,2045,2040,2005,2050,2046,2047,1191
513,1711441338122683730,2057,2058,2053,2072,2054,2053,1196
514,1711441338132662093,2051,2051,2077,2022,2048,2050,1196
515,1711441338142628402,2054,2055,2076,2054,2052,2043,1194
516,1711441338152639920,2057,2065,2084,2072,2058,2052,1195
517,1711441338162634917,2053,2048,2049,2065,2054,2053,1196
518,1711441338172662988,2061,2062,2085,2058,2050,2056,1194
519,1711441338182638786,2056,2052,2040,2053,2045,2044,1193
520,1711441338192640846,2058,2054,2053,2073,2056,2052,1195
521,1711441338202640131,2052,2041,2000,2053,2050,2050,1196
522,1711441338212638304,2055,2064,2077,2036,2051,2056,1198
523,1711441338222691865,2060,2059,2056,2052,2049,2057,1196
524,1711441338232644237,2055,2065,2116,2049,2061,2056,1197
525,1711441338242630035,2054,2055,2047,2037,2057,2050,1195
526,1711441338252637365,2056,2051,2045,2058,2056,2058,1196
527,1711441338262633764,2049,2057,2045,2060,2056,2050,1196
528,1711441338272648159,2067,2062,2034,2084,2043,2052,1197
529,1711441338282648155,2048,2045,2023,2044,2044,2043,1196
530,1711441338292664463,2050,2046,2040,2065,2061,2061,1195
531,1711441338302634049,2057,2069,2121,2054,2052,2057,1192
532,1711441338312634876,2059,2056,2069,2072,2066,2058,1197
533,1711441338322635133,2049,2050,2053,2068,2056,2053,1195
534,1711441338332628085,2057,2056,2069,2064,2057,2052,1197
535,1711441338342636407,2056,2057,2121,2046,2053,2052,1196
536,1711441338352641353,2054,2060,2094,2043,2052,2044,1195
537,1711441338362641590,2047,2047,2046,2062,2054,2052,1194
538,1711441338372649752,2052,2068,2116,2090,2058,2052,1194
539,1711441338382636742,2056,2040,2013,1994,2044,2060,1196
540,1711441338392641166,2059,2050,2030,2024,2061,2064,1196
541,1711441338402637074,2052,2057,2056,2048,2054,2050,1197
542,1711441338412638092,2055,2064,2114,2073,2065,2057,1198
543,1711441338422643830,2052,2045,2031,2052,2048,2048,1196
544,1711441338432643074,2060,2058,2047,2069,2054,2055,1195
545,1711441338442640225,2055,2043,1978,2010,2045,2049,1195
546,1711441338452623257,2056,2055,2054,2073,2048,2046,1192
547,1711441338462644625,2050,2049,2036,2076,2052,2053,1194
548,1711441338472646144,2057,2050,2036,2053,2056,2056,1195
549,1711441338482644266,2052,2052,2051,2056,2053,2052,1197
550,1711441338492651396,2057,2069,2079,2030,2057,2053,1196
551,1711441338502654228,2054,2048,2044,2074,2059,2053,1195
552,1711441338512632732,2053,2047,2020,2032,2052,2056,1195
553,1711441338522633820,2056,2072,2091,2076,2056,2051,1194
554,1711441338532647413,2055,2048,2050,2050,2056,2054,1197
555,1711441338542652198,2056,2059,2056,2090,2057,2052,1197
556,1711441338552630801,2062,2056,2064,2104,2057,2059,1195
557,1711441338562642611,2044,2045,2017,2100,2054,2038,1192
558,1711441338572674229,2052,2048,2016,2010,2052,2056,1196
559,1711441338582644727,2049,2047,2038,2052,2050,2052,1195
560,1711441338592664863,2056,2054,2062,2066,2056,2049,1195
561,1711441338602631002,2056,2058,2105,2050,2052,2054,1195
562,1711441338612630457,2051,2046,2040,2051,2053,2052,1199
563,1711441338622632807,2057,2061,2108,2058,2062,2058,1197
564,1711441338632667552,2052,2047,2042,1998,2050,2061,1198
565,1711441338642630034,2052,2053,2047,2057,2056,2053,1197
566,1711441338652643196,2054,2050,2029,2060,2053,2053,1196
567,1711441338662637721,2054,2053,2028,2064,2056,2054,1197
568,1711441338672641164,2059,2065,2101,2057,2057,2053,1197
569,1711441338682645288,2047,2047,2025,2049,2057,2056,1197
570,1711441338692631096,2059,2051,2053,2058,2055,2056,1196
571,1711441338702638216,2052,2054,2048,2046,2052,2052,1194
572,1711441338712636648,2060,2062,2093,2105,2058,2058,1196
573,1711441338722638157,2054,2047,2032,2063,2056,2049,1196
574,1711441338732636761,2057,2056,2069,2074,2067,2056,1195
575,1711441338742654362,2052,2049,2033,2064,2052,2048,1193
576,1711441338752637354,2060,2052,2026,2062,2053,2056,1194
577,1711441338762632421,2052,2045,2009,2048,2053,2060,1196
578,1711441338772636485,2064,2066,2110,2008,2056,2056,1196
579,1711441338782638013,2049,2057,2074,2060,2048,2048,1196
580,1711441338792633750,2056,2053,2042,2073,2059,2056,1197
581,1711441338802644508,2056,2064,2080,2056,2045,2051,1196
582,1711441338812634143,2058,2052,2053,2016,2048,2047,1196
583,1711441338822630803,2058,2073,2140,2053,2058,2054,1198
584,1711441338832634687,2054,2048,2045,2054,2052,2046,1195
585,1711441338842635725,2059,2060,2091,2052,2057,2054,1197
586,1711441338852643366,2060,2045,2005,2081,2054,2057,1198
587,1711441338862640406,2057,2068,2136,2100,2056,2046,1194
588,1711441338872640311,2047,2046,2008,2066,2052,2056,1195
589,1711441338882642311,2056,2044,1984,2056,2062,2053,1196
590,1711441338892632298,2058,2060,2077,2060,2063,2062,1198
591,1711441338902634628,2058,2055,2060,2121,2066,2052,1194
592,1711441338912646007,2057,2056,2055,2081,2049,2050,1196
593,1711441338922644730,2056,2054,2040,2037,2056,2057,1198
594,1711441338932653293,2056,2053,2036,2062,2050,2054,1194
595,1711441338942640504,2052,2052,2064,2056,2050,2052,1196
596,1711441338952639968,2052,2052,2037,2058,2045,2048,1196
597,1711441338962646377,2054,2052,2013,2064,2059,2058,1198
598,1711441338972633397,2058,2049,2043,2056,2057,2053,1195
599,1711441338982632853,2050,2034,2000,2036,2060,2051,1195
600,1711441338992637327,2064,2086,2145,2090,2062,2058,1197
601,1711441339002639648,2055,2048,2046,2052,2051,2053,1198
602,1711441339012634913,2047,2050,2069,2053,2045,2038,1196
603,1711441339022636219,2053,2058,2057,2056,2054,2056,1198
604,1711441339032666812,2055,2054,2056,2056,2053,2058,1197
605,1711441339042636015,2052,2043,2021,2049,2047,2051,1195
606,1711441339052629066,2047,2047,2032,2008,2045,2053,1197
607,1711441339062634981,2052,2061,2104,2074,2060,2057,1198
608,1711441339072633040,2061,2060,2064,2052,2056,2061,1196
609,1711441339082660678,2056,2053,2058,2061,2059,2058,1196
610,1711441339092637276,2056,2047,2040,2052,2045,2054,1198
611,1711441339102634423,2050,2039,2010,2072,2054,2051,1194
612,1711441339112630229,2053,2050,2046,2042,2054,2051,1195
613,1711441339122632216,2053,2052,2039,2046,2057,2049,1196
614,1711441339132638502,2049,2052,2072,2052,2041,2044,1193
615,1711441339142656181,2056,2054,2077,2046,2056,2053,1195
616,1711441339152637888,2054,2050,2008,2059,2049,2049,1195
617,1711441339162633293,2060,2076,2192,2078,2061,2056,1195
618,1711441339172632464,2058,2048,2033,2072,2048,2048,1196
619,1711441339182633731,2052,2042,2007,2041,2063,2058,1197
620,1711441339192653944,2057,2055,2054,2041,2045,2052,1196
621,1711441339202634950,2052,2046,2040,2064,2053,2050,1197
622,1711441339212640034,2058,2064,2132,2060,2057,2056,1199
623,1711441339222637352,2045,2043,2021,2052,2050,2048,1197
624,1711441339232641284,2058,2046,2025,2053,2051,2056,1196
625,1711441339242656768,2052,2050,2049,2058,2054,2056,1197
626,1711441339252641892,2056,2052,2055,2079,2057,2056,1196
627,1711441339262639000,2056,2057,2072,2078,2060,2056,1198
628,1711441339272644264,2056,2049,2032,2064,2058,2056,1196
629,1711441339282655510,2056,2050,2009,2047,2052,2053,1196
630,1711441339292634732,2072,2088,2210,2080,2063,2053,1196
631,1711441339302638413,2052,2045,2031,2073,2054,2048,1194
632,1711441339312634729,2056,2051,2048,2068,2060,2057,1193
633,1711441339322637197,2054,2048,1988,2047,2056,2060,1196
634,1711441339332675246,2053,2045,2032,2038,2054,2053,1196
635,1711441339342632035,2057,2056,2050,2049,2053,2050,1196
636,1711441339352636557,2053,2049,2000,2085,2056,2061,1197
637,1711441339362638995,2056,2045,2003,2068,2054,2058,1194
638,1711441339372632927,2053,2047,2036,2053,2055,2050,1197
639,1711441339382637109,2053,2049,2051,2038,2053,2061,1196
640,1711441339392640729,2062,2078,2122,2046,2042,2059,1195
641,1711441339402641294,2053,2061,2076,2083,2056,2057,1198
642,1711441339412637421,2057,2062,2075,2076,2056,2052,1197
643,1711441339422636602,2062,2074,2157,2065,2058,2058,1196
644,1711441339432663799,2061,2062,2088,2063,2052,2054,1197
645,1711441339442641649,2058,2069,2147,2064,2046,2052,1197
646,1711441339452639459,2049,2045,2015,2057,2048,2045,1193
647,1711441339462632749,2048,2052,2030,2057,2053,2053,1197
648,1711441339472635558,2053,2046,2034,2031,2053,2054,1197
649,1711441339482645371,2060,2070,2084,2070,2060,2054,1196
650,1711441339492635905,2058,2061,2030,2062,2053,2058,1197
651,1711441339502638123,2044,2036,1996,2078,2047,2048,1193
652,1711441339512638658,2058,2052,2056,2083,2057,2058,1200
653,1711441339522640305,2052,2057,2045,2068,2052,2048,1196
654,1711441339532641571,2057,2053,2040,2056,2046,2050,1195
655,1711441339542642497,2054,2049,2053,2047,2050,2053,1197
656,1711441339552642871,2060,2053,2058,1987,2057,2056,1197
657,1711441339562628897,2054,2052,2041,2060,2052,2052,1195
658,1711441339572628960,2052,2052,2056,2061,2053,2056,1197
659,1711441339582651729,2057,2058,2061,2064,2056,2054,1195
660,1711441339592649789,2051,2046,2031,2049,2054,2050,1197
661,1711441339602606297,2058,2054,2040,2056,2053,2056,1197
662,1711441339612632822,2055,2050,2044,2057,2051,2056,1197
663,1711441339622636844,2052,2047,2050,2080,2055,2057,1196
664,1711441339632638932,2060,2060,2045,2053,2052,2070,1198
665,1711441339642656160,2053,2048,2052,2064,2047,2056,1197
666,1711441339652621234,2058,2058,2065,2072,2056,2057,1198
667,1711441339662634574,2047,2050,2046,2068,2055,2052,1195
668,1711441339672634687,2047,2047,2054,2045,2045,2049,1198
669,1711441339682638619,2053,2047,2026,2053,2050,2052,1197
670,1711441339692631879,2055,2052,2049,2064,2056,2061,1197
671,1711441339702636742,2057,2057,2029,2020,2063,2060,1195
672,1711441339712631495,2051,2052,2070,2083,2053,2052,1197
673,1711441339722636439,2050,2049,2078,2018,2054,2049,1196
674,1711441339732671502,2062,2063,2118,2065,2060,2064,1196
675,1711441339742638290,2056,2050,2041,2072,2036,2048,1195
676,1711441339752645427,2056,2056,2049,2069,2056,2054,1195
677,1711441339762637656,2060,2065,2064,2079,2058,2057,1196
678,1711441339772648140,2058,2056,2096,2066,2068,2055,1196
679,1711441339782636370,2053,2049,2050,2000,2036,2036,1194
680,1711441339792646864,2053,2056,2058,2053,2053,2057,1196
681,1711441339802631839,2057,2051,2025,2021,2050,2050,1198
682,1711441339812630590,2062,2062,2039,2069,2057,2055,1195
683,1711441339822648539,2052,2043,2006,2049,2054,2053,1195
684,1711441339832680155,2054,2048,2029,2083,2053,2054,1197
685,1711441339842632264,2057,2064,2056,2012,2056,2053,1196
686,1711441339852634020,2058,2059,2095,2065,2049,2055,1194
687,1711441339862633874,2058,2056,2044,2069,2057,2051,1196
688,1711441339872633076,2061,2075,2141,2074,2058,2056,1195
689,1711441339882631667,2053,2047,2027,2050,2052,2048,1195
690,1711441339892632171,2054,2051,2048,1978,2046,2056,1196
691,1711441339902636553,2058,2043,1976,2064,2060,2055,1196
692,1711441339912638762,2060,2060,2084,2035,2050,2048,1196
693,1711441339922638114,2053,2052,2062,2032,2054,2052,1194
694,1711441339932639640,2052,2048,2033,2053,2060,2056,1196
695,1711441339942639113,2048,2052,2062,2068,2048,2050,1197
696,1711441339952637654,2057,2048,2036,2065,2043,2050,1195
697,1711441339962632898,2055,2050,2049,2062,2052,2050,1195
698,1711441339972637691,2060,2062,2041,2079,2058,2056,1195
699,1711441339982633226,2046,2044,2044,2057,2052,2048,1196
700,1711441339992633179,2054,2052,2053,2042,2049,2046,1193
701,1711441340002645707,2058,2052,2029,2005,2052,2050,1199
702,1711441340012650769,2057,2061,2047,2060,2056,2056,1197
703,1711441340022648014,2042,2042,2040,2056,2050,2048,1197
704,1711441340032654178,2056,2045,2026,1981,2052,2056,1193
705,1711441340042643909,2046,2036,2002,2065,2053,2049,1196
706,1711441340052609262,2053,2050,2035,2091,2046,2052,1197
707,1711441340062649572,2063,2054,2042,2056,2052,2053,1199
708,1711441340072634955,2068,2069,2113,2066,2056,2058,1195
709,1711441340082646228,2057,2052,2008,2042,2057,2054,1198
710,1711441340092651951,2052,2049,2015,2068,2048,2055,1196
711,1711441340102623656,2047,2049,2045,2056,2060,2057,1195
712,1711441340112629008,2056,2062,2050,2035,2050,2058,1196
713,1711441340122626674,2050,2039,1992,2033,2047,2049,1197
714,1711441340132646655,2053,2045,2025,2064,2051,2054,1194
715,1711441340142637979,2057,2065,2109,2066,2057,2056,1195
716,1711441340152642008,2054,2053,2041,2048,2050,2053,1196
717,1711441340162638873,2060,2065,2075,2057,2054,2056,1197
718,1711441340172637591,2053,2050,2053,2063,2052,2056,1196
719,1711441340182638074,2049,2047,2022,1952,2049,2055,1196
720,1711441340192641833,2061,2074,2100,2065,2050,2056,1197
721,1711441340202641543,2066,2053,2021,2057,2062,2056,1196
722,1711441340212643699,2060,2054,2056,2064,2049,2051,1196
723,1711441340222635463,2056,2053,2041,2047,2053,2048,1198
724,1711441340232637869,2054,2051,2046,2049,2040,2053,1197
725,1711441340242643071,2056,2049,2044,2010,2052,2051,1194
726,1711441340252640407,2053,2050,2047,2067,2056,2050,1196
727,1711441340262627342,2060,2060,2044,2056,2056,2050,1195
728,1711441340272632433,2049,2051,2045,2039,2045,2054,1197
729,1711441340282633888,2052,2044,2028,1995,2047,2047,1193
730,1711441340292631543,2053,2052,2029,2056,2052,2055,1198
731,1711441340302630954,2050,2058,2076,2053,2052,2050,1196
732,1711441340312635474,2055,2058,2088,2053,2057,2060,1198
733,1711441340322635105,2054,2053,2052,2044,2053,2056,1196
734,1711441340332656218,2046,2056,2064,2061,2050,2047,1194
735,1711441340342635237,2055,2056,2085,2047,2058,2059,1198
736,1711441340352633144,2058,2056,2041,2057,2050,2053,1197
737,1711441340362639438,2056,2068,2093,2082,2061,2060,1198
738,1711441340372634739,2063,2073,2124,2075,2060,2060,1198
739,1711441340382634280,2060,2058,2088,1993,2049,2053,1197
740,1711441340392638569,2058,2059,2077,2081,2056,2053,1196
741,1711441340402633251,2049,2046,2039,2060,2056,2053,1196
742,1711441340412628872,2052,2058,2074,2058,2052,2056,1200
743,1711441340422635207,2059,2067,2131,2003,2052,2053,1198
744,1711441340432649737,2056,2051,2045,2064,2052,2052,1196
745,1711441340442653896,2052,2048,2044,2013,2052,2053,1197
746,1711441340452633537,2056,2066,2093,2086,2058,2053,1197
747,1711441340462630061,2056,2056,2042,2053,2052,2052,1196
748,1711441340472636024,2058,2050,2040,2066,2053,2053,1197
749,1711441340482635654,2056,2048,2041,2059,2054,2054,1197
750,1711441340492644603,2052,2056,2074,2073,2050,2053,1196
751,1711441340502627601,2052,2045,2024,2061,2040,2045,1192
752,1711441340512640046,2051,2048,2041,2022,2056,2053,1196
753,1711441340522635849,2053,2053,2060,2059,2054,2052,1194
754,1711441340532643075,2053,2050,2044,2076,2056,2046,1193
755,1711441340542651012,2050,2052,2082,2058,2057,2056,1195
756,1711441340552629311,2050,2053,2013,2058,2049,2049,1197
757,1711441340562639411,2059,2044,2010,2044,2053,2054,1195
758,1711441340572635595,2064,2068,2094,2072,2060,2060,1196
759,1711441340582638512,2056,2054,2057,2029,2044,2052,1197
760,1711441340592638052,2057,2056,2066,2077,2044,2046,1197
761,1711441340602649456,2057,2066,2123,2076,2057,2060,1198
762,1711441340612640289,2061,2064,2061,2053,2056,2056,1197
763,1711441340622644117,2059,2070,2121,2054,2055,2055,1199
764,1711441340632635201,2057,2052,2037,2090,2056,2056,1197
765,1711441340642644581,2056,2054,2036,1973,2056,2056,1197
766,1711441340652643409,2060,2057,2040,2064,2056,2060,1198
767,1711441340662651697,2058,2050,2053,2064,2056,2050,1198
768,1711441340672648411,2053,2044,2006,2052,2053,2055,1199
769,1711441340682649555,2056,2058,2048,2044,2051,2052,1197
770,1711441340692633024,2050,2049,2064,2011,2048,2052,1197
771,1711441340702653155,2048,2046,2046,2046,2053,2056,1196
772,1711441340712632666,2054,2041,2018,2050,2045,2053,1199
773,1711441340722636374,2056,2050,2022,2049,2052,2052,1196
774,1711441340732637528,2057,2051,2051,2059,2049,2049,1196
775,1711441340742664712,2060,2063,2099,2048,2054,2051,1198
776,1711441340752637740,2064,2059,2061,2056,2059,2054,1196
777,1711441340762627892,2054,2057,2065,2066,2058,2057,1195
778,1711441340772640147,2060,2059,2057,2073,2058,2058,1196
779,1711441340782634748,2049,2049,2050,2058,2046,2053,1196
780,1711441340792635440,2055,2051,2060,2034,2046,2052,1197
781,1711441340802631514,2056,2051,2036,2050,2044,2052,1196
782,1711441340812629682,2057,2050,2015,2072,2051,2047,1195
783,1711441340822633751,2053,2060,2069,2059,2056,2052,1196
784,1711441340832636678,2061,2054,2037,2059,2056,2054,1197
785,1711441340842647901,2056,2056,2026,2032,2052,2053,1197
786,1711441340852628484,2056,2058,2064,2065,2050,2054,1197
787,1711441340862624808,2056,2049,2047,2056,2057,2056,1197
788,1711441340872632965,2047,2044,2027,2037,2047,2053,1196
789,1711441340882631092,2069,2086,2192,2068,2058,2056,1198
790,1711441340892634119,2057,2047,2032,1990,2045,2047,1192
791,1711441340902660203,2049,2054,2067,2066,2056,2049,1197
792,1711441340912632218,2050,2050,2058,2020,2056,2053,1197
793,1711441340922635215,2053,2050,2047,2050,2052,2052,1196
794,1711441340932656790,2057,2046,2044,2056,2054,2053,1197
795,1711441340942640007,2045,2065,2112,2052,2057,2053,1196
796,1711441340952629097,2054,2040,2008,2036,2051,2056,1197
797,1711441340962632485,2054,2053,2043,2000,2052,2052,1197
798,1711441340972624841,2053,2053,2037,2056,2052,2056,1198
799,1711441340982624842,2050,2050,2035,2044,2052,2051,1198
800,1711441340992642308,2058,2061,2092,2091,2050,2047,1194
801,1711441341002638190,2046,2041,2018,2068,2057,2053,1196
802,1711441341012629623,2059,2052,2015,2050,2055,2057,1199
803,1711441341022632047,2057,2056,2058,2029,2050,2053,1196
804,1711441341032639159,2056,2049,2037,2028,2051,2051,1197
805,1711441341042674548,2058,2064,2075,2064,2061,2056,1197
806,1711441341052636912,2048,2040,1980,2082,2049,2049,1199
807,1711441341062646099,2056,2050,2053,2050,2052,2052,1195
808,1711441341072641539,2052,2050,2046,2052,2058,2056,1196
809,1711441341082643212,2053,2056,2048,2051,2051,2052,1197
810,1711441341092641347,2058,2066,2130,2081,2060,2064,1198
811,1711441341102643950,2056,2051,2059,2070,2052,2053,1195
812,1711441341112643378,2056,2051,2050,2057,2056,2054,1198
813,1711441341122647044,2053,2045,2031,2046,2051,2053,1195
814,1711441341132644508,2061,2069,2088,2078,2058,2056,1194
815,1711441341142662181,2044,2046,2028,2060,2053,2049,1196
816,1711441341152648263,2057,2053,2027,2097,2053,2056,1198
817,1711441341162637080,2060,2053,2062,2091,2056,2057,1196
818,1711441341172631186,2058,2053,2048,2072,2054,2057,1197
819,1711441341182646616,2057,2060,2043,2052,2055,2052,1196
820,1711441341192635232,2050,2056,2108,2076,2055,2056,1196
821,1711441341202642145,2052,2063,2088,2117,2052,2053,1198
822,1711441341212643115,2053,2052,2052,2033,2052,2056,1197
823,1711441341222635950,2054,2049,2042,2058,2054,2049,1198
824,1711441341232637843,2056,2056,2074,2080,2050,2056,1197
825,1711441341242644074,2062,2068,2073,2068,2059,2054,1197
826,1711441341252642179,2052,2042,2020,2064,2052,2051,1198
827,1711441341262643049,2054,2063,2074,2054,2058,2056,1197
828,1711441341272633169,2056,2051,2051,2058,2055,2059,1196
829,1711441341282635001,2060,2065,2051,2060,2056,2053,1196
830,1711441341292635491,2053,2054,2022,2057,2056,2052,1197
831,1711441341302641511,2059,2057,2045,2056,2051,2052,1197
832,1711441341312643264,2057,2046,2006,2068,2053,2056,1197
833,1711441341322636669,2050,2050,2038,2053,2056,2048,1196
834,1711441341332635717,2054,2046,2037,2086,2056,2056,1197
835,1711441341342648540,2051,2043,2021,2056,2058,2053,1196
836,1711441341352661144,2057,2050,2051,2072,2049,2052,1197
837,1711441341362652646,2060,2068,2126,2073,2061,2057,1197
838,1711441341372651022,2064,2065,2114,2060,2054,2056,1197
839,1711441341382649508,2051,2045,2046,2055,2054,2050,1197
840,1711441341392646150,2059,2060,2074,2072,2056,2055,1196
841,1711441341402629125,2057,2057,2085,2058,2056,2053,1197
842,1711441341412631869,2054,2054,2049,2061,2052,2053,1197
843,1711441341422633171,2050,2050,2034,2021,2050,2052,1195
844,1711441341432636917,2056,2053,2037,2057,2056,2054,1197
845,1711441341442663909,2052,2050,2062,2055,2056,2053,1196
846,1711441341452642826,2055,2052,2037,2032,2052,2052,1197
847,1711441341462626262,2070,2092,2130,2027,2060,2056,1195
848,1711441341472631752,2047,2047,2049,2062,2052,2053,1197
849,1711441341482633103,2057,2060,2109,2051,2052,2050,1196
850,1711441341492637872,2056,2056,2068,2053,2056,2057,1197
851,1711441341502628381,2055,2044,2004,2045,2053,2052,1196
852,1711441341512636867,2060,2068,2082,2070,2054,2056,1197
853,1711441341522632367,2059,2065,2085,2058,2054,2053,1195
854,1711441341532649599,2068,2070,2100,2064,2060,2057,1199
855,1711441341542620090,2056,2050,2047,2016,2051,2054,1198
856,1711441341552632984,2058,2067,2108,2080,2056,2058,1196
857,1711441341562631280,2058,2056,2056,2065,2053,2053,1196
858,1711441341572632030,2059,2060,2117,2063,2055,2056,1194
859,1711441341582632831,2050,2040,2021,2063,2050,2052,1196
860,1711441341592635304,2058,2073,2140,2102,2056,2057,1196
861,1711441341602634452,2057,2054,2037,2058,2057,2053,1200
862,1711441341612633067,2046,2048,1992,2052,2050,2047,1195
863,1711441341622631193,2054,2053,2056,2072,2059,2054,1197
864,1711441341632651612,2055,2056,2056,2086,2060,2053,1197
865,1711441341642650048,2053,2049,2048,2043,2050,2052,1197
866,1711441341652631931,2061,2053,2027,2068,2050,2046,1194
867,1711441341662635376,2047,2038,2001,2056,2051,2049,1197
868,1711441341672635666,2057,2053,2052,2085,2057,2061,1196
869,1711441341682637107,2057,2056,2059,2056,2056,2057,1196
870,1711441341692638058,2052,2047,2038,2093,2041,2050,1198
871,1711441341702645150,2056,2059,2084,2064,2058,2056,1196
872,1711441341712638958,2051,2052,2028,2064,2056,2053,1200
873,1711441341722643836,2052,2041,2041,2061,2044,2050,1197
874,1711441341732644686,2052,2060,2089,2089,2057,2054,1196
875,1711441341742655687,2057,2060,2060,2038,2049,2056,1198
876,1711441341752655976,2054,2050,2036,2037,2050,2056,1197
877,1711441341762648731,2053,2050,2059,2008,2050,2045,1195
878,1711441341772631715,2056,2060,2048,2082,2064,2059,1197
879,1711441341782634651,2048,2053,2053,2067,2053,2052,1197
880,1711441341792634298,2054,2052,2035,2022,2050,2054,1198
881,1711441341802634367,2057,2064,2068,2088,2055,2056,1197
882,1711441341812636300,2061,2068,2065,2077,2056,2057,1197
883,1711441341822635026,2052,2050,2049,2049,2051,2053,1196
884,1711441341832636107,2057,2056,2088,2066,2058,2056,1195
885,1711441341842645554,2057,2065,2098,2017,2057,2062,1196
886,1711441341852630033,2052,2052,2034,2057,2050,2058,1196
887,1711441341862632937,2050,2046,2026,2049,2054,2048,1197
888,1711441341872629239,2062,2066,2041,2090,2056,2054,1197
889,1711441341882629548,2051,2045,2037,2046,2054,2052,1197
890,1711441341892634718,2060,2056,2053,2060,2054,2056,1198
891,1711441341902664915,2054,2046,1994,2060,2053,2053,1196
892,1711441341912603162,2061,2048,1992,2063,2050,2047,1194
893,1711441341922642950,2053,2046,2026,2053,2057,2055,1197
894,1711441341932667467,2062,2053,2027,2072,2053,2053,1195
895,1711441341942646244,2051,2050,2032,2080,2058,2056,1195
896,1711441341952634900,2055,2059,2088,2073,2053,2054,1196
897,1711441341962638076,2062,2064,2109,2064,2057,2055,1196
898,1711441341972645719,2048,2044,2040,2051,2051,2052,1197
899,1711441341982637762,2054,2044,2030,1978,2045,2052,1197
900,1711441341992904277,2057,2049,2024,2057,2054,2052,1195
901,1711441342002629073,2053,2066,2080,2062,2057,2053,1196
902,1711441342012631745,2055,2048,2029,2045,2050,2054,1198
903,1711441342022624838,2056,2046,1999,2044,2054,2052,1196
904,1711441342032646567,2058,2064,2117,2070,2060,2054,1197
905,1711441342042640240,2061,2074,2107,2070,2055,2049,1198
906,1711441342052628013,2060,2056,2068,2100,2064,2058,1197
907,1711441342062627388,2057,2050,2040,2056,2052,2056,1198
908,1711441342072634389,2059,2076,2139,2076,2063,2058,1196
909,1711441342082632982,2054,2053,2053,2054,2055,2061,1198
910,1711441342092652989,2052,2056,2056,1982,2045,2056,1195
911,1711441342102639487,2053,2050,2046,2060,2056,2052,1196
912,1711441342112639694,2053,2049,2018,2013,2052,2054,1198
913,1711441342122636936,2054,2052,2050,2036,2050,2048,1195
914,1711441342132681961,2040,2038,2016,2022,2042,2043,1193
915,1711441342142636618,2059,2055,2031,2060,2059,2056,1195
916,1711441342152644379,2057,2056,2055,2074,2050,2052,1198
917,1711441342162649907,2060,2058,2085,2053,2056,2052,1196
918,1711441342172640825,2054,2047,2031,2064,2053,2052,1197
919,1711441342182643968,2056,2060,2090,2062,2059,2054,1197
920,1711441342192641009,2058,2066,2069,2080,2056,2056,1196
921,1711441342202678740,2056,2052,2039,2056,2058,2057,1198
922,1711441342212651502,2058,2052,2048,2086,2048,2052,1198
923,1711441342222650797,2060,2077,2150,2102,2056,2058,1195
924,1711441342232642317,2058,2057,2070,2062,2052,2052,1197
925,1711441342242637995,2054,2048,2005,2049,2056,2058,1196
926,1711441342252652410,2056,2050,2041,2056,2054,2056,1196
927,1711441342262626926,2056,2067,2139,2066,2056,2054,1195
928,1711441342272637403,2053,2052,2056,2066,2056,2056,1196
929,1711441342282633882,2064,2059,2063,2053,2053,2052,1196
930,1711441342292634861,2059,2070,2107,2057,2056,2056,1195
931,1711441342302631341,2056,2064,2112,2060,2060,2058,1194
932,1711441342312633050,2053,2047,2028,2080,2057,2052,1195
933,1711441342322636192,2052,2048,2061,2030,2047,2052,1196
934,1711441342332631700,2053,2053,2053,2083,2050,2052,1194
935,1711441342342632989,2048,2053,2043,2050,2052,2046,1194
936,1711441342352634769,2052,2044,2048,2065,2051,2052,1194
937,1711441342362639525,2052,2056,2066,2060,2052,2054,1196
938,1711441342372630764,2067,2088,2178,2067,2060,2057,1197
939,1711441342382643636,2058,2052,2040,2064,2056,2056,1197
940,1711441342392647390,2048,2048,2026,2079,2056,2054,1196
941,1711441342402634771,2056,2053,2035,2082,2051,2052,1198
942,1711441342412640830,2048,2047,2050,2060,2062,2052,1197
943,1711441342422637069,2062,2072,2122,2060,2052,2049,1197
944,1711441342432638026,2059,2069,2120,2075,2056,2055,1198
945,1711441342442638734,2056,2057,2084,2070,2058,2059,1197
946,1711441342453189608,2059,2064,2072,2064,2052,2053,1198
947,1711441342462651904,2051,2054,2049,1992,2052,2052,1196
948,1711441342472628995,2069,2080,2120,2076,2059,2051,1200
949,1711441342482639201,2047,2058,2104,2056,2051,2050,1196
950,1711441342492637093,2065,2065,2106,2059,2058,2058,1196
951,1711441342502639344,2051,2046,2010,2028,2052,2054,1194
952,1711441342512634802,2054,2043,2025,2055,2052,2053,1194
953,1711441342522624418,2060,2072,2124,2057,2056,2056,1195
954,1711441342532632280,2052,2044,2030,2044,2052,2052,1197
955,1711441342542634079,2056,2056,2041,2018,2049,2050,1197
956,1711441342552666179,2052,2045,2033,2047,2052,2048,1197
957,1711441342562629293,2049,2048,2049,2054,2055,2053,1198
958,1711441342572633648,2058,2068,2130,2066,2057,2065,1197
959,1711441342582633354,2056,2053,2039,2064,2054,2056,1198
960,1711441342592633460,2056,2056,2050,2076,2053,2054,1197
961,1711441342602635060,2057,2055,2060,2079,2061,2052,1197
962,1711441342612633123,2057,2057,2052,2078,2056,2057,1196
963,1711441342622638931,2048,2046,2044,2045,2047,2046,1194
964,1711441342632635741,2055,2048,2040,2068,2053,2053,1196
965,1711441342642625828,2053,2050,2046,2042,2056,2054,1195
966,1711441342652660863,2056,2055,2057,2065,2058,2056,1196
967,1711441342662633195,2060,2058,2053,2056,2057,2056,1196
968,1711441342672631799,2050,2046,2033,1986,2044,2051,1196
969,1711441342682636695,2054,2049,2028,2047,2052,2047,1194
970,1711441342692633766,2050,2047,2054,2018,2050,2053,1197
971,1711441342702633702,2056,2059,2082,2060,2054,2055,1194
972,1711441342712630942,2056,2052,2056,2082,2053,2051,1197
973,1711441342722637402,2061,2065,2082,2073,2061,2055,1197
974,1711441342732645094,2046,2056,2085,2031,2049,2046,1195
975,1711441342742638517,2050,2047,2042,2047,2049,2046,1195
976,1711441342752653954,2053,2053,2060,2058,2055,2052,1196
977,1711441342762618730,2051,2051,2047,2056,2053,2050,1195
978,1711441342772635510,2059,2056,2038,2060,2054,2056,1198
979,1711441342782642741,2054,2052,1994,2072,2055,2053,1195
980,1711441342792639621,2050,2043,2020,2022,2052,2052,1196
981,1711441342802643476,2052,2047,2034,2056,2056,2051,1198
982,1711441342812643361,2056,2053,2050,2052,2050,2056,1197
983,1711441342822640281,2052,2050,2045,2069,2054,2049,1195
984,1711441342832643775,2052,2045,2042,2062,2053,2053,1198
985,1711441342842628822,2056,2051,2046,2055,2054,2053,1195
986,1711441342852653367,2064,2061,2092,2064,2053,2047,1196
987,1711441342862647292,2054,2057,2058,2052,2053,2052,1196
988,1711441342872630755,2054,2053,2036,2064,2056,2056,1197
989,1711441342882633837,2056,2048,2038,1949,2045,2050,1197
990,1711441342892631549,2052,2045,2024,2056,2056,2056,1197
991,1711441342902635384,2056,2056,2084,2066,2054,2052,1194
992,1711441342912632194,2054,2047,2056,2050,2052,2056,1196
993,1711441342922633012,2056,2055,2073,2056,2056,2052,1196
994,1711441342932637096,2057,2056,2096,2030,2052,2058,1196
995,1711441342942652022,2052,2050,2047,2057,2053,2050,1198
996,1711441342952667439,2056,2050,2048,2059,2051,2053,1194
997,1711441342962632416,2058,2063,2104,2006,2053,2054,1195
998,1711441342972624978,2050,2048,2042,2058,2052,2052,1197
999,1711441342982635284,2056,2051,2040,1997,2052,2053,1196
1000,1711441342992632776,2052,2057,2053,2060,2054,2056,1197
1001,1711441343002632121,2049,2053,2052,2056,2051,2054,1195
1002,1711441343012644070,2059,2064,2057,2069,2056,2060,1196
1003,1711441343022642702,2041,2046,2040,2061,2052,2049,1197
1004,1711441343032634920,2052,2051,2050,2050,2053,2052,1196
1005,1711441343042634574,2057,2048,2042,2075,2056,2053,1196
1006,1711441343052650740,2049,2048,2060,2058,2052,2052,1197
1007,1711441343062636516,2049,2046,2025,2040,2054,2052,1198
1008,1711441343072632842,2057,2064,2061,2064,2058,2055,1195
1009,1711441343082637185,2053,2056,2064,2056,2056,2052,1194
1010,1711441343092635226,2062,2066,2133,2080,2058,2056,1195
1011,1711441343102634639,2053,2050,2047,2076,2056,2059,1195
1012,1711441343112642678,2057,2071,2135,2058,2053,2059,1194
1013,1711441343122632021,2057,2051,2029,2051,2061,2056,1196
1014,1711441343132637987,2056,2050,2053,2058,2052,2052,1195
1015,1711441343142637591,2060,2064,2099,2065,2060,2056,1197
1016,1711441343152651873,2056,2045,2033,2061,2054,2053,1196
1017,1711441343162651306,2056,2052,2046,2049,2058,2056,1195
1018,1711441343172647452,2056,2048,2034,2061,2056,2056,1197
1019,1711441343182640352,2061,2063,2054,2060,2061,2060,1197
1020,1711441343192631239,2053,2052,2037,2061,2052,2057,1197
1021,1711441343202632405,2055,2048,2015,2045,2054,2052,1196
1022,1711441343212641156,2052,2046,2025,2037,2052,2051,1198
1023,1711441343222632282,2057,2071,2113,2072,2061,2057,1197
1024,1711441343232636605,2053,2050,2033,2076,2053,2054,1194
1025,1711441343242632962,2055,2051,2041,2047,2054,2056,1195
1026,1711441343252637485,2055,2052,2044,2088,2053,2054,1197
1027,1711441343262660665,2052,2053,2068,2076,2050,2050,1197
1028,1711441343272632162,2054,2054,2051,2060,2054,2053,1198
1029,1711441343282646615,2051,2049,2034,2059,2057,2058,1197
1030,1711441343292648844,2058,2060,2063,2055,2050,2054,1198
1031,1711441343302647195,2056,2056,2064,2077,2047,2050,1196
1032,1711441343312638441,2057,2056,2025,2050,2061,2058,1198
1033,1711441343322657833,2053,2050,2020,2061,2056,2052,1195
1034,1711441343332634751,2057,2069,2117,2068,2056,2055,1196
1035,1711441343342633714,2056,2052,2049,2004,2052,2052,1197
1036,1711441343352656433,2053,2045,2028,2061,2056,2061,1194
1037,1711441343362641117,2060,2067,2087,2091,2057,2060,1198
1038,1711441343372636622,2053,2045,2006,2029,2053,2057,1197
1039,1711441343382636796,2052,2042,2021,2064,2054,2049,1196
1040,1711441343392634596,2058,2064,2117,2073,2055,2057,1197
1041,1711441343402633939,2059,2049,2032,2034,2054,2054,1197
1042,1711441343412700604,2054,2047,2037,2049,2052,2056,1197
1043,1711441343422643906,2056,2058,2045,2058,2053,2051,1197
1044,1711441343432626696,2054,2046,2054,2068,2054,2052,1195
1045,1711441343442634036,2053,2047,2047,2045,2046,2049,1196
1046,1711441343452643167,2052,2045,2017,2067,2051,2051,1200
1047,1711441343462633412,2058,2052,2059,2063,2062,2055,1198
1048,1711441343472641863,2060,2055,2044,2058,2052,2056,1197
1049,1711441343482632027,2050,2050,2040,2028,2047,2052,1197
1050,1711441343492625489,2059,2044,2031,2098,2051,2053,1195
1051,1711441343502626856,2060,2056,2077,2059,2052,2047,1192
1052,1711441343512628543,2056,2058,2053,2056,2056,2055,1197
1053,1711441343522636913,2057,2057,2061,2052,2053,2054,1197
1054,1711441343532653690,2053,2058,2066,2060,2056,2058,1195
1055,1711441343542640509,2057,2061,2064,2053,2056,2058,1197
1056,1711441343552637958,2054,2046,2044,2058,2054,2053,1195
1057,1711441343562637531,2050,2053,2046,2066,2051,2050,1197
1058,1711441343572627415,2056,2051,2052,2075,2055,2056,1196
1059,1711441343582621878,2057,2062,2061,2051,2049,2052,1197
1060,1711441343592625189,2060,2053,2040,2070,2052,2056,1198
1061,1711441343602630674,2053,2044,2022,2063,2056,2051,1196
1062,1711441343612631309,2056,2047,2024,2062,2051,2049,1197
1063,1711441343622633006,2052,2053,2036,2056,2056,2053,1197
1064,1711441343632635595,2057,2064,2092,2072,2059,2057,1195
1065,1711441343642637714,2061,2077,2140,2045,2056,2056,1196
1066,1711441343652632848,2056,2058,2053,2027,2054,2054,1195
1067,1711441343662638744,2052,2051,2044,2047,2054,2052,1197
1068,1711441343672648356,2058,2065,2067,2082,2062,2063,1196
1069,1711441343682627499,2057,2060,2050,2048,2060,2060,1197
1070,1711441343692636802,2053,2055,2064,2066,2056,2056,1197
1071,1711441343702636035,2058,2055,2077,2059,2049,2052,1194
1072,1711441343712634085,2052,2052,2076,2074,2046,2050,1196
1073,1711441343722667414,2051,2056,2064,2051,2047,2053,1196
1074,1711441343732646918,2054,2047,2031,2074,2056,2056,1197
1075,1711441343742637594,2056,2068,2096,2074,2060,2057,1197
1076,1711441343752646426,2055,2043,2031,2056,2048,2061,1198
1077,1711441343762643674,2057,2053,2041,2036,2054,2054,1195
1078,1711441343772641824,2056,2048,2042,2064,2053,2054,1197
1079,1711441343782635966,2055,2053,2038,2055,2054,2052,1198
1080,1711441343792640801,2059,2050,2062,2056,2052,2056,1196
1081,1711441343802633009,2053,2055,2053,2056,2053,2053,1199
1082,1711441343812632312,2059,2058,2083,2064,2058,2056,1198
1083,1711441343822649610,2060,2060,2054,2052,2056,2053,1196
1084,1711441343832633041,2052,2054,2052,2060,2056,2053,1197
1085,1711441343842637465,2079,2072,2073,2061,2056,2057,1196
1086,1711441343852636376,2051,2045,2033,2058,2053,2057,1198
1087,1711441343862638615,2063,2072,2101,2081,2059,2056,1196
1088,1711441343872654179,2054,2050,2024,2059,2056,2050,1196
1089,1711441343882635987,2056,2061,2080,2053,2061,2057,1196
1090,1711441343892638256,2055,2047,2036,2064,2050,2056,1198
1091,1711441343902640475,2056,2063,2056,2096,2060,2058,1195
1092,1711441343912644486,2056,2045,2012,2090,2053,2056,1198
1093,1711441343922645993,2049,2044,2008,2029,2046,2047,1193
1094,1711441343932626028,2057,2056,2059,2061,2053,2052,1198
1095,1711441343942649228,2050,2041,2020,2065,2056,2055,1199
1096,1711441343952648351,2057,2056,2052,2074,2060,2054,1196
1097,1711441343962686860,2052,2051,2045,2032,2052,2049,1197
1098,1711441343972627106,2062,2067,2096,2081,2057,2057,1196
1099,1711441343982635266,2054,2053,2028,2058,2042,2050,1197
1100,1711441343992632586,2055,2054,2062,2071,2056,2053,1197
1101,1711441344002630526,2052,2052,2045,2048,2055,2052,1197
1102,1711441344012629485,2056,2066,2101,2049,2052,2056,1198
1103,1711441344022632784,2058,2057,2044,2066,2059,2057,1197
1104,1711441344032660059,2057,2064,2068,2061,2051,2052,1198
1105,1711441344042639170,2052,2050,2049,2053,2052,2051,1196
1106,1711441344052631547,2054,2057,2054,2029,2051,2053,1197
1107,1711441344062638432,2047,2058,2061,2053,2052,2047,1195
1108,1711441344072661158,2053,2049,2044,2044,2056,2057,1197
1109,1711441344082639196,2054,2047,2021,2051,2050,2053,1198
1110,1711441344092632796,2049,2053,2041,2058,2052,2052,1198
1111,1711441344102636444,2053,2056,2053,2076,2050,2054,1194
1112,1711441344112635655,2052,2056,2056,2067,2050,2049,1197
1113,1711441344122634875,2057,2061,2056,2058,2055,2056,1197
1114,1711441344132638023,2056,2048,2048,2057,2054,2057,1197
1115,1711441344142624929,2060,2062,2074,2058,2057,2058,1200
1116,1711441344152633747,2051,2044,2044,2057,2050,2052,1198
1117,1711441344162632216,2062,2064,2083,2062,2054,2055,1197
1118,1711441344172633110,2056,2050,2052,2066,2050,2048,1198
1119,1711441344182632731,2056,2051,2040,2063,2057,2054,1197
1120,1711441344192636771,2056,2058,2073,2036,2053,2053,1197
1121,1711441344202636231,2050,2050,2051,2075,2056,2049,1198
1122,1711441344212631283,2053,2044,2036,2099,2053,2053,1199
1123,1711441344222634451,2059,2067,2053,2062,2056,2056,1198
1124,1711441344232634463,2054,2049,2038,2054,2051,2053,1200
1125,1711441344242621760,2056,2064,2102,2048,2056,2061,1198
1126,1711441344252631540,2052,2045,2030,2059,2049,2056,1198
1127,1711441344262634829,2054,2049,2028,2053,2053,2052,1198
1128,1711441344272634699,2052,2047,2037,2046,2047,2052,1198
1129,1711441344282641946,2060,2066,2094,2078,2057,2053,1198
1130,1711441344292628922,2048,2035,2000,2140,2051,2051,1198
1131,1711441344302627280,2061,2064,2068,2085,2060,2059,1197
1132,1711441344312632643,2056,2058,2057,2061,2059,2057,1196
1133,1711441344322634668,2056,2052,2045,2057,2056,2054,1195
1134,1711441344332670962,2051,2040,2001,2071,2053,2051,1198
1135,1711441344342636615,2056,2056,2043,2058,2053,2053,1198
1136,1711441344352643451,2058,2050,2025,2064,2053,2056,1196
1137,1711441344362652481,2050,2045,2028,2056,2053,2053,1196
1138,1711441344372643203,2056,2050,2050,2052,2056,2052,1198
1139,1711441344382645961,2056,2046,2041,2024,2053,2052,1199
1140,1711441344392650592,2056,2053,2056,2076,2052,2053,1197
1141,1711441344402644461,2054,2064,2078,2069,2057,2056,1197
1142,1711441344412644213,2053,2048,2032,2060,2052,2054,1198
1143,1711441344422630467,2054,2050,2037,2044,2054,2053,1197
1144,1711441344432658735,2060,2063,2053,2066,2056,2056,1198
1145,1711441344442637645,2061,2072,2154,2067,2061,2056,1198
1146,1711441344452635713,2057,2053,2056,2059,2056,2055,1197
1147,1711441344462634292,2065,2062,2073,2058,2057,2054,1198
1148,1711441344472634624,2057,2058,2046,2071,2051,2052,1197
1149,1711441344482633383,2050,2050,2048,2052,2053,2049,1197
1150,1711441344492636711,2061,2074,2157,2065,2061,2057,1197
1151,1711441344502638246,2057,2052,2034,2037,2056,2053,1197
1152,1711441344512639140,2058,2047,2028,2080,2052,2057,1197
1153,1711441344522636506,2050,2041,2033,2082,2048,2050,1194
1154,1711441344532594716,2056,2058,2015,1997,2048,2052,1195
1155,1711441344542621219,2056,2048,2054,2051,2050,2047,1193
1156,1711441344552638024,2060,2064,2096,2060,2052,2054,1197
1157,1711441344562637354,2054,2044,2020,2049,2050,2051,1195
1158,1711441344572671393,2051,2044,2033,2047,2056,2054,1197
1159,1711441344582663780,2057,2062,2083,2009,2052,2046,1195
1160,1711441344592634253,2057,2060,2096,2066,2057,2056,1196
1161,1711441344602634957,2058,2060,2061,2065,2053,2056,1197
1162,1711441344612635941,2058,2053,2046,2072,2052,2056,1197
1163,1711441344622634078,2059,2053,2054,2083,2060,2052,1198
1164,1711441344632659831,2056,2053,2049,2078,2052,2050,1198
1165,1711441344642624933,2055,2049,2043,2042,2056,2052,1198
1166,1711441344652626879,2058,2060,2081,2065,2051,2052,1198
1167,1711441344662625548,2052,2049,2058,2052,2052,2053,1197
1168,1711441344672628867,2056,2053,2056,2049,2054,2055,1196
1169,1711441344682629259,2049,2054,2052,2057,2056,2051,1198
1170,1711441344692622858,2056,2049,2035,2066,2053,2052,1197
1171,1711441344702634303,2059,2054,2059,2056,2059,2053,1195
1172,1711441344712635025,2057,2052,2047,2058,2045,2053,1197
1173,1711441344722637422,2052,2045,2027,2050,2050,2052,1195
1174,1711441344732645450,2059,2068,2104,2066,2055,2047,1195
1175,1711441344742646724,2057,2051,2057,2058,2056,2052,1198
1176,1711441344752631916,2057,2047,2021,2060,2051,2052,1196
1177,1711441344762634673,2057,2064,2105,2014,2053,2056,1197
1178,1711441344772631860,2054,2052,2040,2059,2055,2056,1196
1179,1711441344782662031,2060,2068,2139,2056,2056,2049,1198
1180,1711441344792635219,2057,2063,2133,2061,2056,2056,1197
1181,1711441344802635813,2062,2048,2037,2073,2058,2057,1197
1182,1711441344812634431,2053,2042,2024,2097,2057,2055,1198
1183,1711441344822632610,2052,2045,2006,2083,2053,2050,1197
1184,1711441344832642782,2056,2049,2023,2056,2054,2054,1198
1185,1711441344842623284,2057,2056,2050,2049,2056,2053,1196
1186,1711441344852632775,2057,2056,2041,2085,2058,2057,1197
1187,1711441344862635973,2060,2053,2057,2096,2053,2049,1197
1188,1711441344872638840,2049,2040,2008,2073,2048,2053,1196
1189,1711441344882650605,2057,2059,2103,2049,2053,2053,1195
1190,1711441344892637120,2059,2067,2121,2062,2052,2058,1197
1191,1711441344902630549,2052,2045,2005,2018,2050,2052,1196
1192,1711441344912608908,2058,2046,2039,2050,2052,2050,1196
1193,1711441344922631525,2052,2041,2039,2053,2053,2049,1197
1194,1711441344932643469,2053,2042,1980,2088,2057,2052,1195
1195,1711441344942637930,2052,2044,2003,2061,2054,2054,1197
1196,1711441344952634185,2056,2056,2061,2062,2053,2060,1197
1197,1711441344962639056,2060,2052,2051,2046,2052,2050,1196
1198,1711441344972638948,2054,2056,2055,2076,2056,2054,1196
1199,1711441344982641885,2042,2040,2017,2022,2046,2048,1197
1200,1711441344992641777,2048,2043,2009,2054,2050,2051,1197
1201,1711441345002643371,2046,2048,2034,2044,2052,2052,1198
1202,1711441345012643681,2056,2050,2034,2054,2051,2050,1197
1203,1711441345022628531,2052,2048,2033,2056,2055,2052,1197
1204,1711441345032648249,2054,2056,2066,2058,2055,2053,1196
1205,1711441345042661655,2073,2053,2065,2052,2053,2049,1196
1206,1711441345052651254,2058,2078,2172,2047,2056,2056,1197
1207,1711441345062625613,2052,2041,2015,2046,2059,2048,1197
1208,1711441345072630091,2056,2046,2024,2065,2049,2048,1197
1209,1711441345082633407,2057,2053,2028,2069,2056,2055,1197
1210,1711441345092659137,2056,2050,2044,2078,2049,2056,1200
1211,1711441345102634127,2055,2049,2043,2073,2057,2052,1194
1212,1711441345112639697,2060,2069,2144,2058,2057,2056,1197
1213,1711441345122634857,2053,2053,2050,2053,2053,2054,1197
1214,1711441345132632492,2053,2054,2052,2077,2056,2056,1194
1215,1711441345142637962,2053,2056,2060,2102,2052,2053,1196
1216,1711441345153217865,2053,2054,2077,2041,2046,2052,1198
1217,1711441345162642079,2056,2062,2097,2053,2055,2050,1196
1218,1711441345172635345,2061,2080,2179,2085,2056,2056,1197
1219,1711441345182638200,2052,2044,2024,2056,2053,2052,1198
1220,1711441345192636556,2052,2048,2026,2049,2054,2050,1196
1221,1711441345202643128,2058,2059,2072,2056,2058,2060,1195
1222,1711441345212652516,2052,2049,2048,2059,2048,2057,1196
1223,1711441345222647656,2056,2057,2064,2049,2056,2052,1198
1224,1711441345232649008,2054,2054,2047,2068,2059,2055,1198
1225,1711441345242628297,2056,2049,2049,2059,2051,2051,1199
1226,1711441345252630921,2056,2057,2039,2058,2057,2060,1198
1227,1711441345262640600,2058,2057,2046,2058,2056,2057,1196
1228,1711441345272635048,2053,2050,2046,2074,2052,2053,1196
1229,1711441345282633915,2062,2088,2178,2080,2062,2056,1196
1230,1711441345292636460,2052,2044,2064,2036,2056,2056,1197
1231,1711441345302627742,2052,2052,2022,2049,2053,2053,1194
1232,1711441345312636699,2057,2073,2068,2068,2056,2056,1195
1233,1711441345322639283,2062,2045,2049,2050,2052,2056,1196
1234,1711441345332656517,2055,2049,2052,2056,2053,2052,1196
1235,1711441345342635134,2060,2079,2093,2071,2061,2053,1197
1236,1711441345352637718,2061,2069,2079,2076,2053,2056,1196
1237,1711441345362637968,2056,2058,2091,2021,2056,2054,1198
1238,1711441345372658057,2064,2067,2073,2072,2056,2058,1196
1239,1711441345382639510,2058,2070,2118,2060,2055,2055,1196
1240,1711441345392665951,2056,2047,2003,2056,2053,2056,1197
1241,1711441345402648056,2051,2053,2026,2050,2052,2052,1198
1242,1711441345412637314,2060,2053,2049,2059,2055,2056,1197
1243,1711441345422639046,2053,2053,2056,2072,2056,2056,1197
1244,1711441345432639857,2057,2049,2005,2058,2056,2058,1197
1245,1711441345442669355,2062,2058,2048,2074,2057,2056,1198
1246,1711441345452633013,2053,2056,2091,2057,2050,2049,1199
1247,1711441345462640156,2054,2048,2056,2074,2049,2049,1198
1248,1711441345472640476,2057,2049,2038,2064,2053,2056,1197
1249,1711441345482637630,2056,2053,2012,2062,2053,2050,1196
1250,1711441345492644302,2062,2070,2134,2060,2060,2055,1199
1251,1711441345502650594,2058,2055,2016,2090,2056,2056,1196
1252,1711441345512649461,2056,2060,2094,2088,2059,2057,1196
1253,1711441345522635102,2058,2063,2061,2090,2057,2056,1197
1254,1711441345532629430,2057,2052,2036,2069,2056,2061,1198
1255,1711441345542653196,2055,2047,2015,2056,2053,2053,1196
1256,1711441345552630121,2052,2045,2042,2057,2053,2047,1193
1257,1711441345562634157,2050,2060,2056,2051,2056,2052,1195
1258,1711441345572633496,2055,2056,2057,2058,2054,2053,1196
1259,1711441345582635940,2056,2054,2051,2057,2056,2052,1199
1260,1711441345592640709,2050,2047,2026,2056,2051,2051,1195
1261,1711441345602645447,2055,2048,2045,2045,2047,2051,1197
1262,1711441345612638503,2050,2040,2040,2058,2056,2051,1198
1263,1711441345622640977,2054,2052,2020,2078,2052,2055,1196
1264,1711441345632640977,2061,2075,2096,2053,2052,2053,1197
1265,1711441345642632870,2053,2052,2045,2063,2056,2056,1197
1266,1711441345652634643,2053,2043,2056,2056,2049,2053,1197
1267,1711441345662642237,2053,2043,2096,2060,2051,2051,1197
1268,1711441345672635362,2054,2045,2023,2057,2060,2052,1196
1269,1711441345682632236,2053,2051,2045,2047,2056,2052,1196
1270,1711441345692646583,2064,2064,2084,2044,2040,2056,1198
1271,1711441345702636553,2060,2066,2074,2060,2040,2048,1195
1272,1711441345712634127,2050,2045,2045,2049,2052,2057,1195
1273,1711441345722644989,2047,2051,2081,2039,2007,2056,1196
1274,1711441345732634246,2053,2050,2067,2112,2124,2072,1197
1275,1711441345742657031,2049,2044,2041,2096,2100,2053,1197
1276,1711441345752668974,2057,2052,2060,2056,2048,2051,1197
1277,1711441345762654455,2051,2053,2046,2052,2052,2045,1194
1278,1711441345772644875,2059,2068,2125,2064,2056,2050,1196
1279,1711441345782646899,2056,2049,2050,2066,2058,2053,1195
1280,1711441345792653000,2053,2053,2045,2056,2052,2053,1197
1281,1711441345802635355,2057,2056,2061,2048,2053,2049,1196
1282,1711441345812637317,2059,2048,2018,2021,2048,2048,1196
1283,1711441345822647106,2051,2057,2083,2068,2054,2051,1196
1284,1711441345832642286,2056,2037,2001,2056,2050,2054,1196
1285,1711441345842651574,2053,2050,1982,1993,2049,2050,1196
1286,1711441345852642054,2053,2037,2032,2084,2053,2056,1195
1287,1711441345862636402,2058,2048,2024,2053,2057,2057,1196
1288,1711441345872647834,2057,2054,2106,2056,2056,2052,1198
1289,1711441345882638355,2061,2061,2036,2050,2057,2057,1197
1290,1711441345892654216,2053,2053,2043,2052,2046,2049,1196
1291,1711441345902644706,2052,2058,2077,2076,2056,2054,1194
1292,1711441345912646950,2053,2057,2057,2059,2052,2053,1195
1293,1711441345922653402,2053,2050,2036,2039,2053,2054,1196
1294,1711441345932653632,2052,2050,2042,2056,2057,2064,1197
1295,1711441345942647219,2056,2050,2050,2047,2048,2054,1195
1296,1711441345952653701,2056,2048,2028,2056,2051,2055,1197
1297,1711441345962651857,2053,2045,2031,2071,2058,2054,1197
1298,1711441345972652928,2052,2058,2066,2012,2048,2053,1197
1299,1711441345982655122,2052,2045,2026,2033,2065,2060,1197
1300,1711441345992654971,2049,2053,2065,2044,2032,2048,1197
1301,1711441346002661724,2057,2050,2047,2036,2025,2046,1195
1302,1711441346012640168,2056,2060,2084,2025,2076,2064,1199
1303,1711441346022660485,2053,2057,2062,2078,2061,2056,1198
1304,1711441346032670803,2052,2061,2089,2058,2057,2056,1197
1305,1711441346042666291,2056,2052,2056,2032,2045,2054,1197
1306,1711441346052677981,2056,2053,2052,2032,2041,2053,1198
1307,1711441346062676485,2053,2053,2055,2033,2051,2051,1196
1308,1711441346072659489,2058,2059,2086,2090,2056,2056,1195
1309,1711441346082645809,2054,2052,2031,2056,2049,2048,1196
1310,1711441346092663089,2054,2053,2046,2024,2044,2052,1195
1311,1711441346102661795,2056,2050,2051,2055,2054,2052,1194
1312,1711441346112660519,2056,2056,2040,2069,2051,2056,1195
1313,1711441346122661548,2053,2043,2023,2073,2053,2051,1196
1314,1711441346132649541,2061,2065,2112,2084,2058,2056,1196
1315,1711441346142666161,2054,2053,2052,2053,2053,2056,1195
1316,1711441346152668463,2052,2056,2053,2056,2055,2061,1195
1317,1711441346162665824,2056,2050,2047,2053,2056,2060,1197
1318,1711441346172656624,2056,2057,2082,2057,2056,2052,1197
1319,1711441346182656911,2052,2044,2030,2045,2054,2052,1196
1320,1711441346192627900,2061,2050,2041,2049,2047,2056,1198
1321,1711441346202662245,2058,2052,1992,2058,2064,2056,1197
1322,1711441346212662944,2056,2047,2038,2037,2049,2046,1195
1323,1711441346222663832,2053,2038,2011,2043,2056,2053,1197
1324,1711441346232666395,2053,2047,2024,2063,2058,2054,1195
1325,1711441346242669428,2058,2065,2091,2056,2060,2054,1198
1326,1711441346252689855,2047,2040,2027,1998,2045,2050,1198
1327,1711441346262622078,2058,2052,2026,2056,2052,2047,1193
1328,1711441346272667375,2052,2027,1916,2073,2052,2053,1197
1329,1711441346282668153,2059,2078,2027,2045,2059,2056,1196
1330,1711441346292677679,2050,2039,2019,2069,2052,2056,1198
1331,1711441346302670051,2054,2040,2041,2008,2046,2050,1194
1332,1711441346312666551,2058,2053,2054,2048,2058,2056,1195
1333,1711441346322673321,2056,2056,2060,2069,2068,2050,1195
1334,1711441346332665513,2051,2049,2051,2055,2046,2057,1197
1335,1711441346342675901,2055,2049,2027,2044,2056,2050,1197
1336,1711441346352682250,2052,2045,2009,2036,2056,2052,1196
1337,1711441346362651567,2058,2060,2077,2047,2061,2068,1197
1338,1711441346372657264,2053,2051,2050,2084,2062,2060,1197
1339,1711441346382645098,2050,2052,2059,2060,2050,2054,1196
1340,1711441346392641959,2053,2052,2052,2064,2068,2056,1200
1341,1711441346402642667,2057,2056,2050,2040,2033,2048,1197
1342,1711441346412654457,2057,2052,2056,2060,2054,2056,1199
1343,1711441346422688662,2050,2052,2054,2058,2048,2050,1196
1344,1711441346432648309,2054,2052,2052,2072,2056,2053,1197
1345,1711441346442669959,2051,2050,2041,2070,2053,2052,1199
1346,1711441346452699745,2054,2044,2020,2049,2040,2049,1196
1347,1711441346462662929,2057,2056,2069,2067,2058,2057,1197
1348,1711441346472661523,2053,2032,2031,2037,2067,2052,1197
1349,1711441346482671611,2058,2057,2040,2025,2044,2052,1198
1350,1711441346492669804,2051,2059,2097,2035,2048,2050,1197
1351,1711441346502669660,2048,2024,2045,2083,2056,2049,1194
1352,1711441346512653436,2063,2041,1995,2077,2049,2053,1197
1353,1711441346522667280,2051,2039,2012,2045,2052,2052,1198
1354,1711441346532660173,2054,2049,2037,2065,2088,2065,1197
1355,1711441346542661613,2061,2074,2096,2056,2041,2047,1192
1356,1711441346552679375,2046,2008,1957,2060,2053,2056,1196
1357,1711441346562662018,2060,2044,2002,2065,2073,2058,1196
1358,1711441346572654880,2047,2021,2007,2069,2069,2052,1196
1359,1711441346582654717,2043,2020,1960,2042,2047,2046,1195
1360,1711441346592659965,2053,2043,2007,2064,2045,2045,1192
1361,1711441346602654300,2057,2067,2066,2040,2056,2056,1196
1362,1711441346612656001,2053,2052,2048,2056,2047,2052,1196
1363,1711441346622657651,2053,2050,2053,2066,2020,2046,1193
1364,1711441346632662899,2053,2051,2034,2036,2061,2053,1198
1365,1711441346642662014,2058,2060,2075,1981,2047,2057,1196
1366,1711441346652667992,2064,2068,2114,2053,2058,2050,1197
1367,1711441346662637790,2046,2045,2040,2109,2091,2065,1196
1368,1711441346672658718,2054,2051,2050,2068,2050,2057,1196
1369,1711441346682663264,2052,2053,2052,2037,2043,2044,1193
1370,1711441346692661137,2056,2057,2056,2074,2069,2058,1195
1371,1711441346702666645,2057,2056,2058,2077,2051,2053,1194
1372,1711441346712658286,2056,2052,2020,2043,2056,2060,1197
1373,1711441346722655217,2056,2056,2056,2037,2064,2057,1197
1374,1711441346732659031,2056,2050,2042,2072,2069,2060,1195
1375,1711441346742636203,2057,2055,2030,2084,2064,2054,1196
1376,1711441346752654877,2058,2050,2049,2058,2049,2056,1195
1377,1711441346762659794,2062,2081,2125,2070,2058,2056,1197
1378,1711441346772629220,2054,2040,2040,2052,2056,2052,1194
1379,1711441346782633676,2058,2047,2061,2052,2055,2053,1194
1380,1711441346792629004,2053,2070,2052,2057,2052,2053,1197
1381,1711441346802630965,2052,2045,2039,2050,2045,2051,1198
1382,1711441346812638156,2057,2069,2053,2054,2044,2052,1198
1383,1711441346822659335,2053,2057,2064,2053,2056,2053,1197
1384,1711441346832640635,2055,2045,2020,2059,2052,2052,1198
1385,1711441346842634680,2047,2048,2037,2057,2053,2050,1197
1386,1711441346852655217,2059,2060,2067,2058,2056,2052,1197
1387,1711441346862636017,2056,2056,2058,2052,2056,2054,1197
1388,1711441346872659180,2064,2081,2090,2075,2060,2061,1195
1389,1711441346882637103,2054,2040,2028,2064,2052,2049,1200
1390,1711441346892666839,2049,2032,2036,2060,2052,2059,1196
1391,1711441346902664351,2056,2047,2021,2050,2056,2057,1193
1392,1711441346912646012,2054,2060,2082,2056,2052,2050,1197
1393,1711441346922667591,2056,2053,2085,2045,2053,2048,1196
1394,1711441346932641838,2057,2052,2046,2048,2061,2054,1193
1395,1711441346942640312,2058,2055,2053,2037,2047,2052,1197
1396,1711441346952672482,2052,2049,2003,2064,2055,2056,1197
1397,1711441346962660986,2052,2046,2043,2023,2047,2053,1198
1398,1711441346972662877,2056,2063,2075,2056,2044,2050,1197
1399,1711441346982670349,2054,2049,2056,2070,2053,2052,1196
1400,1711441346992668102,2053,2053,2044,2061,2058,2050,1193
1401,1711441347002675623,2052,2047,2048,2040,2051,2052,1197
1402,1711441347012669266,2050,2045,2023,2012,2046,2052,1196
1403,1711441347022640253,2056,2051,2054,2118,2044,2050,1194
1404,1711441347032667692,2056,2051,2033,2077,2043,2056,1196
1405,1711441347042640413,2059,2069,2128,2057,2049,2056,1196
1406,1711441347052679695,2056,2049,2045,2051,2060,2056,1195
1407,1711441347062650322,2052,2043,2033,1979,2045,2051,1196
1408,1711441347072669114,2054,2048,2005,2066,2057,2061,1197
1409,1711441347082674549,2055,2046,2032,2045,2052,2057,1198
1410,1711441347092652720,2049,2048,2028,2052,2052,2052,1198
1411,1711441347102671763,2059,2071,2084,2036,2054,2057,1194
1412,1711441347112665976,2049,2065,2092,2025,2052,2050,1197
1413,1711441347122644278,2053,2052,2053,1990,2051,2055,1198
1414,1711441347132666016,2055,2052,2054,2059,2052,2056,1196
1415,1711441347142665690,2055,2055,2056,2053,2058,2052,1196
1416,1711441347152669001,2058,2050,2071,2059,2053,2049,1196
1417,1711441347162636662,2052,2057,2088,2038,2063,2054,1198
1418,1711441347172645554,2056,2054,2056,2079,2057,2056,1197
1419,1711441347182668764,2055,2049,2056,2054,2060,2056,1198
1420,1711441347192666815,2054,2054,2045,2054,2062,2053,1196
1421,1711441347202667422,2058,2050,2045,2048,2049,2052,1197
1422,1711441347212665673,2054,2050,2046,2060,2053,2056,1197
1423,1711441347222672120,2058,2056,2056,2052,2053,2052,1198
1424,1711441347232667626,2053,2051,2045,2060,2059,2056,1197
1425,1711441347242679043,2060,2053,2052,2051,2056,2054,1193
1426,1711441347252631213,2058,2064,2098,2069,2054,2055,1197
1427,1711441347262650807,2054,2048,2033,2064,2053,2052,1196
1428,1711441347272680490,2057,2062,2064,2072,2052,2051,1195
1429,1711441347282674613,2056,2056,2074,2036,2056,2052,1196
1430,1711441347292634389,2056,2056,2058,2061,2052,2047,1195
1431,1711441347302635676,2058,2054,2057,2053,2061,2053,1197
1432,1711441347312636832,2057,2050,2053,2051,2043,2053,1195
1433,1711441347322687107,2058,2059,2068,2053,2060,2056,1196
1434,1711441347332635399,2052,2045,2021,2053,2048,2052,1195
1435,1711441347342639712,2054,2049,2024,2066,2056,2055,1193
1436,1711441347352639086,2055,2047,2034,2069,2050,2047,1194
1437,1711441347362641726,2057,2059,2061,2057,2062,2053,1195
1438,1711441347372642432,2058,2056,2077,2068,2053,2054,1197
1439,1711441347382644631,2057,2053,2037,2052,2051,2052,1199
1440,1711441347392647241,2050,2045,2037,2060,2050,2053,1196
1441,1711441347402637126,2062,2057,2044,1986,2053,2056,1196
1442,1711441347412636849,2048,2043,2029,2056,2045,2045,1194
1443,1711441347422679448,2057,2061,2108,2060,2060,2057,1195
1444,1711441347432684844,2054,2046,2032,2054,2049,2052,1197
1445,1711441347442677874,2061,2085,2077,2054,2051,2049,1197
1446,1711441347452636257,2059,2058,2081,2061,2056,2053,1197
1447,1711441347462643627,2053,2056,2076,2074,2048,2050,1197
1448,1711441347472670815,2060,2065,2060,2077,2057,2054,1196
1449,1711441347482648796,2052,2045,2019,2026,2047,2048,1196
1450,1711441347492634152,2052,2044,2019,2005,2056,2055,1196
1451,1711441347502633235,2056,2043,1997,2066,2056,2050,1192
1452,1711441347512630343,2053,2049,2035,2061,2052,2051,1197
1453,1711441347522646530,2063,2089,2194,2064,2059,2058,1197
1454,1711441347532645212,2053,2049,2032,2056,2024,2047,1196
1455,1711441347542635678,2057,2050,2048,2108,2052,2052,1195
1456,1711441347552680963,2052,2048,2044,2078,2053,2052,1197
1457,1711441347562639195,2054,2052,2034,2069,2054,2056,1197
1458,1711441347572636674,2055,2047,2034,2058,2071,2058,1196
1459,1711441347582637801,2058,2058,2062,2045,2050,2048,1196
1460,1711441347592664950,2060,2062,2043,2081,2061,2056,1196
1461,1711441347602655806,2055,2040,2004,2103,2052,2053,1196
1462,1711441347612642274,2056,2054,2008,2060,2050,2053,1195
1463,1711441347622645435,2054,2048,2044,2052,2054,2052,1196
1464,1711441347632646211,2056,2053,2047,2045,2059,2056,1199
1465,1711441347642694300,2056,2053,2059,2091,2069,2055,1195
1466,1711441347652641361,2064,2072,2130,2047,2052,2048,1195
1467,1711441347662646316,2053,2046,2050,2043,2022,2040,1194
1468,1711441347672640449,2065,2090,2190,2078,2054,2052,1196
1469,1711441347682646345,2061,2064,2096,2076,2057,2060,1196
1470,1711441347692704394,2050,2049,2047,2065,2048,2053,1197
1471,1711441347702681984,2053,2053,2047,2056,2044,2046,1192
1472,1711441347712682169,2059,2054,2066,2053,2050,2056,1197
1473,1711441347722657446,2052,2052,2051,2050,2049,2049,1195
1474,1711441347732661258,2052,2046,2029,2047,2048,2049,1196
1475,1711441347742666022,2060,2066,2132,2071,2056,2054,1197
1476,1711441347752657781,2056,2044,2054,2069,2050,2051,1197
1477,1711441347762645791,2058,2056,2053,2062,2056,2053,1196
1478,1711441347772643912,2056,2064,2045,2057,2052,2054,1195
1479,1711441347782645641,2058,2065,2038,2051,2060,2056,1194
1480,1711441347792645695,2050,2060,2061,2012,2056,2048,1192
1481,1711441347802647904,2068,2111,2180,2074,2061,2058,1196
1482,1711441347812645174,2054,2052,2038,2056,2052,2052,1198
1483,1711441347822649838,2058,2061,2061,2049,2053,2053,1197
1484,1711441347832658780,2053,2052,2052,2056,2058,2059,1195
1485,1711441347842644977,2053,2059,2061,2054,2048,2055,1197
1486,1711441347852638800,2057,2048,2052,2076,2057,2053,1198
1487,1711441347862636480,2065,2075,2122,2077,2059,2056,1197
1488,1711441347872638979,2052,2042,2016,2054,2051,2050,1194
1489,1711441347882652882,2056,2053,2045,2057,2056,2054,1196
1490,1711441347892657525,2054,2049,2040,2084,2052,2056,1195
1491,1711441347902647129,2054,2044,2003,2076,2047,2056,1195
1492,1711441347912645241,2057,2059,2041,2080,2057,2057,1195
1493,1711441347922649945,2056,2052,2033,2050,2050,2053,1198
1494,1711441347932659338,2056,2056,2047,2056,2052,2051,1197
1495,1711441347942638672,2054,2046,2027,2048,2052,2050,1197
1496,1711441347952647975,2056,2063,2097,2062,2051,2056,1197
1497,1711441347962649703,2056,2054,2038,2056,2058,2056,1198
1498,1711441347972649989,2056,2053,2069,2060,2056,2056,1196
1499,1711441347982695292,2056,2060,2066,2060,2058,2053,1196
1500,1711441347992644787,2056,2065,2096,2070,2056,2056,1198
1501,1711441348002649641,2053,2051,2045,2056,2059,2053,1198
1502,1711441348012657860,2056,2061,2057,2049,2056,2053,1198
1503,1711441348022652131,2056,2050,2046,2082,2069,2067,1196
1504,1711441348032667734,2054,2046,2046,2061,2036,2056,1197
1505,1711441348042653368,2056,2048,2008,2067,2064,2054,1197
1506,1711441348052648942,2042,2052,2036,2080,2040,2049,1197
1507,1711441348062647201,2058,2059,2054,2078,2062,2052,1196
1508,1711441348072652874,2054,2051,2047,2056,2060,2056,1198
1509,1711441348082671423,2057,2063,2072,2056,2058,2055,1197
1510,1711441348092652077,2057,2060,2074,2062,2056,2049,1198
1511,1711441348102643012,2055,2056,2057,2056,2057,2056,1195
1512,1711441348112650990,2053,2045,2030,2054,2051,2055,1199
1513,1711441348122653307,2049,2053,2037,2061,2051,2048,1196
1514,1711441348132706785,2051,2047,2037,2052,2060,2064,1196
1515,1711441348142656649,2053,2052,2055,1976,2030,2041,1193
1516,1711441348152651179,2058,2053,2050,2053,2060,2057,1195
1517,1711441348162653216,2050,2047,2042,2026,2050,2044,1194
1518,1711441348172651626,2060,2068,2088,2062,2061,2088,1197
1519,1711441348182653151,2057,2053,2075,2053,2024,2064,1198
1520,1711441348192653804,2056,2048,2039,2084,2054,2047,1195
1521,1711441348202648997,2042,2041,2021,2050,1964,2021,1193
1522,1711441348212651805,2060,2064,2070,2057,2054,2057,1199
1523,1711441348222652889,2058,2048,2028,2032,2049,2049,1199
1524,1711441348232662190,2052,2054,2046,2056,2020,2041,1196
1525,1711441348242662473,2064,2068,2060,2058,2057,2054,1196
1526,1711441348252646294,2053,2046,2042,2042,2062,2047,1192
1527,1711441348262665103,2050,2035,2016,2006,2055,2056,1196
1528,1711441348272651659,2054,2028,2019,2062,2052,2053,1197
1529,1711441348282670419,2052,2049,2056,1996,2052,2052,1196
1530,1711441348292651414,2053,2052,2035,1987,2049,2047,1196
1531,1711441348302657307,2050,2047,2035,2044,2045,2047,1194
1532,1711441348312653542,2061,2072,2107,2063,2062,2061,1198
1533,1711441348322655689,2054,2054,2037,2050,2056,2052,1198
1534,1711441348332700459,2062,2069,2093,2056,2062,2056,1198
1535,1711441348342678759,2050,2052,2073,2076,2040,2040,1195
1536,1711441348352654624,2069,2097,2214,2047,2068,2063,1195
1537,1711441348362658875,2053,2051,2049,2074,2055,2051,1196
1538,1711441348372660510,2051,2049,2049,2049,2054,2057,1197
1539,1711441348382674179,2057,2061,2090,2070,2051,2052,1197
1540,1711441348392694803,2056,2057,2049,2061,2065,2053,1196
1541,1711441348402657772,2056,2050,2058,2061,2058,2056,1198
1542,1711441348412658756,2057,2076,2200,2088,2059,2059,1199
1543,1711441348422656564,2056,2053,2065,2021,2045,2050,1196
1544,1711441348432687899,2060,2068,2112,2069,2056,2060,1197
1545,1711441348442662060,2053,2050,2040,2050,2080,2058,1196
1546,1711441348452659707,2050,2041,1993,2065,2061,2053,1196
1547,1711441348462660552,2060,2058,2067,2050,2049,2056,1199
1548,1711441348472660474,2058,2054,2052,2061,2052,2056,1196
1549,1711441348482662170,2056,2054,2058,2056,2051,2048,1195
1550,1711441348492661490,2056,2053,2056,2062,2056,2055,1196
1551,1711441348502664699,2054,2053,2053,2054,2056,2059,1196
1552,1711441348512697076,2057,2053,2053,2057,2047,2056,1196
1553,1711441348522667259,2060,2054,2056,2057,2058,2054,1197
1554,1711441348532695207,2053,2053,2057,2057,2050,2052,1196
1555,1711441348542668767,2058,2049,2053,1987,2052,2056,1196
1556,1711441348552648410,2055,2058,2088,2060,2057,2056,1196
1557,1711441348562670655,2049,2044,2038,2049,2053,2054,1197
1558,1711441348572651911,2056,2049,2028,2056,2053,2050,1198
1559,1711441348582655691,2052,2049,2063,2045,2054,2054,1195
1560,1711441348592659892,2056,2031,2116,2026,2064,2052,1198
1561,1711441348602659443,2052,2052,2093,2058,2040,2052,1197
1562,1711441348612659235,2048,2038,2043,2051,2044,2041,1197
1563,1711441348622660059,2052,2044,2039,2045,2060,2046,1196
1564,1711441348632679549,2052,2052,2054,2060,2057,2057,1197
1565,1711441348642656647,2056,2057,2083,2080,2053,2049,1197
1566,1711441348652663783,2049,2034,2000,2069,2059,2058,1197
1567,1711441348662665570,2056,2056,2088,2076,2046,2054,1198
1568,1711441348672665872,2047,2045,2030,2072,2036,2046,1195
1569,1711441348682693689,2058,2052,2069,2066,2056,2050,1196
1570,1711441348692686087,2054,2052,2037,2064,2056,2050,1197
1571,1711441348702667503,2059,2052,2049,2068,2053,2048,1196
1572,1711441348712668717,2058,2054,2044,2073,2056,2053,1198
1573,1711441348722670202,2052,2053,2057,2049,2052,2056,1196
1574,1711441348732686467,2053,2049,2052,2049,2050,2049,1197
1575,1711441348742657843,2056,2057,2053,2068,2060,2056,1197
1576,1711441348752681211,2052,2060,2102,2050,2053,2052,1197
1577,1711441348762662056,2056,2049,2047,2056,2053,2053,1196
1578,1711441348772662810,2056,2056,2045,2058,2056,2056,1196
1579,1711441348782670848,2053,2048,2029,2049,2053,2056,1197
1580,1711441348792664227,2058,2060,2046,2073,2077,2052,1195
1581,1711441348802663198,2060,2062,2056,2068,2049,2053,1198
1582,1711441348812660976,2053,2051,2057,2056,2053,2052,1198
1583,1711441348822662651,2058,2058,2086,2056,2054,2053,1196
1584,1711441348832662553,2056,2049,2029,2056,2049,2053,1194
1585,1711441348842700962,2051,2043,2027,2059,2057,2051,1196
1586,1711441348852661647,2049,2040,2013,2053,2044,2055,1197
1587,1711441348862661999,2058,2078,2032,2068,2058,2050,1200
1588,1711441348872664457,2054,2053,2025,2062,2057,2064,1198
1589,1711441348882679669,2050,2033,2002,2053,2051,2056,1198
1590,1711441348892675062,2052,2033,2022,2056,2053,2056,1196
1591,1711441348902667199,2056,2049,2021,2043,2049,2052,1195
1592,1711441348912668314,2053,2045,2025,2045,2044,2054,1196
1593,1711441348922673457,2052,2050,2039,1977,2042,2056,1197
1594,1711441348932693197,2049,2044,2009,2029,2046,2047,1194
1595,1711441348942664313,2060,2056,2014,2065,2067,2061,1197
1596,1711441348952656791,2058,2053,2061,2062,2050,2056,1197
1597,1711441348962660401,2056,2052,2037,2065,2057,2049,1197
1598,1711441348972660182,2051,2042,2021,2064,2049,2051,1196
1599,1711441348982666797,2060,2060,2078,2042,2060,2057,1196
1600,1711441348992669826,2050,2041,2029,1977,2045,2051,1197
1601,1711441349002663335,2053,2057,2056,2065,2057,2055,1196
1602,1711441349012666463,2056,2048,2047,2056,2054,2050,1197
1603,1711441349022667905,2068,2082,2155,2065,2064,2059,1197
1604,1711441349032675069,2052,2049,2027,2060,2057,2058,1198
1605,1711441349042660250,2058,2052,2056,2058,2054,2054,1196
1606,1711441349052663126,2049,2048,2045,2050,2052,2054,1199
1607,1711441349062666452,2046,2045,2047,2048,2053,2051,1199
1608,1711441349072671112,2050,2049,2042,2074,2049,2048,1195
1609,1711441349082668046,2064,2068,2141,2072,2060,2060,1199
1610,1711441349092671513,2056,2049,2040,2065,2057,2052,1197
1611,1711441349102662134,2056,2054,2059,2056,2056,2053,1194
1612,1711441349112666433,2055,2051,2046,2066,2052,2050,1196
1613,1711441349122671112,2053,2024,2016,2069,2056,2048,1197
1614,1711441349132680371,2053,2024,2020,2060,2052,2056,1195
1615,1711441349142666794,2050,2030,2007,2057,2054,2053,1196
1616,1711441349152675551,2060,2084,2121,2078,2046,2056,1199
1617,1711441349162670982,2057,2047,2056,2056,2051,2058,1197
1618,1711441349172663798,2050,2053,2042,2053,2053,2053,1197
1619,1711441349182667254,2051,2062,2088,2085,2055,2051,1196
1620,1711441349192671634,2056,2053,2050,2072,2066,2053,1198
1621,1711441349202680391,2058,2064,2102,2052,2051,2052,1195
1622,1711441349212663077,2048,2053,2052,2056,2048,2053,1198
1623,1711441349222664249,2058,2058,2074,2054,2054,2056,1197
1624,1711441349232671543,2053,2046,2011,2076,2064,2049,1196
1625,1711441349242674850,2060,2056,2043,2063,2051,2054,1196
1626,1711441349252669108,2056,2052,2044,2089,2057,2056,1196
1627,1711441349262667947,2054,2032,2074,2053,2052,2053,1197
1628,1711441349272675181,2053,2034,2033,1994,2056,2051,1196
1629,1711441349282672386,2050,2040,2024,2050,2052,2047,1194
1630,1711441349292678488,2057,2085,2050,2053,2056,2054,1198
1631,1711441349302670351,2050,2056,2062,2053,2051,2050,1194
1632,1711441349312670041,2054,2045,2028,2076,2053,2056,1197
1633,1711441349322643219,2061,2059,2017,2085,2064,2059,1197
1634,1711441349332643289,2056,2061,2114,2056,2047,2051,1196
1635,1711441349342684871,2056,2041,2018,2051,2044,2043,1194
1636,1711441349352659681,2059,2049,2038,2064,2057,2060,1194
1637,1711441349362672666,2060,2061,2056,2057,2057,2056,1197
1638,1711441349372643248,2042,2049,2036,2043,2051,2052,1197
1639,1711441349382645363,2067,2086,2189,2056,2057,2054,1197
1640,1711441349392666315,2060,2060,2112,2062,2058,2056,1196
1641,1711441349402671905,2059,2068,2054,1973,2052,2052,1198
1642,1711441349412644792,2048,2047,2047,2052,2063,2053,1196
1643,1711441349422644832,2052,2040,2040,2042,2056,2053,1200
1644,1711441349432674861,2060,2072,2116,2058,2056,2057,1198
1645,1711441349442692437,2049,2044,2023,2026,2049,2049,1196
1646,1711441349452675934,2056,2072,2122,2037,2063,2057,1197
1647,1711441349462685803,2063,2066,2028,2042,2057,2050,1198
1648,1711441349472674150,2054,2047,2028,2056,2047,2050,1197
1649,1711441349482650343,2061,2065,2067,2058,2052,2055,1196
1650,1711441349492641516,2054,2057,2073,2041,2057,2053,1196
1651,1711441349502642539,2057,2056,2054,2054,2050,2052,1197
1652,1711441349512675554,2056,2050,2048,2059,2052,2052,1196
1653,1711441349522644643,2061,2059,2061,2061,2052,2057,1199
1654,1711441349532644683,2054,2048,2053,1996,2045,2052,1196
1655,1711441349542693709,2066,2081,2136,2033,2059,2056,1197
1656,1711441349552677307,2056,2050,2053,2057,2054,2054,1197
1657,1711441349562648270,2056,2053,2033,2056,2056,2053,1196
1658,1711441349572645124,2053,2058,2078,2055,2064,2047,1194
1659,1711441349582642369,2058,2061,2112,2058,2056,2053,1196
1660,1711441349592682447,2052,2053,2052,2056,2055,2056,1196
1661,1711441349602687527,2059,2057,2034,2057,2056,2051,1197
1662,1711441349612647188,2056,2051,2045,2024,2056,2056,1199
1663,1711441349622648260,2056,2049,2056,2049,2052,2054,1196
1664,1711441349632647359,2057,2025,2029,2052,2053,2056,1196
1665,1711441349642657559,2054,2023,2021,2056,2052,2052,1197
1666,1711441349652625756,2050,2054,2037,2057,2053,2055,1197
1667,1711441349662645084,2059,2054,2068,2048,2052,2052,1196
1668,1711441349672648270,2059,2055,2061,2058,2052,2050,1196
1669,1711441349682647649,2060,2050,2014,2054,2060,2058,1196
1670,1711441349692680525,2056,2056,2053,2079,2049,2057,1195
1671,1711441349702645375,2061,2053,2024,2064,2057,2052,1195
1672,1711441349712645936,2064,2098,2105,2056,2054,2052,1197
1673,1711441349722650375,2064,2062,2051,2060,2060,2057,1195
1674,1711441349732654172,2056,2083,2072,2057,2056,2054,1196
1675,1711441349743081033,2073,2089,2082,2058,2058,2056,1195
1676,1711441349752695424,2052,2040,2046,2068,2052,2052,1195
1677,1711441349762652490,2053,2045,2002,2076,2056,2059,1195
1678,1711441349772650536,2050,2041,2033,2054,2052,2053,1195
1679,1711441349782707758,2060,2052,2050,2057,2041,2037,1194
1680,1711441349792663872,2052,2053,2040,2054,2050,2053,1196
1681,1711441349802698330,2061,2053,2029,1998,2043,2045,1194
1682,1711441349812654504,2053,2045,2028,2048,2042,2043,1194
1683,1711441349822650787,2058,2052,2040,2069,2065,2051,1197
1684,1711441349832724542,2052,2050,2015,2046,2044,2050,1198
1685,1711441349842654514,2060,2057,2041,2056,2065,2058,1198
1686,1711441349852697007,2047,2046,2047,2065,2036,2052,1195
1687,1711441349862655606,2053,2047,2036,2050,2057,2062,1197
1688,1711441349872657080,2057,2062,2089,2050,2047,2062,1198
1689,1711441349882734873,2054,2043,2013,2027,2022,1978,1196
1690,1711441349892700625,2056,2058,2080,2058,2056,2056,1198
1691,1711441349902656077,2058,2060,2090,2056,2050,2053,1196
1692,1711441349912702439,2056,2046,2027,2055,2050,2057,1196
1693,1711441349922686918,2053,2037,2027,2056,2057,2054,1197
1694,1711441349932660196,2055,2043,2045,2061,2051,2050,1195
1695,1711441349942619025,2060,2051,2090,2061,2048,2046,1195
1696,1711441349952705375,2054,2050,2022,2053,2055,2053,1197
1697,1711441349962644695,2060,2059,2094,2053,2053,2054,1200
1698,1711441349972649414,2050,2068,2045,2011,2049,2047,1195
1699,1711441349982648202,2068,2094,2246,2068,2063,2061,1195
1700,1711441349992692800,2060,2056,2021,2051,2051,2049,1198
1701,1711441350002655146,2058,2056,2066,2050,2057,2056,1198
1702,1711441350012650985,2054,2044,2049,2057,2053,2056,1199
1703,1711441350022653368,2059,2054,2077,2056,2054,2053,1197
1704,1711441350032718784,2057,2046,2022,2061,2053,2053,1196
1705,1711441350042653724,2056,2064,2004,2054,2057,2062,1195
1706,1711441350052654263,2056,2039,2044,2047,2050,2057,1196
1707,1711441350062652316,2066,2037,2012,2058,2056,2058,1195
1708,1711441350072655932,2058,2061,2040,2053,2050,2056,1196
1709,1711441350082712701,2053,2036,2013,2046,2052,2053,1197
1710,1711441350092663181,2052,2050,2049,2052,2049,2053,1195
1711,1711441350102648500,2055,2057,2057,2072,2059,2057,1193
1712,1711441350112645031,2057,2068,2124,2071,2057,2058,1196
1713,1711441350122646372,2058,2049,2041,2060,2042,2050,1196
1714,1711441350132656369,2053,2061,2040,2056,2053,2053,1196
1715,1711441350142650645,2064,2080,2125,2061,2058,2058,1195
1716,1711441350152652647,2056,2058,2056,2064,2049,2048,1195
1717,1711441350162647615,2052,2052,2048,2056,2049,2054,1196
1718,1711441350172645569,2056,2048,2052,2062,2052,2049,1196
1719,1711441350182641589,2054,2048,2043,2051,2068,2054,1196
1720,1711441350192648811,2054,2074,2127,2057,2049,2056,1198
1721,1711441350202649880,2058,2059,2084,2054,2049,2056,1197
1722,1711441350212652884,2053,2054,2045,2051,2067,2049,1199
1723,1711441350222642893,2060,2058,2037,2064,2047,2050,1198
1724,1711441350232651587,2057,2053,2041,2061,2054,2048,1197
1725,1711441350242646144,2053,2052,2052,2055,2056,2050,1195
1726,1711441350252646253,2053,2046,2050,2039,2052,2052,1194
1727,1711441350262654336,2052,2047,2057,1987,2057,2054,1197
1728,1711441350272646829,2054,2052,2050,2066,2057,2054,1199
1729,1711441350282645805,2056,2051,2052,2052,2049,2056,1198
1730,1711441350292650922,2052,2052,2060,2056,2053,2056,1196
1731,1711441350302644688,2054,2062,2025,2056,2053,2054,1196
1732,1711441350312641098,2048,2059,2043,2052,2052,2050,1196
1733,1711441350322639233,2047,2068,2059,2052,2048,2047,1194
1734,1711441350332662085,2057,2050,2044,2056,2048,2053,1196
1735,1711441350342652154,2057,2081,2062,2056,2069,2056,1197
1736,1711441350352643184,2053,2076,2052,2054,2051,2051,1197
1737,1711441350362635747,2049,2043,2069,2061,2056,2054,1196
1738,1711441350372646656,2050,2079,2068,2085,2052,2047,1193
1739,1711441350382652846,2054,2040,2034,2067,2053,2054,1196
1740,1711441350392652112,2060,2064,2061,2057,2056,2052,1195
1741,1711441350402642852,2061,2051,2024,2053,2057,2054,1198
1742,1711441350412644673,2054,2043,2003,2056,2051,2050,1196
1743,1711441350422643409,2056,2052,2065,2049,2050,2053,1195
1744,1711441350432651261,2055,2051,2078,2070,2056,2056,1195
1745,1711441350442651530,2057,2046,2052,2057,2056,2056,1195
1746,1711441350452653322,2054,2049,2041,2089,2058,2053,1195
1747,1711441350462645323,2048,2039,2024,2058,2037,2054,1196
1748,1711441350472642506,2054,2066,2114,2061,2057,2060,1198
1749,1711441350482643535,2056,2056,2041,2068,2040,2054,1199
1750,1711441350492655667,2047,2042,2040,2072,2098,2061,1198
1751,1711441350502637940,2052,2056,2036,2052,2045,2050,1195
1752,1711441350512643338,2050,2056,2060,2054,2054,2053,1196
1753,1711441350522642895,2056,2052,2052,2052,2049,2054,1197
1754,1711441350532647071,2061,2074,2148,2056,2046,2056,1196
1755,1711441350542640255,2055,2054,2056,2059,2052,2052,1197
1756,1711441350552651746,2058,2065,2068,2081,2063,2056,1197
1757,1711441350562647946,2049,2037,2040,2068,2066,2052,1197
1758,1711441350572641852,2055,2042,2042,2061,2064,2053,1197
1759,1711441350582652150,2064,2092,2092,2056,2059,2056,1197
1760,1711441350592652719,2047,2036,2017,2047,2045,2042,1192
1761,1711441350602650893,2050,2049,2085,2056,2056,2060,1197
1762,1711441350612644959,2048,2023,2022,2052,2053,2052,1199
1763,1711441350622640629,2057,2069,2051,2069,2057,2052,1196
1764,1711441350632647639,2053,2060,2060,1982,2056,2056,1196
1765,1711441350642656605,2056,2048,2040,2057,2057,2061,1196
1766,1711441350652639450,2049,2041,2052,2070,2052,2051,1197
1767,1711441350662645238,2056,2042,2035,2057,2053,2057,1197
1768,1711441350672643232,2049,2046,2022,2056,2052,2052,1197
1769,1711441350682649282,2054,2049,2040,2067,2056,2053,1196
1770,1711441350692648358,2050,2039,2031,2056,2052,2052,1197
1771,1711441350702642495,2059,2075,2089,2077,2053,2053,1194
1772,1711441350712642702,2058,2077,2132,2084,2064,2065,1197
1773,1711441350722644404,2061,2066,2098,2060,2059,2060,1195
1774,1711441350732674811,2060,2071,2123,2066,2060,2057,1194
1775,1711441350742649118,2049,2050,2037,2081,2056,2056,1197
1776,1711441350752654076,2049,2045,2052,2049,2067,2050,1200
1777,1711441350762649835,2053,2052,2058,2058,2054,2053,1195
1778,1711441350772649603,2060,2064,2066,2064,2059,2060,1196
1779,1711441350782675471,2055,2047,2029,2084,2056,2052,1196
1780,1711441350792650500,2049,2053,2083,2068,2056,2046,1195
1781,1711441350802646079,2054,2056,2056,2056,2058,2056,1199
1782,1711441350812653741,2053,2057,2073,2055,2057,2054,1200
1783,1711441350822696464,2062,2063,2089,2065,2064,2059,1197
1784,1711441350832661011,2054,2045,2012,2060,2056,2053,1197
1785,1711441350842646170,2056,2058,2077,2060,2064,2052,1195
1786,1711441350852648513,2054,2056,2058,2060,2055,2054,1197
1787,1711441350862647267,2058,2052,2045,2072,2056,2053,1198
1788,1711441350872646244,2045,2038,2037,2040,2048,2047,1195
1789,1711441350882654818,2057,2060,2092,2056,2076,2050,1196
1790,1711441350892657641,2056,2049,2040,2059,2056,2056,1197
1791,1711441350902647429,2061,2070,2096,2060,2056,2055,1197
1792,1711441350912646364,2056,2053,2048,2049,2051,2056,1197
1793,1711441350922667324,2058,2056,2064,2057,2050,2056,1197
1794,1711441350932628124,2047,2046,2056,2056,2067,2045,1194
1795,1711441350942646328,2068,2060,2033,2069,2057,2061,1196
1796,1711441350952648310,2057,2040,2028,2043,2050,2053,1197
1797,1711441350962646884,2056,2050,2052,2058,2056,2053,1195
1798,1711441350972649137,2056,2052,2056,2056,2056,2052,1197
1799,1711441350982654405,2060,2072,2102,2093,2055,2061,1199
1800,1711441350992653050,2053,2062,2113,2066,2052,2056,1197
1801,1711441351002654541,2054,2048,2016,2044,2036,2050,1197
1802,1711441351012655297,2050,2040,2036,2056,2060,2052,1198
1803,1711441351022658418,2056,2049,2038,2053,2047,2049,1197
1804,1711441351032661260,2048,2051,2052,2056,2061,2056,1195
1805,1711441351042670414,2056,2045,2009,2059,2056,2054,1198
1806,1711441351052661752,2062,2080,2121,2068,2058,2058,1197
1807,1711441351062646427,2056,2049,2032,2060,2056,2052,1198
1808,1711441351072671933,2056,2056,2057,2073,2061,2053,1195
1809,1711441351082676527,2061,2056,2002,2096,2058,2061,1195
1810,1711441351092638157,2051,2049,2011,2064,2060,2054,1196
1811,1711441351102649655,2049,2047,2045,2060,2056,2051,1196
1812,1711441351112643789,2055,2072,2146,2076,2073,2054,1196
1813,1711441351122644566,2052,2047,2052,2048,2053,2052,1200
1814,1711441351132687606,2056,2052,2050,2053,2068,2057,1197
1815,1711441351142644757,2051,2072,2058,2060,2068,2066,1199
1816,1711441351152657668,2061,2068,2089,2060,2065,2068,1196
1817,1711441351162648135,2058,2049,2049,2055,2062,2052,1198
1818,1711441351172647018,2053,2052,2053,2064,2022,2030,1196
1819,1711441351182678907,2057,2053,2061,2098,2070,2048,1196
1820,1711441351192655046,2056,2054,2052,2060,2084,2061,1196
1821,1711441351202643237,2062,2059,2061,2056,2056,2055,1197
1822,1711441351212646359,2052,2053,2053,2053,2056,2057,1199
1823,1711441351222650633,2059,2053,2019,2060,2056,2054,1196
1824,1711441351232704354,2057,2044,2042,2040,2053,2054,1197
1825,1711441351242641246,2049,2040,2042,2053,2054,2054,1197
1826,1711441351252651471,2047,2068,2027,2066,2053,2048,1196
1827,1711441351262646697,2054,2053,1981,2048,2049,2052,1195
1828,1711441351272645370,2055,2044,1979,2048,2052,2052,1197
1829,1711441351282646558,2053,2035,1994,2052,2050,2051,1197
1830,1711441351292650892,2050,2050,2045,2050,2047,2043,1196
1831,1711441351302656588,2064,2082,2095,2081,2068,2063,1195
1832,1711441351312649650,2050,2060,2105,2052,2052,2053,1197
1833,1711441351322648603,2058,2068,2058,2053,2053,2051,1197
1834,1711441351332678818,2059,2068,2074,2055,2045,2045,1192
1835,1711441351342646470,2056,2055,2032,2064,2057,2056,1196
1836,1711441351352649241,2064,2085,2156,2071,2058,2056,1197
1837,1711441351362652463,2057,2057,2084,2068,2056,2048,1193
1838,1711441351372651977,2057,2054,2060,2060,2064,2064,1196
1839,1711441351382656302,2060,2069,2132,1998,2051,2055,1194
1840,1711441351392657288,2048,2061,2100,2067,2053,2053,1196
1841,1711441351402651112,2062,2070,2082,2067,2045,2053,1196
1842,1711441351412646028,2052,2049,2077,2049,2000,2050,1198
1843,1711441351422647766,2056,2044,2022,2064,2041,2057,1198
1844,1711441351432717750,2057,2050,2056,2032,2053,2048,1197
1845,1711441351442662687,2058,2065,2105,2062,2061,2060,1196
1846,1711441351452648445,2056,2053,2037,2054,2066,2053,1196
1847,1711441351462643460,2053,2048,2052,2058,2060,2052,1197
1848,1711441351472645640,2054,2054,2052,2059,2053,2052,1196
1849,1711441351482644303,2061,2061,2080,2062,2065,2061,1196
1850,1711441351492655180,2052,2047,2041,2064,2050,2050,1195
1851,1711441351502643452,2052,2047,2033,2058,2053,2052,1195
1852,1711441351512645652,2047,2045,2037,2064,2052,2047,1194
1853,1711441351522651779,2066,2072,2096,2080,2091,2069,1197
1854,1711441351532682375,2048,2045,2016,2053,2051,2050,1195
1855,1711441351542652922,2058,2040,2037,2060,2054,2053,1195
1856,1711441351552650563,2061,2073,2108,2056,2056,2061,1197
1857,1711441351562649878,2046,2041,2007,2066,2054,2057,1196
1858,1711441351572649472,2051,2051,2056,2056,2056,2050,1197
1859,1711441351582656000,2054,2052,2056,2054,2047,2056,1194
1860,1711441351592649763,2054,2064,2056,2048,2051,2052,1198
1861,1711441351602646533,2049,2051,2069,2050,2051,2056,1197
1862,1711441351612647080,2060,2074,2086,2052,2046,2058,1197
1863,1711441351622647125,2035,2028,2013,2040,2040,2044,1194
1864,1711441351632698903,2053,2039,1967,2052,2054,2056,1197
1865,1711441351642653849,2054,2053,2053,2064,2051,2056,1198
1866,1711441351652650428,2050,2049,2053,2074,2052,2050,1197
1867,1711441351662649291,2050,2044,2028,2058,2049,2046,1196
1868,1711441351672643445,2052,2053,2053,2058,2058,2053,1197
1869,1711441351682655905,2064,2058,2058,2055,2054,2052,1197
1870,1711441351692646071,2056,2051,2054,2056,2052,2050,1196
1871,1711441351702647279,2058,2058,2060,2056,2059,2059,1196
1872,1711441351712644288,2052,2052,2056,2054,2056,2049,1197
1873,1711441351722654223,2057,2056,2053,2054,2056,2057,1197
1874,1711441351732748885,2052,2048,2043,2053,2051,2053,1195
1875,1711441351742648914,2064,2054,2050,2056,2056,2056,1194
1876,1711441351752647547,2052,2046,2028,2047,2057,2045,1192
1877,1711441351762660658,2057,2061,2024,2012,2054,2057,1197
1878,1711441351772649201,2052,2064,2078,2056,2051,2044,1195
1879,1711441351782682622,2056,2058,2080,2057,2056,2057,1196
1880,1711441351792650254,2054,2052,2030,2059,2055,2053,1196
1881,1711441351802650710,2053,2052,2040,2029,2051,2051,1194
1882,1711441351812649704,2057,2068,2060,2083,2070,2059,1197
1883,1711441351822651262,2059,2056,2052,2068,2065,2056,1196
1884,1711441351832678772,2049,2050,2050,2043,2046,2048,1198
1885,1711441351842654309,2059,2068,2116,2057,2059,2052,1196
1886,1711441351852643373,2056,2047,2040,2002,2045,2047,1195
1887,1711441351862649722,2055,2053,2050,2066,2064,2053,1200
1888,1711441351872650548,2058,2050,2024,2057,2057,2049,1196
1889,1711441351882689240,2060,2067,2092,2061,2052,2052,1197
1890,1711441351892652062,2056,2052,2051,2058,2054,2056,1197
1891,1711441351902649523,2064,2056,2047,2064,2056,2058,1194
1892,1711441351912649238,2062,2069,2113,2088,2061,2054,1197
1893,1711441351922652109,2058,2042,2028,2056,2040,2051,1196
1894,1711441351932686913,2059,2072,2104,2088,2061,2056,1195
1895,1711441351942659654,2054,2056,2058,2053,2052,2056,1194
1896,1711441351952648117,2056,2052,2057,2048,2052,2053,1198
1897,1711441351962651710,2060,2072,2153,2062,2062,2058,1198
1898,1711441351972652046,2057,2057,2048,2051,2057,2056,1197
1899,1711441351982660568,2052,2047,2046,1995,2052,2053,1194
1900,1711441351992654732,2044,2050,2055,2054,2047,2053,1198
1901,1711441352002651060,2056,2050,2040,2057,2036,2045,1194
1902,1711441352012651264,2050,2042,2004,2037,2038,2052,1197
1903,1711441352022653672,2051,2053,2037,2053,2056,2052,1197
1904,1711441352032737640,2060,2061,2081,2058,2053,2056,1196
1905,1711441352042650391,2060,2051,2017,2057,2051,2047,1195
1906,1711441352052649964,2050,2044,2037,2061,2056,2054,1197
1907,1711441352062656039,2065,2064,2056,2060,2056,2056,1196
1908,1711441352072655090,2060,2068,2108,2066,2056,2053,1196
1909,1711441352082748708,2053,2046,2052,2072,2059,2049,1198
1910,1711441352092665567,2057,2056,2053,2068,2057,2061,1197
1911,1711441352102654018,2053,2049,2037,2056,2043,2048,1194
1912,1711441352112655223,2052,2047,2038,1998,2048,2053,1197
1913,1711441352122655918,2056,2050,2048,2056,2049,2049,1194
1914,1711441352132658486,2047,2049,2048,2057,2054,2051,1196
1915,1711441352142716223,2061,2056,2064,2066,2050,2052,1196
1916,1711441352152658112,2047,2050,2036,2051,2054,2052,1194
1917,1711441352162651993,2053,2049,2026,2064,2053,2056,1197
1918,1711441352172658459,2056,2063,2068,2058,2051,2054,1195
1919,1711441352182658021,2050,2044,2028,2052,2060,2054,1198
1920,1711441352192663215,2056,2049,2012,2085,2056,2058,1195
1921,1711441352202655352,2053,2056,2052,2064,2050,2049,1200
1922,1711441352212656147,2054,2053,2052,2056,2055,2050,1197
1923,1711441352222670849,2054,2047,2038,2046,2053,2057,1197
1924,1711441352232693016,2057,2052,2033,2056,2050,2047,1194
1925,1711441352242658281,2041,2041,2043,2044,2049,2050,1197
1926,1711441352252654727,2060,2061,2062,2037,2052,2057,1199
1927,1711441352262666583,2053,2048,2025,2052,2056,2052,1196
1928,1711441352272657920,2053,2058,2059,2058,2047,2049,1198
1929,1711441352282658865,2061,2050,2003,2059,2054,2055,1196
1930,1711441352292644319,2053,2056,2050,2047,2049,2043,1195
1931,1711441352302657739,2057,2056,2065,2059,2059,2060,1191
1932,1711441352312652682,2050,2038,2019,2049,2050,2056,1196
1933,1711441352322659549,2068,2074,2085,2068,2061,2054,1195
1934,1711441352332660724,2056,2046,2056,2060,2053,2052,1196
1935,1711441352342659435,2059,2053,2060,2058,2056,2060,1197
1936,1711441352352659939,2059,2057,2054,2064,2054,2058,1196
1937,1711441352362659812,2057,2054,2053,2050,2050,2056,1196
1938,1711441352372658252,2050,2050,2037,2051,2056,2056,1197
1939,1711441352382658786,2073,2069,2076,2057,2052,2053,1195
1940,1711441352392659982,2055,2040,1998,2061,2063,2054,1196
1941,1711441352402659344,2057,2056,2071,2053,2058,2055,1196
1942,1711441352412660810,2060,2068,2083,1992,2062,2053,1196
1943,1711441352422661885,2056,2052,2043,2048,2056,2058,1196
1944,1711441352432661958,2048,2045,2028,2061,2049,2051,1196
1945,1711441352442661300,2060,2068,2072,2056,2056,2050,1196
1946,1711441352452669720,2058,2061,2059,2059,2061,2057,1197
1947,1711441352462663932,2053,2057,2059,2054,2053,2051,1196
1948,1711441352472662292,2060,2067,2111,2059,2060,2052,1198
1949,1711441352482663517,2058,2053,2060,2053,2052,2054,1197
1950,1711441352492664322,2056,2050,2024,2051,2045,2056,1196
1951,1711441352502666770,2048,2051,2058,2058,2040,2044,1192
1952,1711441352512666723,2056,2052,2024,2055,2056,2060,1196
1953,1711441352522661707,2072,2076,2101,2060,2055,2060,1196
1954,1711441352532666048,2057,2047,2025,2056,2054,2053,1197
1955,1711441352542663046,2054,2053,2067,2071,2061,2050,1197
1956,1711441352552661426,2053,2049,2035,2049,2042,2049,1197
1957,1711441352562665206,2053,2034,1999,2043,2032,2046,1195
1958,1711441352572658997,2049,2047,2033,2051,2072,2052,1195
1959,1711441352582664171,2052,2052,2057,2058,2046,2052,1196
1960,1711441352592670767,2052,2047,2036,2049,2048,2051,1196
1961,1711441352602669928,2052,2054,2058,2008,2056,2057,1197
1962,1711441352612666645,2054,2052,2050,2053,2049,2049,1196
1963,1711441352622671097,2058,2060,2105,2061,2051,2056,1196
1964,1711441352632632514,2054,2056,2005,2068,2061,2060,1198
1965,1711441352642672576,2056,2058,2050,2056,2050,2057,1195
1966,1711441352652645967,2057,2056,2080,2050,2049,2052,1196
1967,1711441352662671961,2057,2059,2081,2052,2056,2059,1195
1968,1711441352672672395,2049,2044,2038,2027,2046,2049,1196
1969,1711441352682674212,2053,2055,2068,2060,2058,2057,1195
1970,1711441352692677512,2053,2045,2009,2056,2051,2057,1195
1971,1711441352702670742,2056,2042,2021,2061,2052,2057,1195
1972,1711441352712671386,2052,2042,2019,2046,2061,2053,1197
1973,1711441352722678363,2057,2054,2069,2047,2052,2050,1196
1974,1711441352732677435,2050,2043,2032,2008,2054,2052,1195
1975,1711441352744767406,2057,2058,2067,2057,2065,2056,1197
1976,1711441352752662341,2052,2039,1993,2046,2048,2053,1194
1977,1711441352762665741,2056,2050,2050,2052,2056,2058,1194
1978,1711441352772665874,2058,2054,2057,2053,2049,2052,1195
1979,1711441352782668032,2050,2057,2068,2066,2042,2036,1194
1980,1711441352792665340,2052,2046,2040,2053,2058,2053,1197
1981,1711441352802666896,2052,2052,2041,2081,2056,2055,1198
1982,1711441352812667691,2050,2044,2016,2061,2056,2052,1197
1983,1711441352822667123,2056,2062,2057,2058,2054,2054,1197
1984,1711441352832673519,2050,2048,2039,2051,2051,2053,1197
1985,1711441352842670957,2050,2056,2050,2054,2056,2055,1196
1986,1711441352852669227,2056,2056,2064,2049,2049,2045,1194
1987,1711441352862669460,2064,2061,2074,2069,2066,2060,1197
1988,1711441352872668712,2054,2049,2044,2076,2052,2050,1196
1989,1711441352882669948,2053,2053,2060,2068,2056,2057,1197
1990,1711441352892674760,2063,2069,2088,2052,2064,2057,1198
1991,1711441352902677699,2053,2050,2040,2050,2054,2056,1195
1992,1711441352912671761,2044,2045,2062,2048,2056,2049,1196
1993,1711441352922670942,2054,2056,2084,2062,2061,2052,1194
1994,1711441352932674703,2057,2060,2087,2046,2052,2056,1194
1995,1711441352942667412,2056,2056,2077,2058,2050,2056,1196
1996,1711441352952623508,2050,2054,2044,2053,2050,2049,1196
1997,1711441352962670765,2054,2058,2056,2050,2056,2050,1197
1998,1711441352972624837,2048,2045,2031,1981,2039,2047,1194
1999,1711441352982671112,2056,2044,2031,2052,2052,2053,1195
2000,1711441352992671255,2053,2049,2033,2050,2056,2055,1195
2001,1711441353002667701,2042,2043,2000,2056,2047,2050,1196
2002,1711441353012643936,2058,2080,2081,2055,2056,2059,1196
2003,1711441353022669597,2060,2069,2106,2064,2046,2051,1198
2004,1711441353034174462,2051,2051,2055,2070,2049,2050,1197
2005,1711441353042668176,2055,2056,2058,2069,2053,2054,1197
2006,1711441353052669819,2055,2048,2027,2045,2050,2048,1195
2007,1711441353062671795,2052,2042,2022,2057,2051,2051,1196
2008,1711441353072672517,2052,2057,2074,2055,2047,2060,1195
2009,1711441353082671266,2043,2042,2006,2044,2047,2056,1195
2010,1711441353092687999,2058,2067,2076,2061,2053,2057,1197
2011,1711441353102671548,2059,2067,2060,2073,2064,2056,1194
2012,1711441353112672951,2060,2054,2076,2053,2052,2056,1197
2013,1711441353122673814,2056,2054,2045,2068,2064,2062,1197
2014,1711441353132671610,2056,2052,2058,2052,2036,2052,1197
2015,1711441353142681862,2052,2057,2056,2047,2052,2052,1197
2016,1711441353152673757,2055,2054,2058,2061,2066,2053,1196
2017,1711441353162676132,2054,2058,2059,2041,2054,2054,1195
2018,1711441353172672095,2047,2045,2041,2026,2032,2043,1195
2019,1711441353182673028,2056,2056,2077,2069,2063,2058,1196
2020,1711441353192679802,2060,2056,2080,2067,2055,2059,1197
2021,1711441353202628622,2058,2064,2101,2042,2041,2056,1198
2022,1711441353212670546,2061,2056,2055,2060,2061,2066,1200
2023,1711441353222677240,2056,2052,2056,2055,2052,2054,1198
2024,1711441353232675277,2056,2056,2053,2048,2043,2054,1196
2025,1711441353242690377,2058,2056,2060,2056,2050,2056,1198
2026,1711441353252673145,2050,2054,2053,2057,2045,2048,1196
2027,1711441353262675099,2057,2056,2054,2060,2059,2057,1196
2028,1711441353272633980,2051,2048,2055,2015,2039,2045,1194
2029,1711441353282674550,2061,2056,2040,2072,2069,2056,1196
2030,1711441353292679862,2049,2053,2042,2063,2038,2052,1196
2031,1711441353302671326,2058,2050,2012,2068,2049,2054,1194
2032,1711441353312629885,2045,2035,2024,2011,2041,2042,1194
2033,1711441353322685345,2058,2064,2082,2064,2050,2057,1196
2034,1711441353332676919,2049,2042,2017,2047,2045,2048,1196
2035,1711441353342675087,2053,2052,2057,2062,2053,2056,1196
2036,1711441353352591863,2056,2060,2053,2037,2052,2047,1197
2037,1711441353362676922,2056,2047,2036,2058,2050,2048,1198
2038,1711441353372677304,2052,2053,2048,2056,2047,2047,1194
2039,1711441353382634400,2054,2050,2059,2052,2053,2056,1198
2040,1711441353392675031,2056,2053,2047,2053,2054,2053,1197
2041,1711441353402630114,2060,2051,2055,2052,2046,2047,1195
2042,1711441353412633471,2058,2069,2121,2058,2058,2058,1196
2043,1711441353422686176,2053,2045,2041,2054,2053,2056,1196
2044,1711441353432677159,2054,2052,2046,2060,2059,2056,1198
2045,1711441353442682050,2054,2064,2073,2064,2060,2053,1199
2046,1711441353452680447,2056,2056,2060,2045,2053,2054,1198
2047,1711441353462637905,2054,2047,2040,2064,2063,2049,1197
2048,1711441353472636743,2057,2056,2032,2047,2044,2049,1196
2049,1711441353482633197,2056,2044,2041,2048,2053,2053,1196
2050,1711441353492679128,2055,2053,2046,2051,2052,2056,1197
2051,1711441353502627076,2060,2072,2126,2064,2056,2056,1195
2052,1711441353512636506,2054,2057,2097,2056,2056,2056,1195
2053,1711441353522686445,2060,2076,2094,2065,2058,2058,1195
2054,1711441353532688601,2057,2065,2092,2058,2056,2054,1195
2055,1711441353542685856,2056,2048,2040,2056,2066,2045,1193
2056,1711441353552635669,2054,2052,2056,2058,2056,2056,1196
2057,1711441353562640058,2064,2045,2024,2066,2071,2056,1197
2058,1711441353572641722,2056,2057,2096,2057,2047,2056,1197
2059,1711441353582638256,2061,2058,2060,2053,2049,2054,1196
2060,1711441353592686392,2053,2052,2054,2056,2064,2050,1197
2061,1711441353602687745,2056,2054,2052,2044,2045,2054,1197
2062,1711441353612648428,2057,2053,2090,2060,2051,2057,1196
2063,1711441353622643510,2057,2054,2052,2056,2050,2052,1197
2064,1711441353632638210,2053,2049,2048,2044,2045,2045,1195
2065,1711441353642644394,2060,2067,2099,2061,2051,2055,1197
2066,1711441353652626239,2056,2054,2029,2057,2058,2051,1197
2067,1711441353662636139,2056,2053,2066,2056,2054,2053,1195
2068,1711441353672634396,2055,2053,2051,2061,2052,2055,1197
2069,1711441353682643376,2057,2056,2058,2064,2054,2054,1197
2070,1711441353692631753,2051,2056,2065,2066,2054,2052,1196
2071,1711441353702633398,2058,2052,2040,2056,2056,2056,1194
2072,1711441353712634019,2054,2056,2060,2057,2057,2053,1195
2073,1711441353722640033,2058,2058,2067,2062,2057,2057,1197
2074,1711441353732701905,2059,2064,2092,2062,2056,2053,1196
2075,1711441353742629093,2053,2048,2052,2056,2053,2054,1196
2076,1711441353753247011,2055,2052,2045,2054,2052,2052,1196
2077,1711441353762636650,2060,2052,2037,2056,2052,2056,1196
2078,1711441353772637602,2053,2052,2053,2037,2056,2056,1196
2079,1711441353782634096,2056,2053,2066,2052,2053,2056,1197
2080,1711441353792632404,2051,2045,2012,2056,2051,2050,1195
2081,1711441353802640440,2056,2046,2011,2060,2056,2057,1197
2082,1711441353812642225,2053,2056,2052,2034,2055,2052,1195
2083,1711441353822641584,2056,2057,2057,2060,2049,2056,1198
2084,1711441353832684130,2056,2048,2013,2057,2065,2062,1197
2085,1711441353842639402,2057,2047,2060,2059,2053,2054,1197
2086,1711441353852640445,2054,2047,2021,2045,2051,2053,1195
2087,1711441353862641979,2061,2060,2060,2061,2054,2056,1196
2088,1711441353872642852,2056,2051,2037,2046,2049,2046,1193
2089,1711441353882645598,2057,2053,2030,2056,2060,2056,1196
2090,1711441353892642403,2060,2053,2054,2066,2064,2056,1197
2091,1711441353902645840,2049,2045,2027,2055,2045,2051,1195
2092,1711441353912682804,2060,2076,2160,2060,2057,2056,1195
2093,1711441353922629560,2055,2051,2044,2061,2056,2053,1196
2094,1711441353932691843,2052,2050,2061,2046,2043,2050,1196
2095,1711441353942632117,2056,2045,2044,2032,2052,2053,1195
2096,1711441353952634713,2053,2046,2033,2047,2056,2052,1197
2097,1711441353962635556,2057,2055,2059,2056,2057,2045,1192
2098,1711441353972637089,2065,2084,2125,2076,2076,2061,1197
2099,1711441353982639545,2057,2053,2050,2054,2050,2057,1197
2100,1711441353992640408,2060,2060,2052,2056,2051,2059,1197
2101,1711441354002634858,2051,2053,2041,2063,2070,2058,1196
2102,1711441354012639706,2055,2056,2053,2051,2047,2049,1196
2103,1711441354022631788,2053,2052,2047,2073,2062,2046,1195
2104,1711441354032703358,2062,2062,2056,2064,2094,2061,1195
2105,1711441354042642176,2058,2053,2051,2060,2064,2053,1198
2106,1711441354052644439,2052,2048,2025,2027,2035,2050,1196
2107,1711441354062637113,2052,2046,2033,2050,2047,2056,1197
2108,1711441354072634767,2057,2068,2077,2052,2066,2065,1198
2109,1711441354082645227,2054,2045,2039,2060,2056,2058,1198
2110,1711441354092639604,2056,2054,2022,2047,2045,2051,1197
2111,1711441354102634653,2058,2054,2056,2045,2056,2053,1193
2112,1711441354112636105,2052,2055,2049,2021,2048,2053,1197
2113,1711441354122650021,2056,2049,2046,2058,2053,2056,1196
2114,1711441354132664047,2051,2044,2029,2057,2058,2053,1198
2115,1711441354142641893,2052,2046,2036,2054,2050,2057,1194
2116,1711441354152632563,2067,2060,2038,2075,2078,2060,1196
2117,1711441354162631510,2056,2049,2024,2072,2077,2060,1195
2118,1711441354172634735,2053,2058,2053,2064,2059,2053,1197
2119,1711441354182634011,2058,2061,2091,2053,2042,2053,1194
2120,1711441354192643388,2047,2041,2025,2052,2048,2049,1194
2121,1711441354202635441,2060,2068,2105,2054,2052,2058,1198
2122,1711441354212636452,2053,2053,2052,2047,2046,2050,1197
2123,1711441354222644587,2057,2054,2050,2059,2065,2057,1197
2124,1711441354232634956,2051,2045,2025,2042,2044,2052,1197
2125,1711441354242650556,2058,2049,2028,2056,2046,2052,1195
2126,1711441354252638411,2054,2050,2024,2061,2075,2056,1197
2127,1711441354262639291,2058,2054,2057,2066,2066,2058,1196
2128,1711441354272637246,2056,2054,2054,2045,2053,2061,1197
2129,1711441354282635401,2057,2056,2056,2052,2047,2056,1196
2130,1711441354292646261,2050,2053,2060,2056,2056,2056,1197
2131,1711441354302638344,2056,2056,2052,2064,2060,2056,1196
2132,1711441354312641489,2056,2060,2072,2045,2049,2053,1197
2133,1711441354322702157,2061,2068,2077,2066,2061,2058,1196
2134,1711441354334087595,2056,2058,2077,2056,2052,2052,1197
2135,1711441354342651393,2057,2050,2036,2047,2048,2065,1196
2136,1711441354352693104,2060,2085,2190,2060,2052,2064,1197
2137,1711441354362655920,2055,2046,2022,2050,2059,2052,1196
2138,1711441354372655468,2052,2046,2030,2060,2061,2056,1198
2139,1711441354382652611,2059,2068,2058,2067,2064,2061,1196
2140,1711441354392703991,2057,2051,2005,2056,2056,2053,1192
2141,1711441354402660784,2061,2053,2011,2061,2060,2056,1196
2142,1711441354412660823,2053,2049,2035,2058,2057,2054,1198
2143,1711441354422647045,2061,2066,2090,2061,2045,2056,1196
2144,1711441354432701040,2050,2060,2108,2058,2053,2051,1198
2145,1711441354442752911,2053,2052,2036,2053,2050,2048,1195
2146,1711441354452651299,2056,2069,2099,2064,2052,2050,1195
2147,1711441354462653051,2054,2047,2036,2052,2046,2052,1197
2148,1711441354472643541,2053,2047,2020,2040,2050,2054,1196
2149,1711441354482639372,2046,2041,2029,2032,2049,2051,1197
2150,1711441354492643418,2058,2053,2052,2054,2056,2054,1198
2151,1711441354502641402,2061,2068,2113,2064,2056,2056,1194
2152,1711441354512644357,2053,2050,2020,2052,2052,2053,1197
2153,1711441354522639155,2060,2056,2030,2060,2049,2056,1196
2154,1711441354532660486,2057,2065,2085,2050,2041,2052,1196
2155,1711441354542637950,2057,2060,2117,2079,2053,2053,1197
2156,1711441354552645534,2051,2048,2038,2049,2057,2060,1197
2157,1711441354562646024,2056,2066,2079,2057,2050,2053,1195
2158,1711441354572648778,2056,2061,2076,2061,2056,2056,1195
2159,1711441354582644999,2052,2052,2050,2045,2047,2049,1195
2160,1711441354592650679,2056,2052,2053,2061,2052,2053,1195
2161,1711441354602643233,2056,2052,2053,2043,2052,2056,1200
2162,1711441354612644284,2052,2044,2029,2050,2048,2047,1196
2163,1711441354622649102,2065,2089,2176,2052,2059,2060,1197
2164,1711441354632712395,2054,2049,2044,2056,2051,2053,1198
2165,1711441354642668277,2056,2053,2054,2056,2049,2047,1195
2166,1711441354652660670,2052,2054,2054,2052,2054,2051,1196
2167,1711441354662655949,2057,2052,2039,2055,2056,2048,1196
2168,1711441354672649656,2053,2053,2042,2053,2052,2052,1196
2169,1711441354682650145,2057,2056,2064,2065,2052,2050,1196
2170,1711441354692652258,2057,2060,2065,2069,2054,2052,1196
2171,1711441354702648369,2056,2053,2062,2077,2057,2055,1194
2172,1711441354712640462,2058,2078,2127,2060,2054,2053,1196
2173,1711441354722640321,2054,2048,2044,2056,2058,2049,1196
2174,1711441354732709997,2053,2054,2053,2057,2050,2054,1197
2175,1711441354742712290,2056,2056,2059,2054,2057,2053,1195
2176,1711441354752714643,2052,2054,2061,2051,2050,2050,1197
2177,1711441354762644013,2056,2050,2047,2048,2050,2052,1197
2178,1711441354772645434,2056,2054,2049,2052,2048,2053,1196
2179,1711441354782644642,2060,2057,2026,2097,2063,2057,1197
2180,1711441354792643338,2049,2047,2050,2035,2047,2047,1195
2181,1711441354802665560,2057,2054,2046,2061,2056,2055,1196
2182,1711441354812644346,2061,2093,2157,2059,2057,2058,1197
2183,1711441354822642651,2052,2038,2003,2054,2049,2051,1193
2184,1711441354832709021,2056,2064,2060,2054,2053,2053,1196
2185,1711441354842662528,2053,2049,2028,2051,2052,2056,1195
2186,1711441354852664310,2032,2033,1998,2060,2036,2030,1192
2187,1711441354862645612,2057,2045,2026,2057,2045,2053,1197
2188,1711441354872644799,2056,2054,2048,2054,2053,2056,1196
2189,1711441354882649097,2057,2050,2037,2069,2068,2047,1193
2190,1711441354892653614,2056,2058,2086,2065,2060,2058,1196
2191,1711441354902665647,2056,2052,2040,2051,2061,2058,1194
2192,1711441354912647720,2055,2058,2060,2057,2056,2053,1197
2193,1711441354922642208,2058,2049,2047,2082,2060,2056,1197
2194,1711441354932660392,2052,2047,2047,2046,2056,2050,1197
2195,1711441354942665972,2055,2052,2049,2052,2051,2050,1197
2196,1711441354952661783,2056,2046,2033,2049,2061,2052,1194
2197,1711441354962643796,2048,2040,2018,2053,2048,2056,1197
2198,1711441354972643864,2054,2046,2011,2045,2051,2054,1196
2199,1711441354982645105,2054,2053,2032,2065,2051,2056,1197
2200,1711441354992659923,2052,2049,2048,2058,2052,2052,1194
2201,1711441355002647226,2058,2061,2075,2061,2056,2054,1198
2202,1711441355012648406,2057,2055,2071,2064,2068,2056,1200
2203,1711441355022650957,2061,2069,2097,2065,2057,2057,1197
2204,1711441355032716903,2052,2049,2044,2050,2044,2041,1194
2205,1711441355042714115,2060,2049,2022,2069,2060,2058,1196
2206,1711441355052666246,2054,2050,2046,2068,2053,2051,1196
2207,1711441355062657246,2056,2061,2085,2061,2057,2056,1197
2208,1711441355072654947,2050,2046,2036,2066,2052,2046,1196
2209,1711441355082639824,2064,2073,2083,2072,2064,2056,1195
2210,1711441355092666112,2050,2043,2013,2047,2052,2051,1196
2211,1711441355102637261,2056,2049,2053,2057,2056,2051,1196
2212,1711441355112662929,2054,2056,2056,2054,2051,2053,1194
