seq,time,data[0],data[1],data[2],data[3],data[4],data[5],data[6]
201,1716365127612435623,2032,2001,1929,2033,2092,2081,1194
202,1716365127622444446,2047,2070,2110,2068,2050,1960,1193
203,1716365127632438632,2050,2045,2041,2013,2062,2071,1196
204,1716365127642444420,2053,2047,2040,2072,2058,2011,1194
205,1716365127652465235,2056,2044,2012,2028,2092,2051,1196
206,1716365127662450484,2069,2104,2233,2056,2063,2069,1195
207,1716365127672442066,2069,2074,2117,2100,2074,2142,1194
208,1716365127682446451,2053,2052,2044,2011,2017,1904,1192
209,1716365127692439284,2060,2047,2028,2052,2043,2068,1198
210,1716365127702442126,2056,2049,1996,2072,2065,2068,1194
211,1716365127712438947,2060,2057,2030,2047,2056,2067,1196
212,1716365127722451948,2037,2036,1985,2045,2043,2045,1191
213,1716365127732439181,2054,2053,2056,2097,2048,2048,1196
214,1716365127742442294,2064,2086,2150,2096,2059,2052,1196
215,1716365127752438333,2053,2064,2120,2086,2042,2060,1194
216,1716365127762444903,2056,2040,2044,2067,2064,1976,1193
217,1716365127772439659,2040,2032,2028,2064,2073,2232,1194
218,1716365127782443203,2045,2050,2080,2005,2065,2089,1196
219,1716365127792441156,2053,2040,2052,1998,2046,2052,1195
220,1716365127802441634,2064,2059,2102,2079,2062,2058,1195
221,1716365127812443594,2048,2056,2106,2062,2100,2067,1197
222,1716365127822444052,2056,2043,2033,2073,2096,2086,1195
223,1716365127832442495,2042,2026,1985,2044,2038,2056,1196
224,1716365127842442653,2050,2027,1979,2046,2079,1968,1194
225,1716365127852442320,2039,2015,1945,2021,2034,2056,1194
226,1716365127862442887,2041,2024,1992,2030,2064,2072,1194
227,1716365127872444187,2052,2042,2016,2045,2066,2095,1194
228,1716365127882442069,2051,2056,2025,1984,2044,2143,1197
229,1716365127892449110,2048,2036,1980,2046,1950,2088,1195
230,1716365127902447573,2056,2047,2049,2069,2064,2050,1195
231,1716365127912442882,2049,2035,2037,2017,2029,2046,1192
232,1716365127922447296,2049,2036,2025,2056,2070,2040,1192
233,1716365127932441793,2062,2065,2072,2069,2041,2016,1194
234,1716365127942439275,2056,2051,2077,2084,2059,2073,1193
235,1716365127952457656,2072,2100,2184,2050,2062,2064,1196
236,1716365127962445250,2077,2123,2354,2077,2082,2077,1195
237,1716365127972444546,2057,2052,2065,2065,2050,2072,1196
238,1716365127982441918,2049,2045,2036,2098,2056,2051,1197
239,1716365127992442626,2060,2056,2048,2018,2032,2047,1192
240,1716365128002449726,2058,2060,2093,2046,2057,2033,1193
241,1716365128012439734,2056,2055,2051,2053,2041,2073,1195
242,1716365128022444270,2058,2094,2211,2088,2061,2058,1196
243,1716365128032439929,2066,2084,2193,2056,2052,2056,1195
244,1716365128042447530,2069,2094,2134,2060,2072,2109,1196
245,1716365128052441166,2067,2058,2024,2064,2053,2047,1193
246,1716365128062492338,2044,2041,2009,2062,2056,2048,1197
247,1716365128072447983,2060,2039,2004,2075,2046,2042,1191
248,1716365128082455024,2050,2041,2010,2030,2065,2060,1195
249,1716365128092445473,2081,2158,2326,2104,2062,2086,1193
250,1716365128102438989,2054,2042,2057,2009,2062,2090,1194
251,1716365128112462089,2057,2045,2017,2054,2021,2029,1192
252,1716365128122445226,2059,2061,2104,2046,2057,2053,1196
253,1716365128132442127,2066,2073,2084,2066,2045,2089,1195
254,1716365128142452915,2045,2056,2089,2022,2067,2053,1195
255,1716365128152440640,2050,2028,2004,2005,2041,2042,1193
256,1716365128162446037,2042,2047,2070,1986,2077,2072,1196
257,1716365128172455642,2052,2041,2031,2033,2039,2049,1196
258,1716365128182442044,2060,2080,2100,2096,2085,2106,1196
259,1716365128192443595,2052,2033,2008,2084,2058,2018,1193
260,1716365128202448130,2077,2092,2109,2092,2101,2066,1199
261,1716365128212443810,2046,2061,2174,2089,2060,2116,1194
262,1716365128222449287,2051,2056,2035,2072,2072,2066,1193
263,1716365128232438324,2048,2050,2048,2029,2048,2120,1195
264,1716365128242447248,2048,2051,2066,2041,2061,2066,1194
265,1716365128252440533,2072,2046,2038,2062,2068,2056,1193
266,1716365128262444959,2048,2033,1969,2052,2027,2125,1197
267,1716365128272445096,2057,2024,1944,2036,2030,2040,1191
268,1716365128282442980,2066,2055,2086,1859,2057,2080,1193
269,1716365128292441855,2051,2065,2143,2098,2068,2124,1197
270,1716365128302440550,2052,2084,2204,2107,2108,2065,1195
271,1716365128312439405,2057,2056,2050,2074,2052,2009,1192
272,1716365128322445213,2051,2063,2081,2077,2076,2087,1196
273,1716365128332439861,2034,2065,2089,2002,2046,2082,1197
274,1716365128342444537,2047,2040,2013,1976,2105,2137,1197
275,1716365128352452659,2063,2079,2134,2033,2056,1928,1192
276,1716365128362467425,2068,2063,2073,2056,2047,1992,1192
277,1716365128372446072,2074,2112,2274,2080,2068,2067,1197
278,1716365128382442363,2066,2139,2344,2154,2084,2064,1198
279,1716365128392445075,2037,2049,2067,2037,2008,1909,1194
280,1716365128402445764,2061,2088,2226,2145,2042,2041,1194
281,1716365128412450230,2028,2049,2046,2050,2038,2077,1195
282,1716365128422452612,2040,2044,2033,2103,2072,2054,1195
283,1716365128432443933,2061,2067,2077,2054,2092,2186,1196
284,1716365128442443559,2040,2061,2127,2042,2069,2072,1196
285,1716365128452443527,2060,2056,2072,2027,2034,2042,1193
286,1716365128462443685,2041,2019,1986,2012,2006,2026,1191
287,1716365128472447860,2046,2040,2015,2058,2042,2015,1192
288,1716365128482443038,2047,2027,1980,2098,2105,2058,1195
289,1716365128492445160,2042,2030,1960,2025,2030,2084,1194
290,1716365128502443815,2049,2057,2121,2142,2087,2072,1193
291,1716365128512445736,2058,2037,1996,2037,2108,2155,1195
292,1716365128522456082,2040,2025,1925,1976,2044,2129,1196
293,1716365128532443626,2069,2081,2117,2108,2058,2078,1196
294,1716365128542442582,2046,2029,1994,2017,2064,2043,1192
295,1716365128552443591,2041,2037,2060,1930,2037,2034,1192
296,1716365128562444270,2044,2041,2031,2061,2058,2141,1195
297,1716365128572438356,2040,2035,2034,2068,2061,2101,1197
298,1716365128582445557,2059,2069,2067,2090,2055,2042,1195
299,1716365128592439523,2036,2008,1881,2057,2054,2074,1197
300,1716365128602446784,2052,2040,2012,2047,2112,2081,1196
301,1716365128612445309,2058,2057,2094,2065,2051,2099,1195
302,1716365128622448062,2050,2040,2021,2042,2045,2042,1196
303,1716365128632444963,2068,2057,2029,2054,2017,1987,1192
304,1716365128642445522,2054,2046,2018,2033,2073,2050,1196
305,1716365128652442713,2062,2064,2036,1975,2020,2029,1193
306,1716365128662446067,2046,2044,2033,2077,2090,2049,1196
307,1716365128672439032,2044,2042,1997,2111,2015,2056,1192
308,1716365128682447825,2034,2043,2036,2082,2073,2073,1197
309,1716365128692442373,2047,2022,1967,2052,2021,2047,1193
310,1716365128702446397,2056,2024,1919,2018,2060,2077,1196
311,1716365128712450072,2056,2051,2052,2077,2045,2056,1195
312,1716365128722447935,2047,2040,2024,2074,2073,2064,1196
313,1716365128732446811,2046,2036,2031,2068,2043,2012,1192
314,1716365128742450765,2050,2032,1994,2028,2020,2009,1193
315,1716365128752442267,2056,2057,2052,2141,2068,2066,1195
316,1716365128762428759,2065,2058,2078,2101,2113,2156,1193
317,1716365128772440468,2064,2061,2064,2037,2061,2081,1197
318,1716365128782466113,2063,2017,1928,2028,2068,2034,1192
319,1716365128792444310,2024,2015,1997,2042,2043,2044,1192
320,1716365128802446261,2036,2036,2038,2037,2081,2089,1194
321,1716365128812442031,2072,2047,2026,2072,2041,2061,1195
322,1716365128822448310,2052,2054,2068,2089,2074,2120,1195
323,1716365128832442326,2068,2044,2034,2041,2009,1865,1192
324,1716365128842449607,2052,2027,1978,2039,2075,2059,1196
325,1716365128852445036,2042,2062,2089,2038,1996,2003,1195
326,1716365128862442038,2051,2029,1998,2019,2059,2093,1198
327,1716365128872452785,2077,2051,2041,1956,2017,2019,1192
328,1716365128882444928,2027,2033,2028,2048,2050,2077,1195
329,1716365128892447710,2039,2037,1995,2042,2031,2060,1195
330,1716365128902443751,2047,2025,1977,2048,2026,2042,1195
331,1716365128912437536,2041,2027,1978,2019,2049,2064,1196
332,1716365128922446381,2046,2036,2030,2045,2065,2058,1195
333,1716365128932444575,2052,2019,1905,2038,2013,2036,1193
334,1716365128942445353,2056,2031,1977,2052,2064,2134,1197
335,1716365128952442877,2051,2077,2091,2050,2044,1896,1193
336,1716365128962442002,2077,2053,2011,2062,2056,2041,1195
337,1716365128972457378,2051,2021,1995,2056,2027,2030,1192
338,1716365128982448840,2047,2030,1968,2039,2059,2109,1197
339,1716365128992446082,2044,2035,2035,2049,1992,2014,1192
340,1716365129002445779,2053,2064,2082,2086,2029,1988,1194
341,1716365129012479048,2048,2041,1989,2044,2023,2017,1194
342,1716365129022449070,2056,2048,2063,2109,2062,1992,1193
343,1716365129032442306,2056,2047,2054,2054,1998,2073,1196
344,1716365129042448385,2065,2068,2140,2061,2066,2053,1195
345,1716365129052443454,2033,2044,2005,2102,2061,2055,1193
346,1716365129062446648,2049,2041,1994,2094,2081,2086,1196
347,1716365129072450252,2054,2072,2143,2051,2052,2019,1192
348,1716365129082448137,2067,2107,2310,2091,2093,2088,1195
349,1716365129092449346,2056,2056,2081,2057,2037,2052,1197
350,1716365129102443374,2069,2043,1999,2064,2065,2058,1197
351,1716365129112447069,2069,2063,2124,1982,2041,2053,1195
352,1716365129122455722,2012,2040,2034,2052,2054,2051,1196
353,1716365129132444550,2072,2091,2177,2053,2047,2025,1195
354,1716365129142443225,2053,2058,2081,2052,2047,1937,1195
355,1716365129152459614,2047,2036,2025,2004,2008,2056,1196
356,1716365129162441939,2050,2062,2027,2066,2061,2072,1197
357,1716365129172457726,2054,2053,2062,2054,2057,2052,1195
358,1716365129182442226,2047,2021,1957,1987,2074,2062,1197
359,1716365129192446582,2063,2047,2046,2080,2029,2109,1196
360,1716365129202442913,2088,2064,2065,2045,2061,2045,1193
361,1716365129212446698,2104,2088,2091,2061,1988,1984,1195
362,1716365129222448549,2049,2030,1992,2056,2065,2092,1196
363,1716365129232444038,2040,2032,2019,2043,2026,2044,1194
364,1716365129242441342,2052,2041,2009,2057,2048,2035,1194
365,1716365129252441910,2056,2064,2070,2080,2043,1923,1191
366,1716365129262447109,2058,2084,2190,2041,2043,2069,1195
367,1716365129272443299,2031,2030,2013,2059,2017,2001,1192
368,1716365129282442185,2066,2077,2093,2070,2090,2097,1194
369,1716365129292441192,2056,2049,2009,2036,2024,2034,1193
370,1716365129302444555,2059,2066,2113,2093,2080,2076,1194
371,1716365129312443742,2061,2072,2078,2088,2041,1988,1193
372,1716365129322442447,2058,2053,2030,2050,2081,2101,1195
373,1716365129332441224,2056,2052,2012,2026,2032,2047,1192
374,1716365129342444547,2036,2010,1978,2037,2082,2067,1196
375,1716365129352441510,2078,2046,2032,2092,2072,2154,1194
376,1716365129362446046,2045,2043,2052,2066,2072,2011,1189
377,1716365129372442067,2042,2037,2026,2043,2041,2043,1193
378,1716365129382444329,2051,2052,2027,2033,2040,2048,1195
379,1716365129392446190,2042,2067,2117,2011,2024,2050,1194
380,1716365129402467819,2049,2075,2185,2079,2017,2021,1192
381,1716365129412477024,2060,2033,1979,2091,2046,2050,1196
382,1716365129422451404,2029,2020,1986,2042,2114,2146,1193
383,1716365129432443677,2084,2049,1974,2073,2077,2092,1195
384,1716365129442446201,2044,2040,2034,2082,2056,2054,1196
385,1716365129452441349,2041,2044,2021,2028,1994,2065,1196
386,1716365129462443441,2064,2100,2211,2024,2070,2054,1195
387,1716365129472443811,2044,2056,2031,2040,2036,1993,1190
388,1716365129482441013,2052,2038,2025,2068,2079,2077,1195
389,1716365129492445990,2065,2080,2117,2069,1985,2057,1196
390,1716365129502441650,2055,2029,1997,1967,2056,2050,1195
391,1716365129512448992,2045,2107,2362,2093,2021,1997,1193
392,1716365129522443148,2085,2081,2092,2053,2088,1956,1196
393,1716365129532443117,2037,2055,2064,2061,2048,2069,1198
394,1716365129542439968,2060,2053,2064,2085,2077,2159,1196
395,1716365129552442021,2058,2030,1987,2081,2037,2136,1194
396,1716365129562466274,2062,2044,2034,2007,2081,2072,1199
397,1716365129572441916,2066,2081,2122,2050,2032,2050,1196
398,1716365129582444199,2043,2024,1977,2026,1993,2065,1197
399,1716365129592440600,2046,2046,2055,1907,2021,2061,1196
400,1716365129602441380,2050,2042,2070,2060,2075,2100,1197
401,1716365129612470140,2050,2029,1992,2032,1962,2024,1194
402,1716365129622442267,2028,2024,1977,2028,1986,1974,1192
403,1716365129632443136,2025,2038,2020,2051,2057,2060,1194
404,1716365129642441522,2026,2052,2075,2089,2038,1974,1193
405,1716365129652440328,2025,2037,2052,2041,2005,2024,1192
406,1716365129662443661,2072,2072,2073,2061,2049,2086,1196
407,1716365129672440845,2072,2058,2047,2013,2047,2033,1189
408,1716365129682443767,2047,2040,2001,2061,2058,2009,1192
409,1716365129692440861,2054,2036,1973,2003,2041,2023,1194
410,1716365129702440698,2050,2038,2003,1901,2028,1901,1193
411,1716365129712440686,2056,2047,2018,2052,2057,2061,1195
412,1716365129722471430,2068,2065,2100,2035,2130,2104,1197
413,1716365129732445471,2062,2132,2340,2064,2032,2023,1194
414,1716365129742441341,2067,2079,2078,2069,2066,1997,1190
415,1716365129752437913,2033,1998,1916,2060,2046,2003,1193
416,1716365129762443562,2061,2056,2047,2060,2076,2088,1194
417,1716365129772440964,2048,2066,2124,2086,2028,2069,1197
418,1716365129782444249,2039,2022,1972,1948,1997,2020,1194
419,1716365129792440299,2065,2044,2038,2036,2017,2012,1194
420,1716365129802441339,2054,2040,2026,2065,2086,1992,1194
421,1716365129812443451,2057,2028,1946,2067,2036,2052,1194
422,1716365129822452576,2041,2020,1983,2024,2043,2052,1196
423,1716365129832439058,2061,2054,2079,2066,2040,2036,1194
424,1716365129842445559,2057,2035,2010,2072,2068,2045,1194
425,1716365129852445327,2061,2068,2077,2051,2074,2047,1194
426,1716365129862443220,2058,2072,2085,2092,2089,1961,1195
427,1716365129872445663,2058,2068,2115,2113,2022,2058,1196
428,1716365129882443356,2041,2027,1997,2059,2002,1974,1193
429,1716365129892442393,2058,2048,2026,1946,2049,2059,1197
430,1716365129902443202,2062,2088,2152,2065,2077,2010,1192
431,1716365129912457106,2059,2052,2045,2074,2047,1978,1193
432,1716365129922442968,2056,2060,2068,2093,2057,2065,1195
433,1716365129932440591,2041,2032,1949,2060,2030,2041,1194
434,1716365129942442974,2067,2015,1901,2132,2048,2040,1193
435,1716365129952439585,2059,2036,1951,2039,2041,2038,1192
436,1716365129962443100,2066,2057,2052,2052,2068,2064,1195
437,1716365129972442166,2053,2055,2058,2047,2009,1986,1192
438,1716365129982443076,2039,2046,2071,2079,2072,2047,1193
439,1716365129992442843,2037,2037,2073,2042,2047,2073,1196
440,1716365130002446248,2016,2004,1933,1992,2080,2020,1194
441,1716365130012446137,2078,2063,2044,2105,2065,2072,1197
442,1716365130022443391,2086,2114,2193,2057,2077,2083,1197
443,1716365130032440063,2032,2040,1977,2040,2056,2098,1197
444,1716365130042440372,2037,2026,1969,1984,2064,2061,1198
445,1716365130052440671,2056,2078,2115,2088,2058,2110,1197
446,1716365130062445669,2058,2048,2076,2149,2108,2023,1193
447,1716365130072447391,2066,2064,2074,2072,2029,2045,1192
448,1716365130082441187,2069,2042,1995,2062,2088,2016,1194
449,1716365130092439343,2066,2052,2047,1955,2014,2014,1193
450,1716365130102439662,2108,2075,2136,2053,2081,2069,1193
451,1716365130112456051,2054,2069,2112,2028,1988,2056,1197
452,1716365130122444628,2053,2034,2034,2000,2047,2048,1197
453,1716365130132439969,2042,2042,2022,2057,2044,2066,1193
454,1716365130142443864,2034,2028,2026,2058,2092,1947,1193
455,1716365130152440386,2052,2056,2072,2032,2012,2076,1193
456,1716365130162442799,2064,2057,2044,2080,2044,2047,1193
457,1716365130172444361,2040,2030,2038,2047,2040,2093,1195
458,1716365130182441224,2066,2047,2000,2085,2044,2033,1195
459,1716365130192440100,2039,2033,1990,2063,2051,2008,1194
460,1716365130202443224,2027,2016,1953,1994,2069,2108,1196
461,1716365130212431641,2049,2037,1993,2020,2066,2085,1196
462,1716365130222443652,2064,2041,2028,2056,2066,1992,1193
463,1716365130232411230,2060,2072,2114,2091,2048,2070,1197
464,1716365130242445172,2053,2041,2026,2068,2058,2056,1195
465,1716365130252444619,2052,2081,2131,2082,2028,2033,1194
466,1716365130262445690,2051,2040,2035,2075,2060,1921,1192
467,1716365130272442022,2066,2081,2147,2078,2032,2043,1194
468,1716365130282444385,2053,2041,1992,2053,2066,2083,1198
469,1716365130292443943,2057,2051,2027,2032,2048,2096,1195
470,1716365130302442258,2041,2069,2156,2080,2069,2073,1197
471,1716365130312444291,2035,2042,2005,2072,2053,2141,1194
472,1716365130322445301,2041,2024,2005,2002,2034,1958,1193
473,1716365130332442124,2047,2025,1992,1976,2003,2040,1194
474,1716365130342441831,2041,2045,2048,2012,2084,2098,1196
475,1716365130352441109,2069,2068,2092,2072,2050,2054,1196
476,1716365130362445726,2063,2073,2034,2118,2073,2099,1196
477,1716365130372445063,2052,2040,1980,2109,2040,2043,1194
478,1716365130382443178,2050,2045,2016,2031,2047,1955,1194
479,1716365130392444038,2056,2059,2078,2048,2032,2059,1195
480,1716365130402442574,2069,2059,2061,2040,2075,2078,1196
481,1716365130412454586,2053,2042,2016,2038,2073,2086,1194
482,1716365130422439867,2070,2028,1980,2061,2021,1920,1193
483,1716365130432440967,2027,2062,2146,2049,2024,2037,1195
484,1716365130442442469,2045,2040,2019,2030,2051,2031,1195
485,1716365130452456383,2048,2035,1935,1996,2007,2016,1192
486,1716365130462443668,2044,2021,1960,2044,2106,2079,1196
487,1716365130472450830,2050,2054,2056,2038,2034,2044,1193
488,1716365130482448183,2042,2045,2037,2065,2085,2048,1194
489,1716365130492449855,2073,2055,2042,2032,1949,1988,1192
490,1716365130502442760,2027,2050,2041,2044,2096,2092,1197
491,1716365130512446896,2042,2053,2052,2072,2077,2096,1196
492,1716365130522446574,2073,2079,2141,2085,2086,2178,1197
493,1716365130532441413,2058,2057,2005,2028,1968,1904,1193
494,1716365130542438466,2072,2095,2117,2104,2097,2082,1196
495,1716365130552438084,2060,2054,2044,2065,2038,2046,1194
496,1716365130562439706,2056,2053,2068,2083,2018,1994,1193
497,1716365130572446828,2040,2035,2008,2057,2031,2089,1197
498,1716365130582448149,2058,2041,2030,2078,2072,2061,1196
499,1716365130592446895,2060,2050,2033,2018,2027,2014,1193
500,1716365130602445251,2067,2076,2086,2057,2044,2157,1194
501,1716365130612443436,2051,2045,2036,2040,2044,2076,1194
502,1716365130622443144,2029,2062,2158,2096,2092,2048,1198
503,1716365130632441309,2049,2044,2020,2036,2024,2034,1194
504,1716365130642441317,2058,2069,2123,2065,2068,2061,1196
505,1716365130652443380,2062,2061,2053,2043,2058,2155,1197
506,1716365130662441915,2050,2045,2056,2040,2077,2089,1194
507,1716365130672442515,2057,2058,2056,2060,2029,2034,1191
508,1716365130682441421,2061,2037,2014,2057,2061,2000,1192
509,1716365130692441220,2052,2056,2085,2061,2040,2025,1194
510,1716365130702444325,2052,2050,2037,2013,2064,2048,1197
511,1716365130712484518,2052,2055,2088,2061,2064,2088,1195
512,1716365130722443160,2054,2040,1994,1995,2054,2037,1192
513,1716365130732444491,2062,2044,2000,2054,2048,2050,1195
514,1716365130742438618,2053,2030,1986,2064,2055,2038,1192
515,1716365130752442875,2032,2036,2032,2041,2016,2060,1195
516,1716365130762442372,2052,2047,2014,2057,2059,2064,1193
517,1716365130772444996,2061,2068,2100,2058,2062,2078,1197
518,1716365130782441498,2043,2029,2015,2048,2074,2092,1196
519,1716365130792441436,2039,2033,2028,2061,1968,1875,1193
520,1716365130802439320,2034,2038,2024,1999,2061,2024,1194
521,1716365130812446081,2062,2065,2126,2060,2042,2044,1194
522,1716365130822450658,2048,2047,2051,2046,2065,2056,1196
523,1716365130832445588,2060,2097,2193,2073,2064,2104,1196
524,1716365130842441640,2046,2034,2005,2015,2094,2074,1195
525,1716365130852456816,2052,2040,2042,2113,2027,2034,1194
526,1716365130862444242,2052,2018,1939,2066,2065,2098,1195
527,1716365130872442817,2064,2052,2080,2058,2033,1985,1190
528,1716365130882449458,2028,2037,2034,2040,2016,2057,1197
529,1716365130892446241,2060,2062,2059,2090,2050,2077,1195
530,1716365130902444215,2038,2044,2037,2024,2077,2054,1196
531,1716365130912445967,2048,2056,2054,2028,2021,2060,1195
532,1716365130922444894,2082,2135,2341,2068,2075,2144,1195
533,1716365130932446034,2069,2082,2152,2097,2058,2057,1196
534,1716365130942442166,2035,2022,1987,2053,2041,2137,1194
535,1716365130952452453,2049,2029,1992,2060,2081,2071,1195
536,1716365130962446951,2040,2024,1933,2048,2081,2083,1195
537,1716365130972442902,2045,2068,2133,2029,2007,2047,1193
538,1716365130982446689,2064,2042,2014,2084,2077,2056,1195
539,1716365130992445776,2045,2041,1989,2084,2049,2042,1193
540,1716365131002459059,2052,2060,2091,2077,2077,2053,1195
541,1716365131012446474,2053,2045,2073,2042,1980,1934,1192
542,1716365131022441915,2040,2045,2065,2054,2052,2080,1197
543,1716365131032445470,2056,2034,1957,2062,2020,2050,1197
544,1716365131042443817,2052,2046,2104,2047,2054,2048,1197
545,1716365131052443294,2045,2053,2043,2065,2069,2075,1196
546,1716365131062444356,2052,2054,2056,2094,2095,2072,1196
547,1716365131072443733,2056,2079,2121,2079,2050,2055,1195
548,1716365131082444254,2046,2034,1988,2034,2029,1958,1192
549,1716365131092441428,2064,2072,2077,2084,2070,2077,1196
550,1716365131102441687,2057,2054,2036,2068,2077,2070,1196
551,1716365131112446225,2042,2025,1941,2076,2020,2066,1194
552,1716365131122443899,2056,2035,1995,2073,2069,2083,1197
553,1716365131132450972,2052,2056,2066,2049,2039,2070,1198
554,1716365131142443136,2045,2036,2005,2068,2065,2104,1195
555,1716365131152440581,2052,2044,2021,2080,2046,2005,1194
556,1716365131162443957,2058,2036,1993,2060,2072,2069,1195
557,1716365131172443534,2042,2026,1976,2008,2020,2016,1193
558,1716365131182451118,2054,2045,2004,2046,2075,2074,1196
559,1716365131192448011,2056,2058,2093,2071,2052,2068,1194
560,1716365131202445987,2052,2030,1995,2081,2060,2020,1193
561,1716365131212443702,2045,2042,2010,2081,2042,2148,1196
562,1716365131222446085,2045,2042,2061,2096,2101,2066,1196
563,1716365131232442508,2086,2164,2341,2107,2053,2042,1194
564,1716365131242443048,2057,2037,1993,2034,2024,2008,1193
565,1716365131252439781,2072,2090,2181,2043,2044,2076,1196
566,1716365131262445571,2029,2029,1970,2064,1986,2008,1194
567,1716365131272442694,2066,2069,2097,2038,2029,2003,1191
568,1716365131282443115,2054,2077,2154,2074,2072,2092,1197
569,1716365131292440899,2053,2062,2074,2010,2069,2031,1196
570,1716365131302440668,2066,2057,2084,2083,2002,2078,1197
571,1716365131312450645,2064,2060,2001,2065,2038,1986,1193
572,1716365131322446367,2067,2056,2044,2069,2061,2056,1196
573,1716365131332442189,2038,2050,2064,2053,2063,1923,1194
574,1716365131342448339,2053,2052,2056,2058,2069,2064,1197
575,1716365131352442227,2065,2105,2260,2037,2008,1976,1192
576,1716365131362467483,2049,2030,1965,2054,2107,2050,1197
577,1716365131372448537,2068,2048,2011,2073,2049,2064,1198
578,1716365131382443236,2060,2061,2034,2049,2059,1953,1196
579,1716365131392445319,2056,2041,2017,2072,2063,2066,1195
580,1716365131402441542,2063,2045,2047,2076,2072,2053,1198
581,1716365131412462098,2053,2050,1960,2083,2029,2100,1197
582,1716365131422448653,2068,2083,2019,2088,2056,2068,1195
583,1716365131432442922,2054,2047,2030,2064,2037,2044,1194
584,1716365131442446327,2056,2059,2096,2091,2083,2182,1198
585,1716365131452442870,2044,2035,2001,2058,2050,2061,1197
586,1716365131462445804,2047,2050,2052,2058,2073,2052,1197
587,1716365131472445403,2036,2066,2112,2080,2046,2010,1191
588,1716365131482443578,2056,2041,1997,2055,2079,2079,1195
589,1716365131492440822,2056,2052,2058,2056,2040,2104,1197
590,1716365131502450028,2056,2080,2168,2096,2097,2069,1197
591,1716365131512442754,2049,2027,1998,2012,2045,2044,1193
592,1716365131522452061,2058,2056,2060,2038,2066,2072,1194
593,1716365131532452260,2076,2122,2234,2068,2058,1946,1193
594,1716365131542447090,2024,2076,2101,1973,2052,2043,1193
595,1716365131552446698,2052,2061,2062,2043,2016,2080,1194
596,1716365131562442489,2052,2056,2040,2062,2063,2096,1194
597,1716365131572442909,2054,2046,2030,2052,2033,2020,1194
598,1716365131582445813,2057,2047,2042,2056,2076,1973,1193
599,1716365131592452816,2062,2069,2106,2076,2047,2055,1197
600,1716365131602443528,2058,2046,1978,2071,2109,2125,1197
601,1716365131612446162,2050,2056,2060,2020,2069,2093,1196
602,1716365131622445360,2050,2033,1978,2042,2071,2070,1196
603,1716365131632448324,2053,2073,2068,2052,2037,2047,1192
604,1716365131642442653,2052,2040,2020,2051,2054,1949,1194
605,1716365131652446639,2053,2037,2012,2072,2035,2058,1197
606,1716365131662447730,2062,2074,2104,2082,2086,2098,1194
607,1716365131672437771,2028,2012,1970,2014,2008,2011,1190
608,1716365131682447368,2056,2053,2057,2041,2056,2069,1193
609,1716365131692445324,2044,2033,2004,2048,2034,2024,1193
610,1716365131702443819,2069,2113,2177,2080,2078,1992,1191
611,1716365131712462463,2063,2057,2040,2058,2049,1980,1191
612,1716365131722452103,2066,2067,1986,2112,2088,2084,1196
613,1716365131732427066,2048,2042,2024,2044,2031,2056,1195
614,1716365131742446291,2060,2056,2054,2056,2068,2066,1197
615,1716365131752443454,2059,2069,2126,2056,2035,2042,1192
616,1716365131762444586,2043,2039,2036,2047,2049,1997,1193
617,1716365131772439295,2044,2040,1996,2040,2047,2120,1196
618,1716365131782437721,2048,2036,2042,2001,2062,2041,1196
619,1716365131792447559,2050,2060,2083,2085,2041,2069,1197
620,1716365131802438441,2068,2078,2156,2117,2090,2080,1196
621,1716365131812438370,2057,2056,2050,2001,2037,2032,1192
622,1716365131822441635,2055,2044,2036,2074,2075,2047,1193
623,1716365131832440422,2063,2069,2124,2075,2091,2061,1197
624,1716365131842438187,2064,2049,2013,2109,2102,2037,1193
625,1716365131852438988,2043,2044,2035,2052,2042,2036,1195
626,1716365131862439749,2065,2059,2056,2107,2050,2054,1196
627,1716365131872439006,2042,2018,1917,2068,2030,2034,1192
628,1716365131882440288,2047,2062,2180,2052,2081,2047,1194
629,1716365131892438793,2056,2046,2024,2047,2041,2019,1194
630,1716365131902439073,2052,2044,2025,2004,2025,1993,1193
631,1716365131912440876,2087,2151,2378,2123,2059,2047,1195
632,1716365131922440765,2052,2043,2029,2037,2032,2050,1195
633,1716365131932442197,2053,2052,2025,2054,2060,2067,1197
634,1716365131942439310,2052,2065,2114,2117,2066,2076,1197
635,1716365131952439981,2073,2073,2090,2070,2020,2044,1194
636,1716365131962439249,2053,2042,2016,2067,2065,2059,1195
637,1716365131972441191,2058,2078,2133,2055,2025,2085,1193
638,1716365131982440049,2038,2030,1984,2023,2036,2047,1194
639,1716365131992441911,2048,2037,2008,2040,2044,2044,1194
640,1716365132002444034,2047,2056,2024,2102,2053,2053,1195
641,1716365132012463730,2047,2053,2084,2079,2034,2056,1195
642,1716365132022442821,2046,2068,2096,2058,2060,2094,1198
643,1716365132032441218,2060,2059,2078,2038,2035,2031,1193
644,1716365132042442470,2045,2024,1966,2042,2061,1992,1193
645,1716365132052448280,2055,2058,2025,2059,2068,2088,1197
646,1716365132062441798,2056,2081,2209,2113,2080,2032,1195
647,1716365132072447187,2053,2045,2015,2074,2030,2020,1191
648,1716365132082440775,2055,2042,2006,2049,2081,2032,1192
649,1716365132092440414,2059,2052,2027,2048,2029,2056,1195
650,1716365132102443750,2057,2054,2056,2053,2064,2066,1196
651,1716365132112444472,2072,2088,2136,2084,2031,2052,1195
652,1716365132122442628,2061,2058,2088,2004,2081,1963,1194
653,1716365132132439842,2048,2042,2022,2018,2047,2066,1198
654,1716365132142441926,2052,2031,1946,2051,2070,2043,1193
655,1716365132152493601,2032,2030,2028,2043,2041,2052,1196
656,1716365132162442396,2056,2047,2012,2051,2053,2047,1193
657,1716365132172440903,2054,2054,2026,2045,2042,2050,1196
658,1716365132182441023,2049,2051,2088,2050,2005,2016,1193
659,1716365132192441253,2052,2038,2025,2061,2041,2103,1198
660,1716365132202441633,2061,2088,2148,2080,2088,2056,1195
661,1716365132212440722,2057,2053,2063,2036,2028,2003,1196
662,1716365132222441112,2061,2057,2056,2074,2052,2064,1196
663,1716365132232479223,2055,2041,2027,2074,2052,2061,1198
664,1716365132242450940,2054,2033,1976,2078,2040,2144,1197
665,1716365132252409833,2053,2046,2038,2073,2040,2074,1197
666,1716365132262444216,2073,2106,2184,2085,2080,2061,1196
667,1716365132272440710,2056,2048,2033,2040,2046,2083,1193
668,1716365132282438185,2056,2088,2107,2018,2049,2056,1195
669,1716365132292440538,2058,2068,2155,2082,1993,1972,1193
670,1716365132302438294,2060,2049,2020,2045,2044,2037,1193
671,1716365132312438795,2056,2046,2027,2041,2047,2090,1196
672,1716365132322445137,2031,2021,1984,2034,2048,1992,1195
673,1716365132332472477,2050,2038,2047,2040,2047,2111,1197
674,1716365132342442932,2064,2061,2066,2050,2059,2030,1193
675,1716365132352446859,2049,2047,2040,2050,2034,2044,1194
676,1716365132362441729,2054,2052,2044,2047,2066,2058,1196
677,1716365132372444163,2056,2056,2112,2072,2041,2052,1197
678,1716365132382443572,2052,2047,2032,2060,2034,2026,1196
679,1716365132392442639,2054,2060,2070,2069,2029,2041,1193
680,1716365132402444433,2050,2040,2017,2050,2062,2060,1199
681,1716365132412441287,2069,2097,2100,2101,2052,2071,1198
682,1716365132422453740,2046,2043,2052,2037,2048,2039,1194
683,1716365132432490317,2049,2047,2073,2046,1992,2000,1194
684,1716365132442448079,2053,2047,2032,2091,2068,2059,1199
685,1716365132452444311,2050,2042,2045,2040,2033,2044,1195
686,1716365132462448619,2054,2054,2049,2066,2064,1972,1194
687,1716365132472440914,2056,2060,2089,2067,2026,2041,1193
688,1716365132482443780,2053,2054,2017,2062,2032,2018,1196
689,1716365132492443969,2067,2056,2033,2076,2043,2032,1193
690,1716365132502443037,2072,2098,2232,2103,2074,2026,1196
691,1716365132512502648,2068,2067,2040,2089,2068,2084,1197
692,1716365132522450611,2054,2040,2013,2076,2096,2075,1198
693,1716365132532449058,2050,2056,1991,2088,2046,2056,1196
694,1716365132542441634,2072,2088,2175,2087,2055,2057,1197
695,1716365132552438117,2038,2040,2047,2001,2019,2021,1195
696,1716365132562445240,2057,2039,2017,2084,2112,2162,1196
697,1716365132572447443,2058,2068,2117,2056,2062,2056,1196
698,1716365132582448916,2066,2075,2070,2047,2064,2049,1197
699,1716365132592452211,2075,2097,2147,2071,2043,2047,1193
700,1716365132602444818,2056,2056,2036,2061,2075,2027,1195
701,1716365132612443996,2047,2044,1976,2065,2078,2101,1198
702,1716365132622443805,2064,2072,2100,2060,2087,2044,1195
703,1716365132632498367,2059,2058,2067,2056,2056,2072,1197
704,1716365132642392409,2043,2030,2027,2060,2101,2042,1195
705,1716365132652432814,2045,2045,2012,2060,2013,2064,1198
706,1716365132662492084,2049,2038,2015,2064,2058,2068,1197
707,1716365132672442832,2062,2064,2036,2052,2025,2054,1195
708,1716365132682447461,2064,2076,2094,2096,2080,2069,1196
709,1716365132692441489,2056,2056,2054,2056,2064,2068,1196
710,1716365132702443192,2066,2072,2119,2057,2080,2101,1200
711,1716365132712440146,2056,2056,2049,2051,2036,2047,1193
712,1716365132722483566,2061,2056,2060,2081,2073,2089,1196
713,1716365132732492373,2059,2057,2025,2061,2060,2066,1197
714,1716365132742481282,2054,2038,2012,2047,2064,2061,1196
715,1716365132752478496,2059,2064,2070,2028,2010,1929,1192
716,1716365132762480169,2052,2052,2021,2112,2077,2052,1198
717,1716365132772478946,2072,2105,2210,2055,2101,2059,1198
718,1716365132782476862,2050,2041,1995,2065,2064,2084,1196
719,1716365132792475990,2049,2052,2075,2037,2029,2026,1194
720,1716365132802476952,2052,2064,2080,2070,2085,2016,1194
721,1716365132812473285,2051,2053,2074,2046,2030,1935,1193
722,1716365132822474466,2053,2054,2031,2053,2070,2089,1198
723,1716365132832477783,2045,2029,1998,2021,2040,2049,1196
724,1716365132842472723,2048,2043,2040,2036,2052,1960,1194
725,1716365132852474896,2054,2043,2002,2043,2032,2049,1198
726,1716365132862468264,2047,2047,2020,2064,2058,2056,1200
727,1716365132872468213,2052,2052,2044,2040,2059,2065,1195
728,1716365132882466721,2038,2030,2000,2048,2051,1948,1192
729,1716365132892468152,2043,2020,1922,2080,2022,2076,1194
730,1716365132902467030,2065,2070,2087,2084,2076,2070,1195
731,1716365132912463304,2060,2057,2057,2044,2042,2106,1195
732,1716365132922464345,2061,2057,2081,2070,2054,2058,1196
733,1716365132932516842,2088,2132,2341,2031,2066,2138,1194
734,1716365132942462200,2042,2037,1995,2100,2076,2084,1195
735,1716365132952460667,2064,2064,2072,2046,2034,2056,1196
736,1716365132962458533,2061,2050,2096,2009,2096,2069,1194
737,1716365132972457350,2052,2052,2044,2062,2037,2046,1194
738,1716365132982458382,2058,2048,2034,2089,2036,2004,1196
739,1716365132992457129,2063,2072,2109,2050,2089,2064,1196
740,1716365133002457660,2070,2083,2106,2109,2068,2082,1196
741,1716365133012452821,2054,2039,2007,2073,2021,2025,1194
742,1716365133022454264,2050,2041,2032,2064,2089,1990,1195
743,1716365133032478529,2050,2051,2032,2047,2046,2066,1197
744,1716365133042452321,2047,2068,2145,2059,2085,1988,1195
745,1716365133052451109,2053,2056,2050,2052,2072,2045,1195
746,1716365133062452803,2058,2065,2101,2111,2096,2082,1198
747,1716365133072450097,2052,2043,2018,2101,2046,2000,1192
748,1716365133082450388,2052,2035,1981,2054,2060,2057,1197
749,1716365133092451321,2053,2052,2029,2045,2047,2064,1197
750,1716365133102449818,2057,2058,2069,2074,2116,2028,1193
751,1716365133112448215,2064,2084,2125,2116,2054,2038,1193
752,1716365133122449027,2051,2045,2035,2048,2051,2057,1194
753,1716365133132459056,2077,2072,2028,2097,2046,2060,1196
754,1716365133142450851,2061,2082,2106,2108,2103,2085,1196
755,1716365133152449188,2045,2030,1971,2057,2032,2015,1192
756,1716365133162449499,2054,2044,2044,2072,2064,2060,1198
757,1716365133172448157,2070,2118,2207,2091,2041,2096,1196
758,1716365133182449470,2053,2043,2020,2017,2100,2093,1197
759,1716365133192450131,2060,2058,2037,2053,2046,2096,1196
760,1716365133202450592,2052,2048,2026,2061,2055,1973,1192
761,1716365133212449490,2060,2065,2061,2054,2023,2056,1196
762,1716365133222449050,2050,2027,1972,2048,2061,2077,1196
763,1716365133232447998,2060,2089,2201,2058,2025,2046,1194
764,1716365133242448820,2052,2040,2037,2041,2042,2056,1194
765,1716365133252448289,2057,2056,2051,2045,2052,2072,1195
766,1716365133262449592,2045,2023,1971,2030,2069,2080,1195
767,1716365133272448791,2055,2040,2032,2056,2037,2060,1195
768,1716365133282449713,2062,2076,2173,2024,2047,2043,1192
769,1716365133292449142,2065,2063,2085,2045,2028,2048,1196
770,1716365133302449713,2058,2043,2034,2090,2076,2062,1194
771,1716365133312448331,2044,2033,2012,2058,2042,2090,1196
772,1716365133322449594,2051,2041,2029,2056,2076,2069,1196
773,1716365133332448211,2055,2053,2045,2046,2036,1907,1192
774,1716365133342449053,2056,2042,2024,2058,2060,2037,1193
775,1716365133352448042,2038,2024,1954,2042,2045,2036,1194
776,1716365133362448914,2075,2100,2117,2078,2053,2094,1197
777,1716365133372448363,2053,2040,2024,2080,2051,2052,1196
778,1716365133382449786,2062,2060,2095,2077,2066,2060,1196
779,1716365133392448734,2050,2047,2003,2065,2056,2049,1196
780,1716365133402449205,2053,2056,2079,2080,2059,2060,1195
781,1716365133412448785,2062,2060,2061,2057,2044,2045,1193
782,1716365133422449998,2064,2068,2156,2096,2046,2059,1198
783,1716365133432447733,2076,2104,2242,2075,2051,2034,1193
784,1716365133442448425,2056,2048,2076,2014,2072,2068,1197
785,1716365133452497687,2058,2070,2109,2068,2090,1994,1194
786,1716365133462452844,2052,2044,2028,2053,2062,2063,1196
787,1716365133472448196,2047,2033,2002,2004,2029,2034,1193
788,1716365133482450490,2056,2056,2042,2027,2077,2075,1196
789,1716365133492449689,2061,2048,2028,2040,2022,1920,1193
790,1716365133502448687,2072,2084,2184,2065,2036,2068,1195
791,1716365133512449028,2049,2042,2019,2054,2050,2056,1196
792,1716365133522476720,2056,2054,2064,2091,2066,2063,1198
793,1716365133532474927,2048,2031,2000,2056,2053,2014,1192
794,1716365133542472904,2048,2049,2014,2029,2073,2056,1196
795,1716365133552486509,2049,2033,1995,2034,2038,2044,1194
796,1716365133562473605,2050,2045,2044,2069,2067,2061,1195
797,1716365133572470510,2047,2092,2256,2079,2066,2052,1197
798,1716365133582470430,2058,2037,2020,1996,2094,1973,1193
799,1716365133592472143,2056,2045,2031,2092,2058,2040,1192
800,1716365133602468998,2050,2032,1976,2032,2084,2064,1196
801,1716365133612488946,2053,2052,2080,2058,2034,2048,1197
802,1716365133622468648,2057,2036,1972,2047,2062,2057,1196
803,1716365133632465322,2045,2047,1998,1986,2029,2044,1192
804,1716365133642465182,2052,2032,1958,2036,2062,2072,1195
805,1716365133652471384,2057,2050,2045,2056,2056,2066,1198
806,1716365133662463960,2051,2072,2094,2062,2036,2042,1192
807,1716365133672460644,2052,2048,2023,2049,2029,2068,1194
808,1716365133682460253,2046,2049,2057,2059,2046,2041,1193
809,1716365133692459713,2039,2040,2034,2080,2036,2018,1193
810,1716365133702458391,2059,2062,2073,2057,2083,2064,1197
811,1716365133712457861,2046,2035,2020,2064,2040,2064,1197
812,1716365133722455336,2054,2040,2020,2062,2102,2056,1196
813,1716365133732457090,2057,2056,2036,2012,2049,2057,1196
814,1716365133742455637,2064,2086,2136,2060,2089,2088,1198
815,1716365133752479291,2049,2049,2046,2049,2032,2037,1196
816,1716365133762452992,2056,2049,2053,2052,2067,2068,1197
817,1716365133772450989,2050,2050,2054,2078,1959,1881,1193
818,1716365133782455197,2055,2050,2036,2022,2055,2057,1198
819,1716365133792453775,2057,2054,2035,2018,2040,2049,1197
820,1716365133802448906,2056,2056,2035,2081,2067,2058,1195
821,1716365133812448776,2047,2042,1981,2058,2035,2044,1194
822,1716365133822448676,2059,2100,2257,2089,2042,1984,1194
823,1716365133832444910,2056,2044,2008,2059,2049,2056,1197
824,1716365133842448176,2056,2046,2009,2092,2072,2062,1196
825,1716365133852474295,2056,2064,2090,2073,2045,2046,1194
826,1716365133862447826,2069,2067,2108,2050,2061,2046,1191
827,1716365133872443608,2045,2026,1954,2029,2065,2075,1195
828,1716365133882446083,2066,2059,2040,2076,2059,2098,1197
829,1716365133892441285,2052,2051,2049,2082,2050,2050,1196
830,1716365133902444351,2056,2055,2064,2067,2068,2066,1197
831,1716365133912441385,2067,2056,2010,2072,2023,2018,1193
832,1716365133922443049,2045,2018,1968,2012,2064,2022,1193
833,1716365133932441897,2053,2049,2049,2085,2064,2056,1194
834,1716365133942442187,2065,2064,2056,2102,2068,2060,1195
835,1716365133952454480,2050,2020,1985,2048,2043,2046,1194
836,1716365133962446066,2059,2049,2025,2053,2072,2061,1196
837,1716365133972473998,2057,2069,2100,2067,2036,2140,1197
838,1716365133982441217,2056,2064,2083,2072,2082,2073,1195
839,1716365133992439013,2048,2030,1992,2033,2034,2050,1196
840,1716365134002442530,2080,2106,2114,2088,2065,2045,1194
841,1716365134012472937,2056,2049,1975,2079,2017,1993,1194
842,1716365134022440878,2058,2041,2048,2048,2074,2084,1195
843,1716365134032440959,2052,2054,2004,1990,2049,2020,1194
844,1716365134042441641,2056,2035,1974,2036,2068,2056,1196
845,1716365134052448976,2062,2068,2074,2076,2023,2066,1195
846,1716365134062448546,2049,2041,2026,2062,2064,2070,1198
847,1716365134072464607,2047,2042,2021,2040,2029,2064,1196
848,1716365134082441224,2049,2066,2052,2128,2084,2072,1196
849,1716365134092440934,2060,2037,2034,2080,2080,2065,1195
850,1716365134102458228,2054,2045,2020,2040,2068,2037,1194
851,1716365134112457096,2044,2041,2041,1984,2000,2024,1193
852,1716365134122453320,2058,2046,1996,2058,2069,2073,1197
853,1716365134132437422,2056,2064,2100,2061,2041,2065,1195
854,1716365134142440187,2044,2036,2058,2057,2082,2070,1195
855,1716365134152453222,2044,2037,2016,2033,1953,2001,1194
856,1716365134162454806,2060,2056,2052,2068,2073,2061,1195
857,1716365134172449918,2050,2039,1997,2066,2053,2051,1196
858,1716365134182449128,2061,2062,1978,2091,2085,2057,1198
859,1716365134192451943,2054,2068,2102,2056,2046,1939,1195
860,1716365134202452535,2051,2031,1997,2052,2061,2044,1193
861,1716365134212440875,2053,2050,2027,2042,2039,2036,1195
862,1716365134222440264,2054,2053,2041,2025,2064,2064,1196
863,1716365134232448701,2056,2054,2049,2087,2030,2030,1196
864,1716365134242441238,2064,2085,2188,2090,2084,2068,1196
865,1716365134252444194,2053,2044,2021,2024,2047,2056,1197
866,1716365134262472778,2043,2040,2014,2062,2057,2045,1197
867,1716365134272447231,2053,2052,2044,2059,2050,2051,1193
868,1716365134282441812,2062,2069,2066,2045,2072,2076,1193
869,1716365134292440371,2048,2037,1972,2023,2020,2054,1197
870,1716365134302441723,2065,2070,2069,2108,2060,2064,1197
871,1716365134312461632,2062,2078,2114,2069,2053,2047,1195
872,1716365134322441525,2050,2047,2063,2070,2050,2061,1196
873,1716365134332440354,2066,2064,2047,2056,2054,2053,1196
874,1716365134342441337,2067,2052,2024,2035,2064,2054,1196
875,1716365134352440886,2030,2032,2000,2043,2035,2045,1193
876,1716365134362441829,2035,2045,2017,2045,2057,2060,1195
877,1716365134372440418,2056,2052,2046,2048,2044,2042,1194
878,1716365134382447040,2065,2040,2016,2076,2062,2052,1198
879,1716365134392439127,2050,2032,2005,2056,2012,1934,1193
880,1716365134402441362,2049,2046,2060,2040,2028,2053,1197
881,1716365134412440881,2056,2050,2036,2053,2046,2052,1197
882,1716365134422441283,2038,2053,2021,2066,2042,2068,1197
883,1716365134432438689,2043,2043,2053,2031,2049,2072,1196
884,1716365134442441465,2056,2053,2068,2065,2057,2060,1197
885,1716365134452440124,2058,2056,2043,2064,2033,2037,1193
886,1716365134462443110,2058,2062,2022,2056,2025,1993,1193
887,1716365134472440206,2054,2034,1953,2050,2027,2043,1193
888,1716365134482443483,2058,2050,2016,2047,2040,2082,1196
889,1716365134492440878,2065,2070,2098,2097,2052,2060,1197
890,1716365134502441040,2058,2045,2055,2041,2086,2025,1196
891,1716365134512439918,2056,2064,2033,2063,2047,2020,1193
892,1716365134522450118,2068,2109,2177,2079,2087,2144,1196
893,1716365134532421486,2056,2068,2152,2066,2057,2068,1196
894,1716365134542442505,2056,2056,2089,2079,2083,2070,1195
895,1716365134552474787,2058,2052,2049,2087,2046,2081,1197
896,1716365134562440905,2052,2036,1995,2020,2093,2079,1196
897,1716365134572439653,2056,2039,2008,1996,2058,2060,1196
898,1716365134582446347,2058,2038,2012,2088,2094,2081,1198
899,1716365134592440205,2068,2088,2183,2143,2038,2010,1195
900,1716365134602443673,2056,2052,2039,2080,2045,2025,1196
901,1716365134612439987,2068,2086,2131,2069,2061,2061,1197
902,1716365134622439306,2043,2024,1954,2031,2064,2060,1196
903,1716365134632439809,2038,2024,1974,2080,2046,2045,1193
904,1716365134642439349,2066,2060,2077,2052,2065,2073,1195
905,1716365134652476218,2052,2072,2097,2066,2042,2040,1195
906,1716365134662439982,2045,2026,1957,2060,2089,2100,1195
907,1716365134672438810,2048,2026,1988,2046,2040,2049,1195
908,1716365134682439913,2053,2041,2001,2056,2077,2067,1195
909,1716365134692439704,2057,2097,2159,2071,2044,2048,1196
910,1716365134702439754,2068,2065,2044,2068,2066,2064,1197
911,1716365134712433173,2049,2044,2030,2065,2052,2059,1195
912,1716365134722434366,2045,2049,2006,2089,2072,2061,1196
913,1716365134732438114,2056,2052,2034,2064,2061,2055,1195
914,1716365134742442623,2056,2052,2037,2067,2064,2049,1197
915,1716365134752449767,2059,2055,2059,2080,2043,2013,1194
916,1716365134762442204,2063,2063,2093,2102,2081,2088,1193
917,1716365134772439340,2052,2064,2125,2069,2025,2028,1193
918,1716365134782439781,2058,2041,2018,2062,2064,2100,1197
919,1716365134792439762,2053,2046,2010,2007,2011,2031,1193
920,1716365134802439292,2051,2037,2009,2056,2054,2062,1196
921,1716365134812443370,2046,2039,2022,2054,2020,2058,1197
922,1716365134822440376,2058,2045,2017,2076,2053,2062,1195
923,1716365134832439304,2047,2047,2025,2054,2035,2029,1194
924,1716365134842441299,2065,2076,2105,2059,2065,2078,1197
925,1716365134852474362,2054,2052,2031,2066,2044,2059,1195
926,1716365134862442162,2055,2046,2048,2060,2079,2053,1196
927,1716365134872442354,2058,2081,2204,2061,2048,2051,1193
928,1716365134882442565,2060,2080,2129,2053,2074,2064,1197
929,1716365134892441323,2059,2069,2112,2109,2043,2043,1193
930,1716365134902442597,2066,2048,2022,2056,2075,2063,1196
931,1716365134912438239,2055,2045,2040,2069,2036,2070,1195
932,1716365134922442238,2061,2035,1988,2010,2076,2085,1196
933,1716365134932441157,2062,2079,2128,2056,2039,2050,1198
934,1716365134942443121,2059,2050,2049,2050,2060,2044,1192
935,1716365134952463280,2056,2053,2044,2047,2050,2047,1193
936,1716365134962454103,2038,2034,2023,2039,2028,2049,1197
937,1716365134972438174,2039,2033,2016,1966,2030,2148,1196
938,1716365134982444487,2072,2088,2175,2052,2070,2078,1198
939,1716365134992442053,2077,2098,2118,2089,2040,2048,1198
940,1716365135002444549,2023,2024,2121,2037,2060,2051,1196
941,1716365135012441165,2057,2029,1910,2062,2030,2044,1193
942,1716365135022444663,2028,2006,1886,2040,2059,2060,1197
943,1716365135032438503,2056,2048,2057,2084,2041,2059,1198
944,1716365135042444705,2116,2051,2063,2084,2058,2072,1196
945,1716365135052472308,2056,2058,2058,1989,2054,2053,1196
946,1716365135062449397,2056,2053,2059,2065,2077,2060,1195
947,1716365135072442707,2050,2037,2037,2045,2017,2020,1192
948,1716365135082444682,2041,2024,1980,2040,2077,2017,1194
949,1716365135092441056,2047,2042,2020,2083,2032,2029,1194
950,1716365135102444053,2053,2044,2072,2037,2061,2052,1196
951,1716365135112441540,2040,2054,2050,2056,2013,1976,1193
952,1716365135122441721,2062,2068,2115,2075,2077,2072,1195
953,1716365135132438807,2057,2043,2015,2045,2042,2052,1198
954,1716365135142441183,2064,2077,2169,2017,2045,2055,1196
955,1716365135152438761,2054,2060,2080,2091,2052,2002,1195
956,1716365135162459701,2049,2056,2117,2072,2076,2074,1196
957,1716365135172459432,2058,2065,2078,2075,2038,2043,1194
958,1716365135182449905,2040,2027,1965,2040,2073,2090,1197
959,1716365135192457050,2065,2089,2168,2050,2043,2058,1198
960,1716365135202449537,2054,2031,1975,2042,2067,2126,1198
961,1716365135212447975,2028,2024,1992,2052,2039,2063,1197
962,1716365135222443530,2059,2057,2064,2056,2082,2081,1194
963,1716365135232441036,2046,2049,2044,2056,2043,2085,1196
964,1716365135242438543,2062,2081,2121,2061,2065,2030,1194
965,1716365135252438855,2051,2064,2153,2081,2024,2014,1192
966,1716365135262438545,2066,2057,2062,2097,2096,2093,1196
967,1716365135272438817,2050,2032,1987,1952,2021,2043,1193
968,1716365135282438608,2054,2045,2034,2069,2067,2052,1195
969,1716365135292402974,2068,2089,2164,2033,2017,2041,1194
970,1716365135302443641,2042,2040,2038,2031,2063,2045,1191
971,1716365135312435968,2060,2072,2091,2076,2021,2043,1193
972,1716365135322441079,2056,2054,2074,2035,2072,2072,1197
973,1716365135332440249,2033,2023,1923,2064,2018,2031,1195
974,1716365135342416205,2054,2042,2028,2068,2101,2084,1196
975,1716365135352440041,2031,2024,1940,2037,2045,2089,1195
976,1716365135362441605,2059,2066,2104,2048,2075,2064,1197
977,1716365135372444352,2058,2077,2116,2034,2009,2016,1193
978,1716365135382443983,2045,2025,2052,2064,2083,2069,1199
979,1716365135392441259,2053,2052,2043,2030,2013,2018,1194
980,1716365135402445779,2045,2037,2071,2008,2056,2044,1194
981,1716365135412439378,2049,2028,2020,2075,2009,2010,1194
982,1716365135422442726,2045,2049,2011,2049,2024,2041,1194
983,1716365135432438790,2046,2054,2048,2061,2032,2044,1193
984,1716365135442448039,2058,2051,2050,2043,2084,2072,1197
985,1716365135452441428,2059,2055,2060,2068,2038,2041,1193
986,1716365135462441991,2068,2046,2046,2008,2079,2084,1196
987,1716365135472440740,2077,2065,2054,2042,2031,2029,1193
988,1716365135482437044,2049,2042,2027,2057,2058,2082,1194
989,1716365135492438177,2060,2112,2256,2072,2052,2069,1196
990,1716365135502440202,2041,2029,2046,2041,2072,2046,1193
991,1716365135512441768,2055,2044,2009,2052,2008,2025,1193
992,1716365135522442280,2053,2057,2009,2016,2053,2060,1197
993,1716365135532439155,2060,2069,2041,2077,2034,2047,1192
994,1716365135542442172,2056,2065,2095,2046,2087,2084,1195
995,1716365135552443817,2060,2056,2064,2064,2016,2030,1192
996,1716365135562439941,2066,2050,2058,2060,2061,2045,1194
997,1716365135572428841,2068,2120,2332,2136,2047,2064,1198
998,1716365135582441246,2060,2064,2056,2068,2105,2126,1197
999,1716365135592446909,2055,2051,2050,2041,2042,2056,1197
1000,1716365135602441650,2063,2069,2133,2088,2084,2066,1197
1001,1716365135612441551,2072,2108,2188,2101,2060,2044,1194
1002,1716365135622441743,2056,2065,2035,2060,2056,1944,1193
1003,1716365135632441053,2056,2053,2056,2072,2040,2038,1192
1004,1716365135642441775,2052,2070,2056,2110,2069,2088,1197
1005,1716365135652441446,2055,2040,2031,2065,2024,2039,1193
1006,1716365135662439755,2072,2090,2119,2003,2077,2080,1195
1007,1716365135672441931,2052,2031,1930,2032,2012,2040,1190
1008,1716365135682439527,2061,2069,2108,2068,2081,2061,1195
1009,1716365135692440541,2045,2017,1962,2061,2041,2040,1194
1010,1716365135702439119,2050,2035,1993,2064,2073,2062,1197
1011,1716365135712438309,2084,2077,2094,2063,2041,2044,1189
1012,1716365135722444812,2045,2018,1946,2045,2040,1963,1194
1013,1716365135732439153,2051,2021,1898,2061,2014,2042,1195
1014,1716365135742440388,2067,2102,2224,2093,2056,2046,1194
1015,1716365135752438676,2046,2060,2059,2043,2026,2049,1196
1016,1716365135762439008,2054,2033,1968,2036,2083,2077,1196
1017,1716365135772445812,2045,2053,2050,2063,2061,2011,1195
1018,1716365135782444390,2062,2057,2064,2064,2033,2040,1194
1019,1716365135792446155,2034,2052,2056,2050,2040,2004,1195
1020,1716365135802439674,2074,2064,2062,2049,2058,2030,1195
1021,1716365135812441279,2027,2046,2050,2054,2029,2053,1197
1022,1716365135822446671,2059,2081,2109,2036,2073,1999,1193
1023,1716365135832444047,2061,2044,1992,2059,2041,2088,1196
1024,1716365135842441654,2060,2051,1976,2056,2064,2064,1195
1025,1716365135852441395,2052,2039,1998,2033,2037,2074,1195
1026,1716365135862447628,2068,2099,2178,2082,2047,2046,1193
1027,1716365135872442249,2015,2051,2084,2046,2040,2062,1194
1028,1716365135882441970,2059,2057,2040,2068,2074,2056,1197
1029,1716365135892442162,2054,2048,2063,2064,2023,2040,1192
1030,1716365135902441963,2048,2042,2050,2050,2056,2043,1192
1031,1716365135912443578,2030,2015,1956,1956,2024,2047,1193
1032,1716365135922442557,2054,2040,2054,2072,2054,2061,1193
1033,1716365135932440274,2052,2054,2065,2061,2026,2031,1192
1034,1716365135942444613,2062,2057,2040,2080,2102,2112,1194
1035,1716365135952438784,2053,2076,2168,2080,2050,2049,1193
1036,1716365135962449015,2064,2056,2058,2099,2090,2084,1196
1037,1716365135972443867,2052,2034,1957,2048,2032,2041,1194
1038,1716365135982439170,2064,2063,2076,2061,2080,2064,1197
1039,1716365135992441816,2056,2056,2069,2065,2040,2035,1194
1040,1716365136002461443,2058,2051,2025,2027,2068,2064,1195
1041,1716365136012442099,2047,2064,2116,2030,2029,2033,1194
1042,1716365136022443484,2063,2065,2097,2061,2038,2000,1192
1043,1716365136032439569,2052,2059,2102,2068,2050,2080,1196
1044,1716365136042440683,2059,2063,2060,2061,2082,2089,1196
1045,1716365136052440154,2080,2125,2274,2105,2059,2058,1196
1046,1716365136062444584,2048,2056,2058,2068,2076,2058,1195
1047,1716365136072444716,2059,2090,2249,2102,2044,2040,1192
1048,1716365136082440360,2060,2042,1950,2068,2116,2020,1192
1049,1716365136092437527,2053,2049,2044,2049,2018,2072,1195
1050,1716365136102440093,2059,2049,2028,2058,2064,2090,1197
1051,1716365136112439224,2042,2045,2020,2043,1990,2008,1195
1052,1716365136122440518,2056,2053,2040,2084,2076,2068,1197
1053,1716365136132442183,2043,2033,2010,2041,2021,2025,1192
1054,1716365136142440643,2071,2075,2093,2098,2069,2061,1197
1055,1716365136152442107,2048,2034,2041,2034,2012,2020,1193
1056,1716365136162442981,2060,2061,2051,2089,2088,2187,1197
1057,1716365136172440248,2052,2067,2118,2079,2032,2067,1197
1058,1716365136182479964,2062,2059,2065,2058,2065,2068,1198
1059,1716365136192439961,2060,2042,2036,2031,2065,2028,1194
1060,1716365136202447608,2064,2054,2077,2076,2073,2067,1196
1061,1716365136212457628,2069,2088,2184,2072,2053,2042,1194
1062,1716365136222440538,2061,2036,2007,2026,2064,2038,1193
1063,1716365136232477219,2020,2039,1969,2059,2033,2045,1195
1064,1716365136242440883,2058,2053,1962,2064,2065,2051,1196
1065,1716365136252457867,2056,2077,2165,2058,2045,2085,1195
1066,1716365136262441057,2056,2047,2032,2068,2120,2116,1197
1067,1716365136272444616,2073,2069,2135,2092,2021,2032,1191
1068,1716365136282440039,2057,2052,2062,1997,2051,2054,1194
1069,1716365136292444850,2053,2043,2020,2071,2053,2065,1194
1070,1716365136302440504,2058,2052,2100,2069,2083,2073,1196
1071,1716365136312442751,2065,2041,1978,2044,2057,2000,1195
1072,1716365136322457900,2017,2027,1965,2033,2070,2082,1193
1073,1716365136332439528,2048,2056,2056,2034,2072,1993,1193
1074,1716365136342442276,2046,2029,1990,2033,2056,2067,1196
1075,1716365136352458247,2053,2038,1954,2064,2042,2048,1195
1076,1716365136362443412,2074,2080,2122,2105,2092,2068,1196
1077,1716365136372407938,2061,2038,2018,2059,2057,2052,1197
1078,1716365136382441131,2069,2069,2073,2040,2063,2045,1193
1079,1716365136392443287,2052,2041,2010,2052,2024,2029,1193
1080,1716365136402443650,2047,2030,1969,2049,2044,2056,1196
1081,1716365136412443672,2049,2045,2083,2076,2054,2056,1195
1082,1716365136422445467,2052,2036,2013,2080,2065,2058,1196
1083,1716365136432449207,2047,2036,2014,2059,2045,2042,1192
1084,1716365136442439390,2052,2041,1969,2002,2042,2037,1193
1085,1716365136452455552,2045,2040,2018,2029,2024,2036,1194
1086,1716365136462439865,2042,2043,2020,2078,2060,1937,1192
1087,1716365136472443814,2035,2040,2028,2036,2013,2034,1194
1088,1716365136482458243,2058,2054,2064,2072,2068,2051,1196
1089,1716365136492444890,2052,2027,2012,2051,2034,2035,1194
1090,1716365136502441065,2060,2059,2012,2049,2073,2067,1194
1091,1716365136512449032,2052,2043,2000,2032,2047,2064,1196
1092,1716365136522458611,2058,2049,2046,2044,2076,2047,1193
1093,1716365136532458393,2054,2040,1980,2052,2041,2025,1195
1094,1716365136542443247,2053,2063,2063,2065,2127,2057,1195
1095,1716365136552443289,2052,2045,2001,2035,2033,2054,1194
1096,1716365136562461545,2048,2045,1986,2049,2065,2094,1196
1097,1716365136572442863,2076,2073,2147,2074,2057,2075,1196
1098,1716365136582477729,2046,2050,2084,2028,2038,2037,1195
1099,1716365136592442887,2036,2013,1957,2018,2085,2084,1197
1100,1716365136602441736,2028,2046,2069,2024,2058,2024,1192
1101,1716365136612453660,2050,2059,2138,2052,2022,2024,1194
1102,1716365136622442302,2048,2039,2016,2056,2071,2011,1192
1103,1716365136632442603,2061,2041,2001,2057,2045,2040,1193
1104,1716365136642444589,2061,2041,2015,2072,2048,2050,1195
1105,1716365136652440524,2045,2039,2004,2052,2035,2032,1191
1106,1716365136662443401,2055,2045,2053,2064,2050,2037,1193
1107,1716365136672440728,2057,2064,2088,2080,2049,2137,1195
1108,1716365136682442263,2042,2034,2004,2052,2068,2104,1196
1109,1716365136692442415,2046,2089,2173,2064,2052,2026,1193
1110,1716365136702439131,2053,2035,2008,2040,2067,2060,1196
1111,1716365136712442149,2043,2062,2077,2050,2029,2046,1193
1112,1716365136722440177,2061,2065,2126,2057,2070,2056,1194
1113,1716365136732439027,2049,2040,2014,2081,2032,2045,1193
1114,1716365136742441444,2045,2045,2009,2029,2070,2060,1194
1115,1716365136752441275,2066,2058,2008,2064,2036,2045,1193
1116,1716365136762439073,2084,2058,2009,2092,2065,2002,1192
1117,1716365136772451608,2069,2042,2024,2065,2031,2027,1195
1118,1716365136782440630,2040,2017,1950,2032,2046,2065,1197
1119,1716365136792446533,2080,2116,2293,2098,2052,2041,1193
1120,1716365136802442537,2052,2060,2066,2042,2068,2050,1196
1121,1716365136812442099,2039,2048,2042,2040,2040,2027,1193
1122,1716365136822441440,2061,2062,2060,2044,2085,2024,1193
1123,1716365136832441962,2065,2043,2034,2061,2038,2040,1192
1124,1716365136842442896,2050,2036,2014,2056,2066,2044,1193
1125,1716365136852442798,2066,2105,2178,2078,2050,1926,1193
1126,1716365136862443611,2049,2048,2056,2060,2052,2041,1193
1127,1716365136872441991,2042,2041,2007,2030,2028,2055,1195
1128,1716365136882444086,2045,2029,1977,2058,2057,2072,1195
1129,1716365136892457754,2052,2050,2041,2068,2037,2024,1191
1130,1716365136902442448,2055,2063,2112,2066,2078,2021,1193
1131,1716365136912439754,2053,2048,2075,2066,2039,2041,1193
1132,1716365136922444094,2060,2058,2077,1955,2042,1947,1194
1133,1716365136932443676,2040,2043,2072,2044,2037,2033,1194
1134,1716365136942443077,2050,2049,2057,2055,2081,2088,1196
1135,1716365136952444702,2043,2048,2067,2044,2044,2006,1194
1136,1716365136962442820,2068,2054,2085,2059,2057,2052,1196
1137,1716365136972440127,2056,2042,2012,2059,2046,2051,1197
1138,1716365136982444016,2065,2063,2115,2040,2076,2134,1200
1139,1716365136992442496,2052,2042,1991,2041,2020,2042,1191
1140,1716365137002442167,2072,2049,2030,1981,2060,2061,1196
1141,1716365137012442600,2053,2056,2059,2052,2040,2062,1196
1142,1716365137022442302,2056,2068,2079,2064,2101,2057,1194
1143,1716365137032446572,2065,2038,2007,2046,2040,2049,1196
1144,1716365137042444992,2059,2068,2128,2068,2088,2036,1194
1145,1716365137052444855,2036,2027,2015,2041,2052,2061,1196
1146,1716365137062457531,2042,2057,2075,2070,2074,2084,1195
1147,1716365137072439209,2060,2086,2184,2070,2044,2057,1192
1148,1716365137082439682,2046,2046,2030,2067,2058,2052,1194
1149,1716365137092441037,2040,2040,2012,2074,2033,2044,1194
1150,1716365137102439227,2066,2049,2058,2053,2078,2065,1197
1151,1716365137112439009,2024,2032,2066,2037,2038,2027,1195
1152,1716365137122440705,2061,2066,2123,2068,2069,1988,1194
1153,1716365137132440847,2072,2076,2111,2070,2040,2040,1194
1154,1716365137142452151,2047,2060,2093,2043,2047,2088,1196
1155,1716365137152441634,2048,2056,2041,2066,2021,2036,1194
1156,1716365137162443580,2057,2052,2018,2106,2097,2073,1196
1157,1716365137172439255,2046,2038,2057,2056,2037,2068,1195
1158,1716365137182419099,2063,2037,1996,2038,2051,2060,1194
1159,1716365137192441374,2063,2097,2120,2116,2052,2072,1196
1160,1716365137202442118,2068,2058,2057,2076,2077,2091,1196
1161,1716365137212444024,2050,2040,2035,2084,2047,2072,1195
1162,1716365137222441702,2040,2028,2009,2073,2065,2096,1195
1163,1716365137232443648,2069,2056,2064,2085,2043,2052,1196
1164,1716365137242419335,2053,2059,2051,2049,2078,2061,1194
1165,1716365137252462569,2060,2043,2047,2031,2037,2052,1194
1166,1716365137262442995,2060,2064,2144,2074,2068,2084,1197
1167,1716365137272440843,2052,2056,2025,2064,2054,2082,1194
1168,1716365137282440735,2049,2042,1988,2082,2088,2177,1196
1169,1716365137292440838,2043,2023,1965,2052,2039,2065,1194
1170,1716365137302438136,2052,2042,2006,2025,2068,2068,1196
1171,1716365137312462724,2055,2043,1992,2018,2030,2040,1194
1172,1716365137322441187,2031,2036,1995,2041,2062,2052,1197
1173,1716365137332443524,2052,2036,2022,2064,2052,2057,1195
1174,1716365137342440691,2060,2089,2173,2076,2090,2096,1195
1175,1716365137352471530,2070,2065,2098,2053,2044,2126,1195
1176,1716365137362446336,2057,2045,2003,2061,2075,2096,1194
1177,1716365137372457761,2068,2085,2248,2053,2012,2024,1194
1178,1716365137382439870,2057,2053,2046,2083,2037,2013,1194
1179,1716365137392440543,2051,2041,2022,2056,2034,2089,1196
1180,1716365137402444493,2044,2072,2160,2076,2042,2032,1193
1181,1716365137412434617,2040,2048,2014,2048,2037,2052,1197
1182,1716365137422437716,2049,2068,2097,2063,2046,2093,1196
1183,1716365137432439873,2057,2092,2156,2081,2051,2053,1196
1184,1716365137442440927,2063,2064,2052,2076,2074,2052,1196
1185,1716365137452467479,2052,2049,2032,2040,2024,2037,1194
1186,1716365137462446212,2055,2045,2053,2062,2069,2046,1193
1187,1716365137472438019,2050,2035,2028,2042,2044,1986,1191
1188,1716365137482443412,2059,2042,2020,2069,2071,1957,1195
1189,1716365137492438094,2028,2035,2000,2029,2042,2056,1197
1190,1716365137502440792,2049,2042,2030,2062,2056,2043,1192
1191,1716365137512438330,2066,2074,2072,2064,2047,2043,1193
1192,1716365137522442931,2056,2042,2029,2037,2083,2073,1195
1193,1716365137532440359,2062,2047,2060,2056,2044,2083,1196
1194,1716365137542441293,2067,2064,2089,2015,2055,2089,1199
1195,1716365137552474617,2048,2044,2021,2054,2047,2058,1196
1196,1716365137562457899,2077,2093,2058,2149,2060,2064,1196
1197,1716365137572427025,2048,2031,2004,2042,2042,2030,1193
1198,1716365137582444169,2044,2049,1986,2099,2045,2070,1198
1199,1716365137592441537,2052,2036,2004,2043,2014,2045,1195
1200,1716365137602443803,2059,2060,2064,2099,2076,2061,1197
1201,1716365137612443745,2071,2080,2096,2089,2024,2035,1193
1202,1716365137622443197,2056,2041,2014,2089,2059,2041,1193
1203,1716365137632456295,2041,2033,1998,2041,2042,2026,1194
1204,1716365137642440658,2047,2060,2117,2082,2048,2064,1197
1205,1716365137652457932,2056,2050,2040,2080,2047,2054,1196
1206,1716365137662443899,2056,2048,1998,2080,2079,2092,1198
1207,1716365137672453078,2030,2036,2010,2054,2055,2065,1195
1208,1716365137682438334,2062,2051,2032,2082,2088,2080,1196
1209,1716365137692437776,2059,2086,2216,2020,2033,2030,1191
1210,1716365137702439390,2072,2090,2235,2064,2076,2101,1197
1211,1716365137712441487,2049,2050,2053,2060,2040,2052,1197
1212,1716365137722442211,2038,2052,2066,2069,2066,2128,1196
1213,1716365137732438036,2043,2025,1944,2027,2019,2100,1193
1214,1716365137742440112,2064,2042,2003,2072,2081,2088,1195
1215,1716365137752463207,2058,2047,2051,2079,2033,2067,1195
1216,1716365137762438935,2078,2082,2184,2089,2070,2032,1193
1217,1716365137772440521,2038,2040,2024,2032,2024,1972,1195
1218,1716365137782441345,2050,2044,2010,2062,2076,2069,1197
1219,1716365137792454652,2064,2073,2150,2069,2038,2004,1194
1220,1716365137802440388,2056,2052,2063,2084,2080,2068,1195
1221,1716365137812445009,2056,2049,2057,2056,2044,2032,1193
1222,1716365137822439802,2056,2091,2229,2052,2050,2014,1194
1223,1716365137832439274,2060,2084,2162,2077,2040,2104,1197
1224,1716365137842453974,2052,2052,2048,2053,2040,2004,1193
1225,1716365137852472120,2060,2055,2052,2058,2068,2098,1195
1226,1716365137862458076,2068,2061,2052,2031,2133,2224,1197
1227,1716365137872443341,2085,2057,2040,2044,2085,2082,1192
1228,1716365137882457070,2066,2054,2046,2075,2062,2104,1195
1229,1716365137892462082,2046,2036,1996,2064,2082,2103,1195
1230,1716365137902442558,2049,2040,2069,2065,2088,2039,1193
1231,1716365137912444364,2048,2056,2069,2057,2001,2115,1195
1232,1716365137922444707,2059,2052,2035,2113,2060,2018,1191
1233,1716365137932445000,2051,2044,2043,2059,2042,2052,1194
1234,1716365137942457266,2054,2047,2055,2052,2058,2052,1196
1235,1716365137952467026,2070,2071,2113,2062,1975,1951,1194
1236,1716365137962463191,2069,2058,2064,2089,2065,2057,1196
1237,1716365137972443578,2050,2036,1995,2072,2048,2056,1196
1238,1716365137982456945,2055,2036,1979,2057,2020,1992,1193
1239,1716365137992454553,2041,2026,2003,2065,2020,2093,1196
1240,1716365138002443535,2045,2030,1988,2077,2068,2076,1195
1241,1716365138012442346,2046,2047,2032,2061,2024,2026,1194
1242,1716365138022456525,2054,2058,2059,2083,2096,2083,1195
1243,1716365138032452832,2049,2047,2034,2058,2030,2021,1194
1244,1716365138042456982,2049,2036,1966,2078,2060,2045,1192
1245,1716365138052455252,2040,2028,2000,2040,2029,2046,1194
1246,1716365138062440328,2056,2056,2074,2073,2060,2075,1196
1247,1716365138072441544,2079,2018,1887,2017,2032,1960,1191
1248,1716365138082443480,2041,2013,1950,2023,2068,2092,1196
1249,1716365138092437752,2064,2052,2049,2056,2052,2047,1196
1250,1716365138102439178,2054,2049,2042,2044,2056,2064,1197
1251,1716365138112442046,2045,2030,1986,1986,2047,2090,1196
1252,1716365138122453691,2046,2013,1933,2040,2094,2081,1197
1253,1716365138132444398,2044,2046,2017,2056,2040,2054,1197
1254,1716365138142454159,2037,2040,2064,2002,2057,2074,1196
1255,1716365138152439354,2052,2057,2060,2060,2015,2028,1192
1256,1716365138162439137,2059,2044,2045,2065,2089,2072,1196
1257,1716365138172450841,2060,2040,2011,2063,2092,2123,1196
1258,1716365138182454923,2061,2056,2070,2052,2076,2090,1197
1259,1716365138192453373,2058,2061,2076,2054,2022,2039,1192
1260,1716365138202457023,2053,2056,2109,2056,2049,2037,1193
1261,1716365138212443260,2047,2036,2021,2039,2008,1992,1194
1262,1716365138222458261,2065,2085,2165,2090,2088,2117,1196
1263,1716365138232448286,2047,2053,2057,2053,2044,2040,1194
1264,1716365138242456804,2065,2080,2181,2046,2063,2169,1198
1265,1716365138252441749,2074,2088,2151,2069,2014,2011,1194
1266,1716365138262445870,2073,2077,2153,2049,2052,2062,1199
1267,1716365138272439803,2050,2042,2022,2046,2026,2023,1194
1268,1716365138282460113,2063,2083,2173,2064,2045,2026,1195
1269,1716365138292440770,2058,2070,2144,2117,2002,2031,1196
1270,1716365138302442366,2043,2050,2084,2093,2077,2144,1196
1271,1716365138312454151,2049,2056,2078,2073,2043,2068,1194
1272,1716365138322442192,2055,2058,2076,2058,2072,2049,1195
1273,1716365138332453016,2037,2031,1987,2045,2042,2052,1197
1274,1716365138342443371,2051,2044,2017,2025,2046,2045,1193
1275,1716365138352480874,2060,2070,2126,2035,2052,2066,1194
1276,1716365138362444339,2072,2077,2145,2083,2088,2132,1194
1277,1716365138372447077,2048,2047,2020,2044,2057,2053,1197
1278,1716365138382455706,2052,2049,2041,2091,2081,2090,1195
1279,1716365138392454277,2049,2033,1992,2046,2049,2043,1193
1280,1716365138402456414,2052,2044,2039,2065,2058,2052,1196
1281,1716365138412453772,2055,2056,2052,2050,2052,2083,1195
1282,1716365138422441192,2058,2069,2125,2056,2085,2060,1194
1283,1716365138432439181,2056,2053,2047,2044,2046,2085,1197
1284,1716365138442438904,2054,2036,1979,2061,2065,2069,1197
1285,1716365138452439278,2053,2041,2037,2052,2058,2094,1195
1286,1716365138462462855,2045,2038,2032,2052,2033,2013,1194
1287,1716365138472455925,2038,2020,1925,2052,2060,2125,1197
1288,1716365138482442613,2044,2044,2036,2073,2076,2095,1196
1289,1716365138492455721,2050,2037,1997,2052,2028,2052,1195
1290,1716365138502441608,2051,2044,2064,2042,2070,2073,1194
1291,1716365138512443815,2065,2092,2154,2044,2054,2046,1193
1292,1716365138522456191,2043,2037,1981,2029,2064,2098,1194
1293,1716365138532465151,2053,2041,2024,2037,2032,2037,1191
1294,1716365138542448523,2063,2088,2166,2074,2052,2069,1197
1295,1716365138552447514,2049,2033,1974,2045,2052,2027,1192
1296,1716365138562447768,2074,2101,2202,2092,2094,2070,1195
1297,1716365138572433545,2035,2014,1952,1948,2021,2029,1192
1298,1716365138582439339,2049,2030,1984,2039,2034,1985,1195
1299,1716365138592445293,2049,2046,2027,2028,2046,2036,1195
1300,1716365138602438643,2053,2048,2038,2047,2010,2054,1194
1301,1716365138612437845,2056,2074,2136,2080,2062,2027,1194
1302,1716365138622437979,2070,2069,2123,2097,2064,2062,1197
1303,1716365138632438834,2059,2058,2062,2010,2036,2058,1194
1304,1716365138642438907,2063,2061,2052,2056,2060,2060,1197
1305,1716365138652438379,2060,2081,2149,2067,2034,2026,1195
1306,1716365138662438582,2056,2054,2069,2044,2076,2089,1196
1307,1716365138672438535,2065,2097,2224,2007,2022,2064,1195
1308,1716365138682440602,2054,2028,1984,2066,2052,2058,1197
1309,1716365138692451646,2056,2040,2010,1960,2017,2027,1194
1310,1716365138702435219,2065,2047,2017,2042,2061,2062,1194
1311,1716365138712450680,2056,2062,2065,2069,2042,2042,1192
1312,1716365138722450824,2060,2064,2062,2077,2076,2018,1195
1313,1716365138732450346,2069,2060,2060,2073,2045,2021,1192
1314,1716365138742458044,2056,2047,2062,2065,2065,1989,1195
1315,1716365138752438290,2054,2050,2053,2068,2036,2044,1192
1316,1716365138762438834,2061,2061,2068,2096,2051,2015,1193
1317,1716365138772439899,2049,2056,2085,2021,2032,2033,1192
1318,1716365138782442587,2061,2087,2116,2009,2018,2043,1195
1319,1716365138792450465,2061,2056,2058,2047,2041,2046,1193
1320,1716365138802450579,2058,2053,2061,2053,2075,2065,1195
1321,1716365138812454710,2060,2096,2129,2032,2046,2061,1196
1322,1716365138822442229,2050,2044,2038,2033,2032,2040,1195
1323,1716365138832454926,2047,2049,2040,2053,2043,2057,1197
1324,1716365138842445301,2044,2046,2044,2060,2071,2066,1198
1325,1716365138852433722,2062,2072,2096,2078,2030,1936,1192
1326,1716365138862467989,2057,2049,2040,2057,2083,2079,1196
1327,1716365138872441753,2061,2078,2170,2056,2053,2061,1193
1328,1716365138882454601,2056,2043,2018,2041,2060,2064,1193
1329,1716365138892458782,2064,2072,2055,2075,1980,2025,1193
1330,1716365138902453044,2060,2066,2076,2040,2064,2062,1196
1331,1716365138912454179,2064,2088,2164,2041,2044,2060,1196
1332,1716365138922439054,2065,2048,2005,2045,2068,2072,1193
1333,1716365138932450609,2056,2057,2068,2055,2030,2016,1196
1334,1716365138942455181,2051,2040,2030,1969,2034,2054,1196
1335,1716365138952438603,2060,2052,2015,2049,2043,2044,1194
1336,1716365138962457952,2043,2031,2038,2057,2027,2045,1192
1337,1716365138972453136,2060,2068,2122,2068,2038,2040,1194
1338,1716365138982455794,2051,2046,2029,2054,2053,2125,1197
1339,1716365138992453393,2048,2042,2029,2086,2040,2036,1194
1340,1716365139002437046,2060,2056,2056,2063,2048,2065,1196
1341,1716365139012439754,2054,2068,2037,2050,2030,2069,1196
1342,1716365139022454235,2044,2019,1966,2051,2072,2058,1195
1343,1716365139032454669,2052,2054,2012,2069,2055,2072,1195
1344,1716365139042464832,2060,2064,2136,2088,2064,2064,1195
1345,1716365139052437375,2049,2045,2051,2059,2038,2077,1197
1346,1716365139062465690,2064,2056,2071,2023,2038,2073,1195
1347,1716365139072451588,2048,2049,2036,2072,2049,2050,1194
1348,1716365139082457193,2060,2062,2113,2076,2076,2054,1197
1349,1716365139092451736,2040,2040,2041,2042,2033,2097,1197
1350,1716365139102438235,2057,2054,2047,2050,2013,2033,1194
1351,1716365139112441104,2047,2038,2031,2021,2046,2057,1195
1352,1716365139122454452,2061,2073,2090,2046,2076,2054,1197
1353,1716365139132438596,2056,2064,2118,2078,2056,2104,1196
1354,1716365139142486249,2062,2049,2020,2075,2066,2063,1196
1355,1716365139152436860,2040,2035,2008,1960,2041,2033,1193
1356,1716365139162448576,2053,2034,1982,2068,2030,2040,1193
1357,1716365139172438782,2049,2041,2029,2061,2042,2043,1194
1358,1716365139182457409,2050,2042,2031,2000,2066,2060,1198
1359,1716365139192455800,2052,2058,2047,2057,2044,2000,1193
1360,1716365139202500458,2049,2047,2064,2058,2058,2057,1195
1361,1716365139212451209,2058,2053,2085,2056,2052,2060,1196
1362,1716365139222454619,2050,2040,1996,2060,2056,2076,1196
1363,1716365139232452429,2048,2044,2020,2052,2046,2057,1197
1364,1716365139242455578,2060,2052,2076,2036,2069,2072,1194
1365,1716365139252461062,2054,2051,2031,2033,2036,2027,1193
1366,1716365139262464513,2051,2022,1960,2040,2050,2009,1194
1367,1716365139272439860,2054,2049,2001,2037,2021,1939,1192
1368,1716365139282466804,2072,2059,2056,2059,2044,2034,1193
1369,1716365139292440900,2054,2052,2050,2067,2066,2050,1196
1370,1716365139302454218,2075,2112,2268,2057,2076,2060,1196
1371,1716365139312443262,2051,2042,2028,2057,2046,2042,1193
1372,1716365139322440220,2053,2044,2024,2059,2070,2070,1197
1373,1716365139332454389,2053,2047,2041,2046,2022,2020,1194
1374,1716365139342470453,2052,2044,2047,2052,2066,2100,1196
1375,1716365139352454467,2056,2050,2047,2046,2019,2033,1194
1376,1716365139362440494,2040,2029,2027,2064,2033,2038,1192
1377,1716365139372452872,2049,2041,2001,2049,2047,2053,1197
1378,1716365139382440372,2064,2063,2084,2056,2066,2056,1197
1379,1716365139392466544,2060,2062,2101,2056,2080,1967,1193
1380,1716365139402453754,2068,2056,2024,2064,2080,2130,1197
1381,1716365139412450272,2049,2036,2018,2024,2028,2050,1196
1382,1716365139422453611,2057,2053,2033,2072,2078,2065,1194
1383,1716365139432436914,2067,2069,2132,2061,2028,2048,1196
1384,1716365139442458869,2057,2078,2144,2031,2008,2012,1192
1385,1716365139452439095,2048,2047,2046,2068,2046,2047,1193
1386,1716365139462455349,2060,2056,2045,2069,2067,2058,1195
1387,1716365139472454853,2054,2047,2033,2052,2042,2045,1193
1388,1716365139482459174,2057,2043,2024,2061,2073,2126,1196
1389,1716365139492443168,2050,2049,2009,2070,2023,2034,1192
1390,1716365139502454052,2073,2056,2092,2063,2054,2044,1193
1391,1716365139512454055,2078,2109,2232,2095,2065,2061,1196
1392,1716365139522454670,2056,2053,2082,2036,2012,2028,1192
1393,1716365139532454123,2054,2058,2045,2049,2058,2065,1196
1394,1716365139542440671,2048,2045,2035,2018,2043,2046,1192
1395,1716365139552453509,2046,2052,2056,2076,2061,2054,1195
1396,1716365139562454185,2060,2059,2090,2017,2067,2049,1197
1397,1716365139572438619,2051,2047,2043,2028,2029,2012,1194
1398,1716365139582457077,2050,2052,2040,2104,2035,2030,1195
1399,1716365139592453665,2057,2062,2076,2066,2049,2017,1193
1400,1716365139602457415,2050,2054,2056,2070,2068,2070,1197
1401,1716365139612453281,2051,2066,2134,2063,2043,2096,1198
1402,1716365139622454227,2061,2049,1998,2084,2085,2100,1197
1403,1716365139632453298,2046,2046,2026,2112,2049,2053,1195
1404,1716365139642454194,2055,2051,2051,2089,2066,2061,1197
1405,1716365139652457564,2042,2029,1962,2029,2036,2068,1197
1406,1716365139662463137,2049,2036,2018,2036,2024,2022,1193
1407,1716365139672454826,2054,2050,2063,2061,2049,2091,1194
1408,1716365139682459990,2058,2072,2080,2045,2052,2136,1195
1409,1716365139692453521,2048,2044,2044,2047,2068,2067,1195
1410,1716365139702456480,2052,2041,2021,2053,2080,2057,1196
1411,1716365139712455823,2044,2039,2015,1969,2056,2088,1196
1412,1716365139722455165,2066,2036,2001,2046,2064,2077,1196
1413,1716365139732448857,2050,2042,2031,2041,2045,2037,1196
1414,1716365139742452037,2048,2045,2043,2046,2074,2054,1196
1415,1716365139752455617,2052,2052,2049,2068,2041,2031,1195
1416,1716365139762463656,2065,2048,2007,2052,2038,1964,1193
1417,1716365139772450796,2047,2050,2026,2064,2049,2073,1196
1418,1716365139782454586,2080,2120,2217,2095,2096,2052,1196
1419,1716365139792452636,2052,2044,2031,2037,2020,2032,1193
1420,1716365139802453642,2066,2078,2046,2063,2066,2060,1197
1421,1716365139812449748,2072,2083,2133,2082,2057,2051,1197
1422,1716365139822452247,2055,2041,2013,1997,2068,2065,1197
1423,1716365139832449546,2054,2056,2069,2083,2068,2138,1195
1424,1716365139842452825,2064,2066,2087,2074,2052,2075,1195
1425,1716365139852450565,2045,2054,2064,2055,2080,2095,1196
1426,1716365139862453674,2060,2056,2062,2050,2080,2088,1193
1427,1716365139872452165,2046,2046,2040,2072,2058,2058,1194
1428,1716365139882458220,2040,2034,2014,2066,2060,2054,1190
1429,1716365139892449878,2054,2040,2002,2046,2050,2042,1194
1430,1716365139902453949,2066,2076,2133,2076,2071,2066,1196
1431,1716365139912449515,2053,2059,2093,2048,2041,2038,1192
1432,1716365139922452494,2051,2046,2042,2072,2045,1982,1192
1433,1716365139932449332,2071,2092,2178,1984,2040,2060,1195
1434,1716365139942452321,2055,2049,2036,2047,2076,2088,1195
1435,1716365139952450001,2065,2078,2095,2045,2032,2056,1193
1436,1716365139962449954,2060,2084,2162,2052,2057,2099,1196
1437,1716365139972452723,2075,2129,2353,2094,2060,2022,1192
1438,1716365139982453148,2054,2044,2022,2056,2064,2057,1197
1439,1716365139992449664,2049,2051,2046,2053,2037,2012,1193
1440,1716365140002453195,2065,2065,2066,2097,2072,2059,1194
1441,1716365140012449643,2055,2044,2047,2066,2042,2063,1197
1442,1716365140022452443,2059,2044,2030,2053,2055,2021,1193
1443,1716365140032452747,2052,2046,2006,2053,2044,2053,1199
1444,1716365140042461448,2063,2084,2162,2087,2085,1976,1193
1445,1716365140052454610,2049,2038,1998,2056,2043,2053,1194
1446,1716365140062454704,2051,2050,2022,2072,2047,2052,1196
1447,1716365140072452855,2056,2049,2045,2053,2050,2047,1191
1448,1716365140082456255,2073,2091,2178,2092,2056,2061,1193
1449,1716365140092452893,2064,2076,2064,2027,2050,2088,1196
1450,1716365140102453900,2062,2063,2064,2048,2052,2064,1195
1451,1716365140112453173,2053,2051,2049,2056,2047,2046,1194
1452,1716365140122453327,2064,2048,2030,1961,2058,2061,1195
1453,1716365140132451077,2055,2060,2075,2064,2020,2020,1196
1454,1716365140142466119,2057,2047,2030,2012,2001,2040,1192
1455,1716365140152456686,2064,2096,2254,2084,2032,2046,1194
1456,1716365140162453505,2063,2038,1990,2040,2053,2045,1193
1457,1716365140172452617,2042,2032,1973,2035,2028,2010,1193
1458,1716365140182462911,2056,2047,2046,2072,2060,2061,1197
1459,1716365140192435023,2051,2058,2115,2088,2070,2028,1193
1460,1716365140202467447,2056,2100,2318,2082,2065,2008,1193
1461,1716365140212453225,2054,2050,2093,2094,2052,2037,1194
1462,1716365140222453310,2057,2052,2042,2062,2057,2057,1197
1463,1716365140232454877,2056,2052,2051,2088,2064,2060,1195
1464,1716365140242452687,2064,2047,2028,2068,2038,2056,1196
1465,1716365140252452591,2035,2056,2100,2061,2024,2016,1193
1466,1716365140262453096,2084,2052,2009,2053,2035,2052,1194
1467,1716365140272468378,2048,2045,2012,2071,2045,2053,1194
1468,1716365140282453937,2056,2076,2145,2058,2052,2053,1194
1469,1716365140292453220,2036,2030,1986,2035,2006,2040,1195
1470,1716365140302447904,2044,2058,2068,2074,2059,2045,1195
1471,1716365140312453518,2064,2113,2250,2070,2052,2057,1195
1472,1716365140322453162,2056,2052,2089,2065,2037,2036,1193
1473,1716365140332457434,2052,2040,2041,2020,2028,2038,1194
1474,1716365140342453211,2056,2053,2100,2072,2051,2030,1194
1475,1716365140352452734,2062,2054,2054,2046,2034,2066,1197
1476,1716365140362453209,2058,2048,2005,2039,2062,2060,1194
1477,1716365140372451179,2040,2044,2046,2068,2040,2029,1195
1478,1716365140382452746,2063,2080,2125,2070,2056,2074,1196
1479,1716365140392463171,2039,2020,1959,2038,2053,2049,1198
1480,1716365140402453247,2061,2052,2030,2060,2051,2048,1195
1481,1716365140412452509,2055,2048,2070,2076,2061,2067,1196
1482,1716365140422452193,2068,2061,2058,2072,2057,2058,1196
1483,1716365140432468798,2049,2056,2029,2068,2042,2033,1192
1484,1716365140442453253,2060,2049,2014,2060,2076,2067,1196
1485,1716365140452450663,2056,2057,2098,2054,2045,2042,1192
1486,1716365140462453022,2058,2052,2067,2053,2046,2043,1193
1487,1716365140472450771,2028,2030,1970,2032,2045,2040,1192
1488,1716365140482455615,2053,2043,2009,2024,2013,2048,1195
1489,1716365140492453665,2058,2056,2057,2064,2059,2072,1195
1490,1716365140502453729,2062,2065,2081,2066,2052,2059,1193
1491,1716365140512452021,2043,2033,1982,2027,2005,2043,1192
1492,1716365140522453398,2060,2065,2071,2076,2056,2051,1196
1493,1716365140532452450,2059,2052,2052,2087,2054,2036,1193
1494,1716365140542452915,2073,2065,2067,2072,2056,1996,1192
1495,1716365140552452538,2082,2075,2123,2064,2071,2075,1196
1496,1716365140562453615,2064,2060,2070,2065,2069,2062,1197
1497,1716365140572451025,2053,2033,1990,2065,2040,2018,1193
1498,1716365140582458984,2056,2046,2021,2059,2037,2042,1193
1499,1716365140592452386,2036,2065,2118,2074,2060,2035,1193
1500,1716365140602455656,2042,2044,2014,2067,2058,2006,1192
1501,1716365140612452354,2025,2050,2058,1950,2032,2036,1193
1502,1716365140622453190,2065,2064,2106,2039,2058,2048,1192
1503,1716365140632451972,2021,2020,1997,2041,2053,2055,1196
1504,1716365140642452126,2074,2060,2067,2026,2055,2047,1193
1505,1716365140652453643,2028,2013,1936,2057,2065,2067,1195
1506,1716365140662462814,2040,2022,1956,2034,2061,2032,1193
1507,1716365140672475743,2092,2048,2037,1960,2038,1994,1192
1508,1716365140682448417,2040,2037,2013,2056,2018,2059,1195
1509,1716365140692451817,2060,2052,2045,2056,2060,2054,1194
1510,1716365140702455578,2036,2051,2073,2034,2002,2005,1194
1511,1716365140712451565,2060,2076,2165,2004,2064,2086,1196
1512,1716365140722477097,2049,2046,2012,1999,2054,2059,1195
1513,1716365140732448087,2062,2077,2162,2058,2061,2071,1195
1514,1716365140742452280,2058,2093,2192,2092,2083,2078,1195
1515,1716365140752453225,2065,2051,2025,2058,2054,2046,1193
1516,1716365140762462116,2068,2085,2191,2100,2056,2068,1196
1517,1716365140772451460,2049,2052,2064,2069,2072,2096,1195
1518,1716365140782470049,2048,2045,2040,2062,2044,2058,1196
1519,1716365140792451619,2066,2093,2186,2107,2041,2050,1196
1520,1716365140802455221,2048,2043,2029,2060,2037,2045,1193
1521,1716365140812451959,2054,2050,2040,2062,2060,2039,1194
1522,1716365140822454648,2083,2015,1890,2043,2052,2057,1195
1523,1716365140832452107,2049,2050,2068,2068,2056,2065,1196
1524,1716365140842460086,2048,2057,2088,2020,2044,2061,1193
1525,1716365140852447217,2052,2053,2029,2062,2068,2027,1194
1526,1716365140862470525,2042,2042,2022,2037,2013,2021,1192
1527,1716365140872451944,2050,2050,2052,2070,2045,1944,1190
1528,1716365140882455785,2064,2061,2088,2072,2050,2036,1193
1529,1716365140892452213,2061,2046,2010,2050,2056,2088,1194
1530,1716365140902458308,2056,2054,2060,2069,2049,2073,1196
1531,1716365140912451441,2086,2091,2053,2091,2072,2066,1196
1532,1716365140922452847,2056,2051,1986,2028,2049,2052,1195
1533,1716365140932451789,2045,2024,1990,2012,2066,2058,1194
1534,1716365140942460079,2047,2032,1988,2040,2033,2064,1196
1535,1716365140952460824,2061,2070,2068,2055,2069,2072,1197
1536,1716365140962468633,2046,2040,2002,2048,2042,2120,1194
1537,1716365140972452628,2056,2052,2088,2059,2063,2066,1196
1538,1716365140982455458,2053,2047,2020,2048,2058,2058,1197
1539,1716365140992469538,2053,2031,1996,2042,2065,2058,1196
1540,1716365141002455716,2060,2063,2101,2053,2053,2051,1195
1541,1716365141012452926,2048,2044,2009,2061,2025,2024,1193
1542,1716365141022455285,2067,2109,2159,2090,2060,2056,1197
1543,1716365141032451423,2056,2060,2093,2064,2056,2041,1192
1544,1716365141042452599,2057,2061,2091,2062,2042,2038,1194
1545,1716365141052453586,2042,2042,2020,2042,2061,2086,1195
1546,1716365141062452990,2024,2020,1957,2050,2050,2074,1196
1547,1716365141072456281,2050,2044,2041,2068,2065,2056,1195
1548,1716365141082426179,2057,2054,2070,2086,2028,2012,1192
1549,1716365141092451973,2049,2053,2053,2067,2064,2063,1196
1550,1716365141102451506,2066,2053,2005,2091,2029,2052,1196
1551,1716365141112452994,2020,2025,2001,2047,2044,1947,1192
1552,1716365141122452358,2080,2090,2129,2093,2052,2065,1195
1553,1716365141132451641,2051,2045,2013,2056,2062,2057,1195
1554,1716365141142454301,2052,2057,2059,2039,2044,2053,1196
1555,1716365141152452983,2047,2038,1986,2052,2060,2027,1194
1556,1716365141162456415,2026,2013,1966,1945,2015,2192,1195
1557,1716365141172457240,2030,2042,2036,2052,2066,2067,1198
1558,1716365141182455783,2034,2041,2001,2069,2045,2051,1196
1559,1716365141192451650,2048,2047,2046,2066,2072,2060,1196
1560,1716365141202452977,2083,2090,2116,2104,2040,2055,1197
1561,1716365141212450307,2051,2044,2045,2068,2080,2113,1194
1562,1716365141222451915,2048,2061,2084,1987,2027,2038,1193
1563,1716365141232449806,2056,2064,2033,2078,2060,2057,1196
1564,1716365141242451875,2022,2072,2120,2066,2047,2051,1197
1565,1716365141252462049,2052,2056,2045,2065,2058,2042,1192
1566,1716365141262452636,2040,2024,1962,2032,2069,2054,1195
1567,1716365141272450757,2018,2024,1999,2027,2045,2081,1193
1568,1716365141282453307,2047,2032,2016,1971,2050,2056,1195
1569,1716365141292451799,2033,2045,2048,2072,2056,2037,1193
1570,1716365141302452034,2063,2030,2044,2043,2033,2081,1195
1571,1716365141312473018,2094,2040,2044,2064,2069,2080,1197
1572,1716365141322452304,2072,2052,2020,2060,2035,2046,1194
1573,1716365141332451988,2054,2048,2022,2081,2066,2069,1195
1574,1716365141342452053,2056,2076,2116,2064,2038,2045,1195
1575,1716365141352451547,2059,2054,2037,2045,2063,2065,1196
1576,1716365141362453215,2029,2037,2030,2045,2046,2064,1194
1577,1716365141372451146,2050,2060,2057,1988,2075,2100,1197
1578,1716365141382452313,2040,2053,2053,1982,2042,2041,1194
1579,1716365141392451626,2052,2053,2068,2048,2088,2079,1194
1580,1716365141402453084,2065,2071,2064,2075,2064,2081,1196
1581,1716365141412451206,2050,2052,2021,2055,2057,2008,1192
1582,1716365141422453264,2050,2033,1962,2056,2047,2058,1197
1583,1716365141432453339,2074,2047,2059,2061,2064,2064,1196
1584,1716365141442451461,2052,2031,1991,2045,2045,1956,1192
1585,1716365141452450763,2040,2072,2076,2105,2083,2067,1195
1586,1716365141462451380,2060,2040,2027,2073,2035,2040,1193
1587,1716365141472449622,2044,2037,2027,2040,2036,2032,1192
1588,1716365141482454075,2076,2046,2012,2053,2060,2045,1192
1589,1716365141492447567,2083,2079,2143,2051,2060,2068,1195
1590,1716365141502450408,2066,2116,2362,2078,2053,2066,1196
1591,1716365141512451283,2049,2056,2101,2049,2056,2052,1195
1592,1716365141522452541,2060,2042,2001,2084,2050,2061,1197
1593,1716365141532452837,2069,2057,2096,2061,2062,2058,1196
1594,1716365141542451669,2039,2050,2036,2053,2034,2066,1196
1595,1716365141552450131,2060,2052,2024,2073,2076,2058,1194
1596,1716365141562459313,2047,2050,2057,2064,2056,2056,1195
1597,1716365141572451123,2048,2046,2050,1981,2052,2051,1195
1598,1716365141582453331,2129,2064,2068,2056,2040,2052,1197
1599,1716365141592451232,2049,2067,2100,1936,2056,2056,1195
1600,1716365141602452459,2049,2045,2014,2057,2042,2046,1195
1601,1716365141612451552,2050,2080,2177,2069,2074,2056,1197
1602,1716365141622452209,2046,2040,2029,2052,2058,2068,1196
1603,1716365141632451322,2076,2133,2320,2107,2061,2056,1195
1604,1716365141642452078,2056,2036,1990,2047,2029,2036,1193
1605,1716365141652451782,2051,2047,2053,2067,2070,2064,1195
1606,1716365141662452268,2064,2095,2203,2013,2050,2053,1197
1607,1716365141672450890,2024,2040,2026,2063,2077,2057,1195
1608,1716365141682451757,2073,2064,2063,2060,2047,2056,1195
1609,1716365141692450760,2043,2036,1970,2051,2066,2064,1195
1610,1716365141702451886,2038,2012,1934,2059,2008,2032,1192
1611,1716365141712451200,2056,2047,2030,2082,2075,2076,1195
1612,1716365141722452548,2064,2059,2078,2084,2054,2058,1197
1613,1716365141732451570,2056,2052,2025,2097,2059,2053,1196
1614,1716365141742452056,2063,2072,2133,2020,2023,2033,1193
1615,1716365141752450458,2040,2048,2073,2062,2068,2056,1196
1616,1716365141762460191,2051,2030,1982,2064,2024,1997,1194
1617,1716365141772449075,2026,2069,2107,2082,2067,2071,1198
1618,1716365141782454029,2030,2041,2016,2065,2040,2096,1199
1619,1716365141792452230,2052,2053,2061,2058,2072,2063,1195
1620,1716365141802452055,2049,2042,2031,2046,2024,2039,1193
1621,1716365141812450948,2053,2056,2052,2053,2066,2059,1197
1622,1716365141822453608,2057,2056,2080,2036,2062,2079,1193
1623,1716365141832450827,2052,2094,2246,2076,2089,2066,1195
1624,1716365141842451303,2062,2053,2031,2050,2042,2074,1195
1625,1716365141852450647,2049,2047,2066,2037,2058,2057,1196
1626,1716365141862454448,2064,2055,2044,2060,2043,2048,1194
1627,1716365141872450606,2033,2037,2008,2056,2060,2044,1191
1628,1716365141882453657,2049,2037,2006,2056,2057,2080,1194
1629,1716365141892451738,2052,2056,2047,2081,2059,2048,1197
1630,1716365141902468504,2060,2056,2060,2052,2046,2052,1196
1631,1716365141912446588,2058,2050,2044,2062,2070,2064,1194
1632,1716365141922451381,2053,2045,2018,2038,2030,2088,1196
1633,1716365141932457137,2036,2038,2013,1960,2060,2066,1195
1634,1716365141942450791,2051,2039,2052,1996,2036,2049,1194
1635,1716365141952451175,2061,2072,2130,2038,2069,2059,1195
1636,1716365141962451902,2065,2042,2023,2056,2057,2087,1196
1637,1716365141972450515,2046,2042,2025,2072,2053,2036,1194
1638,1716365141982463793,2056,2072,2092,2088,2047,2046,1194
1639,1716365141992450694,2047,2036,2033,2057,2080,2065,1198
1640,1716365142002453865,2050,2051,2054,2060,2030,1990,1194
1641,1716365142012450184,2064,2059,2082,2044,2065,2064,1200
1642,1716365142022446091,2053,2058,2069,2053,2028,2046,1192
1643,1716365142032453500,2055,2040,1994,2073,2069,2055,1197
1644,1716365142042450890,2045,2033,1992,2070,2052,2024,1193
1645,1716365142052450996,2050,2056,2084,2040,2074,2060,1197
1646,1716365142062450000,2064,2057,2046,2020,2043,2034,1194
1647,1716365142072447190,2049,2051,2034,2059,2064,2046,1192
1648,1716365142082456984,2052,2034,1974,2062,2029,2029,1192
1649,1716365142092451539,2041,2042,2063,2053,2061,2060,1196
1650,1716365142102453437,2057,2072,2173,2044,2059,2062,1196
1651,1716365142112461618,2045,2045,2016,2050,2058,2052,1196
1652,1716365142122450202,2055,2047,2026,2058,2060,1952,1192
1653,1716365142132455798,2066,2056,2042,2054,2080,2050,1198
1654,1716365142142451536,2054,2047,2036,2054,2038,1940,1193
1655,1716365142152435992,2044,2051,2056,2062,2066,2059,1194
1656,1716365142162487223,2080,2089,2170,2080,2059,2060,1194
1657,1716365142172446002,2056,2039,2017,2034,2033,2053,1197
1658,1716365142182452749,2052,2047,2051,2057,2029,2048,1199
1659,1716365142192450010,2056,2056,2033,2079,2068,2056,1198
1660,1716365142202450546,2066,2063,2057,2083,2046,2049,1196
1661,1716365142212453817,2081,2047,2021,2058,2072,2042,1192
1662,1716365142222462289,2054,2052,2056,2005,2034,2068,1196
1663,1716365142232445674,2049,2045,2035,2040,2059,2056,1194
1664,1716365142242445529,2056,2049,2027,2085,2041,2053,1196
1665,1716365142252449842,2078,2078,2110,2055,2069,2020,1194
1666,1716365142262449827,2082,2049,2045,2047,2040,2054,1197
1667,1716365142272458478,2040,2047,2082,2047,2066,2064,1193
1668,1716365142282450980,2056,2050,2054,2058,2051,2064,1196
1669,1716365142292453250,2051,2043,2030,2068,2066,2156,1196
1670,1716365142302454437,2063,2054,2046,2075,2041,2077,1195
1671,1716365142312450034,2045,2036,2011,2076,2056,2046,1192
1672,1716365142322463595,2059,2058,2066,2069,2034,2047,1192
1673,1716365142332451377,2042,2033,2018,2054,2064,2072,1198
1674,1716365142342452044,2052,2051,2057,2060,2046,2047,1194
1675,1716365142352450026,2041,2059,2052,2060,2072,2061,1196
1676,1716365142362450352,2050,2041,2025,2044,2031,2040,1194
1677,1716365142372465666,2043,2057,2095,2065,2059,2055,1197
1678,1716365142382446335,2056,2056,2044,2072,2042,2049,1196
1679,1716365142392451681,2051,2072,2109,2102,2072,2060,1197
1680,1716365142402451255,2057,2064,2052,2029,2037,2045,1194
1681,1716365142412450519,2054,2077,2165,2058,2070,2047,1192
1682,1716365142422460994,2061,2077,2164,2036,2035,2058,1196
1683,1716365142432454287,2060,2080,2113,2077,2053,2031,1195
1684,1716365142442445556,2062,2029,1981,2030,2040,2063,1194
1685,1716365142452450541,2054,2056,2053,2039,2072,1999,1194
1686,1716365142462449064,2061,2057,2042,2065,2044,2064,1199
1687,1716365142472456132,2056,2061,2047,2076,2069,2056,1194
1688,1716365142482445728,2049,2040,2000,2059,2045,2059,1200
1689,1716365142492450492,2052,2043,2030,2074,2049,2058,1198
1690,1716365142502451009,2057,2057,2088,2070,2049,2086,1198
1691,1716365142512449612,2033,2028,1972,2047,2068,1950,1192
1692,1716365142522480114,2053,2042,2009,2050,2029,2047,1194
1693,1716365142532450854,2085,2078,2123,2084,2104,2076,1196
1694,1716365142542475696,2058,2053,2113,2092,2041,2049,1194
1695,1716365142552450815,2053,2057,2063,2082,2069,2060,1196
1696,1716365142562454267,2053,2047,2084,1999,2050,2058,1196
1697,1716365142572452770,2057,2058,2046,2073,2066,2067,1197
1698,1716365142582469987,2067,2056,2056,2056,2054,1985,1196
1699,1716365142592450626,2066,2048,2027,2067,2076,2076,1197
1700,1716365142602450411,2058,2063,2024,2047,2053,2061,1195
1701,1716365142612452872,2059,2044,1995,2078,2045,2036,1194
1702,1716365142622451824,2053,2026,1931,2045,2028,2032,1192
1703,1716365142632452992,2039,2053,2057,2056,2048,2042,1193
1704,1716365142642452958,2050,2046,2052,2062,2047,2084,1196
1705,1716365142652454686,2052,2045,2023,2037,2073,2054,1194
1706,1716365142662457447,2064,2045,2000,2047,2042,2062,1196
1707,1716365142672458054,2070,2096,2180,2074,2073,2097,1194
1708,1716365142682460584,2050,2040,2001,2082,2035,2048,1195
1709,1716365142692452353,2057,2049,2052,2084,2064,2053,1195
1710,1716365142702450986,2053,2065,2089,2068,2031,2065,1196
1711,1716365142712451041,2068,2049,2018,2048,2064,2052,1195
1712,1716365142722450716,2058,2056,2099,2033,2045,2047,1193
1713,1716365142732452746,2059,2085,2204,2082,2058,2026,1194
1714,1716365142742452551,2053,2065,2068,2097,2052,2045,1193
1715,1716365142752444892,2061,2058,2078,2020,2064,2049,1196
1716,1716365142762453213,2059,2046,2015,2060,2044,2043,1192
1717,1716365142772455973,2049,2058,2065,2008,2067,2056,1197
1718,1716365142782468261,2065,2060,2083,2048,2033,1993,1195
1719,1716365142792454111,2054,2044,2054,2040,2056,2048,1197
1720,1716365142802464886,2056,2056,1987,2084,2077,2044,1192
1721,1716365142812453660,2052,2053,2036,2062,2077,2071,1195
1722,1716365142822452033,2054,2069,2100,2075,2041,2044,1192
1723,1716365142832450185,2044,2045,2040,2059,2070,2060,1197
1724,1716365142842450551,2049,2056,2080,2052,2034,2033,1192
1725,1716365142852453251,2056,2055,2040,2085,2076,2057,1196
1726,1716365142862452195,2058,2045,1985,2056,2038,2050,1196
1727,1716365142872454374,2053,2049,2034,2051,2067,2058,1195
1728,1716365142882457786,2064,2044,2052,2045,2036,2046,1192
1729,1716365142892447182,2056,2060,2082,2017,2076,2066,1195
1730,1716365142902452667,2040,2043,2026,2068,2042,2056,1195
1731,1716365142912454887,2056,2049,2031,2066,2070,2061,1195
1732,1716365142922448851,2056,2061,2046,2068,2041,2057,1194
1733,1716365142932447012,2056,2045,2038,2075,2065,2053,1196
1734,1716365142942455384,2058,2057,2050,2070,2042,2053,1195
1735,1716365142952446974,2052,2035,2013,2008,2063,2035,1192
1736,1716365142962452720,2061,2057,2028,2054,2035,2049,1196
1737,1716365142972450250,2044,2045,2043,2095,2066,2065,1196
1738,1716365142982449905,2051,2044,2008,2079,2043,2059,1197
1739,1716365142992450922,2056,2033,2001,2030,2062,2062,1196
1740,1716365143002452100,2045,2054,2062,2052,2029,2061,1194
1741,1716365143012449160,2053,2065,2084,2069,2065,2052,1196
1742,1716365143022452742,2060,2058,2091,2065,2042,2049,1194
1743,1716365143032449432,2056,2060,2072,2086,2072,2064,1196
1744,1716365143042491857,2049,2054,2035,2078,2057,2048,1196
1745,1716365143052449314,2054,2057,2028,2061,2066,2056,1196
1746,1716365143062452676,2057,2048,2037,2014,2041,2049,1195
1747,1716365143072449687,2057,2065,2098,2061,2056,2037,1189
1748,1716365143082457147,2054,2053,2050,2033,2040,2046,1193
1749,1716365143092451092,2064,2072,2077,2065,2072,2061,1197
1750,1716365143102448853,2066,2068,2092,1985,2043,2056,1195
1751,1716365143112447026,2044,2036,2035,2025,2072,2071,1197
1752,1716365143122449316,2053,2061,2098,2041,2040,2043,1192
1753,1716365143132445955,2054,2053,2097,2064,2066,2058,1194
1754,1716365143142450700,2046,2040,1989,2050,2040,2045,1193
1755,1716365143152501200,2051,2052,2076,2009,2056,2087,1194
1756,1716365143162447607,2056,2066,2097,2006,2028,2034,1192
1757,1716365143172449315,2047,2034,1999,2052,2064,2046,1192
1758,1716365143182425767,2058,2066,2088,2053,2049,2041,1192
1759,1716365143192489141,2054,2056,2090,2069,2073,2069,1196
1760,1716365143202488696,2057,2060,2037,2056,2038,2062,1196
1761,1716365143212485417,2054,2065,2132,2056,2064,2060,1196
1762,1716365143222485052,2059,2064,2069,2062,2040,2057,1194
1763,1716365143232486270,2051,2049,2030,2064,2088,2053,1194
1764,1716365143242482819,2054,2043,1994,2071,2029,2028,1195
1765,1716365143252488236,2045,2040,2035,2047,2072,2063,1195
1766,1716365143262480437,2066,2082,2124,2009,2032,2052,1195
1767,1716365143272480433,2057,2059,2080,2061,2052,2060,1195
1768,1716365143282478906,2060,2061,2084,2088,2064,2081,1197
1769,1716365143292478631,2048,2042,2021,2074,2073,2057,1194
1770,1716365143302478337,2046,2043,2028,2043,2047,2064,1197
1771,1716365143312470989,2065,2066,2090,2092,2060,2047,1194
1772,1716365143322478239,2059,2051,2032,2056,2045,2068,1196
1773,1716365143332476411,2048,2040,2024,2033,2062,2056,1198
1774,1716365143342473521,2054,2075,2151,2084,2037,2037,1192
1775,1716365143352475581,2061,2053,2040,2070,2070,2056,1195
1776,1716365143362481779,2058,2056,2096,2066,2048,2059,1194
1777,1716365143372507262,2049,2051,2030,2047,2043,2060,1198
1778,1716365143382471632,2059,2068,2085,2070,2048,2056,1196
1779,1716365143392468702,2044,2045,2013,2041,2045,2053,1193
1780,1716365143402477985,2051,2046,2025,2036,2036,2049,1197
1781,1716365143412465328,2059,2046,2021,2072,2065,2077,1196
1782,1716365143422466546,2053,2055,2071,2070,2034,2039,1192
1783,1716365143432469478,2053,2049,2044,2053,2070,2049,1194
1784,1716365143442464264,2061,2067,2084,2069,2047,2053,1197
1785,1716365143452463117,2050,2063,2080,2060,2088,2074,1195
1786,1716365143462463995,2056,2063,2093,2038,2038,2044,1194
1787,1716365143472462579,2047,2045,2050,2033,2081,2060,1194
1788,1716365143482459850,2060,2065,2044,2045,2050,2066,1195
1789,1716365143492459284,2053,2040,2016,2065,2047,2025,1192
1790,1716365143502457667,2049,2044,2026,2024,2036,2049,1194
1791,1716365143512457553,2052,2043,2028,2072,2056,2046,1192
1792,1716365143522458761,2053,2045,2052,2064,2041,2048,1196
1793,1716365143532457134,2062,2052,2047,2067,2069,2058,1198
1794,1716365143542456990,2060,2040,1994,2080,2032,2047,1193
1795,1716365143552457226,2058,2049,2059,2045,2064,2063,1196
1796,1716365143562457502,2050,2045,2032,2048,2038,2038,1191
1797,1716365143572457408,2054,2056,2063,2104,2065,2056,1196
1798,1716365143582461091,2049,2067,2124,2094,2070,2050,1197
1799,1716365143592460236,2056,2058,2088,2042,2071,2064,1199
1800,1716365143602477063,2053,2052,2044,2056,2034,2052,1196
1801,1716365143612458143,2057,2062,2117,2056,2069,2049,1197
1802,1716365143622456797,2040,2047,2049,2050,2052,2068,1195
1803,1716365143632457154,2050,2062,2081,2069,2077,2056,1197
1804,1716365143642456849,2052,2050,2037,2058,2032,2051,1194
1805,1716365143652458077,2066,2089,2268,2074,2074,2063,1198
1806,1716365143662456670,2053,2039,2013,2052,2037,2067,1198
1807,1716365143672457818,2059,2066,2083,2032,2074,2022,1192
1808,1716365143682458376,2057,2052,2060,2061,2043,2056,1197
1809,1716365143692461618,2043,2056,2080,2047,2109,2093,1197
1810,1716365143702458768,2053,2049,2037,2057,2026,2036,1193
1811,1716365143712457502,2057,2044,1997,2083,2069,2058,1196
1812,1716365143722458489,2041,2053,2047,2028,2024,2024,1193
1813,1716365143732459647,2050,2041,2022,2049,2066,2059,1196
1814,1716365143742458401,2055,2059,2062,2068,2037,2038,1192
1815,1716365143752457766,2060,2077,2104,2062,2079,2080,1196
1816,1716365143762458293,2039,2030,2020,2056,2045,2049,1195
1817,1716365143772457638,2059,2054,2058,2081,2074,2072,1196
1818,1716365143782457994,2049,2041,2016,2045,2045,2045,1194
1819,1716365143792458502,2060,2066,2129,2068,2072,2073,1196
1820,1716365143802464449,2056,2056,2084,2064,2042,2050,1195
1821,1716365143812432365,2054,2044,2037,2041,2042,2062,1197
1822,1716365143822459781,2056,2046,2026,2040,2050,2071,1196
1823,1716365143832459527,2052,2052,2044,2082,2064,2056,1196
1824,1716365143842458521,2052,2057,2053,2058,2025,2032,1193
1825,1716365143852457596,2056,2057,2058,2049,2069,2061,1196
1826,1716365143862459946,2056,2046,2015,2044,2036,2040,1193
1827,1716365143872455523,2061,2068,2032,2066,2077,2072,1194
1828,1716365143882458324,2055,2043,2003,2008,2029,2045,1192
1829,1716365143892458180,2056,2045,2015,2065,2083,2045,1192
1830,1716365143902462985,2056,2049,2015,2018,2048,2080,1197
1831,1716365143912460897,2052,2050,2040,2075,2066,2062,1197
1832,1716365143922456505,2050,2045,2035,2068,2034,2053,1196
1833,1716365143932458454,2064,2078,2112,2067,2079,2067,1196
1834,1716365143942457939,2047,2054,2049,2037,2037,2051,1197
1835,1716365143952483573,2065,2087,2140,2068,2077,2094,1197
1836,1716365143962487166,2046,2044,2041,2032,2009,2013,1193
1837,1716365143972481792,2058,2058,2068,2050,2088,2064,1195
1838,1716365143982485585,2053,2043,2024,2016,2060,2065,1197
1839,1716365143992483647,2053,2047,2033,2089,2080,2080,1196
1840,1716365144002505414,2052,2034,1956,2040,2033,2042,1192
1841,1716365144012502925,2057,2053,2051,2068,2076,2056,1200
1842,1716365144022482233,2049,2043,2035,2044,2034,2033,1193
1843,1716365144032484143,2052,2030,1978,1989,2073,2068,1198
1844,1716365144042501792,2050,2052,2065,2044,2028,2058,1195
1845,1716365144052484237,2060,2071,2136,2081,2060,2019,1193
1846,1716365144062482319,2040,2029,1995,2056,2055,2065,1196
1847,1716365144072482676,2054,2044,2032,2041,2068,2054,1193
1848,1716365144082483415,2064,2066,2024,2070,2046,2040,1192
1849,1716365144092482519,2047,2036,2024,2085,2065,2069,1195
1850,1716365144102482896,2064,2072,2138,2066,2045,2049,1193
1851,1716365144112471492,2059,2059,2062,2069,2058,2061,1195
1852,1716365144122471508,2047,2040,2012,2037,2026,2053,1195
1853,1716365144132467758,2053,2054,2034,2061,2060,2074,1194
1854,1716365144142467925,2052,2056,2028,1995,2018,2035,1194
1855,1716365144152467129,2044,2050,2039,2053,2060,2060,1196
1856,1716365144162465222,2048,2040,2017,2052,2037,2058,1196
1857,1716365144172462825,2051,2043,2011,2023,2061,2036,1194
1858,1716365144182468462,2056,2058,2053,2042,2033,2047,1196
1859,1716365144192461124,2046,2042,2018,2088,2063,2066,1197
1860,1716365144202463856,2058,2066,2096,2076,2048,2042,1191
1861,1716365144212461048,2056,2053,2056,2042,2062,2059,1197
1862,1716365144222465742,2046,2029,1995,2041,2034,2041,1193
1863,1716365144232457534,2043,2021,1938,1994,2064,2056,1196
1864,1716365144242457601,2053,2044,2016,2062,2044,2061,1196
1865,1716365144252472043,2054,2049,2031,2050,2056,2043,1191
1866,1716365144262458776,2056,2053,2061,2061,2040,2048,1198
1867,1716365144272455456,2049,2053,2058,2030,2069,2086,1195
1868,1716365144282454821,2056,2061,2049,2073,2043,2044,1193
1869,1716365144292452443,2056,2049,2042,2080,2068,2056,1195
1870,1716365144302452931,2052,2049,2032,2053,2046,2044,1191
1871,1716365144312450282,2049,2027,1969,2066,2072,2092,1195
1872,1716365144322457973,2056,2058,2015,2035,1997,2055,1195
1873,1716365144332447090,2056,2036,1994,2046,2069,2060,1195
1874,1716365144342447827,2050,2045,2045,2062,2025,2037,1193
1875,1716365144352447202,2058,2056,2081,2006,2064,2056,1195
1876,1716365144362446919,2050,2037,1985,2048,2046,2056,1195
1877,1716365144372445423,2046,2038,2004,1996,2064,2059,1196
1878,1716365144382445208,2045,2044,2018,2085,2045,2046,1195
1879,1716365144392481813,2053,2065,2149,2069,2056,2031,1194
1880,1716365144402447286,2054,2045,2042,2031,2028,2058,1195
1881,1716365144412456709,2069,2084,2169,2046,2065,2045,1194
1882,1716365144422445014,2051,2047,2047,2025,2036,2050,1196
1883,1716365144432444650,2053,2057,2069,2059,2063,2059,1197
1884,1716365144442444686,2056,2063,2106,2023,2043,2044,1192
1885,1716365144452443952,2054,2044,2028,2067,2037,2040,1195
1886,1716365144462444930,2040,2033,2005,2028,2028,2000,1193
1887,1716365144472475162,2049,2033,1990,2049,2066,2056,1193
1888,1716365144482474608,2054,2042,2027,2057,2048,2069,1194
1889,1716365144492444108,2071,2089,2218,2047,2080,2064,1196
1890,1716365144502444616,2053,2046,2018,2075,2047,2040,1193
1891,1716365144512471021,2052,2050,2056,2052,2074,2056,1196
1892,1716365144522444789,2054,2053,2054,2004,2026,2035,1192
1893,1716365144532467718,2053,2047,2071,2039,2050,2059,1196
1894,1716365144542448879,2052,2048,2026,2056,2035,2052,1195
1895,1716365144552446882,2052,2040,1988,2067,2060,2041,1193
1896,1716365144562473348,2072,2106,2206,2098,2056,2074,1197
1897,1716365144572446424,2050,2049,2064,2064,2077,2050,1197
1898,1716365144582468081,2060,2051,2016,2040,2031,2041,1192
1899,1716365144592446708,2043,2042,2050,2083,2066,2057,1196
1900,1716365144602448317,2051,2054,2070,2089,2045,2056,1196
1901,1716365144612447011,2050,2038,2017,2051,2053,2040,1194
1902,1716365144622448130,2059,2051,2052,2060,2041,2052,1197
1903,1716365144632445662,2045,2038,2038,2049,2061,2052,1196
1904,1716365144642446159,2049,2037,2015,2000,2029,1968,1193
1905,1716365144652443902,2053,2046,2040,2078,2072,2055,1197
1906,1716365144662454117,2052,2048,2045,2056,2044,2050,1197
1907,1716365144672448643,2064,2060,2064,2066,2074,2065,1195
1908,1716365144682446807,2060,2082,2145,2083,2061,2050,1195
1909,1716365144692446283,2058,2072,2133,2062,2061,2056,1197
1910,1716365144702448192,2044,2048,2032,1913,2018,2012,1194
1911,1716365144712446315,2066,2078,2112,2056,2073,2049,1196
1912,1716365144722450089,2046,2033,2014,2059,2047,2045,1194
1913,1716365144732448131,2057,2045,2009,2061,2045,2045,1192
1914,1716365144742453418,2053,2040,2013,2072,2043,2049,1196
1915,1716365144752446332,2064,2081,2197,2070,2080,2070,1196
1916,1716365144762447880,2047,2034,2009,2061,2026,2085,1197
1917,1716365144772447957,2057,2048,2027,2059,2067,2064,1197
1918,1716365144782449297,2054,2050,2093,2034,2053,2056,1197
1919,1716365144792446167,2058,2058,2104,2113,2040,2044,1193
1920,1716365144802459618,2047,2037,2024,2050,2029,2012,1192
1921,1716365144812451240,2070,2096,2226,2113,2093,2051,1196
1922,1716365144822448812,2046,2047,2034,2092,2044,2046,1193
1923,1716365144832444400,2064,2086,2175,2080,2077,2028,1193
1924,1716365144842448614,2054,2054,2066,2012,2031,2037,1193
1925,1716365144852447509,2057,2051,2021,2059,2064,2049,1196
1926,1716365144862463264,2054,2052,2073,2056,2053,2049,1195
1927,1716365144872450868,2047,2043,2017,2054,2064,2020,1193
1928,1716365144882444743,2064,2050,1973,2024,2035,2051,1196
1929,1716365144892444469,2060,2057,2014,1979,2070,2059,1197
1930,1716365144902448984,2046,2028,2009,2046,2028,2045,1192
1931,1716365144912446146,2064,2074,2130,2070,2075,2075,1195
1932,1716365144922449728,2050,2043,2030,2057,2029,2047,1194
1933,1716365144932452630,2050,2064,2131,2069,2050,2060,1194
1934,1716365144942448780,2057,2065,2082,2036,2028,2032,1194
1935,1716365144952448635,2065,2096,2175,2072,2056,2028,1192
1936,1716365144962448602,2066,2112,2335,2056,2066,2080,1195
1937,1716365144972449380,2054,2040,2020,2066,2082,2072,1195
1938,1716365144982448385,2044,2036,2012,2052,2032,2060,1196
1939,1716365144992446327,2051,2044,2032,2057,2079,2046,1196
1940,1716365145002448438,2052,2046,2029,2072,2032,2116,1196
1941,1716365145012446282,2044,2048,2046,2050,2064,2002,1193
1942,1716365145022449154,2054,2066,2130,2099,2055,2062,1196
1943,1716365145032446436,2054,2047,2040,2069,2072,2061,1194
1944,1716365145042449138,2057,2063,2086,2043,2066,2050,1199
1945,1716365145052447772,2061,2064,2074,2060,2072,2057,1197
1946,1716365145062451708,2054,2047,2031,2058,2053,2047,1194
1947,1716365145072446815,2060,2053,2045,2072,2072,2063,1194
1948,1716365145082449587,2065,2049,2066,2066,2047,2064,1196
1949,1716365145092447831,2069,2099,2184,2054,2058,2060,1196
1950,1716365145102448249,2058,2066,2085,2042,2026,2062,1196
1951,1716365145112452314,2056,2049,2057,2022,2096,2074,1194
1952,1716365145122448624,2052,2048,2052,2027,1975,2002,1193
1953,1716365145132446146,2056,2044,2019,2060,2064,1964,1194
1954,1716365145142448407,2056,2049,2048,2042,2038,2056,1195
1955,1716365145152447943,2056,2060,2104,2068,2072,2064,1198
1956,1716365145162450095,2060,2080,2142,2072,2044,2053,1197
1957,1716365145172449251,2058,2049,2040,2049,2071,2044,1194
1958,1716365145182448556,2072,2105,2202,2107,2052,2061,1198
1959,1716365145192447381,2057,2046,2050,2096,2077,2058,1196
1960,1716365145202448119,2064,2075,2189,2103,2052,2059,1196
1961,1716365145212443819,2049,2031,2010,2042,2052,2052,1198
1962,1716365145222464354,2040,2032,1985,2037,2032,2063,1197
1963,1716365145232447981,2064,2062,2065,2052,2059,2047,1194
1964,1716365145242446495,2057,2076,2144,2044,2034,2001,1193
1965,1716365145252447824,2037,2033,2025,2058,2123,2017,1194
1966,1716365145262448232,2066,2068,2078,2045,2037,2050,1198
1967,1716365145272447558,2064,2078,2152,2120,2086,2064,1194
1968,1716365145282448337,2064,2061,2031,2060,2058,2038,1192
1969,1716365145292463832,2054,2042,2018,2049,2090,2085,1193
1970,1716365145302448751,2054,2040,2012,2044,2025,2012,1194
1971,1716365145312445722,2056,2059,2098,2083,2060,2051,1193
1972,1716365145322448505,2058,2056,2036,1999,2035,2049,1196
1973,1716365145332448382,2067,2089,2130,2093,2079,2064,1197
1974,1716365145342448429,2050,2062,2115,2063,2037,2040,1193
1975,1716365145352447975,2053,2050,2072,2051,2034,2060,1196
1976,1716365145362448813,2060,2065,2124,2080,2044,2064,1194
1977,1716365145372449994,2050,2030,1947,2062,2052,2058,1196
1978,1716365145382448398,2054,2047,2037,2045,2037,1972,1194
1979,1716365145392449356,2068,2067,2092,2080,2079,2073,1196
1980,1716365145402449433,2057,2068,2059,2080,2042,2050,1197
1981,1716365145412424454,2074,2080,2097,2074,2110,2069,1195
1982,1716365145422447895,2049,2048,2056,2032,2042,2047,1193
1983,1716365145432450837,2069,2085,2197,2065,2092,2087,1198
1984,1716365145442446146,2056,2064,2120,2064,2056,1999,1192
1985,1716365145452446924,2054,2052,2053,2073,2074,2069,1197
1986,1716365145462459113,2050,2052,2057,2024,2048,2074,1194
1987,1716365145472441948,2060,2056,2068,2068,2064,2061,1196
1988,1716365145482447777,2065,2080,2109,2064,2026,2048,1197
1989,1716365145492441743,2060,2053,2027,2078,2062,2056,1194
1990,1716365145502441149,2052,2045,2007,2063,2040,2052,1197
1991,1716365145512445554,2042,2038,2012,2042,2074,2064,1195
1992,1716365145522448005,2047,2040,1984,2049,2039,2045,1196
1993,1716365145532446751,2058,2058,2058,2037,2061,2056,1196
1994,1716365145542447639,2057,2051,2051,2024,2044,2058,1197
1995,1716365145552447536,2072,2084,2097,2073,2058,2044,1194
1996,1716365145562446871,2050,2050,2063,2056,2036,1969,1193
1997,1716365145572448812,2058,2054,2014,2036,2076,2065,1197
1998,1716365145582451003,2057,2062,2066,2060,2040,2050,1198
1999,1716365145592468553,2052,2036,2009,2067,2054,2056,1196
2000,1716365145602442642,2050,2036,2008,2084,2041,2048,1196
2001,1716365145612439553,2068,2071,2148,2078,2125,2115,1198
2002,1716365145622448196,2058,2056,2076,2009,2044,2037,1194
2003,1716365145632447351,2062,2058,2051,2072,2056,2054,1196
2004,1716365145642448492,2059,2070,2133,2042,2029,2063,1197
2005,1716365145652449881,2050,2037,2028,2052,2108,2040,1194
2006,1716365145662448014,2058,2041,1995,2029,2050,2056,1195
2007,1716365145672447691,2056,2051,2041,2068,2084,2053,1194
2008,1716365145682448168,2053,2046,2056,2045,2056,2045,1193
2009,1716365145692469746,2055,2053,2053,2054,2070,2076,1194
2010,1716365145702442553,2053,2025,1932,2054,2039,2054,1196
2011,1716365145712446858,2031,2038,2039,2010,2050,2083,1195
2012,1716365145722448067,2056,2052,2026,2048,2036,2036,1192
2013,1716365145732446982,2050,2036,2004,2070,2069,2056,1196
2014,1716365145742447770,2057,2059,2063,2025,2041,2060,1194
2015,1716365145752439843,2057,2036,1944,2040,2068,2050,1196
2016,1716365145762458104,2036,2021,1970,1953,1977,2003,1193
2017,1716365145772446960,2059,2053,2045,2083,2080,2066,1197
2018,1716365145782448129,2056,2057,2057,2068,2037,2042,1194
2019,1716365145792473533,2054,2038,2034,2044,2073,2060,1196
2020,1716365145802442463,2060,2066,2100,2056,2039,2040,1192
2021,1716365145812446979,2057,2047,2053,2023,2056,2032,1193
2022,1716365145822447917,2046,2049,2080,1995,2043,2065,1197
2023,1716365145832446842,2061,2066,2029,2093,2093,2085,1196
2024,1716365145842448482,2049,2036,2010,2091,2040,2052,1195
2025,1716365145852447899,2048,2030,1973,2073,2072,2061,1196
2026,1716365145862462483,2052,2039,1989,2064,2053,2059,1198
2027,1716365145872448925,2066,2062,2064,2058,2066,2063,1195
2028,1716365145882447960,2059,2056,2042,2057,2015,2028,1193
2029,1716365145892460029,2056,2066,2125,2072,2077,2028,1194
2030,1716365145902442554,2056,2067,2136,2062,2040,2043,1194
2031,1716365145912439425,2063,2070,2155,2064,2064,2051,1196
2032,1716365145922448409,2046,2082,2128,2060,2036,2057,1197
2033,1716365145932446532,2060,2061,2065,2076,2100,2042,1192
2034,1716365145942447701,2052,2054,2074,2062,2019,2003,1194
2035,1716365145952450033,2046,2037,2008,2053,2073,2056,1196
2036,1716365145962448097,2046,2037,2020,2013,2041,2073,1194
2037,1716365145972446872,2060,2048,1989,2062,2045,2034,1193
2038,1716365145982447950,2060,2073,2121,2075,2051,2060,1196
2039,1716365145992457956,2049,2041,2009,2054,2074,2076,1196
2040,1716365146002442434,2051,2040,2005,2069,2045,2049,1196
2041,1716365146012442282,2058,2060,2098,2052,2080,2081,1197
2042,1716365146022450214,2054,2051,2012,2078,2051,2058,1197
2043,1716365146032446504,2055,2049,2058,2036,2051,2072,1196
2044,1716365146042447855,2058,2051,2015,2056,2043,2049,1197
2045,1716365146052439998,2053,2064,2114,2052,2047,2038,1193
2046,1716365146062460012,2049,2044,2028,2047,2031,1970,1193
2047,1716365146072447988,2043,2033,2001,2042,2061,2056,1193
2048,1716365146082448997,2056,2047,2030,2080,2026,2045,1193
2049,1716365146092466747,2060,2073,2105,2081,2078,2063,1197
2050,1716365146102442360,2050,2037,2003,1957,2048,2059,1196
2051,1716365146112447347,2062,2055,2080,2052,2083,2086,1196
2052,1716365146122447264,2052,2050,2054,2040,2058,2058,1194
2053,1716365146132448254,2058,2060,2053,2068,2076,2077,1195
2054,1716365146142447230,2046,2027,1946,2060,2052,2065,1195
2055,1716365146152448409,2061,2074,2198,2060,2101,2077,1195
2056,1716365146162452094,2049,2033,1996,2025,2056,2086,1195
2057,1716365146172446922,2056,2057,2049,2060,2074,2076,1195
2058,1716365146182447260,2054,2050,2043,2064,2043,2043,1193
2059,1716365146192446436,2056,2047,2055,2075,2068,2063,1197
2060,1716365146202436736,2047,2046,2020,2049,2065,2042,1193
2061,1716365146212450379,2059,2056,2088,2035,2091,2129,1194
2062,1716365146222448142,2053,2065,2077,2066,2045,2056,1196
2063,1716365146232446507,2069,2082,2153,2085,2064,2060,1198
2064,1716365146242447396,2048,2037,2019,2060,2042,2063,1195
2065,1716365146252445300,2060,2046,1967,2078,2030,2017,1192
2066,1716365146262447121,2059,2060,2064,2040,2024,2036,1195
2067,1716365146272447349,2051,2051,2044,2067,2064,2058,1194
2068,1716365146282447356,2048,2054,2052,2022,2008,2006,1192
2069,1716365146292447044,2052,2050,2032,2036,2088,2042,1195
2070,1716365146302447783,2053,2040,2035,2047,2056,2057,1195
2071,1716365146312446658,2049,2040,2012,2063,2029,2002,1194
2072,1716365146322447658,2054,2047,2027,2015,2037,2056,1197
2073,1716365146332446984,2050,2026,1921,2043,2057,2066,1196
2074,1716365146342446881,2059,2043,1982,2045,2034,2038,1194
2075,1716365146352447971,2060,2056,2045,2035,2068,2052,1196
2076,1716365146362448380,2059,2052,2029,2052,2021,2052,1195
2077,1716365146372444731,2063,2064,2040,2088,2079,2072,1197
2078,1716365146382447934,2047,2050,2060,2071,2027,2049,1197
2079,1716365146392444455,2054,2053,2050,2079,2083,2079,1196
2080,1716365146402448440,2044,2049,2088,2058,2038,2033,1194
2081,1716365146412447556,2037,2024,1970,2061,2053,2045,1193
2082,1716365146422446061,2058,2063,2092,2077,2041,2034,1195
2083,1716365146432443224,2056,2060,2015,2096,2071,2042,1194
2084,1716365146442445966,2056,2056,2065,2065,2067,2064,1197
2085,1716365146452444030,2059,2057,2040,1984,2087,2097,1197
2086,1716365146462448657,2061,2068,2044,2057,1993,2029,1192
2087,1716365146472438254,2054,2045,2021,2056,2082,2040,1191
2088,1716365146482443512,2049,2035,1992,2072,2024,2030,1194
2089,1716365146492442758,2054,2033,1950,2054,2047,2073,1195
2090,1716365146502455109,2041,2052,2063,2037,1986,1993,1193
2091,1716365146512450798,2058,2058,2062,2065,2069,2064,1195
2092,1716365146522447149,2061,2064,2081,2060,2052,2042,1194
2093,1716365146532440575,2061,2058,2084,2112,2111,2076,1197
2094,1716365146542444449,2060,2061,2093,2059,2046,2021,1194
2095,1716365146552446591,2054,2050,2066,2064,2074,2052,1199
2096,1716365146562446689,2059,2060,2062,2033,2032,2051,1195
2097,1716365146572445694,2056,2052,2040,2040,2061,2030,1196
2098,1716365146582427949,2053,2048,2028,2073,2064,2052,1197
2099,1716365146592443897,2058,2049,2065,2061,2059,2035,1194
2100,1716365146602457219,2064,2075,2160,2071,2072,2050,1195
2101,1716365146612447639,2058,2049,2039,1989,2058,2066,1196
2102,1716365146622447366,2052,2054,2037,2036,2012,2030,1193
2103,1716365146632447233,2057,2061,2052,2071,2069,2061,1195
2104,1716365146642446690,2052,2042,2012,2061,2042,2080,1197
2105,1716365146652446648,2049,2037,2028,2024,2068,2057,1194
2106,1716365146662448278,2053,2046,2024,2055,2046,2024,1194
2107,1716365146672444869,2049,2045,2028,2050,2052,2048,1193
2108,1716365146682446991,2052,2042,2036,2060,2044,2051,1195
2109,1716365146692446077,2056,2059,2056,2070,2076,2064,1196
2110,1716365146702448108,2058,2056,2058,2045,2032,2036,1192
2111,1716365146712446683,2056,2054,2075,2072,2076,2052,1196
2112,1716365146722441381,2056,2049,2020,2048,2043,2035,1192
2113,1716365146732443392,2058,2048,2024,2044,2030,2053,1197
2114,1716365146742447969,2053,2059,2065,2050,2021,2039,1194
2115,1716365146752446654,2052,2049,2040,2054,2026,2033,1193
2116,1716365146762448214,2058,2052,2026,2056,2041,2055,1194
2117,1716365146772446679,2052,2053,2047,2045,2058,2053,1196
2118,1716365146782447428,2055,2054,2068,2029,2029,2056,1201
2119,1716365146792447245,2060,2056,2029,2076,2061,2064,1196
2120,1716365146802448786,2056,2050,2042,2052,2054,2070,1196
2121,1716365146812447070,2063,2050,2040,2087,2075,2072,1197
2122,1716365146822448821,2055,2074,2116,2057,2038,2049,1197
2123,1716365146832444961,2039,2038,2025,2056,2077,2054,1196
2124,1716365146842446733,2060,2066,2061,2069,2018,1964,1193
2125,1716365146852446049,2041,2038,2012,2046,2072,2062,1195
2126,1716365146862447439,2050,2037,2040,2026,2047,2054,1196
2127,1716365146872444561,2064,2085,2209,2079,2088,2077,1194
2128,1716365146882445852,2054,2041,2017,2035,2060,2065,1195
2129,1716365146892445528,2054,2053,2044,2064,2061,2043,1194
2130,1716365146902449443,2064,2064,2057,2045,2018,2020,1191
2131,1716365146912446405,2058,2065,2047,2114,2064,2037,1195
2132,1716365146922446413,2057,2054,2053,2049,2032,2047,1194
2133,1716365146932446290,2057,2054,2060,2057,2060,2058,1196
2134,1716365146942446599,2052,2045,2038,2044,2027,2049,1196
2135,1716365146952445544,2064,2074,2121,2040,2072,2061,1197
2136,1716365146962446664,2033,2041,2025,1989,1991,2038,1193
2137,1716365146972445309,2064,2054,2046,2122,2078,2081,1196
2138,1716365146982444104,2049,2045,2037,2074,2045,2040,1194
2139,1716365146992445755,2056,2051,2050,2062,2062,2064,1196
2140,1716365147002449209,2053,2052,2050,2038,2035,2047,1193
2141,1716365147012445731,2064,2071,2067,2084,2100,2020,1193
2142,1716365147022447632,2053,2043,2010,2041,2013,2020,1194
2143,1716365147032445747,2060,2062,2093,2032,2076,2061,1196
2144,1716365147042446146,2054,2057,2053,2092,2045,2049,1196
2145,1716365147052446255,2048,2056,2068,2073,2066,2052,1196
2146,1716365147062448507,2055,2056,2051,2060,2042,2054,1195
2147,1716365147072437594,2050,2043,2030,2071,2069,2057,1193
2148,1716365147082443614,2053,2047,2058,2042,2040,2048,1195
2149,1716365147092446617,2045,2001,1954,2042,2060,2060,1193
2150,1716365147102448078,2067,2068,2047,2044,2037,2036,1193
2151,1716365147112459598,2062,2062,2088,2007,2030,1996,1194
2152,1716365147122446622,2064,2064,2038,2049,2063,2081,1196
2153,1716365147132449706,2058,2064,2068,2076,2084,2072,1195
2154,1716365147142442591,2064,2068,2090,2047,2032,2050,1194
2155,1716365147152449161,2060,2052,2024,2070,2067,2081,1195
2156,1716365147162454640,2057,2047,2028,2076,2076,2089,1196
2157,1716365147172446814,2041,2045,2052,2044,2062,2060,1196
2158,1716365147182445479,2060,2077,2099,2059,2040,2052,1194
2159,1716365147192436591,2063,2064,2066,2102,2077,2067,1195
2160,1716365147202454522,2061,2072,2086,2068,2040,2041,1194
2161,1716365147212442068,2050,2043,2031,2074,2070,2032,1193
2162,1716365147222446734,2059,2047,2042,2052,2053,2066,1195
2163,1716365147232442304,2044,2034,1984,2049,2069,2088,1195
2164,1716365147242442362,2046,2041,1966,2060,2021,2030,1193
2165,1716365147252445406,2056,2056,2039,2092,2076,2068,1196
2166,1716365147262443771,2058,2066,2090,2077,2058,2071,1196
2167,1716365147272453418,2057,2052,2048,2065,2068,2080,1193
2168,1716365147282439901,2057,2059,2058,2057,2035,2085,1194
2169,1716365147292440520,2061,2084,2112,2078,2075,2069,1195
2170,1716365147302453282,2056,2057,2104,2063,2028,2024,1196
2171,1716365147312449242,2064,2071,2098,2044,2071,2051,1197
2172,1716365147322447447,2043,2038,2029,2012,2022,2033,1194
2173,1716365147332444300,2056,2053,1997,2051,2061,2063,1196
2174,1716365147342442184,2045,2038,1996,2042,2012,2024,1192
2175,1716365147352428627,2050,2048,2032,2064,2088,2073,1195
2176,1716365147362444254,2051,2052,2053,1982,2029,2053,1197
2177,1716365147372451707,2061,2070,2127,2089,2078,2059,1196
2178,1716365147382449810,2057,2076,2133,2056,2029,2020,1194
2179,1716365147392445631,2048,2039,2035,2051,2073,2059,1197
2180,1716365147402446341,2052,2040,1994,2065,2056,2056,1196
2181,1716365147412441820,2044,2041,2024,2057,2063,2060,1197
2182,1716365147422442219,2060,2078,2176,2073,2045,2061,1196
2183,1716365147432469769,2054,2041,2016,2047,2074,2075,1195
2184,1716365147442453858,2062,2064,2052,2052,2042,2041,1192
2185,1716365147452456911,2061,2049,2034,2096,2109,2039,1194
2186,1716365147462464874,2052,2056,2064,2053,2039,2026,1194
2187,1716365147472457088,2046,2045,2016,2071,2065,2049,1193
2188,1716365147482454191,2056,2056,2028,2069,2035,2022,1192
2189,1716365147492457966,2058,2040,2012,2053,2078,2078,1197
2190,1716365147502458044,2049,2049,2008,2056,2033,2040,1192
2191,1716365147512457050,2056,2072,2140,2057,2068,2061,1195
2192,1716365147522473269,2058,2071,2088,2074,2032,2056,1196
2193,1716365147532458721,2058,2057,2053,2053,2036,2077,1197
2194,1716365147542454911,2053,2044,2019,2031,2040,2059,1197
2195,1716365147552456252,2061,2062,2097,2062,2081,2064,1195
2196,1716365147562462612,2050,2050,2069,2043,2040,2047,1192
2197,1716365147572475323,2053,2043,2006,1989,2057,2064,1197
2198,1716365147582456527,2049,2044,2026,2052,2046,2051,1197
2199,1716365147592454001,2045,2036,2000,2029,2064,2045,1193
2200,1716365147602457555,2052,2033,1955,2036,2028,2013,1192
2201,1716365147612456582,2052,2048,2055,2040,2052,2048,1197
2202,1716365147622458353,2052,2052,2050,2048,2046,2046,1193
2203,1716365147632463941,2046,2053,2068,2058,2064,2052,1194
2204,1716365147642456356,2058,2065,2067,2049,2048,2072,1195
2205,1716365147652456003,2060,2056,2012,2058,2084,2070,1195
2206,1716365147662464066,2058,2050,1995,2082,2028,2056,1197
2207,1716365147672486386,2047,2036,2034,2064,2074,2089,1194
2208,1716365147682455467,2057,2049,2045,2066,2031,2006,1194
2209,1716365147692456357,2052,2044,2043,2049,2066,2061,1197
2210,1716365147702458529,2054,2042,2022,2034,2047,2052,1196
2211,1716365147712457114,2076,2129,2381,2065,2100,2088,1197
2212,1716365147722460529,2056,2054,2039,2088,2050,2048,1196
