seq,time,data[0],data[1],data[2],data[3],data[4],data[5],data[6]
201,1716365243563637256,2028,2028,2021,2433,2113,2040,1192
202,1716365243573637823,2053,2057,2054,1992,1989,2032,1194
203,1716365243583648420,2068,2056,2062,2007,2064,2073,1197
204,1716365243593641394,2063,2064,2066,2091,2093,2052,1197
205,1716365243603640119,2044,2048,2054,2110,2056,2040,1194
206,1716365243613640627,2056,2059,2065,1992,2032,2080,1195
207,1716365243623643068,2060,2052,2056,2062,2066,2057,1196
208,1716365243633638636,2056,2058,2056,2075,2001,2074,1197
209,1716365243643641288,2063,2051,2037,2077,2072,2075,1196
210,1716365243653640153,2053,2040,2037,1896,1998,2042,1192
211,1716365243663640311,2058,2051,2045,2035,2077,2062,1196
212,1716365243673642011,2070,2052,2048,1861,2082,2069,1194
213,1716365243683638621,2049,2047,2064,2075,2073,2054,1195
214,1716365243693641373,2056,2056,2052,1901,2027,2048,1196
215,1716365243703640118,2070,2063,2056,2126,2201,2101,1197
216,1716365243713640876,2037,2040,2036,2148,2064,2052,1196
217,1716365243723638248,2057,2061,2052,2148,1988,2077,1194
218,1716365243733639618,2052,2050,2066,1996,2064,2054,1196
219,1716365243743640225,2056,2049,2050,2038,2037,2067,1196
220,1716365243753638399,2052,2049,2045,2069,2065,2034,1194
221,1716365243763640670,2068,2064,2085,2232,2120,2079,1198
222,1716365243773639154,2050,2052,2044,2080,1986,2058,1197
223,1716365243783638049,2046,2053,2042,1979,1977,2031,1193
224,1716365243793638837,2048,2044,2040,2008,2016,2008,1197
225,1716365243803640627,2071,2076,2071,2079,2079,2050,1197
226,1716365243813637238,2116,2066,2052,1952,2041,2156,1197
227,1716365243823638137,2069,2059,2039,2025,2074,2072,1197
228,1716365243833640989,2032,2039,2064,2161,2042,2043,1193
229,1716365243843639123,2049,2089,2105,1929,2060,2030,1193
230,1716365243853635693,2039,2049,2046,2158,2088,2056,1197
231,1716365243863639647,2030,2059,2084,1986,2050,2008,1195
232,1716365243873638712,2158,2072,2052,2012,2045,2036,1195
233,1716365243883638770,2061,2072,2074,2101,1998,2138,1194
234,1716365243893636412,2056,2051,2044,2101,2024,2078,1198
235,1716365243903642449,2060,2058,2056,2173,2120,2064,1196
236,1716365243913636676,2052,2061,2074,2104,2057,2036,1195
237,1716365243923638847,2077,2062,2056,2048,2053,2072,1196
238,1716365243933637091,2049,2049,2045,1964,2031,2020,1193
239,1716365243943639082,2042,2036,2029,2097,2205,2000,1194
240,1716365243953639890,2064,2061,2070,2097,2117,2082,1195
241,1716365243963639766,2061,2068,2072,1912,1969,2026,1193
242,1716365243973635455,2055,2061,2056,2040,1998,2050,1196
243,1716365243983637265,2088,2060,2037,2099,2026,2076,1197
244,1716365243993639557,2056,2050,2035,1968,2018,2056,1198
245,1716365244003652157,2096,2070,2058,1854,2041,2061,1197
246,1716365244013636396,2059,2060,2072,1566,1970,2010,1194
247,1716365244023639469,2057,2057,2068,2338,2113,2082,1196
248,1716365244033639997,2048,2052,2060,1888,2024,2046,1194
249,1716365244043649282,2054,2050,2053,2040,2072,2041,1194
250,1716365244053637828,2072,2058,2041,2140,2064,2047,1195
251,1716365244063673792,2056,2043,2033,2100,2069,2056,1197
252,1716365244073640127,2071,2078,2070,2040,2065,2074,1195
253,1716365244083642418,2047,2047,2050,2160,2076,2056,1196
254,1716365244093645432,2052,2052,2066,2108,2054,2056,1195
255,1716365244103640229,2047,2047,2048,1750,1990,2000,1192
256,1716365244113642210,2061,2055,2052,2102,2009,2016,1192
257,1716365244123639903,2060,2061,2063,2077,2070,2055,1196
258,1716365244133640732,2055,2056,2057,2060,2055,2070,1196
259,1716365244143640229,2096,2057,2044,1992,2082,2061,1197
260,1716365244153674580,2037,2042,2064,2071,2007,2014,1193
261,1716365244163644701,2053,2058,2074,2000,2027,2052,1197
262,1716365244173642765,2054,2056,2064,2241,2091,2070,1195
263,1716365244183642984,2077,2070,2054,2027,2077,2088,1197
264,1716365244193641117,2047,2057,2045,1692,1996,2018,1193
265,1716365244203643028,2060,2069,2077,1749,2020,2064,1197
266,1716365244213645640,2060,2054,2046,2181,2080,2101,1198
267,1716365244223642812,2056,2052,2038,2085,2050,2062,1195
268,1716365244233640556,2067,2076,2072,1812,2057,2048,1197
269,1716365244243644560,2056,2047,2045,2057,2056,2061,1196
270,1716365244253640670,2041,2056,2064,2027,2032,2054,1197
271,1716365244263649575,2030,2035,2049,2077,2074,2049,1197
272,1716365244273646065,2069,2069,2042,2008,2059,2075,1197
273,1716365244283646083,2059,2054,2042,2116,2078,2056,1193
274,1716365244293644316,2045,2047,2055,2104,2065,2039,1193
275,1716365244303646588,2041,2044,2041,2191,2142,2133,1197
276,1716365244313644462,2045,2059,2052,2091,2020,2015,1193
277,1716365244323642345,2064,2065,2044,1815,1967,2018,1193
278,1716365244333642332,2045,2041,2044,2015,2074,2065,1197
279,1716365244343643231,2058,2057,2050,1966,2065,2071,1196
280,1716365244353641446,2045,2064,2072,2438,2098,2043,1194
281,1716365244363647344,2042,2050,2054,2033,2043,2036,1196
282,1716365244373644395,2030,2044,2056,1939,2042,1979,1194
283,1716365244383645274,2073,2056,2074,1982,2030,2048,1196
284,1716365244393644771,2056,2066,2064,1912,2047,2082,1197
285,1716365244403647183,2084,2081,2072,2047,2032,2068,1196
286,1716365244413647190,2090,2069,2067,2067,2056,2057,1196
287,1716365244423646957,2044,2050,2046,1786,2069,2041,1194
288,1716365244433647325,2058,2056,2048,2008,2006,2031,1194
289,1716365244443647353,2129,2093,2100,2006,2009,2053,1198
290,1716365244453656026,2050,2043,2035,2099,2015,2027,1195
291,1716365244463642748,2062,2050,2044,1985,2088,2030,1193
292,1716365244473640602,2036,2035,2021,1803,2060,2006,1192
293,1716365244483644557,2045,2041,2042,2161,2074,2053,1197
294,1716365244493644705,2065,2052,2050,2012,1998,2033,1192
295,1716365244503652356,2070,2057,2049,2097,2080,2072,1196
296,1716365244513642445,2046,2052,2063,2034,2084,2029,1193
297,1716365244523647993,2048,2046,2052,2045,1960,2028,1194
298,1716365244533647038,2056,2060,2058,2044,2005,2024,1192
299,1716365244543647356,2064,2043,2033,2037,2070,2064,1195
300,1716365244553656290,2056,2057,2064,1962,1988,1978,1195
301,1716365244563639206,2028,2043,2048,2263,2110,2058,1198
302,1716365244573645375,2036,2044,2056,2045,2058,2049,1196
303,1716365244583645272,2058,2053,2046,1994,2118,2053,1193
304,1716365244593649577,2044,2047,2053,2096,2048,2031,1193
305,1716365244603656176,2045,2044,2041,2041,2037,2047,1194
306,1716365244613640064,2065,2062,2058,2176,2013,2037,1192
307,1716365244623648157,2056,2052,2048,2240,2110,2070,1195
308,1716365244633645388,2050,2052,2052,2088,2092,2097,1195
309,1716365244643646918,2045,2044,2048,2061,2075,2052,1195
310,1716365244653656855,2044,2053,2064,2049,1961,1952,1193
311,1716365244663640682,2064,2047,2040,2043,2045,2040,1194
312,1716365244673646230,2061,2052,2046,1992,2048,2061,1197
313,1716365244683645505,2066,2064,2057,2106,2063,2097,1195
314,1716365244693646284,2072,2065,2077,2061,2088,2088,1196
315,1716365244703651592,2055,2052,2043,2044,2052,2048,1196
316,1716365244713666837,2045,2056,2058,2140,2012,2025,1193
317,1716365244723648410,2066,2070,2068,2137,2094,2092,1198
318,1716365244733646073,2052,2056,2070,2078,2063,2040,1194
319,1716365244743646973,2058,2058,2061,2148,2082,2077,1194
320,1716365244753643503,2056,2051,2036,1656,1962,2079,1195
321,1716365244763645104,2040,2045,2056,1892,1980,2010,1192
322,1716365244773646944,2040,2041,2038,2061,2026,2052,1196
323,1716365244783646952,2058,2054,2052,2155,2064,2073,1197
324,1716365244793644705,2044,2044,2056,2029,2051,2054,1195
325,1716365244803646906,2036,2061,2089,1875,2098,2066,1195
326,1716365244813646172,2037,2036,2045,2140,2054,2066,1195
327,1716365244823644858,2049,2050,2064,2173,2105,2065,1196
328,1716365244833644174,2050,2062,2072,2000,1984,2060,1196
329,1716365244843647397,2046,2052,2060,1892,2056,2059,1195
330,1716365244853646873,2072,2064,2052,2109,2021,2073,1195
331,1716365244863645819,2057,2056,2050,2043,2141,2120,1195
332,1716365244873643332,2043,2049,2056,2005,2035,2038,1193
333,1716365244883647126,2064,2052,2052,1864,2047,2042,1190
334,1716365244893644979,2041,2057,2058,2188,2057,2030,1194
335,1716365244903649074,2045,2048,2050,2195,2060,2065,1197
336,1716365244913647088,2052,2057,2069,2140,2005,2060,1195
337,1716365244923645492,2040,2059,2096,2208,1994,2020,1194
338,1716365244933647513,2047,2055,2061,2097,2073,2052,1196
339,1716365244943646448,2027,2038,2018,2143,2124,2053,1197
340,1716365244953663739,2044,2052,2059,1922,2036,2090,1197
341,1716365244963644780,2052,2061,2079,2328,2077,2003,1193
342,1716365244973645118,2054,2056,2067,2178,1976,2038,1193
343,1716365244983643602,2044,2044,2047,1886,2044,2022,1195
344,1716365244993645153,2056,2059,2068,2186,2088,2076,1197
345,1716365245003645030,2044,2044,2062,1904,2178,2083,1197
346,1716365245013650638,2077,2058,2052,2080,2037,2059,1196
347,1716365245023653141,2037,2042,2041,2040,2050,2030,1195
348,1716365245033645925,2058,2047,2042,2172,2021,2086,1197
349,1716365245043643158,2064,2069,2080,2245,2068,2064,1196
350,1716365245053644809,2050,2053,2064,2056,2040,2045,1193
351,1716365245063647641,2056,2047,2031,1935,2078,2064,1196
352,1716365245073646036,2054,2056,2056,1967,2072,2043,1196
353,1716365245083646816,2046,2046,2045,1984,2107,2072,1195
354,1716365245093644870,2059,2062,2064,1922,2038,2060,1195
355,1716365245103645769,2046,2054,2056,2156,2128,2041,1196
356,1716365245113646239,2038,2046,2053,1790,1951,2044,1195
357,1716365245123645685,2047,2052,2072,2040,2085,2072,1197
358,1716365245133643328,2054,2053,2056,2024,2028,2076,1197
359,1716365245143646021,2059,2066,2064,2225,2110,2076,1198
360,1716365245153651018,2050,2056,2070,2161,2121,2058,1194
361,1716365245163641849,2040,2053,2056,2124,2076,2072,1197
362,1716365245173643790,2052,2051,2056,2148,2052,2039,1194
363,1716365245183646393,2056,2047,2051,2136,2097,2026,1194
364,1716365245193646481,2055,2057,2069,2223,2104,2056,1196
365,1716365245203648332,2044,2039,2033,2137,2078,2074,1195
366,1716365245213641748,2056,2064,2076,2052,2133,2075,1197
367,1716365245223643169,2059,2054,2043,2088,2052,2072,1198
368,1716365245233642625,2052,2051,2054,1995,2042,2047,1194
369,1716365245243640850,2052,2044,2045,2200,1983,2088,1196
370,1716365245253643473,2054,2052,2052,2007,2038,2032,1194
371,1716365245263660401,2053,2054,2060,2098,2052,2096,1196
372,1716365245273640943,2056,2060,2065,2118,2084,2056,1195
373,1716365245283642614,2062,2056,2056,2042,2084,2076,1193
374,1716365245293645738,2056,2058,2068,2137,2029,2073,1196
375,1716365245303643441,2068,2066,2082,2008,2072,2045,1194
376,1716365245313646895,2050,2050,2049,2374,2042,2045,1194
377,1716365245323646212,2059,2058,2068,2097,2060,2052,1196
378,1716365245333645248,2067,2068,2062,2009,1976,2060,1195
379,1716365245343646469,2064,2059,2061,2076,1992,2106,1197
380,1716365245353643350,2068,2072,2082,2108,2116,2069,1196
381,1716365245363643118,2053,2046,2047,1980,2116,2085,1194
382,1716365245373642484,2045,2042,2043,2069,2005,2040,1194
383,1716365245383645528,2054,2052,2052,2126,2078,2078,1198
384,1716365245393643141,2061,2054,2040,2092,2002,2056,1197
385,1716365245403644040,2057,2059,2064,2037,2140,2087,1198
386,1716365245413650781,2057,2060,2052,1980,1979,2025,1193
387,1716365245423641301,2076,2054,2038,1485,2013,2047,1195
388,1716365245433646639,2047,2050,2048,2089,2043,2060,1198
389,1716365245443647188,2064,2066,2060,2123,2049,2042,1194
390,1716365245453646464,2063,2066,2075,2101,2068,2075,1196
391,1716365245463650059,2061,2066,2068,2040,2056,2046,1194
392,1716365245473644957,2047,2042,2048,2111,1980,2056,1197
393,1716365245483648432,2064,2060,2057,2194,2078,2060,1197
394,1716365245493658468,2061,2059,2056,2073,2019,2050,1194
395,1716365245503663826,2047,2052,2057,1782,2030,2028,1192
396,1716365245513643365,2055,2062,2076,2037,2037,2053,1196
397,1716365245523648042,2061,2058,2064,2082,2068,2066,1196
398,1716365245533644954,2054,2049,2052,2024,2052,2082,1197
399,1716365245543645192,2104,2061,2067,2305,2041,2100,1196
400,1716365245553644378,2050,2052,2062,2026,2024,2030,1193
401,1716365245563640189,2050,2051,2052,2084,2104,2050,1196
402,1716365245573642130,2053,2053,2051,1997,2020,2046,1190
403,1716365245583644472,2049,2044,2038,2048,2088,2041,1195
404,1716365245593641144,2064,2072,2072,1986,2073,2058,1199
405,1716365245603646301,2059,2053,2049,2024,2029,2020,1195
406,1716365245613643834,2048,2053,2060,2059,2054,2053,1197
407,1716365245623644313,2063,2066,2070,2370,2180,2104,1197
408,1716365245633641776,2026,2029,2026,1973,1997,2006,1194
409,1716365245643646683,2049,2054,2061,2114,2075,2046,1195
410,1716365245653642713,2046,2049,2053,2053,2088,2042,1193
411,1716365245663640177,2048,2045,2047,2081,2081,2070,1194
412,1716365245673640996,2041,2049,2052,1739,2060,2067,1196
413,1716365245683643668,2065,2066,2067,2080,2034,2069,1194
414,1716365245693645620,2050,2046,2042,1887,1926,2041,1193
415,1716365245703646189,2044,2045,2056,2112,2081,2058,1197
416,1716365245713642790,2052,2051,2049,1963,2049,2084,1196
417,1716365245723654961,2062,2061,2058,2004,2065,2065,1196
418,1716365245733643618,2051,2052,2051,2028,2023,2043,1193
419,1716365245743646771,2049,2050,2052,2132,2097,2056,1196
420,1716365245753642031,2061,2057,2056,1951,1974,2012,1193
421,1716365245763654291,2052,2056,2063,2116,2093,2000,1192
422,1716365245773641465,2058,2061,2076,2009,2024,2050,1193
423,1716365245783643487,2062,2064,2068,2057,2096,2058,1197
424,1716365245793642913,2045,2043,2045,2076,2035,2052,1198
425,1716365245803645967,2056,2061,2056,2127,2058,2053,1200
426,1716365245813644793,2056,2061,2064,2000,1997,2021,1194
427,1716365245823644619,2065,2065,2081,2180,2144,2050,1196
428,1716365245833642824,2056,2053,2057,2218,2050,2031,1194
429,1716365245843643063,2054,2052,2068,2056,2068,2064,1198
430,1716365245853641487,2054,2058,2068,2211,1810,1939,1194
431,1716365245863643239,2063,2060,2061,2059,2034,2053,1197
432,1716365245873641524,2051,2050,2048,1974,2024,2045,1194
433,1716365245883643755,2056,2043,2041,2077,2156,2032,1192
434,1716365245893643683,2044,2056,2069,2058,2004,2034,1194
435,1716365245903643921,2047,2044,2045,2000,2132,2040,1193
436,1716365245913660289,2048,2052,2050,2022,1837,2026,1194
437,1716365245923642885,2056,2050,2037,2014,2113,2104,1197
438,1716365245933644495,2051,2046,2037,1940,1999,2046,1193
439,1716365245943643421,2067,2060,2066,2069,2062,2096,1196
440,1716365245953642879,2059,2068,2062,2034,2014,1993,1194
441,1716365245963645191,2051,2051,2048,2002,1992,2004,1195
442,1716365245973641201,2044,2041,2032,2050,2038,2060,1196
443,1716365245983643493,2058,2056,2064,2148,2173,2076,1196
444,1716365245993643240,2038,2043,2049,2015,1978,2043,1194
445,1716365246003644360,2046,2042,2045,2186,2066,1978,1194
446,1716365246013649348,2045,2043,2042,1976,2021,2020,1193
447,1716365246023643044,2062,2056,2057,2085,2076,2057,1197
448,1716365246033643633,2057,2057,2066,2168,1935,2057,1194
449,1716365246043646607,2042,2041,2038,2042,1931,2032,1194
450,1716365246053644582,2056,2056,2056,1994,2035,2035,1193
451,1716365246063643257,2067,2058,2060,2082,2057,2064,1196
452,1716365246073647434,2040,2045,2048,2041,2022,2080,1198
453,1716365246083649375,2045,2049,2056,1970,2093,2081,1194
454,1716365246093643653,2056,2060,2057,2034,1992,2029,1194
455,1716365246103645043,2048,2046,2047,2132,2091,2056,1198
456,1716365246113643259,2054,2059,2066,2067,1889,2030,1193
457,1716365246123644480,2053,2051,2049,2051,2082,2054,1197
458,1716365246133645309,2062,2058,2057,2049,1970,2036,1193
459,1716365246143644656,2052,2054,2072,1916,2046,2059,1195
460,1716365246153648512,2045,2055,2070,2112,2091,2046,1193
461,1716365246163645144,2057,2047,2055,1963,2055,2047,1193
462,1716365246173663216,2056,2063,2067,2021,2008,2047,1195
463,1716365246183645311,2047,2046,2047,1918,2075,2073,1200
464,1716365246193645249,2068,2075,2083,2085,2068,2060,1198
465,1716365246203645858,2053,2052,2061,2124,2174,2080,1194
466,1716365246213644654,2063,2066,2072,2069,2017,2052,1194
467,1716365246223644352,2051,2047,2048,2416,2157,2050,1195
468,1716365246233641134,2047,2052,2059,2085,2073,2077,1196
469,1716365246243641563,2051,2047,2062,2056,2085,2060,1195
470,1716365246253642964,2048,2052,2046,2020,2045,2035,1193
471,1716365246263656958,2064,2058,2058,1863,1951,2043,1193
472,1716365246273644083,2060,2060,2058,1940,2021,2040,1196
473,1716365246283645364,2053,2059,2069,2109,2069,2061,1195
474,1716365246293643147,2066,2057,2060,2213,2080,2074,1197
475,1716365246303643898,2060,2053,2050,2086,2151,2093,1196
476,1716365246313645298,2047,2044,2052,2088,2070,2074,1198
477,1716365246323640928,2050,2046,2041,1936,2146,2072,1195
478,1716365246333646437,2052,2061,2071,2122,2064,2067,1197
479,1716365246343645984,2040,2044,2039,1866,2091,2064,1196
480,1716365246353643849,2064,2062,2064,1960,2037,2101,1198
481,1716365246363646612,2054,2063,2079,1896,2032,2046,1192
482,1716365246373643675,2069,2077,2072,1996,1998,2056,1199
483,1716365246383646278,2065,2050,2048,2065,2064,2056,1198
484,1716365246393645174,2050,2062,2073,2051,2005,2072,1199
485,1716365246403644411,2062,2060,2059,2014,2152,2080,1198
486,1716365246413647916,2052,2056,2060,2036,2058,2093,1196
487,1716365246423644087,2056,2054,2066,1772,2013,2021,1195
488,1716365246433644316,2047,2053,2070,2061,2060,2049,1198
489,1716365246443644784,2052,2052,2052,2072,2065,2050,1198
490,1716365246453646586,2056,2054,2054,2050,2039,2088,1196
491,1716365246463647196,2056,2057,2058,2015,2032,2061,1197
492,1716365246473643988,2050,2049,2042,2082,2103,2048,1195
493,1716365246483648846,2055,2058,2072,2069,2084,2065,1195
494,1716365246493642962,2046,2042,2044,2123,2116,2058,1196
495,1716365246503646127,2054,2058,2062,2043,2087,2053,1196
496,1716365246513643611,2058,2049,2052,2154,2066,2060,1195
497,1716365246523643408,2048,2040,2024,1809,2123,2041,1193
498,1716365246533645300,2052,2059,2072,2100,2015,2048,1196
499,1716365246543645920,2056,2056,2060,2053,1951,2029,1194
500,1716365246553673429,2070,2061,2064,2096,1987,2042,1192
501,1716365246563647830,2059,2061,2069,2257,2094,2067,1196
502,1716365246573645213,2068,2066,2066,2082,2027,2060,1198
503,1716365246583646724,2045,2040,2044,1978,2008,2033,1194
504,1716365246593644769,2054,2051,2052,2037,2015,2052,1197
505,1716365246603646590,2064,2050,2054,2121,2081,2093,1201
506,1716365246613648262,2073,2049,2044,1976,2017,1990,1193
507,1716365246623643862,2056,2054,2066,1876,2010,2041,1193
508,1716365246633645263,2071,2058,2050,2152,2038,2062,1196
509,1716365246643646704,2061,2065,2068,2031,2034,2054,1197
510,1716365246653665306,2051,2047,2040,1996,2043,2003,1193
511,1716365246663686755,2057,2057,2067,2100,2056,2046,1194
512,1716365246673650285,2056,2050,2054,2090,2066,2079,1196
513,1716365246683649753,2056,2052,2052,1874,1986,2032,1192
514,1716365246693645062,2042,2047,2039,2133,2077,2055,1196
515,1716365246703647996,2054,2049,2072,2034,2121,2083,1198
516,1716365246713649788,2058,2049,2048,2072,2040,2053,1195
517,1716365246723644917,2056,2054,2046,1976,2049,2051,1196
518,1716365246733645596,2062,2060,2049,2052,1990,2076,1198
519,1716365246743645084,2051,2052,2039,2129,2031,2044,1194
520,1716365246753645803,2052,2053,2050,1981,2040,2057,1196
521,1716365246763652263,2053,2056,2061,1962,2022,2044,1194
522,1716365246773642604,2053,2058,2054,1698,2018,2048,1195
523,1716365246783642822,2056,2050,2060,2122,2365,2054,1198
524,1716365246793643462,2085,2060,2068,1827,1928,1991,1194
525,1716365246803645754,2041,2027,2025,1925,2041,2067,1197
526,1716365246813647386,2051,2052,2061,2076,2026,2057,1198
527,1716365246823643607,2058,2057,2060,2136,2005,2075,1197
528,1716365246833644957,2068,2058,2061,2005,1980,2045,1194
529,1716365246843646128,2054,2047,2049,2247,2089,2041,1194
530,1716365246853646737,2054,2059,2064,2443,1976,2066,1198
531,1716365246863649641,2050,2052,2056,1953,2082,2069,1196
532,1716365246873643368,2057,2056,2060,2072,2046,2061,1196
533,1716365246883648225,2056,2049,2038,1953,2099,2104,1194
534,1716365246893645358,2052,2060,2056,1985,2011,1992,1195
535,1716365246903645256,2057,2053,2050,2280,2115,2084,1197
536,1716365246913645034,2036,2041,2049,1981,1938,1884,1192
537,1716365246923645163,2064,2060,2052,2053,2093,2077,1197
538,1716365246933640312,2057,2058,2053,2212,2075,2045,1194
539,1716365246943640681,2058,2049,2056,1944,2040,2104,1194
540,1716365246953647191,2060,2060,2067,1990,2072,2102,1196
541,1716365246963645827,2057,2064,2064,1908,2023,2056,1196
542,1716365246973643541,2057,2050,2052,2017,1994,2025,1193
543,1716365246983640754,2076,2072,2062,2067,2094,2020,1193
544,1716365246993646262,2074,2054,2057,2058,2042,2052,1197
545,1716365247003649307,2056,2057,2069,2088,2090,2077,1196
546,1716365247013647151,2052,2056,2050,2072,2012,2005,1196
547,1716365247023662909,2057,2062,2056,1542,2064,2036,1193
548,1716365247033643581,2050,2047,2041,2006,1994,2030,1193
549,1716365247043643400,2059,2054,2057,2096,2058,2044,1194
550,1716365247053646564,2059,2078,2087,1984,2069,2015,1192
551,1716365247063645992,2048,2048,2068,2047,2081,2065,1198
552,1716365247073643817,2056,2054,2054,2140,2060,2060,1195
553,1716365247083643736,2052,2048,2047,2075,2105,2058,1196
554,1716365247093647091,2056,2052,2051,2017,2040,2028,1193
555,1716365247103644384,2057,2053,2050,2049,2000,2041,1192
556,1716365247113647298,2064,2064,2068,1902,2012,2112,1196
557,1716365247123644752,2048,2054,2051,2317,2112,2058,1197
558,1716365247133643158,2042,2046,2051,2284,2060,2036,1195
559,1716365247143644009,2058,2053,2058,2027,2050,2084,1195
560,1716365247153646412,2046,2056,2068,2160,2006,2027,1194
561,1716365247163644036,2061,2056,2054,2047,2041,2051,1194
562,1716365247173654775,2062,2062,2060,2030,2029,2044,1193
563,1716365247183643553,2065,2053,2050,2052,2025,2063,1197
564,1716365247193643662,2049,2054,2056,2018,2042,2059,1198
565,1716365247203649962,2056,2054,2061,2045,2101,2069,1195
566,1716365247213644180,2053,2056,2057,2268,2072,2045,1194
567,1716365247223644089,2061,2056,2048,1898,2044,2044,1194
568,1716365247233654266,2053,2053,2056,1980,2045,2047,1196
569,1716365247243645509,2050,2050,2045,2340,2153,2029,1193
570,1716365247253644766,2056,2052,2045,1969,2056,2056,1197
571,1716365247263663761,2062,2057,2066,1913,2047,1992,1195
572,1716365247273654001,2045,2045,2059,2193,2084,2041,1194
573,1716365247283643389,2057,2053,2053,2085,2050,2037,1193
574,1716365247293641896,2049,2051,2047,2108,2052,2053,1197
575,1716365247303645170,2052,2044,2044,2108,2036,2037,1194
576,1716365247313642044,2052,2051,2052,2137,1996,2042,1193
577,1716365247323642463,2054,2052,2060,2076,2081,2063,1197
578,1716365247333642892,2051,2049,2050,2013,2021,2048,1196
579,1716365247343644815,2058,2056,2052,2082,2043,2078,1196
580,1716365247353644683,2061,2068,2082,2104,2064,2058,1196
581,1716365247363643620,2047,2049,2049,2084,2037,2013,1192
582,1716365247373642286,2045,2048,2052,2216,2036,2001,1194
583,1716365247383645130,2058,2056,2059,2045,2074,2064,1199
584,1716365247393642574,2056,2051,2045,2062,2034,2058,1198
585,1716365247403644687,2064,2063,2056,1969,2038,2042,1193
586,1716365247413642602,2065,2056,2052,1994,2032,2053,1197
587,1716365247423647439,2058,2056,2054,2010,2074,2062,1196
588,1716365247433641728,2038,2041,2036,1808,1997,2030,1194
589,1716365247443640404,2058,2047,2049,2143,2110,2066,1197
590,1716365247453646244,2060,2058,2065,2010,2029,2028,1193
591,1716365247463644469,2045,2041,2036,2012,2040,2054,1196
592,1716365247473647604,2042,2043,2040,2085,2060,2033,1193
593,1716365247483641110,2064,2044,2049,2085,2065,2085,1194
594,1716365247493645988,2048,2048,2051,1986,1990,2037,1193
595,1716365247503644604,2057,2056,2060,2071,2049,2046,1192
596,1716365247513646366,2052,2047,2032,2157,2010,2048,1197
597,1716365247523642448,2050,2056,2074,2147,2057,2028,1192
598,1716365247533641625,2064,2068,2071,2160,2056,2064,1196
599,1716365247543644349,2054,2052,2046,2061,2063,2059,1195
600,1716365247553645510,2049,2043,2042,2251,2021,2004,1194
601,1716365247563639788,2062,2058,2049,2041,2048,2065,1194
602,1716365247573653542,2052,2054,2054,2091,2052,2053,1194
603,1716365247583644473,2061,2061,2063,1992,2044,2040,1194
604,1716365247593646446,2042,2038,2036,1922,2008,2021,1195
605,1716365247603647056,2060,2060,2068,2134,2109,2072,1196
606,1716365247613644881,2058,2054,2061,2137,2036,2064,1196
607,1716365247623644188,2061,2055,2062,2088,2057,2068,1195
608,1716365247633646641,2059,2055,2055,1969,2012,2042,1195
609,1716365247643648113,2056,2053,2056,2041,2042,2011,1196
610,1716365247653646769,2060,2060,2059,2072,2048,2051,1197
611,1716365247663641097,2054,2050,2053,2028,2071,2056,1195
612,1716365247673642959,2047,2051,2046,2000,2013,2032,1192
613,1716365247683654810,2052,2050,2057,2097,2096,2053,1195
614,1716365247693646734,2060,2056,2058,2229,2076,2062,1196
615,1716365247703647033,2072,2067,2075,1884,2002,1999,1194
616,1716365247713644748,2066,2068,2064,2051,2063,2079,1197
617,1716365247723646520,2065,2060,2062,2093,2092,2079,1197
618,1716365247733646589,2054,2048,2042,1973,2014,2040,1193
619,1716365247743649222,2052,2045,2040,2037,2070,2063,1195
620,1716365247753647227,2052,2049,2047,2150,2022,2042,1193
621,1716365247763641525,2054,2052,2052,2008,2082,2064,1195
622,1716365247773675828,2056,2052,2052,2036,2021,2035,1195
623,1716365247783650981,2056,2059,2062,2108,2059,2014,1194
624,1716365247793644397,2052,2055,2058,2052,2023,2039,1194
625,1716365247803642673,2053,2056,2061,1868,2048,2048,1197
626,1716365247813641489,2056,2054,2056,2096,2064,2068,1195
627,1716365247823641789,2046,2046,2063,2092,2073,2033,1193
628,1716365247833658148,2056,2052,2045,2088,2048,2057,1196
629,1716365247843644672,2053,2050,2049,2132,2053,2064,1197
630,1716365247853648698,2060,2065,2062,2097,2051,2086,1196
631,1716365247863644609,2081,2061,2057,2138,2078,2072,1198
632,1716365247873641111,2062,2065,2063,2098,2041,2050,1195
633,1716365247883648463,2050,2047,2049,2049,2074,2056,1196
634,1716365247893644104,2058,2056,2054,2231,2046,2072,1197
635,1716365247903644763,2054,2051,2054,2076,2074,2067,1195
636,1716365247913639563,2060,2057,2045,2176,2047,2059,1196
637,1716365247923657304,2074,2065,2052,2046,2074,2089,1195
638,1716365247933656571,2062,2056,2053,2028,2045,2059,1196
639,1716365247943643697,2056,2056,2060,2068,2069,2059,1196
640,1716365247953646039,2054,2053,2048,2001,2026,2040,1195
641,1716365247963641861,2056,2052,2047,1869,2076,2059,1195
642,1716365247973654873,2055,2048,2033,2011,1983,2044,1194
643,1716365247983643151,2051,2052,2045,2038,2064,2050,1196
644,1716365247993645403,2054,2053,2052,2052,2025,2063,1197
645,1716365248003646113,2054,2051,2047,1982,2061,2079,1196
646,1716365248013639390,2050,2052,2051,2028,2040,2056,1196
647,1716365248023644639,2060,2048,2049,2028,2050,2041,1194
648,1716365248033648455,2050,2053,2052,1963,2018,2060,1196
649,1716365248043642694,2058,2060,2050,2017,2000,2040,1193
650,1716365248053644416,2056,2056,2054,1736,2064,2050,1195
651,1716365248063645848,2050,2043,2040,1956,2084,2010,1195
652,1716365248073659012,2064,2063,2061,1873,2056,2062,1197
653,1716365248083643873,2054,2052,2059,2136,2069,2063,1195
654,1716365248093642890,2052,2054,2052,2042,2052,2064,1197
655,1716365248103645775,2057,2046,2039,2040,2068,2063,1197
656,1716365248113644281,2050,2050,2052,1992,2018,2049,1196
657,1716365248123646123,2050,2046,2046,2144,2038,1985,1195
658,1716365248133640332,2057,2060,2054,1977,2024,2052,1196
659,1716365248143645821,2056,2054,2052,2042,2061,2061,1198
660,1716365248153648606,2061,2059,2058,2105,2096,2074,1197
661,1716365248163645860,2047,2048,2045,2096,2078,2066,1197
662,1716365248173651880,2054,2054,2047,2059,2057,2060,1194
663,1716365248183642593,2054,2054,2070,2106,2081,2069,1198
664,1716365248193643834,2049,2046,2045,2032,2033,2046,1194
665,1716365248203645275,2056,2054,2060,2088,2070,2072,1197
666,1716365248213641909,2060,2065,2073,2059,2064,2084,1195
667,1716365248223647508,2050,2050,2048,2046,2056,2062,1196
668,1716365248233646165,2053,2056,2056,1928,2005,2036,1193
669,1716365248243642347,2053,2054,2058,2024,2037,2044,1194
670,1716365248253646393,2057,2060,2060,2178,2056,2047,1196
671,1716365248263646052,2055,2049,2057,2186,2080,2078,1196
672,1716365248273655669,2059,2056,2056,2092,2047,2061,1196
673,1716365248283649266,2056,2056,2053,2056,2077,2065,1196
674,1716365248293643074,2053,2057,2061,1985,2040,2040,1195
675,1716365248303644446,2051,2052,2058,1997,2042,1988,1194
676,1716365248313642361,2062,2060,2064,2050,2047,2057,1195
677,1716365248323643903,2053,2053,2068,2095,2089,2063,1195
678,1716365248333644453,2053,2052,2058,2059,2047,2054,1197
679,1716365248343646707,2050,2045,2045,2052,2084,2072,1197
680,1716365248353644151,2060,2060,2061,2027,2031,2037,1193
681,1716365248363647637,2050,2042,2050,2051,2068,2053,1196
682,1716365248373669247,2052,2055,2063,2132,2068,2011,1192
683,1716365248383667692,2054,2055,2052,2104,2066,2044,1196
684,1716365248393644719,2053,2052,2057,2060,2034,2050,1197
685,1716365248403647614,2060,2054,2052,2071,2083,2065,1198
686,1716365248413644046,2043,2040,2032,2060,2030,1976,1194
687,1716365248423658573,2057,2059,2064,2059,2076,2061,1198
688,1716365248433644465,2050,2052,2052,2050,2040,2053,1197
689,1716365248443644114,2056,2054,2060,2037,2076,2062,1197
690,1716365248453645165,2049,2048,2054,2144,2047,2061,1197
691,1716365248463643070,2056,2054,2053,2088,2083,2068,1196
692,1716365248473660342,2061,2060,2056,2017,2052,2064,1196
693,1716365248483650813,2057,2053,2049,2002,2059,2052,1193
694,1716365248493644069,2066,2064,2064,2038,2040,2070,1197
695,1716365248503645772,2049,2056,2059,2034,2088,2060,1196
696,1716365248513645380,2053,2049,2046,1982,2027,2048,1198
697,1716365248523645630,2058,2057,2056,2014,2060,2028,1194
698,1716365248533643115,2056,2058,2067,2072,2043,2038,1194
699,1716365248543646300,2058,2053,2054,2092,2090,2061,1196
700,1716365248553647341,2059,2063,2064,2050,2043,2056,1197
701,1716365248563641539,2053,2048,2051,2091,2076,2035,1193
702,1716365248573660143,2057,2062,2061,2042,2028,2041,1194
703,1716365248583659982,2060,2056,2049,2049,2064,2050,1197
704,1716365248593641667,2053,2053,2056,2144,2042,2052,1200
705,1716365248603644121,2065,2060,2064,2097,2083,2074,1195
706,1716365248613640664,2059,2057,2057,2001,2047,2052,1197
707,1716365248623658476,2057,2055,2061,2069,2067,2051,1197
708,1716365248633642095,2052,2047,2054,2130,2056,2051,1196
709,1716365248643640892,2049,2051,2057,2104,2053,2042,1193
710,1716365248653642273,2056,2056,2054,2105,2053,2064,1197
711,1716365248663642183,2052,2056,2061,2081,2060,2061,1198
712,1716365248673648984,2058,2049,2053,2000,2014,2027,1196
713,1716365248683661998,2054,2050,2053,1861,2037,2069,1197
714,1716365248693641810,2057,2056,2057,2090,2038,2058,1194
715,1716365248703646417,2056,2056,2061,2088,2075,2057,1197
716,1716365248713639143,2059,2054,2056,2070,2048,2076,1197
717,1716365248723641086,2061,2064,2064,2047,2069,2060,1196
718,1716365248733641345,2056,2056,2056,2113,2061,2056,1197
719,1716365248743642216,2057,2053,2056,2059,2060,2061,1195
720,1716365248753641364,2048,2045,2048,2080,2048,2052,1196
721,1716365248763639559,2066,2069,2084,2074,2080,2064,1196
722,1716365248773674734,2055,2048,2038,2036,2021,2044,1195
723,1716365248783666558,2056,2059,2059,2096,2045,2038,1196
724,1716365248793645739,2059,2045,2041,2066,2062,2064,1198
725,1716365248803646339,2068,2076,2093,2085,2041,2050,1197
726,1716365248813642911,2056,2064,2081,2134,2088,2057,1196
727,1716365248823642571,2055,2058,2064,2080,2107,2077,1198
728,1716365248833642128,2053,2056,2061,2056,2034,2053,1197
729,1716365248843641607,2055,2060,2073,2155,2089,2060,1196
730,1716365248853643169,2054,2056,2056,2124,2031,2040,1195
731,1716365248863644430,2057,2051,2056,2075,2076,2077,1196
732,1716365248873659227,2044,2044,2042,2062,2037,2021,1195
733,1716365248883664216,2054,2052,2057,2088,2086,2062,1195
734,1716365248893644257,2053,2054,2056,2067,2043,2064,1196
735,1716365248903644147,2049,2045,2034,1893,2091,2076,1198
736,1716365248913643274,2057,2055,2045,1946,2001,2036,1193
737,1716365248923647110,2056,2043,2046,2096,2040,2040,1195
738,1716365248933648462,2052,2051,2047,2037,1975,1994,1193
739,1716365248943653521,2063,2060,2055,2028,2084,2066,1196
740,1716365248953648000,2068,2070,2080,2106,2050,2054,1194
741,1716365248963648089,2058,2054,2058,2108,2106,2050,1195
742,1716365248973646194,2058,2051,2046,2006,2019,2046,1192
743,1716365248983668175,2064,2060,2060,2048,2089,2078,1196
744,1716365248993646283,2052,2057,2068,2146,2032,2065,1197
745,1716365249003644529,2049,2045,2058,2085,2044,2056,1195
746,1716365249013649308,2050,2046,2043,2065,2056,2053,1197
747,1716365249023663464,2074,2067,2064,2113,2112,2091,1200
748,1716365249033645140,2032,2029,2040,1956,2010,2064,1197
749,1716365249043644447,2109,2055,2050,2092,2104,2083,1199
750,1716365249053645449,2042,2041,2041,2040,2040,2052,1195
751,1716365249063644617,2101,2073,2064,2076,2081,2096,1197
752,1716365249073659244,2039,2050,2061,2180,2070,2004,1194
753,1716365249083644517,2052,2041,2051,2075,2100,2072,1196
754,1716365249093643644,2056,2052,2053,2100,2026,2045,1193
755,1716365249103649104,2052,2049,2045,2000,2011,2025,1192
756,1716365249113643764,2053,2051,2054,2044,2041,2058,1196
757,1716365249123659473,2056,2051,2056,2089,2102,2072,1199
758,1716365249133643603,2057,2057,2056,1977,2017,2051,1196
759,1716365249143643742,2060,2057,2056,2053,2085,2049,1195
760,1716365249153645465,2056,2056,2058,2056,2035,2044,1194
761,1716365249163644043,2054,2056,2056,2184,2110,2085,1196
762,1716365249173643502,2041,2033,2033,2047,2015,2028,1194
763,1716365249183643370,2058,2056,2057,1993,2068,2040,1193
764,1716365249193644242,2060,2053,2035,1965,2029,2052,1197
765,1716365249203643149,2064,2059,2056,2008,2067,2069,1197
766,1716365249213643380,2049,2047,2037,1796,2005,2028,1192
767,1716365249223647497,2048,2049,2059,2026,2068,2077,1196
768,1716365249233644230,2066,2060,2065,2122,2022,2041,1195
769,1716365249243655691,2047,2048,2047,1950,2069,2051,1196
770,1716365249253648908,2046,2045,2050,1996,1989,2023,1194
771,1716365249263647776,2046,2046,2043,2125,2090,2072,1195
772,1716365249273647696,2049,2047,2050,2073,2019,2022,1194
773,1716365249283647605,2046,2047,2062,2028,2078,2047,1193
774,1716365249293655750,2053,2057,2062,1988,2034,2045,1193
775,1716365249303648546,2056,2052,2053,2025,2069,2050,1194
776,1716365249313649778,2058,2046,2056,2056,2019,2026,1194
777,1716365249323647693,2052,2052,2046,2064,2088,2063,1197
778,1716365249333647513,2052,2054,2049,2059,2032,2042,1196
779,1716365249343652422,2055,2056,2070,2176,2077,2042,1196
780,1716365249353646481,2065,2066,2060,2152,2098,2083,1198
781,1716365249363648434,2060,2056,2065,2008,2030,2056,1198
782,1716365249373649014,2062,2064,2060,2040,2045,2062,1198
783,1716365249383652611,2056,2064,2058,2053,2040,2080,1199
784,1716365249393649414,2049,2056,2054,2046,2005,2046,1194
785,1716365249403680182,2088,2051,2021,2027,2021,2035,1196
786,1716365249413649133,2040,2044,2038,2129,2049,2085,1197
787,1716365249423648782,2122,2077,2074,2040,2115,2124,1200
788,1716365249433648551,2038,2050,2044,1917,2063,2048,1196
789,1716365249443648190,2104,2060,2073,1956,2103,2090,1198
790,1716365249453649964,2038,2045,2029,2016,2067,2047,1196
791,1716365249463649452,2053,2054,2066,2004,2070,2054,1197
792,1716365249473648139,2054,2062,2089,2096,2020,2040,1194
793,1716365249483652036,2074,2061,2069,1976,2070,2072,1194
794,1716365249493655492,2043,2046,2049,1996,2080,2114,1193
795,1716365249503652126,2047,2040,2045,2150,2053,2070,1197
796,1716365249513648799,2072,2072,2087,2139,2042,2066,1195
797,1716365249523649961,2047,2046,2052,2012,2126,2079,1197
798,1716365249533651884,2033,2038,2029,1983,2006,2031,1193
799,1716365249543649580,2043,2042,2044,1861,2137,2049,1195
800,1716365249553645632,2052,2046,2062,2002,2056,2114,1196
801,1716365249563645130,2052,2053,2065,2129,2077,2061,1197
802,1716365249573645641,2054,2060,2064,2072,2041,2050,1196
803,1716365249583653936,2049,2052,2056,2140,2135,2108,1197
804,1716365249593655389,2049,2053,2066,2209,2002,2046,1196
805,1716365249603645339,2090,2084,2084,2028,2073,2076,1197
806,1716365249613647533,2057,2047,2043,2104,2060,2013,1193
807,1716365249623692136,2056,2059,2074,2100,2118,2072,1195
808,1716365249633649697,2049,2050,2043,2020,1977,2018,1193
809,1716365249643648975,2061,2064,2073,1997,2074,2077,1197
810,1716365249653647932,2060,2067,2071,2136,2092,2064,1198
811,1716365249663647631,2067,2067,2065,2142,2123,2081,1198
812,1716365249673648653,2052,2053,2062,2081,2056,2060,1196
813,1716365249683654714,2057,2050,2047,2033,2064,2058,1192
814,1716365249693653692,2053,2060,2060,2014,2033,1987,1194
815,1716365249703646448,2043,2053,2060,2107,2101,2074,1197
816,1716365249713646708,2049,2043,2045,2001,2031,2040,1192
817,1716365249723652398,2047,2045,2045,2046,2049,2046,1195
818,1716365249733648882,2040,2044,2030,2070,2004,2022,1194
819,1716365249743648219,2050,2046,2050,2082,2064,2054,1197
820,1716365249753657076,2072,2069,2072,2123,2076,2068,1195
821,1716365249763648900,2052,2054,2069,2072,2061,2066,1196
822,1716365249773649471,2040,2036,2034,1874,1985,2032,1193
823,1716365249783696298,2068,2049,2047,2043,2082,2049,1198
824,1716365249793655191,2054,2047,2059,1832,2048,2043,1194
825,1716365249803649139,2054,2052,2048,1997,2028,2056,1196
826,1716365249813650281,2046,2041,2026,1905,1980,2027,1192
827,1716365249823649259,2077,2075,2050,1981,2069,2045,1194
828,1716365249833650812,2055,2053,2061,2078,2074,2064,1197
829,1716365249843650059,2072,2067,2062,2122,2071,2059,1195
830,1716365249853649969,2084,2084,2086,2168,2079,2085,1198
831,1716365249863687749,2062,2062,2066,2067,2075,2052,1197
832,1716365249873687098,2053,2052,2045,2179,2120,2088,1196
833,1716365249883688008,2056,2049,2054,2098,2092,2075,1195
834,1716365249893693028,2058,2064,2064,2092,2102,2078,1197
835,1716365249903685333,2082,2088,2092,2094,2121,2085,1194
836,1716365249913684892,2076,2064,2060,2114,2040,2049,1196
837,1716365249923682007,2069,2064,2068,2066,2020,2068,1196
838,1716365249933680703,2046,2046,2038,2047,2070,2064,1197
839,1716365249943680463,2056,2051,2051,2078,2083,2074,1195
840,1716365249953681304,2057,2057,2051,2109,2075,2067,1196
841,1716365249963677958,2070,2064,2062,2036,2081,1986,1194
842,1716365249973678669,2054,2057,2053,2063,2036,2024,1193
843,1716365249983677686,2060,2058,2050,2093,2120,2068,1199
844,1716365249993675963,2060,2054,2045,1963,2075,2074,1200
845,1716365250003676083,2046,2047,2044,2040,2058,2047,1193
846,1716365250013672667,2075,2083,2088,2079,2058,2073,1195
847,1716365250023670223,2058,2050,2053,2068,2042,2056,1198
848,1716365250033669982,2067,2069,2065,2035,2059,2049,1197
849,1716365250043670493,2044,2042,2043,2013,2088,2076,1196
850,1716365250053670845,2057,2053,2060,2104,2040,2043,1195
851,1716365250063668821,2061,2056,2047,2080,2101,2036,1193
852,1716365250073669041,2072,2061,2057,1945,2042,2077,1196
853,1716365250083673169,2056,2052,2056,1942,2053,2049,1194
854,1716365250093675873,2053,2060,2069,2073,2029,2051,1194
855,1716365250103667038,2063,2064,2086,2090,2088,2065,1196
856,1716365250113666878,2056,2059,2061,1993,2012,2045,1195
857,1716365250123663772,2050,2046,2054,2069,2026,2032,1193
858,1716365250133663842,2058,2057,2058,2079,2058,2053,1197
859,1716365250143663391,2058,2056,2061,2177,2081,2075,1196
860,1716365250153660857,2075,2056,2058,2086,2077,2094,1196
861,1716365250163660526,2061,2049,2049,2043,2074,2038,1193
862,1716365250173660115,2052,2048,2045,2082,1985,1992,1194
863,1716365250183662500,2068,2084,2104,2144,2088,2073,1197
864,1716365250193656669,2056,2059,2064,2060,2048,2060,1197
865,1716365250203657160,2058,2054,2053,2073,2096,2063,1197
866,1716365250213656489,2059,2063,2074,2104,2082,2095,1197
867,1716365250223654035,2045,2036,2033,1934,2054,2044,1192
868,1716365250233655858,2056,2058,2060,2076,2010,2041,1193
869,1716365250243654145,2056,2056,2052,2041,2048,2063,1195
870,1716365250253657741,2049,2054,2064,2068,1999,2018,1193
871,1716365250263654176,2047,2047,2040,2041,2068,1985,1193
872,1716365250273654015,2065,2058,2056,2044,2002,2056,1196
873,1716365250283654155,2045,2049,2050,2112,2056,2032,1192
874,1716365250293654526,2062,2060,2050,2154,2060,2048,1194
875,1716365250303654165,2056,2056,2072,2108,2124,2073,1196
876,1716365250313653104,2057,2052,2047,2072,2056,2054,1196
877,1716365250323653655,2056,2054,2064,2090,2100,2058,1196
878,1716365250333654126,2054,2047,2040,2071,2033,2045,1193
879,1716365250343654406,2050,2046,2053,2145,2073,2059,1196
880,1716365250353655157,2042,2047,2044,2066,2005,2039,1196
881,1716365250363654117,2054,2054,2057,2049,2064,2057,1196
882,1716365250373653355,2056,2054,2053,2153,2070,2068,1197
883,1716365250383654998,2045,2037,2036,1885,2071,2070,1197
884,1716365250393654657,2045,2043,2056,2035,2008,2031,1193
885,1716365250403656771,2073,2069,2070,2031,2010,2054,1196
886,1716365250413653977,2047,2046,2056,2030,2059,2052,1196
887,1716365250423655209,2052,2050,2053,2090,2098,2066,1195
888,1716365250433656702,2052,2044,2040,2000,2060,2056,1195
889,1716365250443677911,2042,2041,2042,2097,2041,2036,1194
890,1716365250453656020,2056,2056,2062,2077,2015,1976,1195
891,1716365250463656271,2056,2048,2052,2113,2068,2057,1197
892,1716365250473656482,2052,2050,2049,2040,2053,2058,1197
893,1716365250483656542,2060,2056,2066,2029,2046,2056,1196
894,1716365250493656672,2051,2057,2069,1973,2024,2054,1197
895,1716365250503654979,2056,2054,2057,1978,2076,2066,1196
896,1716365250513655760,2052,2049,2055,2023,1978,2061,1197
897,1716365250523657074,2050,2050,2058,2066,2116,2065,1198
898,1716365250533654429,2067,2068,2057,2193,2056,2053,1196
899,1716365250543656262,2040,2042,2044,2101,2080,2060,1196
900,1716365250553656352,2052,2052,2056,2034,2004,2026,1194
901,1716365250563655841,2059,2057,2058,2136,2072,2057,1194
902,1716365250573655391,2058,2061,2061,2097,2044,2065,1197
903,1716365250583656433,2057,2050,2052,2004,2033,2041,1195
904,1716365250593655461,2050,2047,2051,2151,2035,2038,1194
905,1716365250603655060,2057,2056,2056,2014,2074,2083,1196
906,1716365250613655381,2069,2068,2064,2098,2056,2095,1197
907,1716365250623655191,2052,2047,2044,2114,2066,2051,1196
908,1716365250633655171,2052,2051,2056,2090,2123,2037,1194
909,1716365250643655632,2048,2044,2044,2174,2149,2043,1194
910,1716365250653656303,2057,2060,2054,2177,2049,2044,1195
911,1716365250663656082,2052,2051,2053,1871,2056,2047,1194
912,1716365250673657486,2064,2067,2065,1984,2036,2064,1197
913,1716365250683687041,2060,2056,2050,2068,2054,2049,1198
914,1716365250693701558,2042,2038,2043,2066,1986,2034,1194
915,1716365250703699133,2057,2057,2058,2152,2120,2081,1198
916,1716365250713703682,2068,2064,2056,2041,2041,2049,1195
917,1716365250723698423,2050,2042,2040,2109,2094,2063,1197
918,1716365250733699865,2056,2046,2041,2100,2064,2098,1197
919,1716365250743706979,2062,2061,2066,2143,2077,2048,1198
920,1716365250753697601,2054,2050,2047,2112,2064,2068,1198
921,1716365250763698533,2053,2047,2048,2117,2040,2048,1198
922,1716365250773698513,2053,2053,2060,2085,2054,2056,1198
923,1716365250783699185,2066,2065,2064,2088,2085,2052,1199
924,1716365250793697902,2054,2053,2056,1966,2013,1964,1196
925,1716365250803698012,2061,2056,2056,2064,2069,2065,1199
926,1716365250813698062,2049,2047,2064,2073,2014,2015,1197
927,1716365250823699455,2053,2055,2056,2061,2003,2028,1194
928,1716365250833671794,2052,2056,2074,2221,2084,2086,1196
929,1716365250843683336,2052,2045,2052,2132,2070,2060,1197
930,1716365250853669961,2060,2057,2049,1988,1989,2026,1194
931,1716365250863667606,2043,2044,2069,2192,2095,2069,1197
932,1716365250873670551,2056,2057,2053,2044,2017,2041,1193
933,1716365250883667126,2060,2054,2055,2091,2068,2001,1193
934,1716365250893671925,2056,2053,2053,2091,2047,2053,1198
935,1716365250903665964,2053,2051,2048,1920,1993,2029,1195
936,1716365250913665954,2062,2059,2054,2035,2044,2034,1193
937,1716365250923665723,2055,2056,2056,1992,2040,2053,1197
938,1716365250933664001,2062,2061,2070,2083,2043,2056,1197
939,1716365250943671945,2055,2055,2051,1971,2061,2063,1193
940,1716365250953663610,2070,2064,2057,2072,2028,2054,1194
941,1716365250963660033,2056,2047,2050,2062,2078,2067,1197
942,1716365250973660674,2066,2060,2058,2059,2049,2060,1196
943,1716365250983658721,2054,2052,2039,1862,2042,2050,1197
944,1716365250993656567,2057,2058,2064,1988,2057,2061,1198
945,1716365251003656247,2057,2052,2050,2003,2049,2059,1197
946,1716365251013658050,2057,2054,2053,2063,2032,2036,1193
947,1716365251023657219,2045,2047,2044,2046,2045,2053,1197
948,1716365251033657290,2059,2069,2081,2116,2053,2063,1198
949,1716365251043669062,2058,2057,2071,2069,2078,2061,1197
950,1716365251053655738,2058,2058,2056,2081,2050,2055,1197
951,1716365251063655308,2056,2047,2049,2062,2060,2050,1197
952,1716365251073652583,2055,2052,2046,2047,2037,2047,1195
953,1716365251083655460,2056,2052,2048,1965,2043,2056,1195
954,1716365251093664567,2059,2057,2057,1978,2064,2046,1194
955,1716365251103651994,2058,2057,2061,2053,2060,2064,1194
956,1716365251113656703,2057,2056,2052,2005,2035,2044,1192
957,1716365251123684786,2054,2050,2050,2039,2074,2069,1196
958,1716365251133652025,2068,2068,2072,1880,2020,2032,1193
959,1716365251143650824,2056,2050,2050,2089,2064,2067,1196
960,1716365251153650464,2061,2060,2057,2064,2071,2061,1196
961,1716365251163701289,2061,2052,2053,2073,2057,2034,1193
962,1716365251173653982,2064,2054,2053,2070,2085,2086,1194
963,1716365251183682906,2053,2068,2076,2114,2065,2021,1193
964,1716365251193654213,2052,2057,2057,2045,2060,2005,1194
965,1716365251203665986,2056,2054,2053,1893,2129,2061,1196
966,1716365251213687486,2081,2083,2090,2077,2008,2082,1197
967,1716365251223680193,2064,2052,2042,1885,2045,2075,1196
968,1716365251233652993,2041,2036,2023,1922,1936,2013,1193
969,1716365251243651200,2045,2043,2050,2065,2056,2061,1195
970,1716365251253661500,2059,2062,2073,2089,2010,2033,1195
971,1716365251263651431,2032,2034,2037,2068,2053,1956,1193
972,1716365251273651262,2033,2025,2025,1921,2041,2014,1192
973,1716365251283650922,2060,2051,2045,2068,2085,2044,1192
974,1716365251293653998,2047,2040,2029,2084,2018,2053,1196
975,1716365251303659039,2053,2051,2051,1981,2062,2057,1199
976,1716365251313648719,2067,2070,2074,2136,2059,2048,1197
977,1716365251323673466,2052,2046,2045,2158,2091,2096,1196
978,1716365251333654150,2064,2068,2065,2036,2040,2057,1195
979,1716365251343656876,2052,2050,2058,2061,2070,2060,1195
980,1716365251353658801,2056,2058,2063,2024,2057,2076,1196
981,1716365251363649794,2050,2048,2047,1728,2026,2056,1197
982,1716365251373654373,2041,2041,2038,1984,1943,2013,1193
983,1716365251383654354,2051,2050,2056,1988,2073,2088,1196
984,1716365251393653713,2068,2071,2064,2072,2048,2067,1200
985,1716365251403655427,2060,2064,2073,2133,2054,2049,1194
986,1716365251413655167,2061,2058,2054,2058,2037,2036,1193
987,1716365251423663824,2057,2056,2056,2176,2096,2078,1196
988,1716365251433654477,2056,2053,2052,2080,2038,2052,1195
989,1716365251443654778,2044,2035,2031,1889,2033,2046,1194
990,1716365251453662523,2052,2053,2055,2070,2041,2056,1196
991,1716365251463659728,2045,2042,2043,2036,2061,2046,1195
992,1716365251473652846,2053,2058,2061,2071,2032,2050,1195
993,1716365251483654580,2048,2049,2058,2238,2056,2033,1191
994,1716365251493654821,2053,2057,2065,2062,2031,2037,1194
995,1716365251503655172,2065,2068,2070,2040,2030,2049,1197
996,1716365251513658749,2052,2058,2061,2062,2049,2060,1195
997,1716365251523655414,2062,2068,2078,2129,2089,2074,1196
998,1716365251533653320,2056,2054,2056,2134,2044,2046,1193
999,1716365251543662408,2048,2041,2044,2054,2069,2044,1194
1000,1716365251553655927,2058,2056,2062,2018,2036,2065,1196
1001,1716365251563653282,2056,2053,2061,2173,2086,2072,1195
1002,1716365251573654926,2057,2058,2054,2137,2048,2048,1197
1003,1716365251583653764,2056,2063,2068,2200,2120,2094,1197
1004,1716365251593671648,2043,2043,2040,1962,2031,2049,1197
1005,1716365251603654537,2065,2060,2059,2094,2082,2064,1195
1006,1716365251613655088,2056,2054,2056,2072,2067,2087,1196
1007,1716365251623656862,2059,2057,2054,2060,2054,2063,1196
1008,1716365251633655960,2050,2051,2054,2057,2077,2077,1198
1009,1716365251643676269,2058,2059,2056,2061,2058,2058,1197
1010,1716365251653654279,2068,2070,2070,1958,2055,2064,1196
1011,1716365251663657625,2059,2054,2059,2118,2085,2083,1198
1012,1716365251673655843,2052,2049,2041,2059,2072,2081,1195
1013,1716365251683655964,2054,2050,2074,1989,2072,2056,1196
1014,1716365251693674529,2059,2056,2052,2015,2065,2114,1195
1015,1716365251703656045,2040,2041,2044,2069,2033,2044,1190
1016,1716365251713656396,2064,2058,2056,2033,2060,2056,1198
1017,1716365251723656667,2056,2052,2064,2103,2106,2074,1196
1018,1716365251733656527,2075,2068,2079,2158,2097,2067,1197
1019,1716365251743672067,2050,2052,2061,2029,2081,2081,1193
1020,1716365251753658252,2052,2041,2026,2001,2008,2044,1193
1021,1716365251763654315,2064,2060,2061,2168,2052,2047,1194
1022,1716365251773656700,2066,2074,2088,1949,2057,2085,1197
1023,1716365251783667411,2051,2050,2048,2095,2070,2058,1196
1024,1716365251793664465,2058,2054,2058,1957,2013,2038,1196
1025,1716365251803641784,2056,2052,2051,2091,2068,2055,1196
1026,1716365251813656301,2068,2064,2065,2055,2052,2035,1194
1027,1716365251823657354,2056,2051,2052,2088,2048,2060,1196
1028,1716365251833657154,2051,2052,2061,2115,2075,2059,1197
1029,1716365251843659258,2054,2054,2070,2204,2098,2067,1196
1030,1716365251853656324,2059,2065,2070,1918,2024,2056,1194
1031,1716365251863656765,2050,2049,2053,2004,2042,2053,1196
1032,1716365251873657537,2055,2052,2052,2030,2049,2056,1196
1033,1716365251883659932,2056,2050,2060,2045,2064,2070,1193
1034,1716365251893668358,2060,2068,2077,2094,2052,2048,1195
1035,1716365251903648192,2046,2045,2051,2062,2070,2013,1193
1036,1716365251913653832,2062,2062,2058,2038,2044,2056,1195
1037,1716365251923657700,2056,2052,2054,2063,2068,2059,1195
1038,1716365251933657761,2056,2065,2068,2084,2085,2052,1197
1039,1716365251943668992,2056,2053,2052,1864,2048,2052,1194
1040,1716365251953656610,2058,2056,2060,2056,2061,2044,1194
1041,1716365251963653604,2053,2052,2054,2050,2056,2056,1197
1042,1716365251973657763,2056,2065,2068,2116,2037,2066,1196
1043,1716365251983657483,2042,2041,2043,2133,2057,2058,1197
1044,1716365251993658355,2060,2054,2047,2010,2033,2048,1196
1045,1716365252003641204,2050,2052,2054,2000,2081,2059,1198
1046,1716365252013640353,2068,2065,2073,2006,2053,2056,1195
1047,1716365252023641867,2056,2045,2043,2061,2059,2056,1196
1048,1716365252033657617,2058,2058,2066,2173,2076,2077,1194
1049,1716365252043663399,2053,2053,2057,2138,2072,2064,1195
1050,1716365252053640417,2062,2065,2068,2058,2056,2056,1195
1051,1716365252063658402,2054,2056,2062,2051,2006,2034,1191
1052,1716365252073657300,2056,2053,2060,1958,2042,2053,1196
1053,1716365252083656941,2050,2055,2063,2116,2088,2054,1193
1054,1716365252093642154,2061,2057,2061,1994,2081,2072,1196
1055,1716365252103654388,2049,2050,2052,2043,2050,2056,1195
1056,1716365252113642216,2053,2057,2061,2081,2076,2097,1197
1057,1716365252123644171,2045,2050,2058,2145,2070,2044,1192
1058,1716365252133645525,2067,2064,2065,2081,2036,2065,1195
1059,1716365252143656977,2046,2054,2056,2051,2027,2034,1195
1060,1716365252153641830,2059,2059,2059,1928,2000,2045,1194
1061,1716365252163655006,2058,2056,2046,1971,1975,2025,1193
1062,1716365252173655127,2056,2058,2057,2064,2073,2051,1198
1063,1716365252183657803,2057,2052,2052,2124,2076,2064,1199
1064,1716365252193643167,2061,2057,2057,2042,2049,2058,1198
1065,1716365252203659398,2050,2047,2053,2134,2071,2071,1197
1066,1716365252213638650,2056,2058,2061,2061,2050,2062,1196
1067,1716365252223642418,2056,2057,2058,2051,2060,2046,1193
1068,1716365252233641428,2051,2058,2072,2154,2079,2074,1195
1069,1716365252243654873,2058,2053,2060,2136,2095,2069,1196
1070,1716365252253643674,2056,2057,2061,2003,2040,2050,1197
1071,1716365252263642212,2054,2054,2059,1940,2026,2050,1196
1072,1716365252273643145,2056,2056,2058,2107,2078,2085,1195
1073,1716365252283643176,2067,2061,2064,2014,2103,2078,1196
1074,1716365252293643518,2056,2053,2062,2056,2062,2052,1195
1075,1716365252303643839,2058,2058,2060,2070,2054,2058,1198
1076,1716365252313661553,2049,2047,2052,2008,2028,2040,1194
1077,1716365252323642999,2051,2047,2049,2089,2057,2042,1196
1078,1716365252333644193,2063,2063,2068,2140,2040,2057,1196
1079,1716365252343650575,2049,2046,2056,2106,2085,2063,1195
1080,1716365252353642041,2057,2060,2060,1964,2056,2053,1196
1081,1716365252363640599,2050,2051,2046,2071,2073,2053,1198
1082,1716365252373643666,2050,2052,2064,2008,2033,2036,1191
1083,1716365252383643306,2052,2054,2056,2093,2089,2069,1197
1084,1716365252393644519,2052,2052,2056,2051,2066,2058,1197
1085,1716365252403642116,2053,2049,2048,2060,2056,2074,1195
1086,1716365252413656654,2061,2066,2064,1956,2012,2032,1194
1087,1716365252423646175,2051,2048,2043,2092,2077,2061,1198
1088,1716365252433646157,2052,2053,2054,2066,2056,2060,1196
1089,1716365252443642841,2060,2052,2049,2023,2016,2028,1193
1090,1716365252453646569,2051,2054,2062,2112,2062,2057,1195
1091,1716365252463641230,2053,2051,2044,1981,2049,2056,1198
1092,1716365252473646271,2055,2056,2064,2100,2094,2052,1195
1093,1716365252483644158,2056,2056,2064,2013,2088,2068,1194
1094,1716365252493647956,2040,2036,2028,2001,2035,2056,1196
1095,1716365252503650111,2063,2056,2042,2083,2090,2073,1196
1096,1716365252513639963,2058,2059,2053,1972,1994,2063,1193
1097,1716365252523643961,2065,2053,2059,2084,2083,2057,1196
1098,1716365252533641578,2057,2059,2050,1995,2038,2058,1195
1099,1716365252543653040,2072,2069,2064,2108,2070,2054,1196
1100,1716365252553643023,2056,2056,2060,2056,2069,2072,1194
1101,1716365252563643384,2049,2049,2047,2089,2074,2052,1199
1102,1716365252573640610,2056,2050,2045,2128,2112,2067,1195
1103,1716365252583646793,2052,2055,2063,2125,2132,2084,1196
1104,1716365252593642977,2055,2056,2053,2109,2056,2049,1197
1105,1716365252603641194,2052,2047,2044,2022,2036,2028,1192
1106,1716365252613641205,2062,2064,2072,2128,2048,2072,1197
1107,1716365252623642028,2062,2050,2054,2057,2086,2017,1194
1108,1716365252633641107,2065,2058,2060,2080,2080,2058,1198
1109,1716365252643640988,2062,2058,2050,1996,2049,2050,1196
1110,1716365252653644165,2049,2050,2051,1982,1988,2018,1194
1111,1716365252663641250,2053,2053,2057,2192,2081,2056,1197
1112,1716365252673642183,2056,2059,2062,2001,2066,2064,1196
1113,1716365252683641723,2050,2047,2046,2033,2073,2033,1192
1114,1716365252693641083,2057,2060,2056,2059,2053,2073,1196
1115,1716365252703641345,2051,2043,2045,2041,2069,2059,1197
1116,1716365252713645113,2056,2054,2042,2056,2068,2065,1195
1117,1716365252723641888,2058,2061,2075,2064,2072,2060,1197
1118,1716365252733642059,2057,2053,2052,2072,2057,2038,1194
1119,1716365252743654062,2056,2050,2049,2012,2060,2049,1197
1120,1716365252753641670,2068,2065,2059,2080,2065,2045,1195
1121,1716365252763644767,2046,2042,2045,2081,2053,2056,1194
1122,1716365252773642935,2059,2054,2050,2077,2033,2040,1193
1123,1716365252783647735,2053,2041,2046,2008,2061,2045,1193
1124,1716365252793642386,2060,2058,2064,2112,2072,2069,1199
1125,1716365252803637097,2054,2050,2048,2080,2098,2070,1196
1126,1716365252813642668,2057,2057,2058,2112,2057,2050,1197
1127,1716365252823644913,2060,2059,2064,2096,2078,2064,1197
1128,1716365252833644834,2042,2039,2033,1965,2049,2056,1198
1129,1716365252843656577,2052,2053,2065,2044,2060,2076,1199
1130,1716365252853641630,2049,2055,2057,2112,2052,2072,1195
1131,1716365252863641701,2055,2050,2052,2122,2085,2055,1197
1132,1716365252873641382,2060,2060,2059,2029,2072,2061,1196
1133,1716365252883639770,2057,2052,2056,2081,2070,2062,1192
1134,1716365252893646052,2052,2050,2053,2045,2037,2045,1193
1135,1716365252903636726,2062,2052,2057,2063,2104,2101,1196
1136,1716365252913633561,2056,2055,2058,2082,2060,2061,1195
1137,1716365252923641307,2054,2052,2054,2131,2075,2056,1195
1138,1716365252933639244,2057,2057,2052,1921,2040,2049,1195
1139,1716365252943651698,2053,2050,2048,2092,2090,2074,1197
1140,1716365252953643163,2052,2048,2047,2052,2041,2052,1196
1141,1716365252963646400,2059,2066,2080,2073,2017,2044,1193
1142,1716365252973643506,2046,2044,2047,1960,2028,2034,1195
1143,1716365252983643998,2060,2053,2047,2008,2061,2066,1196
1144,1716365252993647575,2048,2042,2046,2038,2053,2060,1197
1145,1716365253003651494,2050,2052,2056,2069,2073,2061,1193
1146,1716365253013634253,2059,2059,2065,2114,2064,2063,1196
1147,1716365253023642680,2050,2050,2047,2067,2035,2024,1193
1148,1716365253033640508,2047,2047,2052,2123,2057,2042,1193
1149,1716365253043657781,2053,2048,2052,2125,2078,2054,1196
1150,1716365253053635351,2060,2060,2061,2038,2041,2043,1193
1151,1716365253063639981,2051,2048,2049,2104,2056,2050,1198
1152,1716365253073641135,2057,2049,2040,2017,2050,2057,1193
1153,1716365253083643310,2056,2059,2066,2066,2068,2080,1195
1154,1716365253093655284,2054,2057,2052,2072,2036,2055,1196
1155,1716365253103652179,2056,2056,2061,2058,2058,2042,1193
1156,1716365253113645057,2056,2056,2055,2046,2058,2053,1198
1157,1716365253123648385,2054,2047,2047,2033,2049,2050,1196
1158,1716365253133642456,2056,2061,2061,2090,2052,2061,1196
1159,1716365253143644611,2053,2054,2050,2064,2044,2056,1196
1160,1716365253153641978,2056,2056,2063,2056,2080,2073,1195
1161,1716365253163643332,2056,2053,2048,2045,2069,2053,1195
1162,1716365253173643063,2060,2056,2051,2066,2061,2052,1195
1163,1716365253183644978,2052,2048,2044,2017,2044,2042,1194
1164,1716365253193644689,2062,2058,2061,2080,2075,2053,1196
1165,1716365253203653356,2049,2055,2060,2100,2044,2038,1192
1166,1716365253213641044,2056,2052,2056,2053,2051,2055,1197
1167,1716365253223647298,2056,2051,2050,2084,2037,2048,1197
1168,1716365253233642099,2052,2045,2045,2069,2047,2018,1194
1169,1716365253243641189,2052,2052,2064,2051,2047,2057,1195
1170,1716365253253642824,2056,2057,2060,2073,2051,2053,1196
1171,1716365253263644899,2056,2053,2059,2107,2073,2035,1193
1172,1716365253273641665,2059,2060,2063,2120,2013,2054,1195
1173,1716365253283644091,2050,2046,2045,2050,2041,2038,1192
1174,1716365253293649532,2053,2049,2051,1967,2049,2078,1197
1175,1716365253303645085,2056,2057,2070,2126,2084,2077,1195
1176,1716365253313642162,2065,2061,2062,2072,2052,2072,1194
1177,1716365253323652793,2060,2053,2056,2134,2077,2051,1196
1178,1716365253333641222,2059,2059,2056,2082,2039,2027,1192
1179,1716365253343642747,2048,2056,2064,2103,2053,2043,1194
1180,1716365253353644842,2060,2063,2072,2010,2030,2040,1192
1181,1716365253363645575,2056,2057,2070,2088,2060,2052,1193
1182,1716365253373645827,2056,2056,2057,2097,2069,2042,1193
1183,1716365253383648594,2047,2047,2046,2208,2076,2047,1193
1184,1716365253393637505,2062,2053,2052,2120,2060,2066,1197
1185,1716365253403646513,2053,2053,2046,2046,2040,2046,1195
1186,1716365253413642998,2057,2056,2056,2073,2073,2069,1197
1187,1716365253423642889,2057,2057,2056,2042,2017,2033,1194
1188,1716365253433647980,2060,2057,2059,2064,2045,2047,1192
1189,1716365253443639425,2053,2047,2056,2054,2049,2053,1194
1190,1716365253453640068,2056,2056,2052,2080,2060,2071,1195
1191,1716365253463642975,2049,2044,2041,1944,2049,2056,1195
1192,1716365253473640702,2047,2056,2049,2054,2043,2034,1193
1193,1716365253483643389,2050,2049,2057,2001,2057,2030,1191
1194,1716365253493639393,2064,2062,2061,2116,2054,2049,1196
1195,1716365253503645776,2057,2042,2046,2027,2041,2053,1196
1196,1716365253513639696,2056,2054,2049,1964,2035,2060,1194
1197,1716365253523644036,2048,2047,2047,2013,2056,2044,1193
1198,1716365253533646722,2050,2060,2057,2064,2076,2020,1194
1199,1716365253543644409,2052,2057,2054,2021,2050,2009,1193
1200,1716365253553642296,2057,2057,2053,2064,2005,2032,1194
1201,1716365253563644833,2053,2057,2062,2145,2056,2036,1193
1202,1716365253573649202,2066,2056,2048,1951,2037,2047,1192
1203,1716365253583646359,2047,2050,2060,2148,2036,2007,1193
1204,1716365253593644657,2045,2049,2056,2162,2080,2062,1197
1205,1716365253603655268,2054,2069,2080,2168,2148,2110,1196
1206,1716365253613641755,2058,2052,2048,2046,2085,2089,1195
1207,1716365253623644021,2063,2057,2061,1915,2033,2037,1193
1208,1716365253633644633,2050,2049,2054,2060,2069,2060,1197
1209,1716365253643653521,2050,2056,2056,2072,1966,2020,1194
1210,1716365253653645337,2050,2048,2043,1990,2006,2053,1195
1211,1716365253663642944,2036,2053,2056,2136,2070,2053,1195
1212,1716365253673642364,2057,2053,2051,2067,2064,2025,1193
1213,1716365253683642116,2053,2057,2058,2010,2008,2037,1193
1214,1716365253693649220,2057,2054,2058,2134,2025,2018,1193
1215,1716365253703666193,2067,2057,2060,2106,2093,2054,1195
1216,1716365253713664983,2060,2057,2061,2032,2064,2065,1196
1217,1716365253723643724,2052,2056,2056,2098,2075,2055,1194
1218,1716365253733641351,2058,2058,2057,2015,2112,2073,1197
1219,1716365253743641884,2051,2051,2053,1919,2049,2061,1195
1220,1716365253753642166,2049,2048,2060,2047,2049,2049,1197
1221,1716365253763644241,2053,2047,2056,2066,2066,2031,1194
1222,1716365253773644063,2068,2061,2052,2087,2048,2051,1197
1223,1716365253783644735,2059,2059,2064,2105,2075,2068,1199
1224,1716365253793642692,2059,2056,2053,2046,2057,2056,1200
1225,1716365253803643215,2056,2056,2073,2071,2044,2038,1195
1226,1716365253813653926,2051,2061,2062,2066,2080,2076,1197
1227,1716365253823643348,2056,2058,2061,1949,2065,2051,1196
1228,1716365253833643530,2065,2065,2066,2124,2050,2057,1195
1229,1716365253843642700,2061,2056,2060,2064,2062,2037,1193
1230,1716365253853644936,2056,2057,2052,2074,2033,2049,1195
1231,1716365253863647402,2057,2056,2050,2084,2072,2061,1197
1232,1716365253873638697,2059,2059,2056,2011,2038,2039,1194
1233,1716365253883642054,2052,2056,2054,2137,2081,2064,1193
1234,1716365253893645342,2056,2053,2052,2132,2056,2057,1195
1235,1716365253903644322,2048,2046,2060,2047,2041,2040,1194
1236,1716365253913646307,2060,2057,2056,2011,2064,2088,1194
1237,1716365253923641369,2056,2052,2051,2065,2052,2058,1197
1238,1716365253933651349,2059,2057,2078,2105,2060,2045,1193
1239,1716365253943640130,2058,2053,2052,2116,2053,2051,1196
1240,1716365253953642045,2057,2052,2057,1976,2059,2056,1194
1241,1716365253963642527,2056,2059,2065,2049,2056,2051,1195
1242,1716365253973641076,2062,2065,2068,2110,2081,2072,1196
1243,1716365253983646046,2060,2056,2062,2096,2053,2060,1197
1244,1716365253993644145,2056,2053,2053,2078,2062,2073,1197
1245,1716365254003655487,2049,2047,2054,1880,2041,2043,1194
1246,1716365254013642114,2057,2052,2048,2076,2073,2072,1196
1247,1716365254023639922,2054,2046,2045,2101,2066,2049,1196
1248,1716365254033643751,2045,2046,2057,2049,2023,2065,1195
1249,1716365254043643943,2051,2050,2054,2076,2072,2058,1192
1250,1716365254053645127,2046,2046,2043,1905,2032,2021,1194
1251,1716365254063640581,2051,2047,2056,2089,2013,2035,1194
1252,1716365254073643518,2049,2056,2054,2081,2078,2059,1197
1253,1716365254083646696,2056,2062,2065,2017,2036,2044,1192
1254,1716365254093649683,2053,2057,2057,2037,2037,2056,1198
1255,1716365254103647251,2045,2046,2049,2114,2069,2060,1197
1256,1716365254113640981,2046,2042,2048,2064,2046,2030,1194
1257,1716365254123645201,2066,2062,2063,2033,2047,2056,1196
1258,1716365254133641546,2067,2056,2062,2037,2037,2035,1194
1259,1716365254143644263,2052,2049,2052,2092,2072,2056,1196
1260,1716365254153654905,2061,2056,2054,2053,2064,2056,1196
1261,1716365254163640509,2056,2056,2057,2056,2065,2072,1196
1262,1716365254173643838,2056,2057,2062,2060,2044,2066,1197
1263,1716365254183641776,2058,2052,2056,2001,2046,2052,1192
1264,1716365254193645054,2047,2054,2056,1939,2020,2049,1196
1265,1716365254203645015,2047,2045,2050,2065,2058,2056,1196
1266,1716365254213640159,2051,2054,2053,2088,2073,2066,1197
1267,1716365254223641433,2054,2047,2060,2065,2057,2051,1198
1268,1716365254233645032,2053,2052,2052,2124,2081,2084,1195
1269,1716365254243644563,2056,2051,2059,2057,2051,2045,1192
1270,1716365254253645236,2050,2050,2043,2059,2021,2040,1193
1271,1716365254263641320,2048,2050,2052,2088,2030,1988,1193
1272,1716365254273641944,2059,2057,2064,2063,2063,2065,1198
1273,1716365254283643348,2058,2054,2057,2050,2071,2064,1196
1274,1716365254293649681,2056,2064,2072,1978,2055,2069,1196
1275,1716365254303650485,2062,2053,2052,2052,2057,2049,1196
1276,1716365254313642412,2055,2052,2052,2082,2067,2070,1197
1277,1716365254323642744,2056,2059,2053,2128,2049,2046,1195
1278,1716365254333642456,2057,2049,2046,1956,2056,2047,1195
1279,1716365254343652116,2058,2058,2061,2036,2030,2042,1193
1280,1716365254353641768,2062,2059,2058,2040,2052,2068,1196
1281,1716365254363641691,2057,2069,2069,2130,2056,2061,1197
1282,1716365254373643275,2060,2058,2056,2026,2058,2070,1196
1283,1716365254383642866,2064,2057,2058,2101,2056,2050,1196
1284,1716365254393647337,2058,2052,2050,2041,2067,2069,1196
1285,1716365254403651096,2056,2054,2054,2041,2011,2043,1193
1286,1716365254413610451,2053,2056,2054,2038,2046,2056,1196
1287,1716365254423646180,2042,2040,2044,2095,2023,2032,1192
1288,1716365254433648046,2060,2058,2051,2122,2037,2030,1194
1289,1716365254443643318,2067,2052,2052,2080,2057,2058,1197
1290,1716365254453639023,2057,2056,2053,2074,2077,2080,1198
1291,1716365254463645196,2056,2053,2052,2097,2077,2076,1198
1292,1716365254473641180,2050,2047,2044,1968,2002,2030,1192
1293,1716365254483642985,2054,2057,2060,2043,2047,2046,1193
1294,1716365254493665670,2066,2064,2058,2056,2076,2047,1193
1295,1716365254503644172,2052,2051,2053,2098,2066,2043,1194
1296,1716365254513643953,2056,2052,2048,2058,2017,2046,1194
1297,1716365254523645779,2056,2056,2048,2060,2047,2029,1192
1298,1716365254533644979,2054,2054,2045,2090,2083,2076,1195
1299,1716365254543649720,2053,2052,2052,2042,2052,2049,1193
1300,1716365254553643951,2057,2056,2056,2046,2045,1995,1193
1301,1716365254563642029,2052,2050,2054,1995,2040,2052,1196
1302,1716365254573639536,2062,2056,2060,1950,2044,2056,1195
1303,1716365254583659877,2060,2056,2058,2036,2059,2044,1193
1304,1716365254593643017,2052,2053,2052,2059,2040,2015,1192
1305,1716365254603647176,2049,2049,2048,2031,2059,2048,1197
1306,1716365254613643562,2057,2057,2063,2102,2040,2040,1194
1307,1716365254623643824,2042,2039,2038,2076,2062,2064,1196
1308,1716365254633646771,2067,2060,2049,2120,2089,2077,1196
1309,1716365254643657533,2060,2056,2057,2088,2056,2043,1195
1310,1716365254653640063,2052,2051,2056,1999,2056,2060,1196
1311,1716365254663640515,2053,2050,2048,2056,2062,2036,1195
1312,1716365254673640097,2060,2054,2045,1982,2002,2043,1194
1313,1716365254683643575,2053,2056,2057,1993,2035,2036,1192
1314,1716365254693641072,2058,2053,2060,2092,2060,2057,1194
1315,1716365254703642777,2059,2057,2053,2066,2056,2051,1194
1316,1716365254713638001,2058,2052,2049,2049,2065,2059,1197
1317,1716365254723644705,2047,2053,2060,1982,2024,2043,1193
1318,1716365254733651088,2056,2060,2065,2081,2045,2072,1198
1319,1716365254743642294,2056,2053,2054,2057,2058,2052,1194
1320,1716365254753647235,2050,2050,2061,2036,2041,2037,1193
1321,1716365254763642268,2059,2059,2071,2070,2030,2049,1196
1322,1716365254773642330,2060,2066,2076,2152,2040,2060,1194
1323,1716365254783672248,2057,2056,2055,1935,2052,2052,1197
1324,1716365254793646922,2061,2065,2065,2096,2064,2060,1193
1325,1716365254803647315,2053,2049,2052,1958,2014,1986,1193
1326,1716365254813642448,2056,2052,2052,2070,2058,2066,1197
1327,1716365254823647609,2056,2056,2060,2081,2059,2060,1196
1328,1716365254833654605,2052,2051,2046,2061,2074,2076,1197
1329,1716365254843646171,2052,2045,2051,2092,2057,2064,1197
1330,1716365254853647234,2044,2055,2064,2090,2062,2060,1194
1331,1716365254863647607,2057,2059,2060,2013,2053,2057,1196
1332,1716365254873644714,2049,2054,2056,2012,2072,2073,1197
1333,1716365254883641630,2065,2058,2053,2079,2045,2076,1195
1334,1716365254893689300,2053,2056,2053,2016,2084,2074,1197
1335,1716365254903644629,2056,2054,2053,2036,2056,2065,1197
1336,1716365254913641726,2056,2057,2064,2082,2054,2060,1197
1337,1716365254923643250,2044,2050,2047,1997,2033,2041,1195
1338,1716365254933651327,2054,2056,2045,2047,2051,2041,1196
1339,1716365254943644607,2055,2058,2050,2060,2069,2065,1197
1340,1716365254953641923,2063,2051,2052,2077,2081,2066,1198
1341,1716365254963643529,2053,2058,2056,2070,2053,2044,1192
1342,1716365254973641647,2053,2063,2068,1980,2058,2064,1197
1343,1716365254983641398,2053,2045,2046,2053,2016,2040,1193
1344,1716365254993646811,2070,2060,2065,2077,2086,2078,1196
1345,1716365255003641983,2060,2059,2062,2056,2043,2046,1195
1346,1716365255013649369,2058,2052,2059,2068,2045,2059,1194
1347,1716365255023645494,2056,2057,2066,2063,2056,2038,1194
1348,1716365255033646088,2056,2050,2046,2082,2045,2057,1195
1349,1716365255043642885,2058,2059,2060,2164,2046,2056,1196
1350,1716365255053645030,2064,2061,2065,2132,2069,2057,1194
1351,1716365255063642779,2065,2054,2054,2019,2015,1998,1192
1352,1716365255073645827,2056,2053,2057,2113,2068,2077,1194
1353,1716365255083640990,2049,2054,2068,2120,2056,2051,1195
1354,1716365255093640091,2045,2048,2049,2057,2084,2077,1197
1355,1716365255103644632,2053,2047,2053,2009,2048,2046,1195
1356,1716365255113644204,2057,2057,2052,2098,2067,2021,1193
1357,1716365255123645878,2066,2057,2057,2059,2047,2062,1197
1358,1716365255133655609,2060,2058,2059,2076,2072,2080,1196
1359,1716365255143643479,2052,2054,2052,2057,2066,2093,1196
1360,1716365255153641969,2061,2061,2067,2056,2020,2035,1194
1361,1716365255163644245,2061,2059,2072,2117,2073,2066,1196
1362,1716365255173644568,2063,2057,2050,2082,2057,2084,1196
1363,1716365255183642317,2060,2055,2057,2073,2057,2061,1197
1364,1716365255193658248,2074,2065,2060,1996,2062,2063,1196
1365,1716365255203642511,2045,2049,2056,2105,2083,2062,1195
1366,1716365255213640981,2062,2056,2050,2072,2066,2061,1197
1367,1716365255223645031,2058,2056,2063,2104,2052,2049,1195
1368,1716365255233648850,2046,2044,2042,2115,2054,2059,1196
1369,1716365255243649364,2056,2054,2049,2109,2060,2083,1195
1370,1716365255253643816,2048,2040,2047,2058,1980,2023,1193
1371,1716365255263643167,2068,2068,2065,2117,2062,2052,1196
1372,1716365255273639973,2052,2056,2050,2080,2071,2058,1197
1373,1716365255283644023,2051,2052,2050,2118,2106,2077,1196
1374,1716365255293641110,2060,2053,2060,2080,2010,2041,1193
1375,1716365255303643667,2056,2054,2056,2072,2072,2051,1197
1376,1716365255313656043,2061,2064,2061,2038,2062,2059,1196
1377,1716365255323647179,2056,2056,2066,2100,2085,2056,1196
1378,1716365255333642132,2053,2056,2050,2014,2057,2074,1198
1379,1716365255343641753,2057,2056,2056,2071,2066,2065,1197
1380,1716365255353656483,2064,2062,2063,2108,2078,2085,1196
1381,1716365255363645635,2044,2040,2045,2090,2038,2052,1198
1382,1716365255373641700,2059,2057,2053,2050,2064,2049,1196
1383,1716365255383645169,2058,2056,2055,2106,2057,2041,1196
1384,1716365255393641535,2056,2052,2036,1944,2039,2073,1196
1385,1716365255403645213,2057,2054,2049,2074,2063,2076,1197
1386,1716365255413642380,2052,2050,2045,2072,2034,2051,1195
1387,1716365255423645038,2050,2052,2054,2102,2048,2061,1197
1388,1716365255433642626,2044,2050,2060,2069,2040,2061,1198
1389,1716365255443642077,2056,2053,2056,2072,2066,2052,1197
1390,1716365255453654142,2047,2038,2041,2037,2042,2040,1194
1391,1716365255463645499,2051,2050,2057,2045,2016,2040,1197
1392,1716365255473642445,2056,2049,2048,2024,2045,2080,1197
1393,1716365255483642267,2056,2056,2056,2046,2042,2048,1194
1394,1716365255493642460,2068,2058,2056,2032,2049,2059,1197
1395,1716365255503645448,2051,2052,2060,2018,2050,2042,1193
1396,1716365255513639298,2052,2055,2061,2024,2036,2048,1196
1397,1716365255523645172,2055,2063,2070,2073,2049,2042,1195
1398,1716365255533642670,2054,2052,2053,2003,2048,2056,1196
1399,1716365255543642352,2055,2057,2064,2078,2058,2043,1194
1400,1716365255553659265,2061,2077,2066,2050,2075,2066,1196
1401,1716365255563640994,2049,2057,2041,2012,2036,2020,1193
1402,1716365255573643832,2057,2052,2057,2061,2028,2011,1194
1403,1716365255583640607,2049,2044,2049,2070,2059,2046,1194
1404,1716365255593642944,2054,2054,2057,2128,2060,2052,1197
1405,1716365255603640342,2056,2049,2056,2040,2057,2064,1195
1406,1716365255613640725,2051,2053,2052,1978,2041,2009,1192
1407,1716365255623645716,2065,2060,2056,2088,2062,2050,1199
1408,1716365255633641671,2056,2051,2047,2053,2050,2056,1197
1409,1716365255643643688,2058,2056,2050,2021,2061,2081,1195
1410,1716365255653651194,2062,2064,2068,2058,2073,2073,1196
1411,1716365255663646076,2052,2048,2062,2044,2045,2047,1193
1412,1716365255673646420,2061,2068,2056,2074,2043,2047,1195
1413,1716365255683644880,2044,2048,2060,1987,2050,2039,1192
1414,1716365255693644000,2050,2052,2045,1982,2040,2070,1197
1415,1716365255703645074,2059,2054,2057,2028,2058,2038,1196
1416,1716365255713643724,2049,2048,2044,2081,2045,2064,1196
1417,1716365255723644398,2056,2053,2065,2210,2073,2048,1196
1418,1716365255733643689,2052,2058,2051,2038,2050,2058,1197
1419,1716365255743644533,2056,2057,2050,2073,2074,2064,1197
1420,1716365255753643263,2058,2065,2062,2105,2074,2064,1197
1421,1716365255763644437,2052,2050,2062,2129,2031,2044,1194
1422,1716365255773641203,2059,2051,2045,1964,2017,2045,1193
1423,1716365255783641867,2054,2048,2052,2061,2057,2052,1199
1424,1716365255793644585,2050,2053,2053,2098,2081,2077,1198
1425,1716365255803641321,2056,2052,2053,1994,2046,2046,1193
1426,1716365255813643487,2052,2061,2056,2020,2062,2028,1196
1427,1716365255823646586,2052,2055,2057,1987,2032,2043,1195
1428,1716365255833642941,2056,2050,2044,2061,2037,2060,1197
1429,1716365255843644897,2050,2053,2056,1992,2044,2047,1194
1430,1716365255853659346,2054,2056,2072,2101,2045,2047,1194
1431,1716365255863642107,2051,2044,2048,2088,2044,2056,1197
1432,1716365255873646867,2054,2052,2052,2164,2077,2060,1199
1433,1716365255883644005,2056,2046,2050,2001,2060,2049,1195
1434,1716365255893642234,2051,2045,2048,2074,2053,2054,1198
1435,1716365255903643109,2060,2056,2056,1906,2057,2068,1195
1436,1716365255913642609,2056,2049,2054,2049,2076,2076,1194
1437,1716365255923647942,2048,2052,2046,2005,2024,2044,1193
1438,1716365255933642484,2060,2057,2057,2062,2042,1999,1194
1439,1716365255943647646,2052,2052,2052,2000,2047,2077,1197
1440,1716365255953656074,2054,2055,2060,2010,2029,2048,1196
1441,1716365255963645687,2047,2042,2056,1975,2028,2046,1194
1442,1716365255973642614,2058,2050,2062,2056,2050,2061,1198
1443,1716365255983642475,2056,2061,2045,2041,2056,2057,1197
1444,1716365255993645013,2056,2053,2049,2047,2052,2062,1198
1445,1716365256003642821,2061,2060,2066,2108,2034,2040,1194
1446,1716365256013645160,2062,2069,2075,2064,2076,2066,1196
1447,1716365256023662344,2048,2058,2068,2078,2064,2072,1196
1448,1716365256033644654,2056,2052,2060,2093,2068,2069,1196
1449,1716365256043647001,2049,2035,2057,1994,2053,2068,1195
1450,1716365256053656652,2056,2044,2076,2124,2074,2064,1196
1451,1716365256063646966,2052,2052,2061,1960,2034,2042,1193
1452,1716365256073649113,2060,2072,2066,2034,2050,2049,1196
1453,1716365256083645179,2045,2067,2076,2090,2072,2068,1195
1454,1716365256093646154,2053,2059,2064,2108,2070,2050,1195
1455,1716365256103649353,2051,2041,2042,1894,2039,2061,1196
1456,1716365256113641511,2055,2058,2056,2090,2045,2057,1195
1457,1716365256123644890,2052,2057,2043,2046,2052,2051,1196
1458,1716365256133644482,2056,2050,2052,1998,2050,2056,1196
1459,1716365256143646839,2058,2052,2052,2096,2046,2044,1193
1460,1716365256153644507,2056,2056,2052,1970,2036,2072,1197
1461,1716365256163644911,2056,2054,2048,2034,2051,2058,1196
1462,1716365256173649523,2053,2052,2056,2189,2061,2045,1193
1463,1716365256183647602,2059,2058,2060,2077,2087,2048,1197
1464,1716365256193645040,2053,2048,2054,2078,2043,2064,1197
1465,1716365256203645744,2052,2046,2053,2043,2028,2044,1195
1466,1716365256213643392,2060,2051,2057,2041,2038,2054,1196
1467,1716365256223641782,2061,2053,2056,2046,2049,2058,1197
1468,1716365256233648046,2056,2052,2048,2069,2064,2061,1198
1469,1716365256243647449,2044,2045,2050,2076,2050,2054,1197
1470,1716365256253643855,2057,2040,2041,2040,2053,2068,1197
1471,1716365256263644428,2048,2047,2050,2036,2003,2025,1194
1472,1716365256273642998,2059,2056,2060,2100,2068,2058,1194
1473,1716365256283648051,2059,2060,2058,2073,2053,2050,1194
1474,1716365256293644126,2062,2059,2065,1982,2053,2080,1196
1475,1716365256303648166,2053,2057,2042,2066,2073,2085,1196
1476,1716365256313643560,2056,2056,2050,2040,2069,2061,1196
1477,1716365256323642662,2056,2054,2060,2003,2044,2033,1194
1478,1716365256333644358,2055,2057,2061,1980,2041,2056,1196
1479,1716365256343643219,2052,2051,2056,2100,2061,2047,1194
1480,1716365256353643472,2056,2056,2056,2066,2079,2072,1196
1481,1716365256363658272,2052,2046,2054,2100,2061,2054,1195
1482,1716365256373645301,2056,2052,2048,2022,2051,2074,1196
1483,1716365256383641867,2050,2046,2040,2054,2044,2028,1194
1484,1716365256393644034,2061,2070,2059,2060,2056,2064,1198
1485,1716365256403647744,2052,2053,2059,2084,2042,2033,1195
1486,1716365256413647927,2053,2059,2059,2040,2044,2054,1197
1487,1716365256423641638,2048,2047,2057,2048,2049,2049,1195
1488,1716365256433644166,2049,2060,2067,2081,2050,2030,1193
1489,1716365256443646463,2053,2048,2049,2080,2065,2068,1195
1490,1716365256453647036,2052,2051,2053,1972,2051,2034,1193
1491,1716365256463660855,2057,2053,2050,1992,2057,2052,1196
1492,1716365256473643445,2057,2058,2056,2093,2070,2064,1197
1493,1716365256483638229,2053,2054,2057,1981,2057,2054,1195
1494,1716365256493645505,2053,2052,2045,2102,2080,2064,1196
1495,1716365256503645127,2050,2047,2047,2093,2065,2073,1196
1496,1716365256513648607,2056,2056,2059,2104,2072,2082,1196
1497,1716365256523642508,2059,2056,2054,2061,2058,2028,1194
1498,1716365256533645957,2052,2054,2053,2060,2076,2064,1196
1499,1716365256543646491,2048,2043,2054,2069,2049,2045,1193
1500,1716365256553642115,2056,2063,2058,2087,2066,2062,1196
1501,1716365256563646877,2056,2049,2058,2056,2073,2056,1196
1502,1716365256573644947,2056,2058,2054,2020,2047,2063,1196
1503,1716365256583645260,2050,2053,2048,2136,2054,2057,1196
1504,1716365256593645052,2058,2056,2062,2089,2076,2080,1196
1505,1716365256603645596,2050,2044,2037,2070,2036,2008,1192
1506,1716365256613645579,2054,2054,2056,2117,2064,2075,1196
1507,1716365256623644780,2065,2052,2056,2116,2058,2041,1193
1508,1716365256633642358,2058,2064,2066,2050,2064,2068,1197
1509,1716365256643645718,2058,2052,2045,2096,2047,2045,1194
1510,1716365256653642916,2053,2065,2066,2101,2081,2064,1195
1511,1716365256663650202,2056,2064,2068,2109,2038,2000,1191
1512,1716365256673641889,2060,2068,2060,2062,2040,2066,1195
1513,1716365256683640850,2055,2049,2050,2090,2056,2054,1193
1514,1716365256693643087,2059,2061,2062,2085,2065,2077,1197
1515,1716365256703657476,2056,2047,2053,2036,2074,2061,1196
1516,1716365256713643312,2064,2049,2043,2028,2068,2073,1196
1517,1716365256723640150,2057,2059,2053,2023,2045,2045,1194
1518,1716365256733646024,2056,2052,2055,2033,2052,2058,1194
1519,1716365256743643602,2052,2064,2077,2033,2056,2038,1193
1520,1716365256753643114,2061,2053,2058,2076,2045,2057,1195
1521,1716365256763640983,2058,2060,2066,2028,2068,2056,1195
1522,1716365256773641486,2056,2041,2049,2052,2065,2059,1196
1523,1716365256783640978,2049,2044,2051,2071,2025,2030,1195
1524,1716365256793643826,2056,2056,2053,2002,2034,2050,1197
1525,1716365256803646384,2053,2050,2056,2032,2048,2050,1197
1526,1716365256813641478,2052,2055,2055,2015,2048,2062,1194
1527,1716365256823641541,2048,2050,2051,2036,2052,2052,1194
1528,1716365256833641714,2057,2054,2048,2104,2025,2044,1195
1529,1716365256843643550,2055,2052,2057,2122,2060,2050,1195
1530,1716365256853646137,2063,2056,2060,2069,2074,2065,1197
1531,1716365256863642123,2050,2049,2055,2140,2037,2035,1193
1532,1716365256873644450,2052,2048,2045,2036,2044,2056,1198
1533,1716365256883643852,2061,2061,2053,2020,2028,2048,1194
1534,1716365256893642292,2049,2054,2060,2073,2068,2047,1193
1535,1716365256903644739,2053,2069,2072,1980,2053,2058,1195
1536,1716365256913644351,2052,2052,2065,2118,2053,2049,1197
1537,1716365256923645195,2048,2035,2042,2094,2066,2056,1193
1538,1716365256933643114,2057,2066,2080,2085,2066,2072,1196
1539,1716365256943658456,2048,2041,2046,2042,2069,2068,1196
1540,1716365256953641266,2061,2056,2045,2043,2059,2060,1194
1541,1716365256963642301,2050,2056,2049,2016,2056,2045,1192
1542,1716365256973640672,2058,2061,2061,2037,2064,2086,1195
1543,1716365256983644101,2066,2068,2071,2074,2064,2044,1197
1544,1716365256993652008,2063,2057,2060,2078,2072,2067,1196
1545,1716365257003640579,2050,2052,2061,2100,2072,2056,1196
1546,1716365257013639330,2057,2057,2056,1984,2029,2040,1193
1547,1716365257023639113,2056,2056,2065,2065,2064,2057,1195
1548,1716365257033641701,2056,2057,2064,2145,2085,2064,1195
1549,1716365257043641354,2052,2043,2041,2033,2061,2072,1197
1550,1716365257053650394,2045,2040,2046,1944,2028,2053,1197
1551,1716365257063644135,2052,2055,2056,2084,2043,2040,1194
1552,1716365257073646312,2056,2057,2075,2125,2053,2035,1195
1553,1716365257083640335,2045,2043,2050,2104,2060,2056,1193
1554,1716365257093641821,2062,2066,2072,2047,2058,2053,1195
1555,1716365257103642455,2054,2027,2049,2045,2049,2044,1192
1556,1716365257113642048,2056,2056,2061,2052,2084,2065,1196
1557,1716365257123642612,2058,2058,2052,2051,2044,2068,1195
1558,1716365257133642977,2053,2067,2060,2168,2077,2081,1197
1559,1716365257143642939,2056,2057,2064,2164,2097,2069,1197
1560,1716365257153642232,2049,2056,2068,2120,2082,2076,1197
1561,1716365257163641834,2049,2064,2046,2076,2072,2051,1199
1562,1716365257173639914,2053,2058,2049,2061,2045,2061,1196
1563,1716365257183641169,2046,2054,2047,2054,2048,2044,1194
1564,1716365257193642796,2057,2051,2053,2035,2064,2063,1196
1565,1716365257203642428,2053,2056,2056,2021,2032,2056,1196
1566,1716365257213658261,2053,2057,2062,2117,2077,2075,1195
1567,1716365257223641623,2056,2056,2056,1974,2048,2056,1196
1568,1716365257233639242,2052,2051,2056,2104,2051,2064,1196
1569,1716365257243642230,2050,2043,2064,2076,2060,2054,1196
1570,1716365257253640370,2057,2060,2058,1961,2031,2050,1196
1571,1716365257263640624,2054,2049,2049,2079,2041,2046,1194
1572,1716365257273641639,2057,2044,2045,2109,2064,2065,1196
1573,1716365257283642825,2052,2024,2041,2069,2048,2052,1194
1574,1716365257293650933,2056,2062,2066,2052,2052,2064,1194
1575,1716365257303645066,2056,2050,2067,2057,2060,2058,1195
1576,1716365257313644047,2052,2041,2041,2099,2059,2067,1196
1577,1716365257323646415,2054,2045,2048,1986,2059,2052,1198
1578,1716365257333644173,2060,2042,2047,2079,2058,2052,1196
1579,1716365257343642204,2056,2044,2053,2064,2051,2043,1192
1580,1716365257353641325,2056,2052,2045,2065,2056,2066,1196
1581,1716365257363653862,2056,2052,2048,2045,2068,2060,1196
1582,1716365257373643886,2053,2053,2044,2049,2050,2045,1192
1583,1716365257383645112,2059,2060,2068,2038,2082,2058,1196
1584,1716365257393642780,2060,2056,2057,2061,2056,2054,1198
1585,1716365257403647172,2052,2061,2052,2043,2041,2037,1193
1586,1716365257413651904,2060,2056,2053,2068,2041,2046,1193
1587,1716365257423645025,2052,2058,2058,2029,2059,2054,1196
1588,1716365257433641561,2052,2044,2045,2067,2058,2052,1197
1589,1716365257443641865,2057,2052,2058,2027,2058,2060,1196
1590,1716365257453640967,2056,2047,2056,2096,2038,2048,1196
1591,1716365257463644917,2057,2051,2052,2055,2072,2076,1196
1592,1716365257473641634,2057,2052,2050,2096,2059,2065,1196
1593,1716365257483641387,2051,2049,2052,2052,2049,2066,1195
1594,1716365257493641772,2058,2064,2073,2026,2078,2069,1197
1595,1716365257503644670,2051,2052,2047,2028,2030,2042,1193
1596,1716365257513655764,2051,2052,2053,2044,2052,2054,1196
1597,1716365257523644366,2052,2049,2044,1965,2041,2044,1193
1598,1716365257533642717,2064,2061,2057,2093,2056,2060,1197
1599,1716365257543646987,2053,2053,2049,2094,2048,2044,1192
1600,1716365257553641741,2053,2048,2050,1992,2037,2008,1193
1601,1716365257563642585,2054,2053,2051,2076,2054,2056,1196
1602,1716365257573645294,2051,2041,2045,2036,2016,2036,1192
1603,1716365257583641179,2052,2039,2046,1996,2045,2022,1195
1604,1716365257593643397,2058,2064,2063,2010,2073,2068,1196
1605,1716365257603642839,2058,2072,2079,2067,2074,2053,1195
1606,1716365257613639506,2048,2063,2054,2053,2064,2061,1197
1607,1716365257623644919,2062,2062,2068,2037,2056,2070,1194
1608,1716365257633642889,2054,2054,2068,2034,2040,2061,1196
1609,1716365257643642742,2054,2053,2057,2093,2056,2053,1197
1610,1716365257653644729,2062,2049,2045,2036,2049,2069,1195
1611,1716365257663643741,2048,2042,2037,2066,2078,2057,1193
1612,1716365257673644655,2062,2082,2057,1922,2007,2040,1195
1613,1716365257683645971,2061,2056,2074,2124,2077,2061,1195
1614,1716365257693643770,2049,2060,2055,2132,2053,2061,1196
1615,1716365257703645657,2060,2094,2061,2073,2025,2054,1194
1616,1716365257713667471,2065,2071,2064,2043,2057,2061,1196
1617,1716365257723643019,2052,2066,2056,2116,2065,2054,1195
1618,1716365257733648642,2061,2056,2066,1984,2066,2064,1195
1619,1716365257743644178,2050,2047,2050,2079,2046,2057,1195
1620,1716365257753647607,2077,2108,2079,1833,2074,2073,1195
1621,1716365257763644675,2056,2052,2046,1974,2050,2056,1195
1622,1716365257773646351,2056,2056,2072,2076,2064,2082,1194
1623,1716365257783646675,2061,2056,2018,2085,2076,2057,1197
1624,1716365257793647189,2052,2043,2044,2073,2074,2064,1195
1625,1716365257803644768,2056,2042,2051,2052,2046,2051,1194
1626,1716365257813651894,2052,2040,2028,2042,2064,2053,1199
1627,1716365257823645897,2056,2037,2015,2060,2048,2044,1193
1628,1716365257833647032,2061,2070,2058,2164,2069,2054,1196
1629,1716365257843646605,2054,2053,2046,2100,2067,2056,1196
1630,1716365257853644804,2057,2061,2050,2056,2064,2065,1196
1631,1716365257863646110,2062,2058,2060,2080,2068,2067,1197
1632,1716365257873647146,2058,2058,2059,2052,2057,2064,1196
1633,1716365257883643311,2055,2048,2052,2038,2053,2053,1192
1634,1716365257893643095,2059,2047,2040,2113,2059,2060,1197
1635,1716365257903644510,2060,2066,2056,2050,2041,2072,1199
1636,1716365257913653060,2053,2056,2049,2068,2057,2061,1194
1637,1716365257923641631,2050,2045,2050,1978,2066,2064,1196
1638,1716365257933640573,2063,2056,2048,1950,2058,2059,1196
1639,1716365257943643080,2050,2037,2046,2058,2049,2053,1197
1640,1716365257953645950,2060,2065,2064,2104,2081,2072,1196
1641,1716365257963641233,2056,2060,2065,2064,2061,2065,1196
1642,1716365257973641327,2066,2076,2066,2152,2061,2072,1195
1643,1716365257983642202,2053,2047,2040,2068,2056,2056,1195
1644,1716365257993641865,2058,2056,2056,1980,2083,2074,1196
1645,1716365258003639513,2067,2060,2058,2026,2050,2058,1196
1646,1716365258013641911,2066,2054,2051,2056,2046,2050,1196
1647,1716365258023642216,2041,2031,2051,1921,2041,2051,1196
1648,1716365258033641679,2070,2062,2037,2047,2037,2064,1195
1649,1716365258043641392,2041,2028,2027,2058,2032,2022,1194
1650,1716365258053643109,2051,2048,2041,2110,2050,2045,1193
1651,1716365258063643183,2053,2064,2066,2040,2056,2058,1197
1652,1716365258073645080,2049,2048,2056,1996,2047,2056,1196
1653,1716365258083644933,2052,2052,2053,2024,2067,2072,1195
1654,1716365258093643023,2062,2064,2049,2049,2044,2041,1192
1655,1716365258103649239,2066,2056,2032,2133,2068,2060,1196
1656,1716365258113653350,2056,2051,2059,2082,2056,2056,1196
1657,1716365258123643204,2057,2060,2054,2035,2084,2053,1195
1658,1716365258133642888,2064,2064,2040,2020,2046,2048,1195
1659,1716365258143642701,2048,2049,2026,2088,2052,2045,1195
1660,1716365258153642665,2056,2052,2068,1932,2034,2043,1191
1661,1716365258163642198,2055,2052,2058,2064,2048,2048,1195
1662,1716365258173651699,2064,2054,2059,2060,2052,2073,1195
1663,1716365258183644670,2057,2056,2059,2067,2084,2064,1196
1664,1716365258193660293,2056,2055,2056,2002,2040,2053,1195
1665,1716365258203644066,2053,2059,2056,2056,2050,2050,1198
1666,1716365258213647587,2058,2060,2056,2068,2051,2072,1197
1667,1716365258223649624,2058,2052,2050,1985,2045,2049,1197
1668,1716365258233643867,2048,2049,2049,2056,2047,2047,1193
1669,1716365258243645925,2054,2058,2051,2086,2047,2052,1196
1670,1716365258253644165,2058,2058,2056,2205,2070,2079,1195
1671,1716365258263645751,2058,2069,2056,2084,2075,2044,1194
1672,1716365258273655864,2059,2072,2060,2077,2050,2064,1194
1673,1716365258283647632,2050,2046,2050,2054,2043,2048,1195
1674,1716365258293644971,2054,2040,2048,2056,2057,2024,1194
1675,1716365258303646458,2047,2061,2074,1995,2069,2051,1197
1676,1716365258313645019,2057,2060,2054,1996,2047,2051,1195
1677,1716365258323652837,2054,2054,2061,2000,2044,2027,1194
1678,1716365258333645447,2074,2059,2066,2004,2052,2058,1195
1679,1716365258343642305,2053,2054,2047,2068,2052,2050,1196
1680,1716365258353634765,2056,2069,2065,2032,2043,2049,1196
1681,1716365258363662260,2047,2036,2053,1985,2054,2052,1197
1682,1716365258373657504,2053,2046,2055,2145,2053,2059,1196
1683,1716365258383658069,2055,2052,2056,2038,2063,2060,1197
1684,1716365258393650378,2049,2044,2048,2013,2040,2025,1194
1685,1716365258403647126,2046,2055,2064,2120,2072,2052,1197
1686,1716365258413668379,2060,2064,2070,1967,2042,2052,1196
1687,1716365258423649237,2045,2029,2044,2065,2089,2055,1196
1688,1716365258433646526,2050,2039,2042,2010,2022,2024,1193
1689,1716365258443644206,2045,2041,2040,2078,2080,2063,1198
1690,1716365258453643718,2048,2053,2057,2158,2060,2046,1194
1691,1716365258463641969,2052,2059,2057,2106,2066,2058,1194
1692,1716365258473643866,2059,2066,2056,2054,2061,2056,1197
1693,1716365258483641325,2046,2042,2046,1997,2037,2040,1192
1694,1716365258493642722,2064,2072,2064,2019,2057,2053,1197
1695,1716365258503643146,2042,2030,2052,2069,2059,2054,1196
1696,1716365258513643680,2046,2056,2046,2166,2022,2015,1192
1697,1716365258523641380,2037,2028,2025,2056,2064,2060,1196
1698,1716365258533649709,2054,2036,2024,2074,2082,2070,1197
1699,1716365258543648931,2058,2066,2040,2069,2078,2069,1195
1700,1716365258553647633,2038,2033,2039,2072,2053,2056,1196
1701,1716365258563647706,2048,2047,2050,2075,2050,2048,1196
1702,1716365258573647219,2061,2057,2051,1920,2054,2054,1196
1703,1716365258583643085,2081,2053,2045,2061,2084,2083,1198
1704,1716365258593646055,2047,2050,2058,2056,2065,2058,1197
1705,1716365258603642833,2053,2046,2048,2054,2066,2056,1195
1706,1716365258613643578,2078,2056,2041,2049,2058,2065,1196
1707,1716365258623645445,2052,2050,2046,2027,2065,2060,1196
1708,1716365258633647963,2059,2054,2049,2032,2031,2058,1196
1709,1716365258643646364,2059,2058,2057,2120,2078,2065,1197
1710,1716365258653646147,2052,2051,2045,2059,2045,2036,1193
1711,1716365258663644528,2069,2084,2081,2130,2080,2050,1197
1712,1716365258673643530,2053,2040,2049,2102,2056,2056,1198
1713,1716365258683642882,2042,2044,2041,2066,2052,2043,1191
1714,1716365258693644329,2047,2050,2054,2049,2036,2053,1194
1715,1716365258703654591,2049,2066,2058,2032,2052,2061,1195
1716,1716365258713642603,2057,2044,2046,2056,2062,2073,1196
1717,1716365258723645141,2056,2045,2046,2108,2088,2077,1195
1718,1716365258733642761,2052,2061,2046,2068,2054,2073,1196
1719,1716365258743644638,2061,2096,2078,2128,2058,2058,1195
1720,1716365258753646415,2046,2054,2079,1969,2047,2072,1197
1721,1716365258763642531,2049,2015,2046,2061,2051,2043,1193
1722,1716365258773641884,2054,2044,2049,2096,2046,2051,1197
1723,1716365258783645554,2056,2070,2056,2010,2047,2041,1193
1724,1716365258793645888,2064,2068,2051,2076,2073,2066,1195
1725,1716365258803646444,2049,2056,2055,2133,2091,2012,1193
1726,1716365258813646267,2047,2042,2051,2022,2042,2064,1197
1727,1716365258823643876,2063,2094,2073,2011,2040,2034,1193
1728,1716365258833644842,2051,2041,2047,2053,2062,2052,1193
1729,1716365258843644324,2048,2053,2065,2195,2086,2057,1196
1730,1716365258853643997,2072,2057,2056,2126,2057,2039,1194
1731,1716365258863643480,2056,2052,2068,2101,2073,2062,1198
1732,1716365258873645157,2059,2056,2052,2028,2044,2034,1196
1733,1716365258883646443,2041,2046,2061,2088,2077,2098,1194
1734,1716365258893641858,2063,2060,2057,2132,2064,2058,1197
1735,1716365258903644417,2056,2044,2047,2024,2053,2063,1195
1736,1716365258913646425,2058,2052,2041,1962,1972,2049,1197
1737,1716365258923643683,2055,2043,2056,2032,2027,2062,1198
1738,1716365258933658223,2053,2034,2062,2137,2040,2045,1195
1739,1716365258943642058,2049,2041,2024,1855,2008,2068,1195
1740,1716365258953641470,2054,2058,2053,2047,2063,2041,1193
1741,1716365258963644118,2045,2061,2051,2126,2049,2045,1195
1742,1716365258973644533,2062,2057,2058,2074,2072,2077,1196
1743,1716365258983641591,2064,2044,2035,2069,2067,2064,1197
1744,1716365258993654900,2057,2074,2066,2114,2066,2057,1197
1745,1716365259003647550,2040,2048,2040,2039,2056,2040,1194
1746,1716365259013647223,2058,2047,2034,2008,2036,2052,1196
1747,1716365259023646546,2052,2061,2059,2061,2049,2064,1196
1748,1716365259033642393,2054,2054,2062,2069,2049,2062,1194
1749,1716365259043645642,2057,2052,2057,2130,2064,2050,1196
1750,1716365259053646057,2064,2050,2054,2113,2068,2061,1195
1751,1716365259063645320,2048,2031,2041,2085,2047,1995,1193
1752,1716365259073643030,2050,2018,2060,2112,2061,2052,1197
1753,1716365259083644457,2053,2052,2063,2132,2075,2061,1195
1754,1716365259093642247,2049,2078,2062,1991,2015,2040,1193
1755,1716365259103647671,2046,2088,2050,1891,2010,2027,1193
1756,1716365259113643157,2056,2064,2052,1992,2038,2057,1197
1757,1716365259123643462,2049,2045,2045,2049,2050,2050,1194
1758,1716365259133644197,2056,2056,2058,2076,2024,2029,1194
1759,1716365259143642398,2045,2032,2040,2089,2058,2069,1198
1760,1716365259153644667,2061,2064,2065,2093,2057,2065,1196
1761,1716365259163645312,2056,2054,2050,2028,2056,2054,1196
1762,1716365259173642320,2056,2057,2053,2021,2037,2047,1195
1763,1716365259183645841,2066,2078,2078,2101,2076,2084,1198
1764,1716365259193646056,2058,2048,2056,2102,2076,2072,1197
1765,1716365259203646712,2050,2020,2062,2116,2080,2064,1197
1766,1716365259213666713,2058,2053,2059,2096,2074,2068,1196
1767,1716365259223649444,2049,2061,2053,2012,2055,2048,1196
1768,1716365259233646213,2060,2050,2052,2064,2056,2067,1196
1769,1716365259243645786,2054,2050,2053,2081,2047,2056,1197
1770,1716365259253643005,2061,2069,2066,2060,2052,2060,1198
1771,1716365259263643621,2049,2035,2026,2034,2040,2043,1195
1772,1716365259273643465,2058,2062,2078,2095,2047,2052,1197
1773,1716365259283643949,2054,2033,2047,2057,2064,2056,1196
1774,1716365259293643432,2056,2061,2056,2044,2054,2050,1196
1775,1716365259303646342,2048,2052,2049,2061,2057,2053,1195
1776,1716365259313645976,2053,2046,2040,2044,2029,2043,1193
1777,1716365259323647773,2054,2060,2064,2070,2050,2055,1195
1778,1716365259333646866,2066,2072,2075,2124,2045,2049,1196
1779,1716365259343646158,2053,2051,2045,2035,2068,2056,1197
1780,1716365259353644610,2058,2073,2062,2029,2043,2058,1197
1781,1716365259363646527,2052,2048,2057,2070,2076,2060,1198
1782,1716365259373645680,2056,2062,2052,2033,2050,2040,1192
1783,1716365259383643750,2041,2022,2044,2088,2071,2049,1195
1784,1716365259393646650,2058,2044,2062,2092,2085,2056,1198
1785,1716365259403640503,2056,2052,2051,1967,2066,2077,1197
1786,1716365259413647129,2060,2056,2040,1980,2008,2054,1197
1787,1716365259423661300,2062,2051,2042,2032,2083,2073,1196
1788,1716365259433643932,2055,2052,2052,1993,2053,2047,1194
1789,1716365259443641802,2054,2052,2056,2058,2064,2061,1194
1790,1716365259453641666,2060,2044,2047,1970,2036,2060,1195
1791,1716365259463643473,2057,2060,2064,2097,2066,2054,1196
1792,1716365259473642015,2056,2048,2060,1917,2010,2037,1194
1793,1716365259483642009,2053,2051,2053,2144,2078,2059,1196
1794,1716365259493643235,2064,2074,2052,2035,2041,2056,1196
1795,1716365259503658908,2044,2038,2044,2014,2052,2056,1193
1796,1716365259513643935,2052,2052,2049,2056,2040,2048,1197
1797,1716365259523641445,2047,2044,2048,2061,2029,2035,1192
1798,1716365259533642240,2058,2064,2076,1988,2043,2068,1196
1799,1716365259543641283,2057,2059,2069,2071,2052,2063,1195
1800,1716365259553641597,2050,2044,2044,2095,2080,2068,1196
1801,1716365259563640329,2054,2065,2060,1952,2044,2040,1194
1802,1716365259573641154,2058,2046,2043,2008,2018,2041,1193
1803,1716365259583644555,2062,2040,2047,2023,2042,2045,1194
1804,1716365259593641784,2056,2059,2060,2064,2053,2059,1196
1805,1716365259603644604,2052,2055,2059,2045,2088,2057,1197
1806,1716365259613643847,2070,2074,2087,2069,2049,2060,1197
1807,1716365259623641616,2061,2066,2056,2041,2060,2062,1196
1808,1716365259633646920,2055,2056,2053,2066,2060,2065,1196
1809,1716365259643646073,2050,2053,2066,2134,2077,2058,1196
1810,1716365259653658420,2059,2065,2068,2077,2057,2057,1197
1811,1716365259663642745,2053,2058,2052,2096,2046,2048,1196
1812,1716365259673644302,2057,2056,2065,2072,2054,2054,1196
1813,1716365259683643655,2050,2056,2048,2138,2064,2050,1194
1814,1716365259693643098,2059,2065,2077,2010,2032,2047,1193
1815,1716365259703649945,2056,2060,2058,2108,2060,2054,1195
1816,1716365259713646413,2060,2056,2045,2033,2031,2044,1195
1817,1716365259723648060,2052,2036,2052,2060,2039,2046,1192
1818,1716365259733646542,2064,2075,2065,2035,2036,2051,1199
1819,1716365259743646796,2049,2043,2036,1830,2013,2029,1195
1820,1716365259753665685,2053,2056,2053,2048,2024,2052,1197
1821,1716365259763638519,2047,2042,2050,2064,2053,2052,1197
1822,1716365259773643502,2062,2060,2049,2040,2040,2050,1198
1823,1716365259783646352,2048,2037,2046,2074,2054,2074,1196
1824,1716365259793646557,2056,2039,2044,2009,2069,2064,1198
1825,1716365259803640188,2057,2054,2037,2072,2028,2024,1193
1826,1716365259813639551,2061,2052,2056,2100,2038,2054,1198
1827,1716365259823638584,2053,2053,2056,2083,2079,2064,1196
1828,1716365259833646202,2061,2064,2065,2044,2052,2066,1195
1829,1716365259843646788,2047,2047,2051,2075,2045,2044,1192
1830,1716365259853660808,2066,2092,2089,2050,2033,2038,1192
1831,1716365259863638841,2050,2066,2061,2028,2036,2012,1193
1832,1716365259873646139,2056,2059,2062,2081,2058,2060,1196
1833,1716365259883637527,2048,2055,2061,2037,2049,2058,1194
1834,1716365259893646107,2053,2052,2054,2116,2061,2052,1196
1835,1716365259903640171,2054,2056,2056,2098,2044,1993,1195
1836,1716365259913643952,2057,2074,2062,2013,2059,2048,1197
1837,1716365259923644977,2047,2056,2042,2084,2053,2005,1194
1838,1716365259933648728,2061,2084,2075,2009,2048,2065,1194
1839,1716365259943645457,2056,2042,2038,2064,2054,2043,1193
1840,1716365259953665308,2056,2072,2061,1945,2030,2048,1196
1841,1716365259963640446,2055,2049,2057,2098,2067,2064,1197
1842,1716365259973639959,2054,2043,2044,2044,2044,2049,1197
1843,1716365259983645764,2049,2059,2077,2059,2052,2063,1195
1844,1716365259993645347,2058,2051,2053,2069,2049,2049,1196
1845,1716365260003640783,2059,2050,2048,2100,2067,2058,1196
1846,1716365260013645356,2057,2040,2052,2088,2047,2054,1196
1847,1716365260023645100,2044,2036,2036,2052,2057,2054,1194
1848,1716365260033645486,2058,2058,2051,2018,2047,2036,1194
1849,1716365260043643647,2056,2064,2074,2081,2077,2064,1196
1850,1716365260053646376,2054,2060,2044,2058,2042,2051,1197
1851,1716365260063645198,2049,2029,2043,2076,2064,2061,1196
1852,1716365260073644051,2054,2016,2036,2020,2047,2054,1195
1853,1716365260083636913,2066,2047,2051,2040,2073,2065,1195
1854,1716365260093645774,2056,2057,2063,2125,2050,2055,1197
1855,1716365260103658121,2051,2045,2045,2003,2047,2062,1197
1856,1716365260113652034,2059,2055,2065,2040,2031,2072,1197
1857,1716365260123648222,2052,2047,2041,2049,2086,2068,1197
1858,1716365260133645742,2056,2068,2069,2070,2052,2056,1197
1859,1716365260143648421,2064,2101,2074,1960,2067,2079,1195
1860,1716365260153643076,2064,2047,2059,2088,2052,2068,1196
1861,1716365260163646807,2056,2047,2053,2056,2056,2058,1197
1862,1716365260173643466,2053,2056,2058,2015,2017,2036,1193
1863,1716365260183643611,2052,2050,2059,2141,2065,2050,1195
1864,1716365260193648845,2058,2057,2072,2077,2037,2052,1197
1865,1716365260203642738,2053,2049,2061,2105,2066,2030,1195
1866,1716365260213650378,2055,2056,2065,2056,2048,2046,1194
1867,1716365260223642808,2056,2060,2065,1939,2052,2046,1192
1868,1716365260233639677,2052,2049,2055,2057,2042,2059,1196
1869,1716365260243645602,2050,2065,2056,2124,2068,2037,1192
1870,1716365260253645808,2064,2068,2069,2045,2029,2052,1196
1871,1716365260263646413,2053,2038,2045,2084,2065,2037,1194
1872,1716365260273643071,2059,2057,2056,2070,2051,2065,1196
1873,1716365260283646953,2061,2057,2056,2065,2074,2064,1192
1874,1716365260293646537,2068,2051,2064,2156,2076,2074,1195
1875,1716365260303662762,2053,2056,2053,2072,2058,2046,1194
1876,1716365260313646446,2066,2073,2059,2041,2057,2052,1195
1877,1716365260323643585,2059,2057,2041,2036,2069,2060,1196
1878,1716365260333641135,2047,2041,2050,2060,2051,2053,1195
1879,1716365260343646440,2057,2057,2057,2059,2059,2042,1196
1880,1716365260353643820,2065,2069,2058,2071,2043,2048,1198
1881,1716365260363648142,2057,2050,2069,2034,2053,2049,1196
1882,1716365260373640753,2061,2050,2052,2056,2069,2078,1195
1883,1716365260383644615,2060,2081,2070,2133,2094,2057,1196
1884,1716365260393644610,2061,2057,2046,2020,2041,2050,1197
1885,1716365260403649543,2055,2048,2053,2001,2069,2059,1197
1886,1716365260413641302,2056,2061,2068,2046,2050,2059,1197
1887,1716365260423644864,2056,2057,2041,2015,2036,2065,1196
1888,1716365260433647183,2064,2070,2068,2067,2040,2058,1197
1889,1716365260443657767,2046,2057,2048,2041,2059,2040,1193
1890,1716365260453641121,2060,2063,2054,1933,2007,2036,1195
1891,1716365260463643580,2051,2041,2049,2036,2041,2041,1192
1892,1716365260473643595,2058,2060,2053,1981,2021,2008,1194
1893,1716365260483643269,2052,2049,2049,1993,2076,2058,1193
1894,1716365260493663942,2057,2056,2066,2064,2047,2032,1194
1895,1716365260503643788,2057,2057,2061,2028,2028,2047,1194
1896,1716365260513647791,2053,2071,2056,2086,2046,2044,1192
1897,1716365260523647946,2056,2051,2061,2080,2085,2066,1196
1898,1716365260533647900,2045,2033,2037,2149,2056,2053,1196
1899,1716365260543647754,2049,2050,2060,1988,2056,2066,1197
1900,1716365260553641938,2047,2042,2046,2114,2044,2039,1193
1901,1716365260563643346,2052,2053,2054,2102,2083,2064,1195
1902,1716365260573645895,2053,2053,2047,2029,2011,1992,1194
1903,1716365260583643555,2052,2057,2059,2083,2068,2061,1197
1904,1716365260593652947,2053,2064,2073,2091,2049,2060,1197
1905,1716365260603642161,2045,2049,2054,1949,2053,2045,1197
1906,1716365260613648358,2072,2076,2070,2074,2042,2046,1194
1907,1716365260623643503,2051,2054,2053,2040,2066,2053,1197
1908,1716365260633656402,2052,2058,2060,2080,2045,2047,1193
1909,1716365260643642420,2050,2037,2057,2038,2071,2057,1196
1910,1716365260653641654,2062,2041,2046,2056,2036,2020,1192
1911,1716365260663642270,2051,2052,2053,2036,2073,2061,1197
1912,1716365260673645580,2067,2049,2042,2062,2040,2052,1196
1913,1716365260683645425,2057,2056,2052,1995,2081,2056,1195
1914,1716365260693643987,2056,2050,2050,2077,2043,2050,1197
1915,1716365260703643891,2050,2047,2053,2052,2060,2053,1195
1916,1716365260713650318,2061,2069,2063,2049,2042,2046,1193
1917,1716365260723649280,2050,2030,2047,2029,2056,2050,1196
1918,1716365260733642593,2056,2052,2050,2120,2052,1999,1192
1919,1716365260743642778,2052,2053,2052,2028,2056,2079,1195
1920,1716365260753644876,2052,2056,2056,2036,2024,2045,1195
1921,1716365260763644139,2047,2041,2041,2050,2051,2044,1192
1922,1716365260773663449,2065,2060,2046,1872,2024,2054,1195
1923,1716365260783646082,2056,2061,2064,2056,2057,2060,1197
1924,1716365260793648561,2048,2049,2050,2043,2045,2038,1194
1925,1716365260803645991,2056,2043,2061,2092,2072,2068,1195
1926,1716365260813642889,2054,2044,2057,2165,2077,2053,1197
1927,1716365260823643125,2056,2052,2061,2067,2072,2061,1197
1928,1716365260833643530,2056,2060,2062,2011,2020,2044,1194
1929,1716365260843645789,2045,2037,2037,1988,2049,2060,1196
1930,1716365260853643028,2060,2064,2064,2037,2057,2061,1197
1931,1716365260863642612,2056,2050,2066,2027,2064,2054,1197
1932,1716365260873640293,2060,2073,2084,2068,2037,2049,1196
1933,1716365260883643183,2049,2041,2047,2025,2059,2053,1195
1934,1716365260893642265,2064,2088,2063,2074,2065,2060,1194
1935,1716365260903643452,2050,2052,2050,2057,2078,2057,1195
1936,1716365260913640261,2068,2070,2063,2040,2025,1934,1193
1937,1716365260923642700,2049,2044,2047,2036,2072,2068,1197
1938,1716365260933640951,2060,2058,2060,2085,2039,2054,1196
1939,1716365260943640625,2056,2066,2049,2152,2059,2062,1196
1940,1716365260953640751,2054,2056,2055,2124,2057,2050,1196
1941,1716365260963643019,2049,2055,2064,2101,2077,2079,1195
1942,1716365260973643074,2055,2036,2049,2076,2036,2053,1198
1943,1716365260983642888,2057,2043,2050,2100,2072,2057,1193
1944,1716365260993641450,2055,2059,2061,1969,2034,2048,1197
1945,1716365261003643629,2052,2056,2065,2063,2090,2060,1198
1946,1716365261013658932,2066,2080,2056,2077,2021,2001,1197
1947,1716365261023640593,2044,2043,2047,1918,2032,2053,1195
1948,1716365261033641850,2056,2043,2061,2099,2044,2036,1194
1949,1716365261043663917,2057,2063,2072,2102,2084,2069,1197
1950,1716365261053645257,2054,2056,2056,2030,2024,2053,1195
1951,1716365261063642486,2058,2073,2065,2038,2072,2086,1197
1952,1716365261073647321,2048,2036,2040,2100,2042,2041,1194
1953,1716365261083647275,2058,2061,2065,2104,2078,2072,1194
1954,1716365261093692805,2058,2064,2066,2024,2042,2070,1197
1955,1716365261103685207,2058,2059,2054,2040,2072,2078,1195
1956,1716365261113685171,2057,2062,2060,2068,2050,2044,1194
1957,1716365261123683073,2057,2061,2069,2092,2080,2059,1196
1958,1716365261133683729,2053,2047,2053,2030,2035,2053,1197
1959,1716365261143680287,2062,2082,2050,2067,2065,2049,1195
1960,1716365261153680473,2060,2060,2052,2056,2051,2034,1192
1961,1716365261163680568,2056,2057,2061,2075,2075,2068,1195
1962,1716365261173677878,2065,2068,2060,2088,2034,1980,1195
1963,1716365261183678805,2053,2048,2042,2022,2056,2048,1197
1964,1716365261193679581,2049,2048,2052,2031,2044,2046,1196
1965,1716365261203676040,2047,2028,2051,2048,2072,2052,1198
1966,1716365261213676236,2054,2050,2053,2100,2060,2062,1197
1967,1716365261223674176,2061,2050,2053,1991,2050,2064,1196
1968,1716365261233673681,2059,2058,2058,2082,2049,2054,1198
1969,1716365261243674368,2054,2050,2049,2010,2046,2070,1198
1970,1716365261253671286,2055,2054,2064,2022,2033,2050,1198
1971,1716365261263672033,2064,2060,2074,2098,2068,2054,1195
1972,1716365261273669783,2054,2052,2049,2082,2036,2040,1193
1973,1716365261283669087,2058,2069,2058,2082,2078,2064,1194
1974,1716365261293669013,2062,2074,2073,1935,2005,2036,1193
1975,1716365261303666663,2052,2047,2054,2053,2069,2058,1196
1976,1716365261313667119,2060,2056,2045,2065,2038,2049,1196
1977,1716365261323667104,2057,2044,2052,2033,2069,2060,1196
1978,1716365261333666428,2056,2049,2056,2042,2042,2022,1193
1979,1716365261343665050,2059,2059,2050,2059,2077,2072,1197
1980,1716365261353661970,2058,2063,2056,2042,2047,2054,1198
1981,1716365261363662465,2054,2051,2054,2036,2073,2044,1194
1982,1716365261373668562,2055,2055,2053,2056,2018,2048,1195
1983,1716365261383662686,2060,2059,2072,2156,2080,2072,1197
1984,1716365261393663703,2059,2060,2065,2028,2022,2051,1198
1985,1716365261403661815,2047,2050,2051,2058,2068,2057,1194
1986,1716365261413661238,2062,2061,2068,2134,2045,2024,1192
1987,1716365261423662446,2053,2044,2041,2026,2064,2052,1197
1988,1716365261433662902,2056,2054,2057,2028,2033,2033,1193
1989,1716365261443663337,2056,2064,2072,2011,2074,2057,1198
1990,1716365261453661730,2048,2037,2034,2033,2001,2025,1194
1991,1716365261463661744,2054,2048,2052,2009,2068,2060,1197
1992,1716365261473666358,2057,2057,2060,2015,2040,2064,1198
1993,1716365261483661475,2049,2064,2065,2225,2085,2065,1194
1994,1716365261493666138,2056,2045,2042,2016,2019,2044,1194
1995,1716365261503663659,2052,2060,2051,2057,2056,2033,1194
1996,1716365261513661420,2057,2043,2052,2144,2076,2088,1196
1997,1716365261523663618,2044,2022,2042,2068,2078,2053,1195
1998,1716365261533646322,2071,2065,2056,2088,2045,2056,1197
1999,1716365261543650534,2053,2037,2027,2112,2065,2064,1197
2000,1716365261553647093,2068,2070,2058,1917,2012,2036,1197
2001,1716365261563647750,2045,2044,2040,2070,2056,2057,1198
2002,1716365261573645009,2049,2047,2058,2046,2035,2046,1194
2003,1716365261583647910,2053,2050,2064,2037,2048,2056,1195
2004,1716365261593653275,2055,2058,2049,2041,2065,2056,1198
2005,1716365261603647469,2053,2053,2060,2015,2068,2058,1198
2006,1716365261613647103,2050,2052,2053,2082,2024,2052,1196
2007,1716365261623646988,2054,2045,2046,2046,2069,2069,1197
2008,1716365261633647935,2054,2068,2067,2115,2056,2047,1194
2009,1716365261643617163,2040,2036,2052,2080,2077,2047,1193
2010,1716365261653649037,2066,2066,2058,2014,1991,2015,1192
2011,1716365261663648992,2056,2052,2049,2080,2090,2075,1199
2012,1716365261673649598,2060,2057,2056,2069,2044,2052,1196
2013,1716365261683647750,2055,2056,2060,2004,2038,2023,1192
2014,1716365261693648406,2052,2052,2053,2052,2029,2044,1194
2015,1716365261703649563,2049,2032,2040,2054,1968,2040,1192
2016,1716365261713649638,2072,2064,2053,2041,2061,2052,1196
2017,1716365261723645095,2054,2047,2053,2067,2072,2074,1196
2018,1716365261733646963,2047,2052,2056,2096,2030,2050,1196
2019,1716365261743647440,2052,2037,2037,1932,2062,2061,1196
2020,1716365261753649919,2064,2064,2058,2104,2054,2062,1196
2021,1716365261763653120,2053,2054,2048,2037,2074,2047,1194
2022,1716365261773648206,2058,2061,2068,2062,2046,2056,1198
2023,1716365261783651547,2050,2045,2057,2059,2065,2056,1196
2024,1716365261793650250,2064,2081,2066,2083,2049,2047,1198
2025,1716365261803651538,2049,2039,2047,2059,2064,2074,1195
2026,1716365261813648857,2048,2056,2058,2068,2029,2054,1197
2027,1716365261823655806,2056,2044,2046,2107,2074,2053,1197
2028,1716365261833650080,2064,2047,2064,2013,2034,2048,1196
2029,1716365261843651698,2059,2061,2060,2108,2070,2068,1196
2030,1716365261853649379,2054,2056,2061,2090,2045,2050,1197
2031,1716365261863650135,2063,2044,2041,2036,2040,2058,1196
2032,1716365261873650160,2052,2051,2049,2030,2028,2027,1192
2033,1716365261883650276,2056,2054,2068,2031,2095,2076,1196
2034,1716365261893647826,2047,2047,2056,2108,2042,2049,1197
2035,1716365261903647771,2054,2050,2047,2060,2063,2045,1193
2036,1716365261913649700,2056,2054,2056,2005,2034,2045,1194
2037,1716365261923650516,2054,2069,2073,2188,2083,2062,1196
2038,1716365261933649419,2051,2024,2044,2130,2045,2039,1193
2039,1716365261943668621,2056,2040,2042,2034,2068,2065,1197
2040,1716365261953647516,2044,2032,2034,2054,2029,2031,1192
2041,1716365261963649745,2052,2064,2066,2024,2088,2096,1197
2042,1716365261973648567,2054,2046,2061,2100,2051,2032,1193
2043,1716365261983682947,2059,2053,2057,2067,2080,2059,1195
2044,1716365261993682602,2052,2051,2057,2057,2035,2046,1196
2045,1716365262003680903,2050,2036,2058,2056,2087,2067,1197
2046,1716365262013678545,2045,2044,2056,2047,2046,2042,1192
2047,1716365262023678641,2046,2031,2044,2046,2064,2056,1195
2048,1716365262033680490,2059,2063,2068,2093,2047,2062,1196
2049,1716365262043673913,2061,2056,2053,2079,2079,2077,1195
2050,1716365262053674059,2053,2050,2054,2037,2032,2058,1197
2051,1716365262063677290,2062,2052,2057,2149,2074,2060,1195
2052,1716365262073676093,2046,2052,2053,2073,2032,2052,1195
2053,1716365262083675157,2056,2053,2058,1994,2080,2066,1195
2054,1716365262093672257,2059,2062,2059,2068,2036,2043,1191
2055,1716365262103669658,2050,2056,2052,2018,2053,2057,1198
2056,1716365262113668852,2053,2059,2050,2070,2032,2052,1196
2057,1716365262123669338,2055,2050,2056,2062,2070,2066,1197
2058,1716365262133668883,2048,2053,2062,1957,2042,2068,1196
2059,1716365262143675591,2056,2057,2045,2077,2058,2052,1196
2060,1716365262153664937,2062,2075,2064,2068,2051,2033,1194
2061,1716365262163667678,2049,2046,2052,2093,2077,2056,1197
2062,1716365262173664888,2057,2060,2065,2081,2067,2055,1195
2063,1716365262183664543,2056,2049,2048,2104,2076,2065,1197
2064,1716365262193662184,2059,2062,2055,2067,2025,2045,1194
2065,1716365262203664123,2055,2052,2047,2111,2069,2069,1197
2066,1716365262213644993,2056,2065,2057,2078,2031,2045,1196
2067,1716365262223661860,2048,2044,2053,2063,2065,2065,1199
2068,1716365262233660663,2056,2044,2059,2108,2050,2047,1193
2069,1716365262243664826,2055,2050,2053,2042,2082,2070,1197
2070,1716365262253658230,2054,2064,2047,2087,2045,2066,1196
2071,1716365262263657384,2050,2047,2044,2074,2067,2062,1197
2072,1716365262273655295,2053,2061,2053,2060,2031,2037,1194
2073,1716365262283660711,2053,2061,2072,2128,2052,2005,1193
2074,1716365262293655196,2049,2046,2056,2096,2054,2064,1195
2075,1716365262303651805,2056,2052,2052,2050,2070,2057,1197
2076,1716365262313652572,2070,2061,2065,2113,2036,2047,1194
2077,1716365262323650193,2063,2072,2064,1981,2053,2062,1197
2078,1716365262333652883,2058,2037,2045,2058,2034,2053,1195
2079,1716365262343647078,2056,2065,2068,1982,2069,2056,1198
2080,1716365262353647945,2055,2057,2060,2102,2064,2058,1197
2081,1716365262363649453,2056,2069,2084,2085,2060,2070,1196
2082,1716365262373646012,2049,2040,2042,1988,2028,2040,1192
2083,1716365262383646960,2057,2052,2059,2047,2076,2063,1196
2084,1716365262393644290,2050,2048,2040,2010,2032,2036,1195
2085,1716365262403646079,2061,2047,2056,2057,2071,2060,1196
2086,1716365262413646535,2054,2053,2057,2104,2033,2053,1197
2087,1716365262423646651,2052,2044,2052,2097,2071,2045,1195
2088,1716365262433642278,2056,2055,2062,2112,2050,2045,1193
2089,1716365262443641102,2060,2062,2059,2045,2080,2062,1196
2090,1716365262453643882,2052,2056,2052,2036,2026,2051,1197
2091,1716365262463680286,2056,2038,2053,2026,2052,2066,1197
2092,1716365262473643963,2060,2056,2058,2030,2044,2060,1196
2093,1716365262483661922,2059,2053,2062,2040,2074,2066,1195
2094,1716365262493643924,2052,2051,2057,2064,2024,2032,1194
2095,1716365262503643509,2054,2044,2041,2148,2086,2072,1198
2096,1716365262513641711,2053,2042,2046,2096,2042,2055,1196
2097,1716365262523676953,2050,2060,2073,2063,2072,2053,1195
2098,1716365262533642284,2057,2045,2048,2092,2048,2057,1195
2099,1716365262543689588,2052,2049,2049,2088,2052,2052,1197
2100,1716365262553645030,2053,2053,2052,2068,2030,2060,1196
2101,1716365262563647420,2052,2040,2048,2096,2071,2063,1197
2102,1716365262573643378,2053,2056,2047,2079,2045,2047,1195
2103,1716365262583674792,2056,2052,2061,2070,2090,2076,1197
2104,1716365262593639211,2056,2040,2052,2085,2040,2045,1197
2105,1716365262603666958,2058,2037,2049,2064,2059,2022,1192
2106,1716365262613642869,2060,2056,2052,2090,2043,2054,1197
2107,1716365262623644798,2052,2051,2045,2024,2077,2064,1195
2108,1716365262633651656,2060,2055,2047,2057,2039,2050,1197
2109,1716365262643641954,2051,2064,2070,1956,2069,2074,1197
2110,1716365262653662638,2060,2062,2056,2069,2037,2044,1192
2111,1716365262663641774,2053,2052,2052,2100,2056,2054,1196
2112,1716365262673642311,2064,2082,2068,2037,2046,2062,1195
2113,1716365262683642827,2056,2073,2061,2017,2053,2060,1194
2114,1716365262693640528,2058,2055,2049,2028,2034,2036,1192
2115,1716365262703644611,2047,2041,2048,2036,2069,2057,1196
2116,1716365262713640860,2058,2059,2056,1992,2036,2049,1194
2117,1716365262723642368,2057,2061,2054,2064,2060,2057,1197
2118,1716365262733650088,2064,2052,2057,2025,2041,2049,1196
2119,1716365262743666684,2054,2056,2042,2033,2072,2064,1197
2120,1716365262753657773,2053,2061,2054,2053,2036,2057,1196
2121,1716365262763661406,2061,2058,2063,2085,2064,2073,1197
2122,1716365262773642045,2054,2070,2056,2097,2056,2058,1196
2123,1716365262783660445,2064,2045,2050,2028,2059,2052,1197
2124,1716365262793640603,2064,2057,2062,2056,2032,2062,1202
2125,1716365262803642542,2056,2056,2065,2018,2088,2075,1196
2126,1716365262813647327,2067,2076,2081,2078,2057,2048,1199
2127,1716365262823662029,2052,2056,2053,2076,2080,2067,1198
2128,1716365262833654571,2056,2065,2053,2009,2016,2040,1195
2129,1716365262843646852,2057,2053,2051,2114,2061,2060,1197
2130,1716365262853646317,2052,2054,2056,2090,2036,2065,1197
2131,1716365262863646332,2056,2069,2062,2101,2074,2084,1196
2132,1716365262873642340,2057,2060,2062,2088,2054,2043,1194
2133,1716365262883647265,2051,2044,2048,2077,2071,2056,1194
2134,1716365262893642533,2060,2077,2056,2088,2056,2053,1195
2135,1716365262903642358,2045,2034,2055,2108,2080,2064,1196
2136,1716365262913641982,2058,2048,2056,2023,2027,2043,1193
2137,1716365262923646737,2053,2046,2062,1965,2055,2046,1193
2138,1716365262933645911,2053,2046,2036,2075,2036,2050,1196
2139,1716365262943639063,2066,2037,2047,2041,2061,2069,1198
2140,1716365262953641584,2053,2060,2066,2005,2038,2035,1193
2141,1716365262963641789,2053,2051,2056,2076,2058,2057,1195
2142,1716365262973642156,2060,2058,2061,1988,2031,2074,1197
2143,1716365262983649805,2049,2050,2060,2032,2045,2053,1199
2144,1716365262993642247,2060,2069,2068,2006,2043,2064,1197
2145,1716365263003644356,2057,2038,2048,2060,2076,2067,1198
2146,1716365263013642438,2056,2061,2057,2074,2040,2032,1195
2147,1716365263023645279,2052,2037,2056,2006,2088,2081,1197
2148,1716365263033643883,2055,2049,2051,2141,2036,2024,1194
2149,1716365263043647315,2052,2053,2047,2131,2078,2085,1196
2150,1716365263053642071,2049,2056,2050,2050,2040,2038,1194
2151,1716365263063644341,2050,2053,2060,2098,2068,2057,1197
2152,1716365263073643356,2058,2058,2056,2040,2037,2056,1197
2153,1716365263083646688,2064,2065,2070,2046,2081,2093,1193
2154,1716365263093643127,2051,2049,2060,2117,2036,2051,1195
2155,1716365263103648503,2056,2060,2056,2046,2051,2047,1193
2156,1716365263113641225,2061,2068,2057,2162,2056,2066,1196
2157,1716365263123649517,2055,2043,2058,2164,2068,2067,1197
2158,1716365263133632761,2052,2060,2047,1989,2046,2052,1197
2159,1716365263143642445,2052,2048,2054,2072,2062,2057,1198
2160,1716365263153646529,2047,2040,2040,1969,2000,2008,1193
2161,1716365263163642777,2057,2059,2069,2136,2104,2070,1197
2162,1716365263173646611,2056,2058,2067,2042,2073,2062,1193
2163,1716365263183645745,2061,2056,2052,2108,2084,2038,1195
2164,1716365263193642806,2070,2059,2065,1968,2061,2062,1199
2165,1716365263203640888,2064,2047,2056,2114,2109,2077,1199
2166,1716365263213646113,2064,2068,2072,2121,2029,2038,1195
2167,1716365263223643104,2061,2068,2070,2032,2093,2073,1194
2168,1716365263233660702,2033,2026,2056,2172,2057,2021,1195
2169,1716365263243644058,2054,2050,2064,2129,2097,2070,1198
2170,1716365263253648682,2042,2042,2048,2090,2024,2029,1194
2171,1716365263263640774,2050,2045,2044,2040,2066,2078,1196
2172,1716365263273641380,2044,2040,2041,1996,2051,2045,1193
2173,1716365263283653119,2056,2049,2071,2136,2075,2065,1196
2174,1716365263293645140,2062,2058,2049,1897,1997,2053,1197
2175,1716365263303646748,2068,2053,2057,2028,2162,2102,1196
2176,1716365263313644460,2049,2059,2077,1893,1960,2054,1195
2177,1716365263323658352,2060,2050,2041,2098,2100,2086,1196
2178,1716365263333644092,2053,2064,2075,2071,2042,2056,1197
2179,1716365263343648505,2064,2051,2050,1991,2082,2093,1195
2180,1716365263353644594,2060,2061,2073,2139,2074,2049,1197
2181,1716365263363645362,2053,2052,2049,2132,2069,2045,1193
2182,1716365263373646910,2062,2060,2062,2120,2057,2045,1192
2183,1716365263383668256,2044,2049,2047,2040,2034,2051,1197
2184,1716365263393642474,2043,2041,2036,1940,2021,2041,1196
2185,1716365263403642119,2053,2045,2052,2014,2089,2068,1196
2186,1716365263413648347,2052,2056,2059,2047,2020,2032,1193
2187,1716365263423646789,2051,2053,2043,1970,2080,2069,1198
2188,1716365263433646646,2048,2043,2035,1969,2024,2038,1195
2189,1716365263443646100,2061,2070,2071,2041,2080,2065,1196
2190,1716365263453642410,2061,2073,2075,2040,2050,2060,1196
2191,1716365263463641263,2055,2079,2069,2077,2058,2013,1193
2192,1716365263473641210,2052,2053,2042,1981,2001,2031,1196
2193,1716365263483652426,2053,2063,2055,2032,2064,2057,1195
2194,1716365263493654385,2072,2064,2067,2079,2052,2053,1198
2195,1716365263503639434,2056,2048,2047,2029,2064,2046,1192
2196,1716365263513645531,2051,2028,2027,2030,2039,2044,1192
2197,1716365263523646218,2053,2046,2060,2128,2077,2070,1197
2198,1716365263533647546,2053,2056,2058,2065,2050,2058,1196
2199,1716365263543644878,2056,2062,2054,2029,2084,2053,1194
2200,1716365263553620678,2054,2062,2057,2067,2044,2038,1194
2201,1716365263563642174,2052,2064,2060,2036,2069,2056,1195
2202,1716365263573643904,2046,2054,2061,2088,2049,2050,1198
2203,1716365263583644150,2053,2037,2060,2008,2034,2041,1192
2204,1716365263593641241,2049,2051,2059,2184,2053,2046,1194
2205,1716365263603641817,2056,2052,2061,2168,2080,2047,1193
2206,1716365263613639629,2072,2066,2064,2001,2043,2064,1196
2207,1716365263623648963,2062,2056,2059,2035,2069,2066,1196
2208,1716365263633641885,2053,2056,2052,2047,2033,2038,1193
2209,1716365263643642222,2057,2088,2076,2084,2081,2078,1194
2210,1716365263653641566,2040,2037,2046,2058,2040,2045,1192
2211,1716365263663644689,2050,2062,2081,1973,2056,2046,1194
2212,1716365263673644284,2051,2045,2048,2093,2044,2055,1195
