seq,time,data[0],data[1],data[2],data[3],data[4],data[5],data[6]
201,1713857022224133561,2053,2050,2043,2055,2052,2058,1196
202,1713857022234134324,2057,2073,2086,2060,2057,2053,1196
203,1713857022244132361,2055,2047,2029,2038,2046,2052,1196
204,1713857022254118953,2056,2065,2086,2057,2056,2055,1195
205,1713857022264139740,2056,2054,2045,2060,2054,2054,1193
206,1713857022274137066,2053,2062,2058,2056,2060,2056,1198
207,1713857022284140956,2056,2044,2031,2054,2047,2056,1200
208,1713857022294105971,2050,2047,2044,2052,2040,2050,1195
209,1713857022304135798,2056,2052,2047,2058,2059,2055,1195
210,1713857022314130789,2058,2073,2152,2082,2067,2054,1197
211,1713857022324135199,2053,2045,2054,2057,2050,2054,1196
212,1713857022334136484,2052,2045,2024,2065,2056,2052,1197
213,1713857022344134230,2061,2068,2064,2056,2052,2055,1196
214,1713857022354129492,2048,2052,2069,2048,2038,2044,1195
215,1713857022364135456,2050,2040,2042,2053,2072,2055,1197
216,1713857022374133694,2052,2043,2044,2047,2049,2048,1197
217,1713857022384135038,2053,2042,2037,2052,2051,2054,1197
218,1713857022394125810,2061,2064,2061,2056,2059,2053,1195
219,1713857022404134780,2056,2052,2036,2050,2053,2057,1196
220,1713857022414131235,2050,2049,2041,2058,2055,2049,1195
221,1713857022424134643,2053,2044,2051,2062,2063,2053,1197
222,1713857022434131047,2058,2075,2136,2062,2078,2053,1197
223,1713857022444137081,2053,2054,2046,2052,2042,2057,1195
224,1713857022454131180,2053,2051,2037,2059,2056,2051,1196
225,1713857022464091524,2058,2052,2034,2057,2061,2055,1195
226,1713857022474135854,2054,2051,2038,2052,2054,2051,1194
227,1713857022484138450,2056,2050,2074,2055,2052,2056,1197
228,1713857022494141329,2051,2042,2028,2049,2046,2054,1193
229,1713857022504145108,2058,2054,2020,2057,2056,2052,1196
230,1713857022514124434,2056,2072,2128,2061,2060,2051,1197
231,1713857022524131712,2056,2050,2047,2045,2056,2055,1196
232,1713857022534132544,2056,2050,2056,2054,2058,2053,1197
233,1713857022544137076,2055,2049,2056,2016,2043,2056,1197
234,1713857022554120912,2052,2044,2036,2056,2054,2053,1195
235,1713857022564134293,2061,2060,2057,2039,2046,2056,1198
236,1713857022574131638,2056,2053,2049,2058,2072,2052,1197
237,1713857022584137403,2056,2059,2080,2056,2051,2056,1196
238,1713857022594125237,2048,2046,2056,2053,2044,2053,1195
239,1713857022604134660,2061,2056,2048,2056,2052,2057,1196
240,1713857022614131504,2047,2043,2053,2019,2049,2051,1198
241,1713857022624135685,2056,2056,2046,2068,2060,2056,1196
242,1713857022634137029,2048,2033,2010,2056,2047,2049,1195
243,1713857022644146041,2061,2056,2034,2058,2056,2056,1196
244,1713857022654143968,2046,2042,2036,2050,2056,2052,1196
245,1713857022664147217,2060,2052,2040,2056,2047,2054,1193
246,1713857022674132585,2057,2053,2034,2052,2050,2051,1196
247,1713857022684134632,2056,2049,2061,2061,2051,2058,1194
248,1713857022694135926,2049,2048,2084,2021,2053,2056,1197
249,1713857022704133773,2058,2062,2069,2052,2038,2056,1196
250,1713857022714132150,2050,2040,2035,2051,2051,2056,1198
251,1713857022724131080,2054,2050,2050,2057,2049,2057,1197
252,1713857022734136844,2053,2056,2072,2056,2049,2053,1198
253,1713857022744132456,2053,2052,2049,2050,2052,2056,1197
254,1713857022754133740,2052,2054,2044,2049,2047,2049,1197
255,1713857022764132740,2056,2060,2073,2072,2064,2057,1196
256,1713857022774130827,2058,2068,2109,2066,2059,2053,1197
257,1713857022784131841,2053,2035,2028,2046,2054,2055,1197
258,1713857022794135059,2056,2056,2041,2047,2052,2052,1197
259,1713857022804133868,2050,2038,2046,2058,2053,2052,1198
260,1713857022814133178,2056,2041,2058,2061,2057,2056,1196
261,1713857022824131035,2055,2047,2046,2061,2046,2054,1197
262,1713857022834107765,2058,2056,2041,2064,2066,2053,1195
263,1713857022844137301,2053,2047,2039,2059,2034,2050,1198
264,1713857022854149420,2048,2042,2029,2056,2054,2053,1196
265,1713857022864144089,2062,2063,2048,2056,2053,2055,1193
266,1713857022874129970,2050,2052,2052,2051,2053,2050,1196
267,1713857022884134191,2054,2048,2037,2042,2050,2052,1195
268,1713857022894134392,2056,2058,2060,2061,2056,2056,1197
269,1713857022904135496,2052,2046,2042,2042,2033,2050,1198
270,1713857022914132401,2061,2058,2041,2059,2049,2052,1196
271,1713857022924135489,2053,2049,2036,2052,2056,2053,1196
272,1713857022934133677,2057,2060,2051,2054,2054,2052,1197
273,1713857022944135432,2057,2047,2043,2058,2056,2057,1197
274,1713857022954132718,2052,2041,2045,2065,2053,2048,1197
275,1713857022964135084,2061,2058,2066,2036,2047,2052,1198
276,1713857022974135026,2055,2056,2052,2056,2061,2052,1196
277,1713857022984136059,2053,2056,2043,2044,2045,2052,1197
278,1713857022994136332,2049,2040,2040,2044,2060,2053,1196
279,1713857023004139640,2057,2056,2042,2061,2054,2059,1196
280,1713857023014142955,2054,2065,2104,2062,2052,2056,1197
281,1713857023024147504,2060,2066,2060,2043,2052,2052,1196
282,1713857023034134746,2053,2050,2043,2061,2053,2053,1196
283,1713857023044136711,2060,2061,2006,2069,2059,2058,1198
284,1713857023054132162,2057,2053,2054,2059,2056,2049,1194
285,1713857023064136722,2054,2049,2045,2054,2052,2055,1193
286,1713857023074131691,2052,2048,2040,2050,2049,2053,1198
287,1713857023084135079,2056,2065,2081,2055,2034,2053,1197
288,1713857023094133726,2060,2068,2100,2069,2056,2053,1197
289,1713857023104134708,2059,2073,2056,2060,2052,2057,1195
290,1713857023114130369,2057,2056,2078,2067,2059,2053,1197
291,1713857023124136884,2056,2050,2044,2056,2062,2055,1199
292,1713857023134132525,2052,2055,2033,2048,2049,2051,1196
293,1713857023144136534,2052,2053,2035,2060,2059,2054,1196
294,1713857023154132957,2049,2036,2024,2050,2041,2047,1193
295,1713857023164133928,2061,2068,2058,2060,2052,2056,1198
296,1713857023174131503,2055,2054,2057,2052,2060,2052,1196
297,1713857023184135282,2056,2050,2039,2057,2058,2052,1198
298,1713857023194144834,2053,2052,2047,2060,2050,2052,1197
299,1713857023204136977,2056,2051,2048,2056,2049,2054,1197
300,1713857023214140014,2058,2060,2069,2058,2047,2053,1196
301,1713857023224143692,2057,2063,2085,2056,2050,2059,1195
302,1713857023234130202,2057,2058,2063,2054,2058,2056,1194
303,1713857023244150588,2051,2040,2023,2046,2048,2053,1196
304,1713857023254131596,2060,2068,2084,2076,2082,2054,1195
305,1713857023264134273,2052,2037,2024,2076,2050,2053,1194
306,1713857023274131206,2054,2053,2052,2050,2056,2057,1196
307,1713857023284134795,2054,2052,2046,2055,2052,2052,1195
308,1713857023294137781,2058,2060,2048,2056,2054,2056,1197
309,1713857023304142211,2053,2048,2033,2056,2056,2056,1194
310,1713857023314134935,2053,2048,2045,2054,2049,2056,1197
311,1713857023324134254,2057,2065,2054,2056,2058,2053,1196
312,1713857023334133333,2057,2061,2035,2056,2056,2050,1197
313,1713857023344134065,2056,2056,2070,2056,2053,2056,1196
314,1713857023354136180,2059,2074,2096,2060,2056,2053,1197
315,1713857023364139357,2052,2052,2021,2054,2055,2050,1196
316,1713857023374147114,2060,2064,2091,2070,2058,2058,1197
317,1713857023384150171,2050,2054,2050,2061,2054,2055,1195
318,1713857023394142004,2056,2056,2038,2056,2059,2051,1196
319,1713857023404140310,2056,2053,2057,2058,2066,2056,1196
320,1713857023414140411,2053,2038,2036,2068,2056,2052,1196
321,1713857023424158481,2050,2043,2026,2054,2053,2061,1195
322,1713857023434141122,2054,2045,2028,2059,2051,2045,1193
323,1713857023444136523,2060,2054,2037,2053,2049,2043,1194
324,1713857023454133767,2054,2043,2042,2050,2040,2052,1196
325,1713857023464154543,2060,2068,2082,2061,2060,2065,1194
326,1713857023474138328,2055,2045,2040,2060,2049,2049,1195
327,1713857023484144612,2052,2052,2045,2051,2050,2050,1196
328,1713857023494128758,2054,2055,2056,2064,2045,2053,1196
329,1713857023504117923,2057,2069,2086,2056,2057,2057,1195
330,1713857023514139852,2051,2039,2040,2062,2057,2052,1197
331,1713857023524136916,2052,2045,2008,2062,2061,2064,1198
332,1713857023534137358,2059,2058,2032,2062,2049,2058,1196
333,1713857023544135113,2050,2041,2052,2052,2052,2047,1193
334,1713857023554137439,2072,2080,2163,2067,2052,2059,1195
335,1713857023564138892,2058,2056,2040,2047,2055,2053,1196
336,1713857023574141778,2056,2046,2017,2053,2050,2035,1194
337,1713857023584151480,2062,2060,2061,2059,2061,2045,1195
338,1713857023594156301,2060,2043,2014,2046,2053,2047,1194
339,1713857023604152884,2090,2095,2157,2076,2063,2064,1196
340,1713857023614132550,2059,2092,2172,2068,2052,2056,1196
341,1713857023624135296,2052,2040,2033,2056,2048,2044,1193
342,1713857023634129935,2041,2035,2009,2053,2035,2064,1196
343,1713857023644104368,2048,2062,2077,2064,2045,1991,1194
344,1713857023654138564,2067,2043,2056,2042,2046,2048,1197
345,1713857023664134595,2067,2072,1988,2056,2066,2058,1196
346,1713857023674141050,2057,2059,2117,2054,2052,2050,1198
347,1713857023684135097,2054,2047,2016,2052,2065,2088,1195
348,1713857023694092213,2070,2058,2082,2059,2037,2041,1192
349,1713857023704137293,2065,2080,2104,2073,2068,2070,1197
350,1713857023714138565,2050,2047,2028,2062,2044,2033,1192
351,1713857023724141823,2072,2100,2212,2077,2062,1997,1193
352,1713857023734147576,2047,2042,1987,2046,2046,2047,1195
353,1713857023744148499,2054,2059,2037,2052,2037,2042,1193
354,1713857023754136423,2050,2043,2002,2056,2061,2061,1196
355,1713857023764134739,2044,2043,2004,2054,2052,2051,1197
356,1713857023774134128,2056,2076,2177,2064,2053,2044,1192
357,1713857023784136593,2058,2054,2007,2050,2059,2080,1197
358,1713857023794133958,2049,2040,2016,2046,2061,2077,1197
359,1713857023804139731,2052,2069,2116,2061,2064,2069,1197
360,1713857023814135833,2046,2026,2002,2032,2043,2069,1196
361,1713857023824137437,2073,2086,2140,2085,2094,2100,1195
362,1713857023834141316,2057,2056,2047,2045,2029,2034,1195
363,1713857023844133639,2084,2056,2030,2063,2069,2052,1197
364,1713857023854134621,2046,2052,2037,2062,2090,2058,1197
365,1713857023864134972,2033,2037,2021,2042,2050,2057,1197
366,1713857023874140304,2066,2093,2109,2060,2052,2057,1197
367,1713857023884130463,2056,2036,2006,2052,2053,2068,1197
368,1713857023894154958,2059,2066,2131,2053,2032,2029,1192
369,1713857023904136868,2052,2030,1999,2044,2081,2026,1194
370,1713857023914142802,2045,2039,2040,2043,2050,2048,1197
371,1713857023924137540,2054,2044,2084,2054,2056,2064,1197
372,1713857023934143583,2058,2044,2074,2041,2052,2083,1196
373,1713857023944145458,2052,2045,2031,2061,2058,2025,1194
374,1713857023954149718,2057,2077,2128,2059,2061,2059,1196
375,1713857023964135126,2056,2054,1973,2061,2046,1994,1193
376,1713857023974139767,2053,2036,2007,2043,2045,2020,1194
377,1713857023984137773,2057,2057,2052,2068,2076,2058,1198
378,1713857023994127981,2056,2051,2052,2065,2065,2054,1194
379,1713857024004138915,2063,2072,2130,2077,2067,2062,1195
380,1713857024014142309,2043,2042,2051,2082,2049,2038,1195
381,1713857024024135362,2073,2042,2006,2055,2054,2032,1194
382,1713857024034137385,2040,2027,1979,2038,2057,2065,1196
383,1713857024044141012,2035,2033,2022,2049,2052,2056,1195
384,1713857024054138374,2058,2054,2014,2055,2045,2049,1196
385,1713857024064139506,2050,2057,2082,2059,2050,2045,1193
386,1713857024074137610,2077,2122,2187,2123,2060,2053,1196
387,1713857024084138641,2078,2078,2132,2065,2071,2076,1194
388,1713857024094142297,2044,2027,2022,2046,2049,2058,1196
389,1713857024104146395,2060,2082,2104,2062,2051,2081,1196
390,1713857024114135520,2077,2082,2130,2062,2060,2076,1195
391,1713857024124135959,2077,2073,2152,2064,2058,2049,1195
392,1713857024134143103,2052,2081,2164,2078,2045,2040,1195
393,1713857024144112233,2056,2047,2021,2056,2059,2043,1192
394,1713857024154138961,2060,2050,2061,2047,2037,2037,1193
395,1713857024164137777,2064,2075,2094,2064,2047,2062,1194
396,1713857024174122051,2057,2066,2117,2065,2050,2060,1198
397,1713857024184140971,2057,2077,2172,2064,2060,2077,1197
398,1713857024194138404,2072,2121,2184,2088,2069,2072,1196
399,1713857024204139936,2052,2049,2038,2057,2047,2066,1197
400,1713857024214136277,2050,2047,2036,2052,2034,2049,1194
401,1713857024224139242,2047,2045,2048,2046,2051,2049,1195
402,1713857024234137847,2066,2084,2104,2064,2048,2061,1197
403,1713857024244140020,2058,2067,2042,2057,2060,2048,1195
404,1713857024254137012,2063,2049,2034,2057,2050,2069,1194
405,1713857024264137071,2058,2056,2114,2072,2052,2072,1193
406,1713857024274136729,2037,2029,1992,2046,2041,2049,1196
407,1713857024284138952,2057,2060,2035,2057,2059,2057,1195
408,1713857024294142709,2062,2082,2109,2060,2048,2052,1198
409,1713857024304146476,2065,2081,2129,2056,2069,2100,1196
410,1713857024314149492,2048,2044,2059,2062,2053,2064,1197
411,1713857024324135719,2064,2042,2023,2047,2052,2060,1194
412,1713857024334136660,2056,2027,1971,2044,2069,2059,1196
413,1713857024344124582,2052,2049,2056,2047,2045,2051,1195
414,1713857024354137358,2052,2067,2033,2057,2053,2050,1195
415,1713857024364138269,2066,2063,2041,2060,2057,2056,1197
416,1713857024374136975,2053,2068,2085,2064,2047,2047,1194
417,1713857024384146554,2053,2044,2037,2057,2053,2059,1197
418,1713857024394178203,2058,2033,2004,2044,2045,2041,1195
419,1713857024404137692,2052,2047,2060,2051,2066,2067,1197
420,1713857024414137881,2048,2042,2038,2056,2048,2109,1197
421,1713857024424184733,2049,2040,2062,2047,2057,2059,1196
422,1713857024434139942,2054,2075,2134,2075,2056,2056,1196
423,1713857024444143890,2053,2054,2085,2057,2059,2060,1196
424,1713857024454148989,2056,2052,2072,2053,2050,2049,1196
425,1713857024464149419,2052,2048,2085,2048,2049,2047,1192
426,1713857024474153978,2061,2068,2064,2069,2053,2064,1196
427,1713857024484152774,2043,2036,2012,2038,2045,2072,1196
428,1713857024494157382,2056,2048,2042,2052,2043,2034,1195
429,1713857024504155607,2053,2048,2046,2052,2061,2056,1195
430,1713857024514157660,2068,2080,2139,2065,2047,2054,1196
431,1713857024524165286,2051,2048,2040,2044,2056,2052,1196
432,1713857024534166527,2057,2077,2151,2044,2049,2047,1193
433,1713857024544161203,2072,2082,2099,2056,2057,2069,1196
434,1713857024554169901,2048,2053,2061,2052,2047,2045,1192
435,1713857024564170090,2045,2034,2005,2053,2055,2069,1197
436,1713857024574173206,2047,2062,2109,2064,2045,2061,1196
437,1713857024584146214,2058,2050,2041,2052,2056,2058,1196
438,1713857024594144038,2054,2047,2031,2053,2048,2052,1196
439,1713857024604147424,2056,2060,2012,2052,2058,2057,1196
440,1713857024614148075,2057,2045,2034,2056,2047,2054,1197
441,1713857024624146630,2046,2036,2012,2045,2048,2045,1194
442,1713857024634137738,2073,2105,2176,2075,2060,2061,1198
443,1713857024644149082,2057,2049,2052,2058,2053,2040,1193
444,1713857024654148459,2063,2076,2157,2060,2046,2036,1194
445,1713857024664138406,2027,2012,1987,2032,2048,2037,1192
446,1713857024674153488,2046,2041,2031,2052,2049,2069,1196
447,1713857024684154137,2052,2049,2045,2053,2056,2055,1195
448,1713857024694144715,2057,2039,2036,2059,2049,2058,1196
449,1713857024704146638,2051,2039,2059,2061,2057,2052,1196
450,1713857024714147860,2053,2030,2018,2043,2056,2071,1196
451,1713857024724147537,2035,2020,2004,2032,2052,2044,1192
452,1713857024734146714,2112,2180,2437,2125,2060,2049,1196
453,1713857024744147023,2049,2034,2026,2047,2053,2040,1196
454,1713857024754147322,2052,2036,2024,2054,2040,2038,1191
455,1713857024764147762,2060,2068,2046,2060,2069,2085,1196
456,1713857024774170450,2045,2041,2022,2044,2046,2043,1195
457,1713857024784157260,2051,2053,2042,2047,2058,2056,1197
458,1713857024794158601,2082,2136,2372,2103,2059,2084,1196
459,1713857024804163080,2043,2038,2046,2032,2054,2052,1195
460,1713857024814161004,2052,2031,1997,2050,2049,2050,1196
461,1713857024824163438,2040,2056,2076,2063,2057,2063,1196
462,1713857024834166332,2066,2056,2048,2056,2049,2062,1196
463,1713857024844170179,2054,2038,2008,2036,2061,2056,1196
464,1713857024854170879,2071,2087,2129,2087,2054,2044,1195
465,1713857024864174947,2047,2050,2036,2042,2053,2064,1195
466,1713857024874137573,2056,2045,1996,2053,2044,2049,1194
467,1713857024884138524,2045,2028,1987,2040,2053,2057,1197
468,1713857024894137309,2062,2065,2073,2063,2043,2045,1193
469,1713857024904138000,2056,2069,2085,2058,2061,2052,1194
470,1713857024914140103,2059,2061,2131,2066,2056,2064,1196
471,1713857024924137867,2040,2053,2052,2045,2042,2046,1193
472,1713857024934136592,2043,2030,2026,2064,2034,2037,1193
473,1713857024944138244,2065,2060,2058,2053,2060,2040,1195
474,1713857024954139165,2037,2026,1948,2042,2045,2047,1196
475,1713857024964137420,2056,2052,2038,2056,2058,2045,1193
476,1713857024974136045,2061,2065,2105,2082,2065,2075,1198
477,1713857024984140343,2064,2057,2114,2056,2036,1992,1194
478,1713857024994135240,2047,2050,2092,2045,2040,2044,1195
479,1713857025004138516,2064,2070,2091,2072,2067,2069,1198
480,1713857025014141716,2051,2053,2066,2058,2036,2063,1195
481,1713857025024145601,2044,2031,2034,2064,2056,2057,1198
482,1713857025034149466,2055,2064,2053,2050,2055,2074,1198
483,1713857025044152358,2050,2060,2044,2053,2072,2042,1193
484,1713857025054136159,2058,2049,2060,2047,2041,2035,1192
485,1713857025064137147,2052,2047,2027,2052,2051,2053,1195
486,1713857025074142054,2074,2081,2149,2061,2057,2108,1196
487,1713857025084140908,2070,2119,2197,2072,2061,2043,1194
488,1713857025094144833,2068,2064,2080,2067,2046,2044,1196
489,1713857025104139949,2047,2039,2030,2053,2058,2072,1197
490,1713857025114133981,2046,2028,1989,2031,2031,1964,1193
491,1713857025124136253,2056,2043,1964,2056,2065,2066,1195
492,1713857025134114079,2048,2056,2037,2051,2055,2042,1194
493,1713857025144137558,2064,2052,2056,2078,2061,2064,1195
494,1713857025154139698,2050,2033,2020,2045,2045,2047,1196
495,1713857025164142261,2032,2021,1962,2028,2053,2049,1197
496,1713857025174146556,2066,2071,2041,2066,2056,2057,1198
497,1713857025184150351,2039,2032,1974,2037,2052,2080,1197
498,1713857025194135484,2054,2050,2045,2066,2047,2078,1197
499,1713857025204141333,2060,2056,2061,2050,2053,2049,1196
500,1713857025214134655,2056,2028,1996,2043,2033,2033,1196
501,1713857025224138750,2078,2073,2048,2048,2049,2045,1192
502,1713857025234137123,2056,2079,2120,2072,2056,2059,1197
503,1713857025244139003,2056,2059,2108,2045,2056,2042,1195
504,1713857025254136213,2036,2014,1985,2041,2040,2040,1192
505,1713857025264137522,2061,2071,2037,2056,2063,2064,1194
506,1713857025274134111,2064,2081,2138,2084,2047,2044,1194
507,1713857025284139699,2054,2040,2001,2042,2051,2057,1196
508,1713857025294135707,2067,2094,2165,2068,2060,2065,1197
509,1713857025304137266,2050,2052,2088,2052,2056,2036,1194
510,1713857025314136792,2072,2104,2142,2092,2056,2065,1196
511,1713857025324134071,2049,2037,2007,2044,2060,2056,1196
512,1713857025334132895,2055,2044,2045,2051,2045,2048,1197
513,1713857025344135978,2069,2070,2048,2059,2069,2064,1195
514,1713857025354135784,2062,2058,2076,2058,2047,2052,1195
515,1713857025364138887,2048,2040,2023,2044,2056,2050,1196
516,1713857025374144746,2070,2117,2210,2074,2053,2061,1197
517,1713857025384150395,2062,2048,2055,2057,2056,2038,1193
518,1713857025394115775,2052,2044,2019,2056,2046,2051,1196
519,1713857025404134092,2057,2057,2088,2061,2053,2056,1198
520,1713857025414135290,2046,2038,2058,2046,2047,2053,1196
521,1713857025424133403,2059,2062,2043,2064,2059,2060,1199
522,1713857025434133849,2046,2044,2013,2059,2033,2020,1194
523,1713857025444132152,2073,2117,2289,2088,2080,2091,1196
524,1713857025454139955,2045,2031,2025,2051,2045,2024,1194
525,1713857025464135612,2056,2064,2164,2056,2060,2036,1191
526,1713857025474139065,2063,2054,2053,2064,2044,2047,1193
527,1713857025484135975,2053,2054,2048,2054,2058,2056,1194
528,1713857025494137043,2058,2036,2027,2046,2048,2051,1196
529,1713857025504144516,2052,2042,2008,2056,2053,2054,1196
530,1713857025514142528,2049,2037,2016,2061,2044,2052,1195
531,1713857025524143577,2053,2039,2009,2037,2052,2049,1194
532,1713857025534149787,2056,2056,2057,2064,2056,2060,1195
533,1713857025544135211,2045,2036,2028,2049,2049,2046,1192
534,1713857025554136249,2053,2025,2006,2055,2040,2046,1189
535,1713857025564134561,2050,2046,2054,2044,2045,2040,1193
536,1713857025574135831,2052,2032,2047,2054,2052,2066,1196
537,1713857025584139475,2049,2057,2074,2062,2058,2082,1195
538,1713857025594146617,2054,2042,2015,2047,2040,2044,1191
539,1713857025604139467,2052,2042,2025,2044,2060,2069,1196
540,1713857025614135896,2052,2042,2041,2065,2048,2044,1194
541,1713857025624135982,2046,2062,2082,2051,2060,2050,1196
542,1713857025634140107,2058,2059,2041,2042,2050,2056,1195
543,1713857025644135503,2056,2068,2100,2048,2054,2044,1196
544,1713857025654139669,2048,2040,2044,2051,2050,2054,1197
545,1713857025664136728,2068,2102,2178,2058,2064,2059,1193
546,1713857025674136725,2054,2057,2065,2053,2045,2037,1192
547,1713857025684135658,2061,2051,2073,2058,2067,2065,1194
548,1713857025694138711,2053,2037,2030,2061,2037,2046,1193
549,1713857025704133325,2047,2040,2020,2046,2059,2056,1193
550,1713857025714137531,2069,2074,2090,2037,2041,2050,1197
551,1713857025724140915,2040,2053,2104,2041,2064,2045,1193
552,1713857025734142013,2057,2050,2045,2061,2045,2052,1196
553,1713857025744131457,2072,2082,2129,2064,2069,2076,1196
554,1713857025754123625,2047,2021,1981,2045,2034,2066,1196
555,1713857025764134696,2049,2047,2056,2050,2061,2047,1193
556,1713857025774133529,2049,2032,2022,2045,2050,2048,1195
557,1713857025784134037,2044,2040,2027,2042,2054,2051,1196
558,1713857025794133782,2051,2075,2098,2058,2047,2016,1194
559,1713857025804134120,2053,2049,2029,2050,2052,2043,1195
560,1713857025814134676,2047,2023,1991,2033,2040,2044,1196
561,1713857025824135355,2060,2052,2040,2045,2069,2056,1197
562,1713857025834134228,2058,2054,2045,2049,2044,2045,1192
563,1713857025844137091,2054,2058,2043,2050,2064,2063,1193
564,1713857025854134121,2056,2048,2050,2070,2053,2073,1195
565,1713857025864138476,2054,2066,2108,2054,2061,2056,1195
566,1713857025874141008,2054,2041,2043,2052,2042,2049,1196
567,1713857025884144412,2064,2088,2152,2081,2065,2058,1195
568,1713857025894134737,2064,2042,2068,2053,2045,2048,1196
569,1713857025904133831,2044,2047,2038,2054,2061,2049,1196
570,1713857025914135250,2060,2036,2032,2040,2042,2052,1196
571,1713857025924134053,2062,2072,2097,2061,2066,2077,1195
572,1713857025934137327,2057,2049,2044,2054,2045,2047,1193
573,1713857025944135609,2048,2046,2038,2056,2064,2057,1195
574,1713857025954137300,2056,2049,2065,2071,2046,2053,1194
575,1713857025964136303,2046,2044,1992,2047,2050,2013,1195
576,1713857025974135719,2056,2029,1981,2052,2045,2050,1196
577,1713857025984136316,2075,2112,2122,2075,2068,2060,1198
578,1713857025994136934,2056,2047,2049,2058,2046,2031,1194
579,1713857026004135065,2051,2048,2051,2056,2061,2049,1196
580,1713857026014135968,2053,2054,2077,2062,2052,2059,1194
581,1713857026024135991,2053,2047,2028,2056,2060,2053,1193
582,1713857026034135945,2048,2029,2013,2046,2042,2050,1197
583,1713857026044134946,2052,2068,2052,2057,2064,2055,1195
584,1713857026054135881,2057,2045,2040,2045,2037,2050,1196
585,1713857026064136466,2048,2048,2010,2058,2063,2043,1192
586,1713857026074140237,2050,2035,2018,2050,2045,2054,1194
587,1713857026084143006,2060,2066,2090,2061,2060,2040,1194
588,1713857026094146768,2042,2036,2025,2045,2050,2049,1194
589,1713857026104132210,2060,2076,2096,2048,2059,2051,1194
590,1713857026114136963,2050,2045,2029,2059,2043,2051,1196
591,1713857026124134762,2057,2049,2030,2054,2064,2058,1196
592,1713857026134136249,2056,2057,2090,2081,2041,2057,1195
593,1713857026144133796,2053,2036,2032,2052,2062,2056,1195
594,1713857026154135112,2056,2051,2045,2060,2038,2054,1195
595,1713857026164136068,2056,2076,2141,2068,2070,2062,1195
596,1713857026174135259,2052,2047,2045,2058,2041,2060,1195
597,1713857026184136145,2054,2061,2064,2053,2062,2056,1197
598,1713857026194135216,2052,2044,2048,2052,2044,2056,1196
599,1713857026204135751,2060,2066,2045,2044,2053,2049,1196
600,1713857026214137037,2062,2064,2162,2056,2053,2062,1196
601,1713857026224140006,2054,2051,2032,2030,2054,2056,1196
602,1713857026234144499,2052,2044,2036,2021,2047,2056,1195
603,1713857026244147339,2065,2061,2053,2066,2058,2059,1197
604,1713857026254136729,2066,2038,2042,2056,2042,2034,1192
605,1713857026264134778,2045,2044,2057,2040,2060,2002,1192
606,1713857026274135183,2048,2045,2044,2052,2046,2062,1197
607,1713857026284135667,2050,2057,2049,2032,2059,2042,1196
608,1713857026294136763,2035,2011,2008,2005,2044,2028,1194
609,1713857026304137347,2050,2041,2025,2057,2061,2054,1196
610,1713857026314136087,2046,2032,2012,2002,2036,2052,1197
611,1713857026324136341,2058,2056,2056,2076,2070,2058,1195
612,1713857026334133068,2052,2052,2054,2057,2045,2071,1199
613,1713857026344134174,2064,2094,2072,2097,2064,1992,1193
614,1713857026354132303,2046,2060,2053,2089,2068,2128,1197
615,1713857026364137007,2064,2064,2056,2033,2061,2049,1197
616,1713857026374133331,2060,2058,2042,2056,2041,2052,1196
617,1713857026384133054,2048,2040,1982,2025,2063,2047,1195
618,1713857026394135483,2056,2066,2092,2050,2037,2052,1196
619,1713857026404135707,2054,2050,2029,2041,2062,2052,1196
620,1713857026414137654,2048,2033,2015,2092,2044,2056,1197
621,1713857026424137938,2056,2064,2031,2060,2064,2053,1196
622,1713857026434123821,2056,2042,2029,2062,2041,2054,1195
623,1713857026444142846,2050,2052,2075,2043,2068,2053,1195
624,1713857026454147138,2049,2040,2045,2058,2047,2052,1196
625,1713857026464132760,2054,2051,2056,2020,2069,2049,1195
626,1713857026474133334,2052,2061,2098,2064,2046,2057,1195
627,1713857026484134621,2046,2051,2082,2038,2061,2052,1196
628,1713857026494111102,2057,2044,2030,2066,2050,2053,1195
629,1713857026504133956,2066,2067,2088,2042,2064,2052,1196
630,1713857026514136595,2043,2034,2025,2055,2041,2052,1196
631,1713857026524136107,2053,2055,2084,2078,2065,2052,1194
632,1713857026534136411,2056,2038,2038,2059,2039,2047,1193
633,1713857026544134320,2067,2107,2144,2076,2067,2064,1196
634,1713857026554135255,2057,2045,2030,2066,2045,2055,1195
635,1713857026564133795,2050,2068,2066,2057,2061,2042,1193
636,1713857026574136104,2044,2025,2037,2056,2040,2044,1194
637,1713857026584140738,2062,2064,2106,2063,2059,2052,1196
638,1713857026594153680,2056,2040,2017,2047,2043,2063,1196
639,1713857026604148992,2057,2069,2067,2059,2065,2045,1193
640,1713857026614136969,2064,2040,2002,2059,2042,2053,1195
641,1713857026624136862,2053,2048,2040,2053,2061,2056,1194
642,1713857026634136575,2061,2043,2014,2054,2048,2060,1197
643,1713857026644138242,2056,2061,2025,2047,2060,2044,1193
644,1713857026654137834,2046,2033,2011,2048,2024,2036,1192
645,1713857026664137758,2065,2045,2044,2041,2069,2048,1194
646,1713857026674136498,2053,2038,2029,2065,2046,2060,1195
647,1713857026684133274,2052,2060,2065,2051,2059,2032,1192
648,1713857026694139090,2056,2043,2046,2054,2045,2056,1193
649,1713857026704132799,2053,2049,2024,2047,2056,2044,1191
650,1713857026714133334,2061,2057,2020,2061,2048,2048,1194
651,1713857026724131784,2061,2085,2112,2059,2069,2060,1193
652,1713857026734133281,2055,2053,2072,2049,2041,2045,1194
653,1713857026744131992,2060,2064,2078,2053,2064,2057,1193
654,1713857026754135302,2059,2056,2049,2062,2045,2049,1197
655,1713857026764134132,2055,2061,2058,2047,2061,2039,1195
656,1713857026774134115,2043,2048,2045,2056,2047,2052,1197
657,1713857026784137917,2053,2050,2037,2057,2061,2046,1195
658,1713857026794141419,2057,2047,2069,2065,2043,2053,1196
659,1713857026804145190,2056,2040,2000,2052,2070,2065,1199
660,1713857026814131323,2053,2040,2048,2044,2033,2040,1193
661,1713857026824135175,2056,2060,2043,2057,2064,2045,1191
662,1713857026834133033,2058,2042,2036,2048,2045,2056,1197
663,1713857026844134630,2056,2061,2095,2056,2065,2058,1193
664,1713857026854132849,2060,2056,2045,2057,2046,2050,1197
665,1713857026864133374,2056,2053,2046,2049,2069,2056,1196
666,1713857026874135241,2068,2074,2100,2070,2053,2052,1196
667,1713857026884138943,2053,2052,2032,2052,2060,2053,1194
668,1713857026894135509,2054,2028,2021,2045,2037,2048,1195
669,1713857026904138329,2057,2075,2080,2061,2072,2060,1194
670,1713857026914134583,2056,2029,2002,2052,2029,2053,1196
671,1713857026924134346,2053,2056,2045,2053,2056,2045,1193
672,1713857026934138328,2065,2082,2182,2068,2043,2041,1194
673,1713857026944141729,2058,2070,2080,2056,2064,2064,1195
674,1713857026954146142,2047,2037,2053,2059,2042,2054,1194
675,1713857026964133287,2045,2044,2041,2048,2069,2057,1197
676,1713857026974136337,2072,2083,2109,2064,2049,2058,1195
677,1713857026984135849,2050,2045,2013,2057,2079,2065,1196
678,1713857026994140703,2056,2076,2155,2060,2045,2050,1197
679,1713857027004136457,2052,2041,2082,2053,2073,2075,1197
680,1713857027014137597,2053,2048,2070,2049,2037,2056,1196
681,1713857027024135272,2061,2072,2078,2046,2062,2045,1194
682,1713857027034151728,2047,2035,2014,2053,2036,2042,1192
683,1713857027044141746,2056,2040,2017,2056,2058,2061,1195
684,1713857027054150826,2058,2040,2033,2049,2041,2049,1198
685,1713857027064132956,2067,2053,2021,2053,2064,2048,1196
686,1713857027074130410,2054,2052,2050,2050,2048,2061,1197
687,1713857027084142838,2049,2034,2054,2057,2058,2046,1192
688,1713857027094148510,2056,2053,2072,2066,2054,2047,1194
689,1713857027104149002,2064,2082,2059,2056,2059,2068,1196
690,1713857027114206979,2043,2023,1980,2047,2036,2051,1197
691,1713857027124142116,2064,2068,2104,2065,2092,2056,1196
692,1713857027134145854,2050,2048,2066,2050,2064,2084,1195
693,1713857027144140853,2053,2052,2024,2049,2050,2047,1195
694,1713857027154144310,2061,2050,2059,2049,2020,2056,1196
695,1713857027164129197,2052,2072,2097,2060,2072,2061,1198
696,1713857027174131121,2049,2043,2048,2056,2056,2064,1195
697,1713857027184137414,2050,2044,2056,2045,2060,2052,1200
698,1713857027194132453,2056,2035,2027,2063,2041,2053,1195
699,1713857027204132734,2048,2050,2024,2038,2050,2052,1197
700,1713857027214147958,2046,2026,2001,2063,2045,2042,1195
701,1713857027224131190,2051,2043,2001,2054,2067,2065,1197
702,1713857027234130719,2053,2040,2066,2052,2024,2042,1192
703,1713857027244133065,2055,2061,2027,2046,2068,2029,1193
704,1713857027254133295,2052,2046,2064,2056,2035,2047,1192
705,1713857027264131480,2049,2052,2042,2052,2073,2051,1195
706,1713857027274129857,2052,2047,2024,2060,2045,2049,1195
707,1713857027284146454,2053,2062,2066,2060,2056,2060,1195
708,1713857027294144829,2061,2050,2042,2052,2040,2051,1194
709,1713857027304147726,2057,2057,2042,2050,2058,2044,1192
710,1713857027314168873,2069,2053,2066,2062,2057,2052,1196
711,1713857027324135299,2053,2075,2146,2067,2068,2026,1193
712,1713857027334141933,2056,2046,2034,2052,2035,2047,1191
713,1713857027344134446,2054,2053,2064,2060,2066,2054,1197
714,1713857027354135719,2062,2053,2073,2060,2045,2059,1195
715,1713857027364140730,2060,2077,2085,2056,2075,2056,1197
716,1713857027374140239,2051,2040,2036,2088,2056,2058,1196
717,1713857027384138405,2064,2049,2025,2043,2058,2055,1197
718,1713857027394139157,2050,2040,2034,2056,2040,2050,1196
719,1713857027404141421,2053,2049,2064,2059,2064,2053,1194
720,1713857027414160493,2052,2036,2058,2059,2042,2047,1194
721,1713857027424138174,2061,2073,2047,2056,2068,2064,1197
722,1713857027434141221,2056,2052,2066,2058,2050,2047,1194
723,1713857027444135006,2052,2044,2015,2042,2056,2044,1195
724,1713857027454138173,2062,2067,2081,2056,2045,2056,1195
725,1713857027464139426,2060,2064,2062,2062,2081,2084,1195
726,1713857027474141210,2049,2025,1991,2045,2044,2045,1193
727,1713857027484138303,2054,2043,2027,2050,2057,2054,1197
728,1713857027494142252,2048,2030,2047,2052,2043,2065,1194
729,1713857027504145249,2062,2080,2157,2058,2057,2048,1196
730,1713857027514149267,2047,2039,2047,2056,2048,2053,1196
731,1713857027524122598,2053,2051,2037,2050,2112,2032,1193
732,1713857027534100088,2053,2035,2024,2044,2034,2044,1193
733,1713857027544140147,2054,2057,2052,2050,2060,2042,1193
734,1713857027554129914,2057,2052,2056,2051,2052,2058,1197
735,1713857027564136138,2061,2081,2105,2060,2072,2051,1197
736,1713857027574136849,2048,2037,2026,2052,2040,2056,1196
737,1713857027584137621,2069,2066,2049,2057,2074,2071,1199
738,1713857027594139725,2057,2041,2056,2052,2024,1977,1194
739,1713857027604140567,2052,2066,2106,2054,2061,2015,1192
740,1713857027614137581,2077,2094,2204,2084,2064,2064,1196
741,1713857027624136969,2058,2060,2054,2053,2078,2040,1194
742,1713857027634137861,2060,2061,2012,2045,2039,2055,1198
743,1713857027644140847,2064,2088,2163,2066,2057,2061,1196
744,1713857027654144365,2059,2037,2030,2058,2044,2013,1195
745,1713857027664146900,2043,2036,1978,2047,2080,2056,1195
746,1713857027674129321,2071,2053,2052,2082,2063,2064,1196
747,1713857027684133110,2064,2053,2044,2056,2065,2072,1196
748,1713857027694133771,2049,2061,2129,2068,2045,2059,1197
749,1713857027704135124,2062,2083,2091,2058,2056,2040,1193
750,1713857027714137709,2052,2046,2046,2049,2041,1985,1195
751,1713857027724133009,2066,2088,2144,2063,2068,2065,1196
752,1713857027734133590,2050,2054,2108,2056,2041,2066,1195
753,1713857027744135013,2068,2083,2102,2057,2061,2048,1194
754,1713857027754133470,2060,2050,2053,2062,2040,2050,1196
755,1713857027764131997,2048,2042,1977,2059,2068,2048,1197
756,1713857027774135273,2070,2044,2003,2060,2026,1976,1194
757,1713857027784135383,2047,2054,2067,2050,2062,2041,1194
758,1713857027794135133,2056,2040,2021,2048,2036,2056,1196
759,1713857027804134201,2056,2075,2085,2061,2068,2057,1196
760,1713857027814135573,2063,2043,2002,2054,2048,2056,1200
761,1713857027824134872,2050,2047,2074,2060,2064,2036,1193
762,1713857027834134622,2033,2053,2141,2074,2052,2039,1193
763,1713857027844138119,2065,2052,2031,2061,2072,2104,1197
764,1713857027854140594,2056,2048,2081,2057,2040,2046,1194
765,1713857027864149815,2052,2056,2055,2047,2059,2047,1192
766,1713857027874130833,2049,2041,2007,2048,2044,2060,1195
767,1713857027884134420,2066,2091,2149,2037,2066,2095,1196
768,1713857027894134751,2060,2057,2076,2058,2044,2056,1196
769,1713857027904135593,2057,2059,2055,2053,2056,2048,1195
770,1713857027914132316,2056,2054,2047,2054,2044,2058,1197
771,1713857027924135903,2056,2069,2004,2060,2052,2045,1195
772,1713857027934135292,2060,2066,2075,2067,2050,2064,1195
773,1713857027944137587,2044,2053,2038,2052,2058,2070,1196
774,1713857027954159555,2063,2069,2085,2068,2047,2057,1197
775,1713857027964139721,2059,2069,2047,2050,2064,2053,1197
776,1713857027974134219,2051,2044,2056,2053,2036,2056,1196
777,1713857027984133868,2053,2052,2053,2053,2068,2053,1198
778,1713857027994142456,2052,2047,2053,2052,2041,2044,1193
779,1713857028004142801,2052,2060,2048,2052,2064,2053,1195
780,1713857028014115787,2056,2040,2046,2057,2036,2049,1196
781,1713857028024137191,2056,2043,2017,2052,2064,2050,1195
782,1713857028034134993,2059,2049,1996,2079,2040,2054,1196
783,1713857028044132734,2033,2051,2045,2050,2066,2037,1195
784,1713857028054135676,2065,2064,2071,2057,2039,2060,1196
785,1713857028064140242,2064,2091,2094,2051,2068,2050,1194
786,1713857028074130907,2057,2055,2067,2073,2042,2053,1197
787,1713857028084132827,2051,2038,2013,2045,2059,2052,1198
788,1713857028094135499,2070,2073,2179,2072,2049,2068,1195
789,1713857028104135174,2054,2056,2052,2046,2059,2048,1196
790,1713857028114134619,2065,2068,2132,2068,2046,2057,1196
791,1713857028124134074,2052,2046,2045,2046,2061,2056,1196
792,1713857028134140484,2067,2069,2142,2074,2056,2081,1197
793,1713857028144134767,2050,2037,1985,2051,2059,2057,1196
794,1713857028154125643,2053,2047,2025,2046,2041,2052,1194
795,1713857028164150343,2056,2082,2095,2054,2068,2059,1194
796,1713857028174153416,2053,2050,2056,2065,2046,2057,1196
797,1713857028184131905,2052,2050,2040,2057,2054,2053,1197
798,1713857028194135649,2060,2047,2064,2055,2052,2078,1197
799,1713857028204148132,2056,2054,2051,2046,2065,2062,1196
800,1713857028214143158,2057,2034,2013,2056,2054,2061,1195
801,1713857028224152464,2056,2061,2020,2050,2068,2052,1196
802,1713857028234130912,2049,2032,2032,2052,2064,2049,1197
803,1713857028244138294,2051,2053,2040,2033,2051,2052,1197
804,1713857028254133069,2073,2060,2020,2056,2039,2072,1198
805,1713857028264130629,2048,2045,2009,2037,2060,2037,1194
806,1713857028274130045,2058,2029,2026,2044,2040,2041,1193
807,1713857028284130852,2056,2067,2074,2072,2123,2058,1196
808,1713857028294131610,2073,2096,2261,2089,2058,2064,1195
809,1713857028304132006,2042,2049,2043,2047,2057,2051,1195
810,1713857028314135660,2053,2041,2042,2056,2042,2056,1196
811,1713857028324137270,2052,2057,2047,2050,2074,1988,1193
812,1713857028334140763,2072,2080,2120,2075,2057,2077,1197
813,1713857028344142363,2057,2070,2083,2049,2058,2041,1193
814,1713857028354148743,2048,2034,2039,2040,2029,2050,1196
815,1713857028364151054,2059,2073,2072,2046,2073,2041,1193
816,1713857028374154618,2047,2040,2003,2057,2032,2035,1194
817,1713857028384152269,2057,2058,2012,2049,2050,2060,1198
818,1713857028394159320,2056,2053,2032,2046,2035,2054,1198
819,1713857028404159136,2064,2076,2049,2056,2066,2067,1196
820,1713857028414159572,2053,2052,2050,2063,2042,2046,1196
821,1713857028424162696,2050,2049,2120,2056,2056,2047,1193
822,1713857028434174798,2060,2053,2084,2074,2047,2056,1198
823,1713857028444172268,2050,2050,2024,2045,2073,2104,1196
824,1713857028454142499,2058,2063,2114,2060,2036,2046,1196
825,1713857028464141042,2057,2075,2088,2053,2065,2060,1195
826,1713857028474143433,2050,2037,2033,2064,2043,2056,1198
827,1713857028484142897,2056,2056,2037,2052,2064,2053,1196
828,1713857028494143775,2065,2060,2132,2062,2031,2049,1195
829,1713857028504145164,2052,2090,2192,2068,2060,2069,1194
830,1713857028514145030,2058,2046,2033,2053,2033,2047,1194
831,1713857028524144154,2053,2058,2050,2054,2062,2049,1195
832,1713857028534141344,2057,2041,2041,2054,2042,2061,1195
833,1713857028544143304,2058,2051,2034,2059,2066,2040,1192
834,1713857028554141426,2046,2041,2047,2055,2041,2048,1196
835,1713857028564141963,2049,2056,2043,2056,2060,2047,1193
836,1713857028574138651,2056,2044,2057,2061,2045,2056,1198
837,1713857028584140171,2052,2054,2058,2050,2060,2052,1200
838,1713857028594172428,2057,2048,2052,2076,2048,2047,1197
839,1713857028604148000,2044,2040,2014,2042,2071,2046,1193
840,1713857028614146713,2057,2056,2060,2056,2042,2041,1193
841,1713857028624149917,2051,2054,2081,2054,2060,2049,1196
842,1713857028634150524,2049,2033,2003,2046,2045,2056,1198
843,1713857028644154137,2049,2047,2064,2035,2072,2050,1197
844,1713857028654155546,2064,2074,2132,2062,2045,2055,1196
845,1713857028664159381,2045,2052,2042,2045,2052,2066,1195
846,1713857028674162554,2053,2041,2060,2063,2041,2037,1194
847,1713857028684164264,2057,2047,2040,2051,2060,2052,1195
848,1713857028694166605,2054,2028,2038,2052,2044,2057,1196
849,1713857028704170550,2060,2062,2066,2049,2068,2053,1197
850,1713857028714172149,2056,2044,2069,2061,2046,2056,1195
851,1713857028724175172,2054,2058,2070,2051,2062,2049,1194
852,1713857028734134016,2058,2041,2033,2057,2048,2057,1197
853,1713857028744139855,2041,2045,2021,2050,2068,2040,1195
854,1713857028754133858,2056,2054,2070,2064,2073,2089,1197
855,1713857028764140368,2057,2065,2086,2053,2060,2041,1193
856,1713857028774133810,2055,2047,2039,2056,2043,2049,1196
857,1713857028784136953,2056,2065,2096,2053,2070,2062,1197
858,1713857028794136538,2063,2054,2093,2061,2046,2063,1198
859,1713857028804136664,2050,2050,2064,2053,2056,2046,1193
860,1713857028814147003,2048,2036,1973,2047,2034,2054,1196
861,1713857028824108744,2045,2031,1979,2037,2056,2041,1193
862,1713857028834119714,2054,2031,2044,2058,2040,2045,1195
863,1713857028844140436,2054,2058,2058,2050,2052,2048,1198
864,1713857028854138598,2054,2045,2044,2054,2046,2056,1197
865,1713857028864136750,2049,2046,2032,2035,2048,2038,1193
866,1713857028874132837,2061,2061,2111,2052,2052,2077,1196
867,1713857028884136491,2051,2052,2023,2057,2056,2042,1194
868,1713857028894136387,2054,2042,2058,2057,2045,2054,1197
869,1713857028904139670,2059,2048,2010,2047,2068,2053,1197
870,1713857028914143584,2062,2077,2129,2058,2051,2064,1195
871,1713857028924147319,2045,2054,2025,2052,2056,2060,1196
872,1713857028934133304,2058,2049,2047,2061,2041,2050,1197
873,1713857028944137129,2049,2060,2051,2054,2061,2048,1195
874,1713857028954133166,2059,2036,2048,2051,2040,2050,1196
875,1713857028964136699,2046,2053,2014,2057,2066,2066,1197
876,1713857028974134580,2055,2042,2028,2047,2040,2047,1193
877,1713857028984135949,2048,2049,2052,2047,2060,2054,1197
878,1713857028994135163,2056,2044,2029,2055,2075,2056,1196
879,1713857029004138080,2054,2051,2042,2048,2057,2046,1193
880,1713857029014134875,2050,2040,2048,2057,2040,2057,1195
881,1713857029024138293,2060,2073,2080,2052,2062,2047,1195
882,1713857029034135860,2048,2032,2032,2060,2047,2056,1196
883,1713857029044137324,2046,2047,2028,2044,2064,2048,1198
884,1713857029054141425,2060,2041,2054,2059,2037,2052,1198
885,1713857029064147270,2057,2059,2059,2059,2067,2052,1195
886,1713857029074148093,2048,2047,2041,2046,2036,2036,1193
887,1713857029084135918,2068,2102,2193,2070,2081,2092,1196
888,1713857029094133774,2052,2039,2040,2052,2042,2049,1196
889,1713857029104137655,2052,2052,2049,2052,2059,2054,1197
890,1713857029114136643,2058,2056,2064,2062,2046,2054,1196
891,1713857029124137848,2053,2057,2028,2036,2065,2050,1195
892,1713857029134144724,2054,2051,2044,2040,2029,2046,1196
893,1713857029144133411,2044,2034,2013,2040,2062,2052,1198
894,1713857029154136420,2058,2050,2064,2064,2043,2056,1196
895,1713857029164133003,2056,2056,2055,2052,2068,2053,1195
896,1713857029174136001,2043,2044,2069,2059,2036,2048,1195
897,1713857029184135531,2065,2065,2056,2057,2102,2058,1198
898,1713857029194133539,2073,2058,2026,2059,2047,2061,1194
899,1713857029204133961,2047,2072,2064,2048,2064,2051,1197
900,1713857029214133782,2057,2045,2037,2058,2042,2056,1197
901,1713857029224132872,2048,2076,2051,2048,2069,2057,1196
902,1713857029234133364,2052,2038,2009,2049,2045,2077,1197
903,1713857029244135812,2054,2056,2022,2049,2061,2044,1193
904,1713857029254140252,2054,2050,2049,2056,2038,2053,1193
905,1713857029264142519,2060,2070,2040,2061,2076,2053,1193
906,1713857029274145998,2056,2043,2048,2057,2039,2057,1193
907,1713857029284131969,2057,2058,2059,2056,2069,2053,1196
908,1713857029294132392,2063,2070,2108,2061,2040,2068,1195
909,1713857029304136492,2060,2075,2114,2058,2061,2056,1196
910,1713857029314114355,2040,2032,2006,2057,2031,2040,1194
911,1713857029324139080,2056,2054,2012,2042,2064,2057,1196
912,1713857029334130543,2056,2028,2058,2061,2037,2054,1195
913,1713857029344137349,2064,2089,2094,2067,2076,2054,1197
914,1713857029354134986,2052,2040,2034,2041,2041,2050,1195
915,1713857029364135368,2056,2060,2071,2054,2060,2043,1193
916,1713857029374134307,2052,2052,2032,2072,2051,2076,1199
917,1713857029384134911,2051,2050,2065,2051,2054,2057,1195
918,1713857029394139271,2047,2041,2082,2058,2044,2057,1195
919,1713857029404141097,2052,2074,2102,2052,2063,2047,1193
920,1713857029414143874,2066,2066,2079,2069,2038,2061,1195
921,1713857029424147274,2056,2054,2038,2053,2072,2054,1196
922,1713857029434133585,2055,2056,2082,2064,2042,2057,1198
923,1713857029444142687,2053,2056,2055,2047,2057,2047,1195
924,1713857029454141686,2056,2058,2067,2056,2082,2076,1196
925,1713857029464135022,2052,2045,2035,2048,2065,2068,1196
926,1713857029474141048,2052,2044,2065,2060,2040,2053,1195
927,1713857029484136559,2068,2069,2042,2061,2072,2052,1194
928,1713857029494133223,2049,2036,2032,2047,2029,2056,1194
929,1713857029504140581,2056,2060,2052,2062,2067,2052,1196
930,1713857029514140593,2052,2036,2007,2048,2038,2052,1198
931,1713857029524138700,2055,2064,1988,2053,2062,2044,1193
932,1713857029534137027,2056,2050,2064,2053,2047,2056,1196
933,1713857029544109869,2057,2093,2196,2066,2056,2038,1192
934,1713857029554144938,2050,2035,2016,2053,2042,2057,1197
935,1713857029564144088,2050,2059,2076,2040,2050,2040,1193
936,1713857029574132253,2049,2037,2018,2056,2040,2050,1197
937,1713857029584133347,2046,2036,1963,2048,2058,2054,1197
938,1713857029594143882,2041,2024,1991,2030,2035,2053,1194
939,1713857029604143923,2055,2041,1993,2036,2042,2043,1195
940,1713857029614143474,2056,2056,2059,2058,2032,2057,1194
941,1713857029624146031,2057,2050,2012,2050,2056,2045,1193
942,1713857029634131851,2043,2044,2050,2062,2046,2061,1196
943,1713857029644132644,2059,2051,2039,2031,2030,2053,1195
944,1713857029654139922,2060,2053,2120,2045,2013,2061,1195
945,1713857029664135253,2057,2061,2072,2056,2068,2048,1196
946,1713857029674133150,2060,2059,2107,2069,2048,2058,1199
947,1713857029684134966,2054,2069,2076,2060,2062,2051,1196
948,1713857029694138535,2050,2036,1995,2060,2040,2061,1196
949,1713857029704133656,2048,2045,1981,2056,2061,2044,1193
950,1713857029714132925,2048,2036,2020,2056,2044,2064,1196
951,1713857029724137397,2057,2067,2036,2053,2064,2064,1197
952,1713857029734133139,2040,2036,2016,2044,2026,2037,1193
953,1713857029744136147,2068,2081,2041,2054,2080,2069,1196
954,1713857029754139557,2047,2046,2066,2056,2012,2049,1193
955,1713857029764144218,2061,2068,2090,2054,2096,2063,1197
956,1713857029774131672,2052,2054,2092,2056,2029,2046,1194
957,1713857029784135191,2058,2094,2212,2086,2081,2075,1196
958,1713857029794131615,2070,2046,2032,2046,2025,2038,1193
959,1713857029804131807,2050,2060,2048,2056,2072,2056,1197
960,1713857029814134394,2045,2054,2092,2067,2039,2049,1196
961,1713857029824135037,2045,2036,2005,2052,2064,2051,1197
962,1713857029834133705,2068,2053,2024,2052,2052,2088,1197
963,1713857029844140202,2057,2068,2094,2057,2060,2048,1197
964,1713857029854131403,2066,2064,2096,2069,2035,2052,1196
965,1713857029864123167,2061,2063,2050,2050,2059,2055,1194
966,1713857029874133220,2041,2026,1976,2039,2033,2040,1195
967,1713857029884136158,2066,2045,2010,2044,2076,2055,1198
968,1713857029894136892,2060,2053,2090,2071,2045,2056,1196
969,1713857029904135911,2049,2053,2045,2055,2069,2054,1196
970,1713857029914134900,2058,2084,2171,2090,2048,2060,1197
971,1713857029924136144,2058,2049,2085,2042,2061,2049,1196
972,1713857029934135324,2051,2037,2049,2056,2044,2052,1195
973,1713857029944138422,2054,2064,2056,2057,2067,2044,1194
974,1713857029954093695,2065,2054,2061,2062,2051,2072,1197
975,1713857029964142264,2056,2060,2060,2053,2076,2052,1199
976,1713857029974146104,2035,2031,2028,2055,2037,2064,1196
977,1713857029984132295,2056,2087,2171,2066,2069,2082,1195
978,1713857029994135624,2072,2075,2120,2074,2052,2058,1196
979,1713857030004137002,2054,2068,2085,2066,2081,2065,1195
980,1713857030014132789,2061,2056,2015,2048,2046,2058,1194
981,1713857030024136674,2055,2077,2116,2058,2053,2049,1197
982,1713857030034133333,2045,2058,2052,2060,2027,2032,1193
983,1713857030044135815,2054,2056,2069,2041,2056,2041,1196
984,1713857030054135681,2066,2064,2100,2069,2045,2059,1197
985,1713857030064136219,2052,2057,2042,2050,2064,2053,1196
986,1713857030074134332,2060,2056,2082,2060,2045,2065,1197
987,1713857030084136102,2034,2026,1916,2040,2059,2033,1194
988,1713857030094137141,2041,2025,1977,2047,2025,2040,1194
989,1713857030104140165,2050,2047,2012,2053,2088,2054,1195
990,1713857030114142486,2069,2080,2130,2082,2037,2050,1197
991,1713857030124145720,2045,2032,2011,2045,2069,2060,1198
992,1713857030134137749,2062,2016,1992,2056,2054,2042,1194
993,1713857030144133816,2054,2068,2074,2050,2080,2072,1196
994,1713857030154134424,2049,2064,2057,2053,2047,2084,1197
995,1713857030164135744,2053,2057,2038,2052,2067,2052,1200
996,1713857030174135389,2050,2036,2028,2061,2024,2048,1196
997,1713857030184115031,2051,2071,2061,2061,2059,2046,1195
998,1713857030194137006,2060,2045,2030,2049,2032,2045,1193
999,1713857030204099810,2066,2114,2211,2078,2063,2056,1196
1000,1713857030214139766,2060,2060,2084,2045,2037,2076,1197
1001,1713857030224135272,2063,2073,2080,2056,2065,2066,1197
1002,1713857030234136933,2061,2052,2057,2038,2034,2058,1194
1003,1713857030244135877,2043,2049,1985,2034,2053,2045,1195
1004,1713857030254134059,2057,2078,2134,2061,2040,2009,1192
1005,1713857030264135188,2058,2096,2154,2056,2073,2039,1192
1006,1713857030274136438,2064,2037,1982,2050,2042,2073,1198
1007,1713857030284134700,2050,2040,1964,2041,2060,2056,1195
1008,1713857030294135489,2070,2049,2047,2062,2038,2088,1197
1009,1713857030304139113,2050,2048,2034,2053,2069,2059,1197
1010,1713857030314143149,2066,2068,2078,2067,2043,2054,1197
1011,1713857030324146593,2038,2049,2029,2042,2068,2072,1196
1012,1713857030334113225,2051,2034,2039,2071,2032,2048,1197
1013,1713857030344137586,2053,2058,2133,2057,2055,2038,1194
1014,1713857030354121437,2048,2037,1981,2048,2048,2107,1195
1015,1713857030364136006,2052,2061,2048,2044,2072,2049,1198
1016,1713857030374133948,2075,2104,2202,2084,2041,2057,1196
1017,1713857030384136190,2045,2037,1955,2033,2065,2018,1194
1018,1713857030394134212,2052,2044,2040,2033,2028,2047,1193
1019,1713857030404137476,2068,2072,2111,2057,2067,2049,1195
1020,1713857030414112958,2052,2042,2049,2062,2051,2079,1196
1021,1713857030424132538,2050,2057,2056,2028,2051,2064,1196
1022,1713857030434132574,2060,2044,2020,2047,2029,2046,1192
1023,1713857030444136570,2053,2056,2043,2053,2066,2006,1192
1024,1713857030454140064,2066,2041,2016,2056,2040,2058,1198
1025,1713857030464145513,2042,2060,2061,2050,2092,2064,1194
1026,1713857030474148186,2040,2037,2052,2058,2059,2052,1194
1027,1713857030484135443,2059,2054,2054,2057,2080,2060,1197
1028,1713857030494134709,2063,2086,2196,2084,2044,2046,1194
1029,1713857030504137091,2060,2080,2130,2054,2072,2080,1195
1030,1713857030514136947,2064,2106,2181,2094,2060,2054,1195
1031,1713857030524137384,2053,2059,1956,2053,2070,2032,1193
1032,1713857030534136278,2057,2024,2010,2062,2037,2060,1197
1033,1713857030544135062,2044,2040,1987,2036,2045,2037,1192
1034,1713857030554138306,2054,2038,1957,2056,2034,1981,1193
1035,1713857030564132479,2053,2051,2044,2056,2065,2057,1197
1036,1713857030574136004,2046,2032,2042,2060,2034,2042,1195
1037,1713857030584134137,2054,2053,2052,2044,2064,2054,1196
1038,1713857030594135967,2055,2047,2034,2056,2036,2049,1196
1039,1713857030604132566,2078,2078,2120,2068,2070,2088,1197
1040,1713857030614134347,2049,2015,1953,2043,2032,2092,1197
1041,1713857030624132759,2044,2022,1992,2022,2056,2039,1193
1042,1713857030634103973,2056,2036,2040,2043,2043,2052,1196
1043,1713857030644134667,2047,2037,2007,2044,2072,2051,1194
1044,1713857030654138021,2070,2045,2084,2049,2042,2052,1198
1045,1713857030664141726,2053,2064,2024,2053,2083,2048,1195
1046,1713857030674145280,2052,2056,2018,2069,2034,2103,1196
1047,1713857030684132188,2061,2094,2148,2056,2076,2047,1193
1048,1713857030694129689,2062,2054,2102,2095,2043,2056,1197
1049,1713857030704129034,2052,2051,2059,2047,2066,2050,1197
1050,1713857030714130103,2049,2040,2024,2057,2033,2059,1197
1051,1713857030724129538,2051,2028,1978,2029,2091,2045,1194
1052,1713857030734120615,2041,2022,2006,2043,2022,2056,1196
1053,1713857030744132789,2052,2049,2022,2058,2060,2044,1193
1054,1713857030754134369,2049,2058,2044,2078,2044,2056,1195
1055,1713857030764133544,2049,2063,2021,2046,2070,2033,1196
1056,1713857030774134262,2056,2080,2147,2066,2046,2053,1196
1057,1713857030784134529,2056,2056,2024,2047,2077,2065,1197
1058,1713857030794135828,2049,2030,2009,2042,2039,2051,1197
1059,1713857030804139593,2040,2041,2056,2021,2042,2033,1194
1060,1713857030814142947,2059,2052,2072,2060,2029,2009,1195
1061,1713857030824135016,2045,2047,2047,2040,2058,2040,1192
1062,1713857030834130944,2072,2088,2155,2076,2058,2050,1196
1063,1713857030844133255,2054,2051,1996,2043,2052,2047,1192
1064,1713857030854109970,2052,2047,2049,2058,2040,2050,1198
1065,1713857030864132467,2055,2072,2084,2052,2058,2041,1193
1066,1713857030874133246,2063,2047,2081,2065,2052,2100,1198
1067,1713857030884134314,2055,2057,2057,2048,2070,2058,1197
1068,1713857030894133018,2062,2034,2009,2049,2009,2046,1193
1069,1713857030904132945,2080,2125,2274,2078,2088,2060,1196
1070,1713857030914134945,2037,2008,1954,2056,2065,2051,1197
1071,1713857030924135633,2062,2059,2021,2062,2072,2053,1197
1072,1713857030934122721,2054,2047,2028,2053,2026,2041,1193
1073,1713857030944133632,2049,2045,2039,2038,2081,2050,1195
1074,1713857030954134621,2056,2049,2035,2063,2040,2048,1195
1075,1713857030964134978,2067,2077,2097,2052,2078,2058,1197
1076,1713857030974131998,2054,2068,2126,2061,2029,2013,1192
1077,1713857030984133809,2053,2068,2073,2060,2081,2072,1199
1078,1713857030994136481,2047,2032,2048,2048,2018,2047,1194
1079,1713857031004139989,2050,2045,2032,2048,2081,2071,1198
1080,1713857031014143347,2048,2025,1995,2044,2026,2057,1196
1081,1713857031024147999,2047,2082,2114,2056,2050,2042,1193
1082,1713857031034132606,2062,2044,2013,2063,2026,1988,1193
1083,1713857031044104826,2036,2041,2018,2037,2065,2047,1196
1084,1713857031054112905,2062,2029,2017,2062,2034,2064,1198
1085,1713857031064135435,2054,2065,2087,2045,2050,2029,1193
1086,1713857031074135467,2054,2025,1994,2052,2039,2052,1197
1087,1713857031084133414,2047,2092,2090,2046,2074,2044,1192
1088,1713857031094133184,2076,2069,2098,2069,2030,2076,1195
1089,1713857031104133717,2054,2065,2049,2057,2070,2050,1196
1090,1713857031114135312,2052,2034,2008,2060,2042,2061,1195
1091,1713857031124134941,2061,2054,2044,2042,2062,2061,1197
1092,1713857031134129471,2056,2032,1995,2054,2013,2040,1193
1093,1713857031144138192,2040,2053,2053,2046,2069,2056,1196
1094,1713857031154143785,2064,2100,2216,2080,2010,2037,1194
1095,1713857031164144668,2044,2036,2017,2045,2078,2064,1197
1096,1713857031174149009,2057,2043,2073,2049,2033,2077,1198
1097,1713857031184135029,2049,2048,2024,2034,2060,2047,1195
1098,1713857031194135150,2066,2060,2078,2079,2037,2053,1198
1099,1713857031204133899,2063,2060,2064,2056,2072,2054,1196
1100,1713857031214134601,2051,2048,2096,2073,2041,2065,1197
1101,1713857031224132027,2069,2081,2074,2049,2060,2051,1196
1102,1713857031234132389,2052,2036,2013,2051,2039,2012,1194
1103,1713857031244134013,2060,2077,2112,2049,2083,2053,1198
1104,1713857031254132913,2056,2043,2054,2053,2032,2040,1192
1105,1713857031264134087,2051,2064,2044,2053,2070,2044,1192
1106,1713857031274133877,2042,2015,1956,2046,2011,2023,1193
1107,1713857031284131583,2053,2048,2013,2052,2065,2045,1194
1108,1713857031294132667,2057,2043,2050,2057,2040,2077,1197
1109,1713857031304134552,2060,2056,2068,2049,2064,2063,1197
1110,1713857031314146159,2062,2045,2045,2064,2036,2062,1196
1111,1713857031324135857,2052,2061,2078,2043,2058,2050,1195
1112,1713857031334107726,2052,2034,2001,2042,2028,2046,1193
1113,1713857031344137974,2056,2060,2027,2041,2084,2064,1196
1114,1713857031354141323,2055,2056,2071,2057,2038,2050,1194
1115,1713857031364145102,2060,2067,2028,2057,2067,2047,1194
1116,1713857031374131363,2042,2033,2026,2055,2030,2052,1197
1117,1713857031384134251,2058,2054,2026,2044,2063,2014,1194
1118,1713857031394132027,2061,2070,2117,2069,2056,2062,1199
1119,1713857031404133742,2037,2037,1991,2032,2074,2047,1193
1120,1713857031414115903,2055,2045,2052,2060,2029,2053,1196
1121,1713857031424129946,2049,2050,2033,2045,2067,2044,1193
1122,1713857031434139829,2062,2036,2052,2054,2030,2050,1196
1123,1713857031444139179,2061,2041,2050,2043,2072,2052,1196
1124,1713857031454135482,2057,2046,2056,2052,2043,2053,1197
1125,1713857031464135333,2049,2050,2062,2052,2078,2059,1194
1126,1713857031474134221,2041,2021,1980,2053,2030,2080,1195
1127,1713857031484156973,2060,2061,2056,2049,2075,2081,1196
1128,1713857031494139566,2058,2044,2038,2063,2037,2047,1193
1129,1713857031504144267,2051,2065,2053,2056,2060,2049,1194
1130,1713857031514146583,2056,2053,2044,2056,2041,2057,1197
1131,1713857031524101164,2048,2049,2010,2040,2072,2053,1196
1132,1713857031534135591,2060,2029,1987,2056,2034,2045,1193
1133,1713857031544139230,2052,2054,2034,2045,2077,2052,1198
1134,1713857031554134321,2057,2039,2052,2048,2040,2058,1195
1135,1713857031564136717,2042,2050,2038,2044,2066,2046,1195
1136,1713857031574134453,2055,2049,2030,2045,2030,2057,1197
1137,1713857031584135958,2044,2053,2072,2045,2073,1979,1196
1138,1713857031594150992,2058,2056,2076,2064,2038,2053,1199
1139,1713857031604143868,2053,2066,2047,2048,2071,2051,1196
1140,1713857031614170498,2065,2050,2030,2067,2036,2058,1196
1141,1713857031624140162,2049,2067,2072,2049,2078,2059,1194
1142,1713857031634164978,2056,2042,2040,2054,2062,2068,1198
1143,1713857031644139914,2063,2061,2014,2043,2058,2038,1194
1144,1713857031654134312,2068,2056,2080,2077,2045,2084,1195
1145,1713857031664138453,2046,2065,2067,2042,2062,2064,1194
1146,1713857031674132982,2049,2056,2118,2057,2040,2054,1194
1147,1713857031684134606,2043,2055,2072,2043,2046,2053,1196
1148,1713857031694139679,2062,2058,2094,2053,2035,2062,1197
1149,1713857031704140553,2050,2057,2081,2059,2076,2052,1196
1150,1713857031714145624,2064,2041,2032,2056,2040,2058,1195
1151,1713857031724158053,2064,2068,2088,2060,2069,2046,1194
1152,1713857031734135806,2049,2036,2045,2062,2047,2059,1197
1153,1713857031744135185,2073,2076,2019,2047,2068,2048,1196
1154,1713857031754136609,2061,2050,2072,2075,2039,2061,1197
1155,1713857031764134757,2049,2060,2068,2056,2068,2018,1192
1156,1713857031774135679,2067,2021,1993,2049,2024,2034,1194
1157,1713857031784137585,2035,2024,1958,2043,2088,2072,1198
1158,1713857031794140533,2066,2077,2120,2082,2049,2075,1197
1159,1713857031804133067,2061,2056,2036,2047,2078,2058,1196
1160,1713857031814133770,2046,2036,2005,2056,2040,2095,1196
1161,1713857031824132820,2053,2040,1975,2041,2081,2103,1193
1162,1713857031834133181,2052,2040,2014,2054,2045,2068,1194
1163,1713857031844139055,2056,2040,2032,2049,2052,2042,1192
1164,1713857031854143567,2052,2027,2034,2052,2030,2066,1195
1165,1713857031864145572,2045,2052,2000,2045,2082,2065,1194
1166,1713857031874153942,2060,2028,2015,2042,2036,2036,1192
1167,1713857031884139441,2045,2038,1989,2040,2070,2044,1193
1168,1713857031894138299,2048,2046,2024,2066,2029,2074,1198
1169,1713857031904137529,2033,2050,2027,2060,2064,2053,1196
1170,1713857031914142742,2056,2032,2036,2056,2056,2054,1196
1171,1713857031924139556,2064,2050,2014,2053,2066,2041,1194
1172,1713857031934134205,2077,2065,2093,2072,2042,2065,1198
1173,1713857031944131510,2052,2096,2203,2056,2073,2097,1196
1174,1713857031954134398,2064,2052,2071,2064,2041,2057,1196
1175,1713857031964134159,2058,2083,2097,2056,2066,2043,1196
1176,1713857031974136966,2061,2044,2006,2049,2043,2078,1198
1177,1713857031984133840,2050,2046,1994,2041,2068,2052,1197
1178,1713857031994137329,2073,2072,2064,2064,2031,1985,1191
1179,1713857032004138256,2053,2034,1968,2030,2054,2052,1197
1180,1713857032014157002,2055,2048,2053,2048,2029,2037,1196
1181,1713857032024157830,2056,2076,2112,2050,2073,2056,1197
1182,1713857032034170914,2053,2048,2037,2068,2033,2059,1197
1183,1713857032044139039,2080,2073,2088,2050,2075,2075,1195
1184,1713857032054142302,2035,2020,1973,2048,2048,2089,1196
1185,1713857032064145093,2058,2071,2046,2057,2076,2053,1194
1186,1713857032074152384,2050,2038,2011,2059,2021,2032,1193
1187,1713857032084155075,2057,2066,2069,2048,2057,2090,1195
1188,1713857032094157867,2058,2044,2064,2069,2045,2032,1193
1189,1713857032104161861,2049,2065,2103,2057,2066,2044,1193
1190,1713857032114149580,2048,2040,2041,2061,2034,2062,1195
1191,1713857032124150527,2072,2060,2058,2044,2064,2056,1195
1192,1713857032134155042,2053,2028,2008,2062,2049,2050,1196
1193,1713857032144176254,2060,2047,2025,2036,2068,2052,1196
1194,1713857032154162900,2073,2036,2049,2070,2031,2036,1194
1195,1713857032164116633,2052,2068,2074,2041,2068,2040,1195
1196,1713857032174170388,2056,2049,2072,2072,2048,2042,1194
1197,1713857032184146871,2036,2076,2061,2058,2068,2038,1195
1198,1713857032194174848,2078,2087,2177,2074,2040,2055,1198
1199,1713857032204162496,2060,2083,2115,2064,2064,2017,1194
1200,1713857032214168925,2046,2056,2051,2070,2028,2058,1197
1201,1713857032224173180,2062,2093,2152,2054,2084,2059,1196
1202,1713857032234186455,2050,2024,1982,2047,2027,2038,1195
1203,1713857032244177611,2060,2056,2028,2052,2097,2061,1196
1204,1713857032254148070,2052,2032,2006,2048,2046,2064,1196
1205,1713857032264146763,2061,2065,2037,2062,2073,2041,1192
1206,1713857032274149825,2043,2020,1976,2044,2033,2048,1197
1207,1713857032284160604,2056,2046,2037,2049,2069,2072,1196
1208,1713857032294145386,2066,2035,2039,2064,2028,2044,1193
1209,1713857032304149140,2057,2085,2173,2053,2072,2058,1196
1210,1713857032314146188,2045,2024,1978,2055,2015,2050,1196
1211,1713857032324151304,2055,2057,2047,2042,2062,2044,1194
1212,1713857032334146990,2052,2037,2045,2065,2053,2056,1195
1213,1713857032344150885,2060,2077,2114,2044,2047,1995,1193
1214,1713857032354147903,2067,2127,2368,2134,2052,2070,1195
1215,1713857032364145614,2061,2059,2063,2041,2057,2043,1194
1216,1713857032374146210,2054,2041,2026,2064,2038,2046,1193
1217,1713857032384150966,2053,2050,2055,2056,2072,2042,1196
1218,1713857032394146591,2049,2020,1993,2035,2040,2060,1196
1219,1713857032404148090,2088,2178,2366,2089,2098,2092,1196
1220,1713857032414150301,2056,2018,1983,2045,2017,2077,1195
1221,1713857032424152832,2064,2067,2086,2060,2069,2029,1194
1222,1713857032434167780,2060,2056,2056,2097,2042,2060,1197
1223,1713857032444156590,2056,2058,2064,2056,2068,2055,1197
1224,1713857032454210595,2060,2041,1997,2061,2074,2036,1194
1225,1713857032464162855,2056,2072,2101,2050,2058,2072,1195
1226,1713857032474167561,2059,2045,2036,2058,2033,2064,1196
1227,1713857032484171124,2057,2070,2040,2056,2070,2057,1194
1228,1713857032494172914,2048,2042,2081,2058,2029,2045,1194
1229,1713857032504174542,2074,2088,2150,2076,2079,2060,1195
1230,1713857032514135561,2049,2059,2089,2060,2033,2057,1198
1231,1713857032524139124,2037,2061,2069,2052,2067,2052,1196
1232,1713857032534185863,2052,2032,2027,2060,2036,2044,1192
1233,1713857032544141821,2046,2056,2046,2052,2082,2056,1196
1234,1713857032554193090,2062,2058,2097,2058,2038,2057,1197
1235,1713857032564149628,2055,2056,2049,2052,2080,2056,1197
1236,1713857032574136775,2056,2035,2012,2041,2026,2050,1197
1237,1713857032584134345,2046,2061,1988,2052,2074,2060,1197
1238,1713857032594134732,2045,2020,2028,2048,2029,2056,1196
1239,1713857032604135228,2050,2055,2032,2048,2072,2056,1196
1240,1713857032614135234,2052,2043,2048,2061,2040,2054,1197
1241,1713857032624138826,2044,2032,2004,2042,2069,2074,1196
1242,1713857032634138601,2047,2046,2020,2084,2018,2052,1197
1243,1713857032644133906,2053,2058,2056,2049,2065,2053,1194
1244,1713857032654148334,2052,2036,2040,2056,2037,2060,1195
1245,1713857032664138598,2059,2077,2062,2074,2072,2048,1194
1246,1713857032674140357,2049,2014,1975,2052,2032,2033,1192
1247,1713857032684133847,2044,2046,2045,2059,2059,2055,1197
1248,1713857032694136498,2061,2024,1971,2050,2040,2072,1196
1249,1713857032704139170,2057,2052,2045,2053,2072,2048,1194
1250,1713857032714137311,2055,2049,2061,2064,2037,2051,1197
1251,1713857032724135713,2048,2056,2057,2048,2071,2052,1196
1252,1713857032734139447,2058,2040,2066,2050,2037,2061,1196
1253,1713857032744142559,2055,2079,2097,2065,2084,2048,1195
1254,1713857032754146563,2057,2047,2061,2056,2046,2056,1196
1255,1713857032764149404,2049,2049,2033,2047,2073,2050,1198
1256,1713857032774136672,2084,2098,2175,2092,2047,2045,1195
1257,1713857032784135324,2053,2049,2024,2046,2066,2061,1198
1258,1713857032794138857,2054,2032,2016,2060,2019,2020,1194
1259,1713857032804135745,2053,2052,2040,2049,2061,2050,1197
1260,1713857032814135700,2064,2064,2128,2068,2036,2060,1197
1261,1713857032824136217,2060,2086,2054,2052,2066,2052,1196
1262,1713857032834135300,2052,2035,2032,2046,2025,2040,1193
1263,1713857032844139104,2056,2064,2054,2046,2071,2047,1195
1264,1713857032854134780,2060,2068,2089,2057,2042,2060,1196
1265,1713857032864130536,2058,2052,2045,2049,2065,2061,1195
1266,1713857032874136905,2052,2043,2052,2058,2045,2058,1195
1267,1713857032884139907,2049,2081,2072,2041,2049,1998,1192
1268,1713857032894145064,2065,2073,2150,2068,2040,2057,1195
1269,1713857032904147475,2058,2070,2120,2061,2057,2043,1192
1270,1713857032914138069,2065,2094,2188,2096,2045,2072,1196
1271,1713857032924139709,2049,2055,2045,2041,2064,2057,1197
1272,1713857032934114758,2054,2052,2073,2060,2035,2062,1197
1273,1713857032944136662,2054,2060,2060,2053,2068,2056,1197
1274,1713857032954136567,2055,2056,2047,2061,2049,2058,1197
1275,1713857032964134688,2068,2090,2094,2061,2082,2063,1198
1276,1713857032974138482,2061,2050,2056,2061,2033,2052,1196
1277,1713857032984134699,2049,2054,2058,2052,2066,2056,1198
1278,1713857032994140447,2060,2047,2072,2073,2028,2070,1197
1279,1713857033004133657,2041,2040,2016,2045,2062,2052,1194
1280,1713857033014173152,2052,2044,2071,2073,2035,2054,1195
1281,1713857033024132391,2062,2052,2004,2040,2053,2051,1196
1282,1713857033034131968,2052,2057,2040,2065,2040,2050,1198
1283,1713857033044137640,2045,2063,2045,2060,2072,2058,1194
1284,1713857033054140536,2052,2033,2051,2059,2026,2043,1194
1285,1713857033064135182,2053,2052,2024,2067,2078,2056,1196
1286,1713857033074140935,2052,2039,2065,2052,2025,2048,1195
1287,1713857033084148300,2050,2045,2044,2046,2069,2089,1196
1288,1713857033094144079,2055,2036,2046,2064,2034,2054,1196
1289,1713857033104148098,2048,2038,1993,2048,2072,2057,1197
1290,1713857033114133464,2059,2038,2023,2052,2038,2040,1192
1291,1713857033124133704,2042,2057,2049,2049,2068,2041,1194
1292,1713857033134112205,2063,2053,2058,2064,2039,2056,1194
1293,1713857033144134633,2040,2045,2038,2034,2058,2040,1194
1294,1713857033154138652,2056,2052,2103,2077,2046,2022,1195
1295,1713857033164133980,2056,2060,2053,2052,2092,2050,1196
1296,1713857033174132786,2053,2032,2017,2053,2048,2066,1195
1297,1713857033184134229,2054,2065,2037,2050,2074,2052,1198
1298,1713857033194135190,2049,2053,2042,2051,2041,2080,1196
1299,1713857033204136402,2054,2067,2046,2066,2073,2040,1194
1300,1713857033214135208,2057,2047,2053,2062,2038,2050,1198
1301,1713857033224138685,2052,2074,2057,2044,2073,2049,1195
1302,1713857033234142994,2066,2043,2046,2060,2030,2050,1198
1303,1713857033244145979,2064,2068,2061,2056,2073,2066,1196
1304,1713857033254131987,2045,2038,2072,2066,2033,2045,1195
1305,1713857033264135314,2060,2053,2036,2044,2064,2052,1194
1306,1713857033274137377,2058,2058,2073,2060,2033,2069,1197
1307,1713857033284147739,2046,2041,1998,2052,2066,2050,1195
1308,1713857033294138818,2061,2047,2052,2067,2043,2057,1198
1309,1713857033304135379,2047,2065,2065,2051,2069,2046,1194
1310,1713857033314133435,2051,2050,2086,2054,2038,2056,1197
1311,1713857033324139035,2049,2060,2025,2037,2054,2045,1194
1312,1713857033334133192,2053,2038,2034,2052,2029,2060,1196
1313,1713857033344134503,2058,2053,2047,2055,2068,2048,1194
1314,1713857033354132177,2055,2049,2068,2058,2033,2068,1195
1315,1713857033364133009,2052,2065,2044,2050,2062,2050,1197
1316,1713857033374132145,2064,2072,2110,2080,2056,2067,1198
1317,1713857033384133317,2044,2047,2040,2042,2071,2053,1199
1318,1713857033394142357,2057,2042,2041,2046,2031,2060,1197
1319,1713857033404154392,2074,2088,2168,2067,2052,2042,1195
1320,1713857033414135469,2045,2025,2044,2050,2040,2082,1197
1321,1713857033424139547,2063,2089,2161,2077,2060,2051,1197
1322,1713857033434143735,2053,2021,1974,2060,2029,2049,1196
1323,1713857033444147072,2043,2061,2008,2046,2095,2056,1195
1324,1713857033454149155,2064,2054,2083,2074,2044,2057,1197
1325,1713857033464134572,2049,2053,2044,2049,2062,2045,1193
1326,1713857033474135002,2062,2056,2047,2075,2045,2062,1197
1327,1713857033484135001,2047,2068,2101,2053,2072,2043,1194
1328,1713857033494133647,2065,2070,2142,2074,2044,2068,1196
1329,1713857033504135560,2050,2066,2076,2051,2065,2047,1194
1330,1713857033514135058,2054,2047,2040,2056,2027,2049,1197
1331,1713857033524137403,2059,2092,2152,2080,2070,2060,1196
1332,1713857033534136720,2067,2036,2017,2063,2031,2056,1195
1333,1713857033544137681,2047,2053,2041,2057,2076,2059,1200
1334,1713857033554133110,2065,2046,2036,2056,2042,2053,1197
1335,1713857033564135524,2060,2083,2120,2077,2086,2058,1197
1336,1713857033574139332,2044,2030,2044,2056,2034,2057,1197
1337,1713857033584142959,2052,2058,2036,2039,2064,2052,1198
1338,1713857033594158081,2059,2045,2043,2065,2042,2053,1196
1339,1713857033604132674,2057,2052,2044,2049,2069,2049,1196
1340,1713857033614136381,2057,2037,1992,2059,2034,2052,1197
1341,1713857033624131900,2055,2073,2060,2056,2075,2060,1196
1342,1713857033634135448,2078,2046,2044,2060,2044,2062,1197
1343,1713857033644133893,2059,2069,2074,2051,2069,2060,1196
1344,1713857033654135395,2065,2066,2076,2060,2044,2058,1196
1345,1713857033664133590,2050,2055,2050,2053,2052,2038,1193
1346,1713857033674140484,2050,2036,2043,2058,2037,2057,1195
1347,1713857033684135092,2069,2089,2141,2058,2067,2058,1196
1348,1713857033694135762,2063,2054,2006,2065,2043,2045,1193
1349,1713857033704142616,2051,2067,2067,2047,2063,2072,1196
1350,1713857033714119433,2043,2030,2044,2061,2034,2052,1196
1351,1713857033724135378,2061,2068,2045,2056,2069,2055,1196
1352,1713857033734134897,2055,2042,2063,2068,2038,2062,1198
1353,1713857033744134885,2050,2056,2068,2047,2065,2050,1194
1354,1713857033754133591,2048,2040,2048,2066,2031,2054,1197
1355,1713857033764136187,2050,2056,2036,2061,2047,2061,1197
1356,1713857033774142298,2068,2065,2077,2058,2041,2064,1197
1357,1713857033784144814,2038,2040,2047,2045,2076,2051,1198
1358,1713857033794148249,2062,2043,2036,2057,2034,2052,1198
1359,1713857033804133887,2065,2069,2093,2063,2064,2056,1196
1360,1713857033814138477,2048,2037,2052,2056,2035,2057,1195
1361,1713857033824133775,2056,2052,2037,2051,2061,2056,1195
1362,1713857033834135147,2049,2048,2073,2049,2028,2052,1196
1363,1713857033844126677,2060,2057,2042,2042,2069,2050,1196
1364,1713857033854134894,2058,2057,2064,2058,2052,2077,1197
1365,1713857033864135345,2036,2037,2024,2046,2065,2042,1193
1366,1713857033874137829,2051,2028,2017,2049,2032,2061,1198
1367,1713857033884136605,2062,2078,2080,2061,2084,2060,1198
1368,1713857033894135853,2052,2041,2049,2065,2044,2035,1195
1369,1713857033904137886,2053,2053,2034,2056,2058,2056,1196
1370,1713857033914139158,2048,2030,2025,2052,2030,2053,1198
1371,1713857033924145381,2067,2087,2144,2064,2072,2061,1197
1372,1713857033934105481,2056,2052,2088,2061,2041,2058,1195
1373,1713857033944115934,2054,2062,2047,2049,2070,2044,1194
1374,1713857033954133692,2057,2047,2040,2056,2032,2065,1197
1375,1713857033964140586,2061,2078,2064,2064,2067,2063,1196
1376,1713857033974134482,2058,2045,2024,2056,2031,2053,1196
1377,1713857033984136715,2046,2062,2104,2045,2063,2052,1197
1378,1713857033994132916,2056,2043,2044,2052,2040,2052,1197
1379,1713857034004146856,2044,2036,2020,2044,2058,2053,1200
1380,1713857034014138759,2052,2056,2040,2056,2038,2062,1197
1381,1713857034024139252,2052,2065,2106,2045,2062,2049,1197
1382,1713857034034124021,2046,2038,2053,2047,2021,2054,1194
1383,1713857034044137423,2070,2086,2073,2054,2067,2062,1196
1384,1713857034054136693,2053,2042,2032,2058,2039,2033,1193
1385,1713857034064136495,2061,2067,2054,2051,2077,2061,1194
1386,1713857034074133240,2053,2042,2078,2064,2024,2048,1196
1387,1713857034084138093,2049,2045,2055,2056,2081,2059,1199
1388,1713857034094132543,2060,2036,2066,2054,2038,2067,1199
1389,1713857034104137627,2050,2051,2044,2038,2052,2022,1195
1390,1713857034114137749,2058,2040,2040,2057,2047,2065,1197
1391,1713857034124143104,2056,2048,2054,2058,2081,2058,1197
1392,1713857034134145942,2044,2042,2066,2055,2035,2036,1194
1393,1713857034144131382,2046,2049,2015,2033,2048,2043,1196
1394,1713857034154134441,2054,2037,2027,2056,2016,2044,1194
1395,1713857034164137059,2053,2053,2034,2047,2072,2053,1198
1396,1713857034174134456,2052,2035,2040,2058,2041,2046,1195
1397,1713857034184148349,2063,2076,2044,2056,2072,2057,1197
1398,1713857034194134420,2061,2069,2081,2070,2026,2049,1197
1399,1713857034204141608,2043,2042,2029,2048,2068,2050,1196
1400,1713857034214132871,2066,2068,2143,2064,2046,2069,1197
1401,1713857034224136872,2061,2051,2029,2049,2077,2033,1193
1402,1713857034234133086,2056,2046,2031,2072,2040,2058,1198
1403,1713857034244136626,2046,2049,2032,2043,2069,2053,1197
1404,1713857034254138353,2052,2011,1961,2045,2040,2061,1196
1405,1713857034264140790,2049,2042,2005,2039,2076,2043,1192
1406,1713857034274144611,2046,2021,1989,2041,2030,2050,1195
1407,1713857034284146297,2054,2045,2024,2046,2066,2049,1196
1408,1713857034294134052,2049,2041,2062,2049,2027,2040,1193
1409,1713857034304140569,2049,2072,2096,2062,2068,2048,1197
1410,1713857034314134267,2056,2044,2012,2052,2032,2049,1197
1411,1713857034324137727,2056,2060,2044,2049,2077,2053,1197
1412,1713857034334131906,2053,2045,2041,2064,2031,2050,1195
1413,1713857034344135186,2054,2067,2084,2063,2078,2053,1196
1414,1713857034354134086,2059,2038,2041,2062,2040,2062,1194
1415,1713857034364133176,2055,2064,2052,2063,2088,2053,1196
1416,1713857034374134170,2060,2051,2095,2078,2037,2039,1193
1417,1713857034384134825,2053,2053,2036,2056,2072,2052,1199
1418,1713857034394131540,2059,2064,2110,2078,2041,2056,1197
1419,1713857034404137615,2064,2072,2030,2046,2068,2056,1198
1420,1713857034414136155,2060,2044,2029,2068,2047,2066,1196
1421,1713857034424133040,2054,2043,2018,2045,2066,2056,1194
1422,1713857034434131269,2046,2055,2065,2052,2022,2052,1196
1423,1713857034444134157,2058,2076,2134,2054,2061,2048,1194
1424,1713857034454139050,2056,2050,2022,2064,2040,2057,1196
1425,1713857034464141548,2054,2077,2041,2060,2077,2045,1192
1426,1713857034474145149,2057,2038,2031,2062,2033,2040,1194
1427,1713857034484148869,2056,2061,2057,2057,2072,2069,1195
1428,1713857034494132385,2055,2049,2024,2067,2044,2057,1196
1429,1713857034504134581,2058,2073,2117,2048,2052,2051,1195
1430,1713857034514134965,2056,2033,1998,2048,2039,2046,1194
1431,1713857034524136641,2053,2059,2040,2052,2070,2044,1194
1432,1713857034534134829,2061,2047,1998,2062,2033,2056,1196
1433,1713857034544135994,2064,2059,2039,2047,2062,2041,1193
1434,1713857034554134854,2058,2037,1992,2058,2036,2056,1197
1435,1713857034564133353,2050,2065,2091,2054,2056,2039,1194
1436,1713857034574131772,2061,2043,2022,2050,2040,2050,1196
1437,1713857034584132666,2064,2056,2037,2045,2079,2056,1198
1438,1713857034594135855,2057,2055,2073,2083,2044,2045,1193
1439,1713857034604146311,2048,2060,2064,2048,2062,2047,1194
1440,1713857034614143417,2056,2069,2044,2059,2036,2048,1197
1441,1713857034624147989,2064,2084,2092,2060,2060,2049,1200
1442,1713857034634133720,2057,2060,2096,2066,2055,2064,1198
1443,1713857034644132489,2050,2057,2067,2050,2068,2050,1197
1444,1713857034654145701,2056,2051,2064,2056,2041,2045,1195
1445,1713857034664132664,2059,2078,2105,2056,2073,2062,1194
1446,1713857034674133438,2068,2036,2035,2052,2024,2044,1193
1447,1713857034684133050,2044,2042,2024,2053,2064,2060,1195
1448,1713857034694133603,2056,2041,2031,2045,2032,2061,1197
1449,1713857034704132312,2053,2063,2072,2051,2072,2051,1196
1450,1713857034714136424,2055,2053,2058,2047,2031,2056,1195
1451,1713857034724133299,2059,2063,2060,2056,2066,2053,1198
1452,1713857034734135426,2059,2043,2029,2044,2029,2056,1197
1453,1713857034744133173,2047,2073,2125,2073,2069,2056,1196
1454,1713857034754136493,2060,2047,2036,2062,2039,2061,1196
1455,1713857034764137337,2062,2074,2089,2056,2069,2046,1194
1456,1713857034774135475,2057,2037,2034,2063,2033,2054,1196
1457,1713857034784134676,2048,2058,2038,2049,2071,2058,1196
1458,1713857034794102807,2065,2042,2013,2060,2040,2058,1196
1459,1713857034804141345,2056,2061,2025,2047,2037,2054,1196
1460,1713857034814141147,2052,2035,2030,2060,2040,2055,1197
1461,1713857034824147483,2048,2043,2019,2046,2066,2048,1195
1462,1713857034834133414,2060,2057,2060,2066,2034,2046,1193
1463,1713857034844133868,2056,2077,2114,2044,2075,2031,1192
1464,1713857034854135514,2057,2043,2032,2063,2033,2062,1197
1465,1713857034864133432,2056,2064,2040,2064,2067,2053,1193
1466,1713857034874134325,2054,2039,2096,2052,2035,2050,1196
1467,1713857034884133386,2055,2056,2056,2052,2080,2065,1196
1468,1713857034894132436,2056,2044,2029,2057,2042,2062,1195
1469,1713857034904133311,2049,2054,2041,2048,2076,2047,1194
1470,1713857034914135627,2058,2047,2028,2052,2038,2064,1197
1471,1713857034924134858,2051,2056,2049,2048,2062,2024,1193
1472,1713857034934138919,2057,2057,2064,2065,2043,2060,1196
1473,1713857034944139223,2053,2080,2064,2064,2076,2056,1197
1474,1713857034954142983,2061,2063,2034,2061,2036,2056,1197
1475,1713857034964146584,2056,2086,2106,2071,2074,2068,1196
1476,1713857034974134620,2056,2040,2034,2057,2046,2061,1197
1477,1713857034984132727,2052,2075,2137,2060,2069,2051,1197
1478,1713857034994134023,2048,2034,2026,2049,2033,2064,1198
1479,1713857035004138926,2052,2062,2080,2040,2039,2041,1194
1480,1713857035014112350,2058,2056,2076,2052,2032,2052,1195
1481,1713857035024135467,2052,2045,2009,2041,2068,2062,1197
1482,1713857035034134830,2054,2040,2048,2060,2039,2061,1197
1483,1713857035044133262,2064,2068,2052,2045,2063,2047,1195
1484,1713857035054134821,2054,2050,2056,2065,2045,2072,1196
1485,1713857035064135147,2047,2049,2037,2041,2075,2059,1195
1486,1713857035074134019,2076,2064,2081,2056,2041,2067,1193
1487,1713857035084135979,2057,2056,2068,2048,2080,2049,1195
1488,1713857035094134441,2046,2030,2037,2070,2040,2063,1196
1489,1713857035104135277,2053,2059,2071,2046,2064,2047,1194
1490,1713857035114136987,2053,2034,1999,2056,2036,2053,1195
1491,1713857035124137893,2063,2062,2059,2062,2081,2052,1197
1492,1713857035134136055,2049,2036,2009,2053,2024,2046,1194
1493,1713857035144139547,2060,2082,2080,2050,2069,2056,1197
1494,1713857035154143442,2056,2037,2052,2058,2050,2050,1198
1495,1713857035164147205,2047,2056,2018,2056,2062,2033,1193
1496,1713857035174133299,2052,2025,1981,2068,2041,2062,1198
1497,1713857035184134397,2053,2065,2036,2053,2061,2043,1195
1498,1713857035194148443,2057,2058,2067,2057,2036,2056,1197
1499,1713857035204126650,2041,2042,2019,2042,2066,2057,1197
1500,1713857035214145367,2060,2056,2066,2061,2042,2051,1195
1501,1713857035224134768,2050,2048,1982,2057,2082,2061,1198
1502,1713857035234133971,2056,2048,2037,2056,2040,2060,1196
1503,1713857035244139970,2056,2057,2090,2054,2077,2068,1197
1504,1713857035254130273,2052,2032,1987,2058,2033,2049,1196
1505,1713857035264136643,2051,2059,2062,2056,2058,2041,1192
1506,1713857035274138462,2050,2024,2013,2060,2032,2047,1194
1507,1713857035284138618,2064,2106,2224,2076,2098,2088,1196
1508,1713857035294128931,2055,2064,2062,2064,2044,2048,1196
1509,1713857035304145684,2056,2060,2054,2058,2056,2041,1194
1510,1713857035314150239,2061,2045,2040,2069,2041,2047,1195
1511,1713857035324139681,2052,2056,2038,2045,2045,2045,1194
1512,1713857035334136389,2061,2044,2049,2062,2080,2060,1196
1513,1713857035344137676,2053,2064,2082,2052,2064,2042,1194
1514,1713857035354133402,2052,2052,2018,2066,2036,2059,1198
1515,1713857035364133076,2051,2049,2034,2047,2079,2067,1197
1516,1713857035374133693,2059,2044,2042,2053,2040,2049,1199
1517,1713857035384136685,2050,2058,2015,2043,2056,2039,1194
1518,1713857035394132351,2058,2046,2028,2061,2040,2046,1193
1519,1713857035404140734,2053,2056,2041,2046,2050,2037,1194
1520,1713857035414137743,2057,2038,2026,2065,2038,2053,1196
1521,1713857035424134651,2064,2077,2047,2054,2070,2053,1196
1522,1713857035434136430,2053,2044,2036,2054,2030,2045,1193
1523,1713857035444136806,2060,2068,2075,2047,2067,2054,1195
1524,1713857035454131028,2056,2035,2018,2052,2032,2050,1199
1525,1713857035464138651,2053,2056,2037,2046,2080,2053,1196
1526,1713857035474134616,2062,2042,2018,2056,2044,2046,1193
1527,1713857035484138922,2053,2068,2090,2053,2073,2049,1196
1528,1713857035494156004,2050,2029,2049,2057,2042,2056,1194
1529,1713857035504146639,2055,2067,2099,2053,2076,2053,1196
1530,1713857035514132192,2057,2056,2077,2056,2034,2050,1197
1531,1713857035524162635,2064,2097,2244,2069,2078,2062,1194
1532,1713857035534134487,2054,2046,2069,2064,2041,2054,1195
1533,1713857035544134853,2070,2121,2205,2066,2073,2056,1195
1534,1713857035554134057,2056,2040,2063,2056,2037,2058,1195
1535,1713857035564151360,2054,2064,2091,2059,2076,2064,1196
1536,1713857035574127653,2054,2033,2008,2052,2036,2064,1196
1537,1713857035584143914,2049,2047,1995,2071,2074,2060,1197
1538,1713857035594134228,2056,2032,2011,2075,2033,2053,1197
1539,1713857035604141258,2060,2064,2095,2058,2080,2061,1196
1540,1713857035614138167,2056,2045,2052,2053,2040,2052,1198
1541,1713857035624140857,2050,2059,2058,2038,2065,2049,1198
1542,1713857035634140602,2051,2033,2036,2053,2039,2056,1194
1543,1713857035644141559,2048,2060,2056,2058,2103,2069,1197
1544,1713857035654134148,2037,2038,2027,2046,2043,2068,1197
1545,1713857035664133903,2057,2059,2056,2047,2088,2059,1195
1546,1713857035674131262,2056,2043,2081,2064,2045,2065,1197
1547,1713857035684132721,2056,2065,2068,2060,2075,2062,1196
1548,1713857035694149403,2056,2040,2085,2057,2056,2058,1196
1549,1713857035704137943,2052,2062,2084,2059,2077,2047,1192
1550,1713857035714148170,2058,2044,2047,2053,2021,2048,1198
1551,1713857035724135678,2055,2062,2053,2058,2078,2045,1192
1552,1713857035734131684,2047,2045,2056,2060,2039,2060,1197
1553,1713857035744140759,2049,2062,2058,2058,2067,2051,1195
1554,1713857035754133648,2056,2044,2056,2056,2039,2056,1195
1555,1713857035764179225,2054,2064,2045,2049,2061,2051,1196
1556,1713857035774169057,2057,2051,2064,2064,2046,2066,1197
1557,1713857035784135969,2054,2057,2014,2045,2049,2046,1196
1558,1713857035794134882,2058,2048,2036,2056,2045,2056,1197
1559,1713857035804138575,2052,2062,2047,2047,2064,2069,1194
1560,1713857035814140425,2056,2045,2069,2054,2035,2068,1196
1561,1713857035824155252,2064,2074,2084,2061,2072,2053,1197
1562,1713857035834109947,2061,2064,2080,2069,2041,2056,1196
1563,1713857035844148067,2050,2065,2042,2058,2065,2052,1195
1564,1713857035854151500,2062,2040,2024,2068,2030,2056,1196
1565,1713857035864151595,2052,2056,2025,2052,2063,2052,1196
1566,1713857035874120391,2059,2058,2028,2057,2041,2056,1195
1567,1713857035884171380,2061,2060,2069,2053,2067,2053,1197
1568,1713857035894162545,2037,2022,2033,2047,2050,2057,1197
1569,1713857035904164865,2060,2047,2008,2046,2068,2049,1195
1570,1713857035914168929,2059,2035,2018,2057,2049,2061,1198
1571,1713857035924179278,2038,2046,2036,2047,2074,2055,1196
1572,1713857035934177519,2056,2052,2044,2062,2025,2056,1197
1573,1713857035944181152,2050,2058,2053,2046,2070,2047,1196
1574,1713857035954143804,2064,2036,2075,2067,2046,2060,1197
1575,1713857035964144491,2053,2043,2018,2044,2064,2052,1196
1576,1713857035974147522,2064,2057,2113,2065,2047,2073,1198
1577,1713857035984152239,2041,2052,2028,2050,2065,2049,1198
1578,1713857035994161654,2059,2033,2005,2052,2040,2060,1195
1579,1713857036004146396,2048,2064,2104,2050,2065,2051,1196
1580,1713857036014144737,2056,2036,2034,2054,2043,2060,1195
1581,1713857036024148433,2058,2086,2071,2056,2076,2055,1195
1582,1713857036034144982,2052,2034,2030,2049,2023,2052,1196
1583,1713857036044166218,2054,2061,2064,2052,2070,2051,1196
1584,1713857036054142723,2073,2065,2122,2072,2041,2050,1196
1585,1713857036064145557,2043,2056,2073,2050,2036,2032,1192
1586,1713857036074148701,2057,2050,2059,2068,2047,2058,1197
1587,1713857036084143207,2056,2070,2134,2068,2079,2051,1195
1588,1713857036094152295,2058,2040,2045,2054,2032,2060,1196
1589,1713857036104165281,2041,2043,2028,2052,2058,2048,1196
1590,1713857036114156529,2060,2049,2056,2048,2030,2048,1197
1591,1713857036124160516,2080,2074,2064,2058,2062,2035,1193
1592,1713857036134151623,2065,2054,2064,2078,2030,2040,1192
1593,1713857036144169150,2042,2048,2049,2057,2065,2053,1194
1594,1713857036154183259,2059,2052,2052,2044,2034,2045,1194
1595,1713857036164176151,2051,2067,2091,2059,2075,2055,1197
1596,1713857036174107826,2061,2056,2037,2060,2042,2061,1196
1597,1713857036184175324,2043,2046,2038,2051,2067,2045,1194
1598,1713857036194171494,2061,2047,2045,2061,2050,2041,1193
1599,1713857036204174748,2050,2062,2077,2064,2072,2056,1195
1600,1713857036214121878,2062,2076,2153,2073,2036,2056,1195
1601,1713857036224135766,2056,2077,2016,2048,2064,2049,1197
1602,1713857036234103222,2056,2064,2100,2056,2038,2053,1198
1603,1713857036244129067,2052,2061,2072,2049,2059,2049,1197
1604,1713857036254133044,2052,2032,2030,2059,2045,2052,1199
1605,1713857036264137030,2056,2058,2054,2056,2066,2053,1196
1606,1713857036274135293,2057,2053,2059,2058,2040,2056,1196
1607,1713857036284133587,2055,2049,1984,2036,2067,2062,1196
1608,1713857036294132122,2066,2065,2126,2082,2042,2045,1194
1609,1713857036304138754,2051,2069,2095,2043,2066,2055,1196
1610,1713857036314153645,2062,2040,2025,2058,2039,2050,1196
1611,1713857036324143360,2054,2088,2196,2063,2068,2061,1195
1612,1713857036334132022,2059,2041,2008,2061,2044,2057,1197
1613,1713857036344132872,2046,2057,2031,2045,2073,2054,1196
1614,1713857036354134633,2068,2042,2032,2073,2028,2055,1197
1615,1713857036364152480,2033,2053,2090,2054,2056,2065,1197
1616,1713857036374135570,2052,2045,2006,2061,2022,2037,1193
1617,1713857036384137392,2058,2062,2096,2060,2073,2066,1195
1618,1713857036394132960,2070,2077,2150,2072,2029,2070,1196
1619,1713857036404143120,2047,2045,2047,2039,2060,2030,1194
1620,1713857036414137435,2049,2047,2053,2065,2039,2057,1196
1621,1713857036424134015,2058,2064,2040,2064,2081,2060,1194
1622,1713857036434133141,2050,2045,2061,2056,2028,1978,1194
1623,1713857036444137929,2053,2064,2012,2063,2075,2065,1196
1624,1713857036454135772,2051,2042,2058,2058,2036,2051,1196
1625,1713857036464134246,2059,2050,1988,2062,2070,2056,1196
1626,1713857036474133262,2061,2044,2029,2058,2037,2058,1195
1627,1713857036484139213,2050,2068,2082,2057,2080,2072,1198
1628,1713857036494132746,2039,2018,1972,2056,2014,2012,1193
1629,1713857036504140189,2054,2045,2018,2050,2064,1986,1193
1630,1713857036514148786,2060,2083,2179,2090,2029,2052,1194
1631,1713857036524143231,2055,2046,2062,2059,2085,2064,1198
1632,1713857036534147399,2047,2035,2040,2043,2038,2054,1193
1633,1713857036544132292,2050,2057,2077,2053,2062,2033,1193
1634,1713857036554130566,2068,2054,2088,2066,2041,2077,1196
1635,1713857036564132849,2042,2038,1998,2047,2074,2058,1197
1636,1713857036574135212,2057,2032,1997,2061,2037,2041,1196
1637,1713857036584136422,2057,2082,2083,2072,2058,2040,1195
1638,1713857036594149970,2068,2058,2081,2064,2044,2067,1196
1639,1713857036604131456,2046,2053,2058,2040,2060,2034,1195
1640,1713857036614132856,2058,2066,2149,2068,2057,2078,1196
1641,1713857036624134468,2044,2047,2006,2044,2055,2049,1196
1642,1713857036634132131,2052,2027,2021,2058,2046,2084,1197
1643,1713857036644132749,2063,2054,2056,2049,2066,2047,1193
1644,1713857036654135743,2052,2032,2001,2067,2033,2047,1193
1645,1713857036664141424,2053,2056,2033,2046,2056,2053,1197
1646,1713857036674148037,2069,2057,2087,2064,2050,2065,1194
1647,1713857036684132079,2060,2056,2041,2057,2061,2032,1193
1648,1713857036694140936,2057,2063,2063,2057,2046,2071,1194
1649,1713857036704139450,2054,2058,2045,2049,2069,2045,1194
1650,1713857036714174075,2056,2033,2024,2050,2040,2053,1198
1651,1713857036724143034,2058,2076,2056,2054,2072,2067,1195
1652,1713857036734132067,2058,2028,2010,2045,2049,2056,1194
1653,1713857036744130300,2061,2066,2050,2052,2065,2061,1197
1654,1713857036754133464,2053,2036,2038,2052,2036,2061,1194
1655,1713857036764136820,2062,2090,2200,2068,2063,2046,1194
1656,1713857036774133109,2066,2058,2053,2064,2042,2058,1196
1657,1713857036784141866,2060,2052,2014,2051,2061,2051,1196
1658,1713857036794136702,2047,2028,2010,2056,2034,2054,1197
1659,1713857036804136479,2042,2059,2045,2059,2060,2050,1194
1660,1713857036814162996,2063,2044,2019,2056,2038,2060,1196
1661,1713857036824132336,2044,2044,2015,2040,2061,2036,1192
1662,1713857036834135600,2056,2042,2017,2057,2047,2068,1197
1663,1713857036844143345,2061,2066,2012,2048,2053,2043,1193
1664,1713857036854138381,2059,2070,2163,2072,2048,2067,1195
1665,1713857036864144744,2052,2052,2024,2050,2064,2046,1192
1666,1713857036874144731,2052,2029,2022,2054,2036,2050,1197
1667,1713857036884151474,2052,2037,2000,2024,2047,2042,1192
1668,1713857036894126335,2054,2053,2057,2064,2030,2052,1195
1669,1713857036904136706,2058,2074,2062,2052,2069,2058,1196
1670,1713857036914136564,2057,2045,2073,2055,2035,2054,1196
1671,1713857036924140570,2045,2043,2022,2044,2067,2047,1193
1672,1713857036934134163,2052,2022,1975,2044,2032,2055,1196
1673,1713857036944133459,2050,2054,2060,2051,2065,2050,1194
1674,1713857036954138128,2061,2050,2061,2049,2042,2052,1196
1675,1713857036964132783,2040,2039,2042,2045,2068,2057,1194
1676,1713857036974140057,2066,2078,2174,2073,2045,2083,1195
1677,1713857036984132106,2049,2048,2033,2044,2061,2043,1195
1678,1713857036994137235,2057,2044,2043,2060,2030,2048,1196
1679,1713857037004136742,2049,2044,2008,2045,2068,2056,1195
1680,1713857037014146883,2047,2039,2027,2061,2031,2056,1194
1681,1713857037024144928,2049,2061,2020,2045,2072,2051,1198
1682,1713857037034139857,2058,2032,2004,2057,2040,2053,1195
1683,1713857037044144898,2053,2062,2049,2046,2065,2049,1193
1684,1713857037054138804,2060,2076,2161,2078,2049,2060,1196
1685,1713857037064135075,2057,2056,2040,2056,2078,2046,1193
1686,1713857037074134353,2056,2037,2002,2055,2040,2057,1197
1687,1713857037084150218,2056,2052,2046,2045,2056,2050,1196
1688,1713857037094105167,2056,2047,2068,2064,2034,2056,1195
1689,1713857037104133480,2064,2058,2034,2051,2061,2044,1193
1690,1713857037114135594,2051,2037,2018,2044,2038,2052,1196
1691,1713857037124166272,2053,2048,1998,2052,2061,2048,1195
1692,1713857037134135153,2061,2052,2081,2043,2035,2046,1195
1693,1713857037144133669,2043,2050,2018,2049,2072,2038,1192
1694,1713857037154137527,2058,2040,2046,2072,2025,2056,1195
1695,1713857037164145966,2052,2050,2031,2044,2057,2045,1192
1696,1713857037174103161,2054,2034,2025,2058,2044,2068,1197
1697,1713857037184139692,2048,2049,2044,2049,2067,2041,1194
1698,1713857037194139251,2056,2047,2052,2057,2041,2056,1195
1699,1713857037204147920,2057,2061,2045,2052,2067,2052,1196
1700,1713857037214146296,2057,2047,2052,2056,2038,2056,1196
1701,1713857037224150956,2059,2081,2121,2056,2062,2052,1196
1702,1713857037234137054,2054,2033,2000,2060,2050,2064,1197
1703,1713857037244134959,2052,2052,2024,2050,2064,2053,1197
1704,1713857037254166088,2063,2046,2012,2056,2029,2043,1193
1705,1713857037264171069,2055,2046,2012,2042,2068,2060,1196
1706,1713857037274134658,2062,2055,2036,2064,2042,2046,1193
1707,1713857037284137744,2058,2066,2046,2066,2063,2045,1193
1708,1713857037294144088,2052,2033,2031,2050,2041,2048,1195
1709,1713857037304130728,2047,2064,2079,2052,2066,2056,1194
1710,1713857037314125055,2059,2042,2041,2045,2036,2042,1193
1711,1713857037324142894,2051,2047,2040,2059,2064,2061,1196
1712,1713857037334138344,2064,2054,2100,2064,2038,2064,1196
1713,1713857037344146892,2037,2052,2058,2052,2068,2061,1196
1714,1713857037354147233,2055,2044,2048,2046,2036,2048,1195
1715,1713857037364131528,2064,2077,2051,2064,2068,2059,1195
1716,1713857037374135195,2058,2056,2085,2047,2036,2064,1196
1717,1713857037384139174,2051,2068,2133,2061,2070,2050,1197
1718,1713857037394159308,2050,2028,2014,2047,2036,2047,1194
1719,1713857037404129852,2057,2072,2080,2062,2074,2066,1195
1720,1713857037414129010,2050,2033,2045,2061,2042,2058,1197
1721,1713857037424134272,2056,2056,2067,2052,2057,2064,1196
1722,1713857037434125452,2060,2058,2079,2066,2041,2066,1195
1723,1713857037444150647,2056,2067,2093,2045,2070,2050,1196
1724,1713857037454153012,2049,2051,2084,2052,2052,2060,1196
1725,1713857037464126543,2053,2049,2008,2042,2064,2051,1192
1726,1713857037474134801,2062,2060,2142,2069,2039,2053,1196
1727,1713857037484134129,2058,2075,2092,2053,2074,2049,1196
1728,1713857037494132535,2061,2047,2045,2058,2049,2050,1195
1729,1713857037504139601,2056,2066,2057,2047,2067,2052,1195
1730,1713857037514129758,2059,2050,2062,2059,2049,2053,1196
1731,1713857037524136433,2058,2066,2086,2062,2065,2045,1194
1732,1713857037534138617,2050,2043,2045,2050,2043,2062,1195
1733,1713857037544142676,2052,2061,2078,2044,2072,2054,1198
1734,1713857037554146885,2053,2036,1974,2061,2040,2050,1197
1735,1713857037564137444,2047,2045,2048,2046,2071,2056,1198
1736,1713857037574134267,2061,2062,2133,2072,2034,2054,1196
1737,1713857037584135881,2049,2059,2062,2049,2059,2043,1195
1738,1713857037594136842,2062,2057,2058,2067,2066,2077,1197
1739,1713857037604150041,2065,2056,2036,2049,2067,2047,1195
1740,1713857037614128944,2041,2022,1985,2046,2045,2064,1195
1741,1713857037624127741,2053,2040,2000,2032,2063,2052,1196
1742,1713857037634131148,2059,2048,2049,2053,2036,2052,1197
1743,1713857037644133132,2064,2077,2095,2057,2073,2057,1195
1744,1713857037654151172,2053,2052,2056,2047,2040,2065,1196
1745,1713857037664135367,2048,2038,2000,2051,2068,2056,1193
1746,1713857037674140087,2056,2048,2037,2064,2052,2058,1196
1747,1713857037684131166,2045,2056,2080,2064,2069,2052,1196
1748,1713857037694149276,2061,2045,2042,2056,2047,2054,1196
1749,1713857037704150619,2047,2062,2025,2051,2060,2047,1196
1750,1713857037714145267,2052,2051,2052,2059,2046,2064,1196
1751,1713857037724132769,2054,2052,2054,2084,2062,2048,1196
1752,1713857037734141417,2066,2057,2043,2069,2042,2043,1194
1753,1713857037744132658,2052,2054,2019,2057,2068,2045,1194
1754,1713857037754138390,2053,2049,2053,2057,2018,2042,1193
1755,1713857037764141296,2060,2078,2149,2072,2079,2060,1194
1756,1713857037774137678,2056,2046,2044,2060,2035,2049,1197
1757,1713857037784134651,2061,2067,2076,2053,2063,2056,1199
1758,1713857037794138218,2054,2053,2044,2056,2044,2060,1196
1759,1713857037804137667,2048,2052,2050,2044,2064,2056,1198
1760,1713857037814143479,2054,2025,2006,2057,2045,2067,1194
1761,1713857037824096655,2052,2076,2128,2064,2064,2054,1196
1762,1713857037834138287,2053,2032,2012,2043,2032,2044,1194
1763,1713857037844148269,2050,2055,2039,2078,2064,2051,1194
1764,1713857037854097636,2056,2050,2078,2058,2040,2048,1195
1765,1713857037864143177,2047,2052,2061,2037,2052,2058,1193
1766,1713857037874139739,2060,2045,2045,2049,2039,2058,1194
1767,1713857037884144990,2053,2053,2074,2053,2047,2054,1196
1768,1713857037894146593,2057,2036,2027,2051,2040,2039,1193
1769,1713857037904131870,2081,2072,2090,2052,2066,2068,1196
1770,1713857037914135398,2052,2067,2093,2047,2038,2050,1196
1771,1713857037924142844,2064,2068,2086,2057,2069,2056,1197
1772,1713857037934133443,2059,2033,2005,2047,2024,2056,1195
1773,1713857037944165995,2044,2050,2040,2056,2066,2056,1194
1774,1713857037954134384,2051,2030,2028,2054,2036,2052,1195
1775,1713857037964145799,2051,2054,2030,2053,2071,2051,1197
1776,1713857037974134525,2052,2049,2066,2071,2042,2044,1194
1777,1713857037984138533,2069,2074,2047,2046,2063,2051,1198
1778,1713857037994142081,2065,2049,2044,2053,2036,2050,1199
1779,1713857038004135175,2054,2049,2026,2040,2068,2044,1195
1780,1713857038014138411,2052,2041,2016,2050,2041,2052,1196
1781,1713857038024144586,2056,2081,2100,2058,2082,2064,1196
1782,1713857038034164853,2052,2039,2019,2068,2050,2067,1196
1783,1713857038044136270,2053,2046,2003,2048,2061,2036,1195
1784,1713857038054140772,2052,2048,2090,2060,2064,2072,1196
1785,1713857038064140572,2056,2056,2000,2048,2068,2051,1194
1786,1713857038074134561,2056,2048,2035,2055,2042,2044,1192
1787,1713857038084147831,2057,2060,2060,2078,2076,2069,1193
1788,1713857038094136658,2042,2024,2006,2040,2045,2070,1195
1789,1713857038104134234,2064,2079,2094,2057,2062,2059,1196
1790,1713857038114137403,2060,2044,2069,2068,2047,2049,1196
1791,1713857038124136672,2043,2040,2010,2040,2051,2035,1193
1792,1713857038134135461,2063,2055,2052,2044,2042,2056,1196
1793,1713857038144135211,2052,2052,2025,2052,2061,2046,1193
1794,1713857038154156210,2056,2053,2056,2062,2047,2049,1195
1795,1713857038164142781,2053,2065,2098,2064,2069,2056,1196
1796,1713857038174119772,2056,2040,2038,2056,2053,2068,1197
1797,1713857038184143666,2042,2053,2020,2056,2059,2040,1196
1798,1713857038194137875,2061,2042,2033,2040,2040,2064,1196
1799,1713857038204138587,2060,2065,2041,2036,2072,2043,1193
1800,1713857038214140403,2050,2030,2032,2067,2049,2053,1197
1801,1713857038224143831,2079,2076,2112,2064,2074,2067,1196
1802,1713857038234147602,2057,2034,2046,2056,2036,2032,1193
1803,1713857038244156402,2042,2032,2011,2052,2069,2056,1196
1804,1713857038254116184,2053,2043,2053,2093,2040,2072,1197
1805,1713857038264137122,2048,2056,2030,2049,2069,2052,1196
1806,1713857038274137966,2069,2075,2078,2072,2050,2068,1196
1807,1713857038284134369,2047,2062,2090,2047,2069,2040,1193
1808,1713857038294138570,2061,2051,2046,2054,2052,2072,1194
1809,1713857038304097680,2045,2052,2033,2043,2061,2057,1194
1810,1713857038314132920,2066,2052,2064,2060,2037,2053,1196
1811,1713857038324138794,2061,2067,2037,2055,2057,2048,1196
1812,1713857038334140580,2056,2045,2033,2060,2042,2064,1196
1813,1713857038344152688,2047,2045,2020,2045,2066,2056,1195
1814,1713857038354139370,2059,2024,1993,2046,2042,2064,1198
1815,1713857038364142438,2040,2035,2000,2045,2068,2050,1197
1816,1713857038374147059,2057,2044,2094,2064,2042,2058,1196
1817,1713857038384135164,2055,2047,2042,2053,2053,2048,1197
1818,1713857038394137872,2074,2074,2084,2046,2047,2058,1195
1819,1713857038404137101,2045,2051,2032,2041,2056,2028,1193
1820,1713857038414139698,2059,2050,2044,2058,2049,2058,1197
1821,1713857038424137405,2054,2076,2028,2052,2060,2053,1194
1822,1713857038434138418,2052,2036,2053,2065,2060,2055,1197
1823,1713857038444144173,2045,2042,2007,2035,2056,2047,1193
1824,1713857038454138291,2045,2026,2031,2054,2039,2056,1196
1825,1713857038464140407,2061,2056,2030,2051,2054,2047,1191
1826,1713857038474134275,2056,2068,2072,2072,2065,2052,1195
1827,1713857038484132101,2048,2041,2013,2047,2064,2049,1195
1828,1713857038494133375,2051,2046,2057,2072,2046,2058,1195
1829,1713857038504131863,2044,2077,2072,2057,2072,2048,1195
1830,1713857038514139271,2060,2038,2020,2048,2044,2044,1194
1831,1713857038524132387,2050,2052,2058,2036,2066,2047,1194
1832,1713857038534136668,2065,2052,2077,2065,2047,2051,1195
1833,1713857038544165183,2057,2069,2067,2058,2054,2052,1196
1834,1713857038554139918,2044,2034,2028,2050,2032,2039,1194
1835,1713857038564143868,2056,2058,2056,2048,2057,2052,1196
1836,1713857038574148981,2057,2045,2046,2056,2040,2053,1197
1837,1713857038584132195,2059,2077,2040,2038,2054,2056,1196
1838,1713857038594136275,2072,2046,2040,2054,2046,2064,1199
1839,1713857038604133691,2047,2042,2009,2052,2056,2042,1193
1840,1713857038614142321,2051,2040,2011,2047,2040,2044,1194
1841,1713857038624134044,2058,2072,2108,2057,2074,2084,1196
1842,1713857038634136201,2056,2036,2035,2053,2041,2069,1198
1843,1713857038644136412,2048,2056,2066,2056,2059,2054,1199
1844,1713857038654131573,2057,2064,2046,2048,2044,2061,1196
1845,1713857038664129780,2058,2071,2104,2046,2046,2056,1195
1846,1713857038674132357,2046,2044,2040,2044,2041,2050,1196
1847,1713857038684141058,2056,2048,2062,2050,2052,2051,1199
1848,1713857038694139356,2049,2040,2056,2048,2033,2029,1194
1849,1713857038704140500,2056,2058,2064,2046,2071,2064,1197
1850,1713857038714156186,2059,2053,2040,2055,2047,2056,1196
1851,1713857038724131492,2050,2047,2042,2045,2057,2052,1195
1852,1713857038734101787,2049,2034,2045,2056,2049,2059,1197
1853,1713857038744138340,2056,2056,2032,2061,2069,2044,1194
1854,1713857038754135545,2046,2061,2068,2064,2040,2063,1197
1855,1713857038764104448,2059,2053,2068,2054,2069,2045,1194
1856,1713857038774133083,2056,2039,2004,2056,2042,2050,1197
1857,1713857038784130729,2060,2064,2061,2076,2064,2049,1197
1858,1713857038794128665,2064,2064,2117,2062,2050,2052,1196
1859,1713857038804091364,2044,2045,2038,2056,2059,2048,1197
1860,1713857038814126323,2068,2044,2030,2060,2045,2061,1196
1861,1713857038824144044,2047,2051,2057,2052,2057,2056,1197
1862,1713857038834121876,2064,2064,2106,2084,2047,2054,1194
1863,1713857038844133023,2056,2076,2081,2060,2077,2054,1197
1864,1713857038854136140,2066,2047,2040,2056,2040,2058,1196
1865,1713857038864135010,2052,2052,2032,2046,2065,2041,1193
1866,1713857038874139370,2040,2014,1993,2060,2046,2050,1197
1867,1713857038884137558,2064,2073,2125,2060,2064,2067,1194
1868,1713857038894141057,2058,2047,2078,2065,2036,2047,1194
1869,1713857038904144035,2049,2054,2097,2069,2069,2050,1199
1870,1713857038914119561,2056,2066,2073,2053,2049,2064,1197
1871,1713857038924135068,2049,2052,2029,2052,2064,2062,1196
1872,1713857038934135630,2054,2050,2046,2052,2054,2052,1197
1873,1713857038944135933,2060,2070,2052,2051,2059,2056,1196
1874,1713857038954137707,2055,2045,2045,2057,2036,2045,1193
1875,1713857038964136076,2052,2050,2050,2058,2064,2049,1198
1876,1713857038974135776,2061,2057,2040,2057,2048,2058,1198
1877,1713857038984134475,2055,2072,2053,2071,2068,2053,1197
1878,1713857038994135167,2059,2059,2006,2074,2040,2047,1196
1879,1713857039004134177,2056,2046,2025,2041,2068,2055,1197
1880,1713857039014151255,2060,2051,2069,2058,2043,2052,1196
1881,1713857039024138550,2036,2032,2026,2036,2056,2051,1195
1882,1713857039034140337,2064,2052,2073,2073,2048,2061,1197
1883,1713857039044145941,2060,2068,2118,2051,2073,2068,1197
1884,1713857039054127944,2061,2046,2050,2050,2038,2045,1195
1885,1713857039064132978,2072,2109,2175,2073,2061,2058,1195
1886,1713857039074120924,2056,2044,2056,2043,2045,2068,1197
1887,1713857039084104530,2051,2057,2017,2032,2056,2058,1197
1888,1713857039094145654,2055,2036,2018,2053,2039,2048,1196
1889,1713857039104133520,2061,2072,2130,2045,2066,2058,1196
1890,1713857039114134275,2056,2052,2047,2050,2037,2042,1191
1891,1713857039124131120,2048,2041,2030,2027,2056,2042,1192
1892,1713857039134185865,2057,2040,1999,2060,2050,2058,1197
1893,1713857039144131967,2050,2060,2064,2043,2072,2063,1197
1894,1713857039154133463,2066,2047,2097,2064,2044,2050,1197
1895,1713857039164133466,2048,2076,2133,2057,2073,2056,1195
1896,1713857039174131374,2065,2047,1992,2067,2048,2073,1195
1897,1713857039184132218,2050,2053,2037,2054,2068,2060,1199
1898,1713857039194135318,2046,2055,2055,2064,2057,2062,1197
1899,1713857039204130360,2058,2055,2038,2057,2057,2049,1195
1900,1713857039214126494,2069,2050,2056,2055,2047,2057,1197
1901,1713857039224137471,2046,2056,2049,2056,2064,2048,1195
1902,1713857039234155344,2056,2040,2030,2053,2040,2060,1198
1903,1713857039244146055,2058,2053,2057,2055,2069,2057,1199
1904,1713857039254130894,2068,2108,2257,2100,2056,2069,1195
1905,1713857039264135046,2059,2069,2056,2052,2063,2067,1194
1906,1713857039274131541,2057,2051,2058,2061,2047,2046,1195
1907,1713857039284132636,2048,2048,2027,2044,2058,2041,1192
1908,1713857039294142111,2062,2052,2061,2056,2047,2068,1196
1909,1713857039304133343,2053,2052,2062,2056,2079,2058,1195
1910,1713857039314134148,2056,2077,2145,2063,2037,2059,1197
1911,1713857039324133830,2067,2069,2083,2047,2043,2041,1194
1912,1713857039334134935,2062,2079,2125,2071,2050,2083,1196
1913,1713857039344130979,2052,2036,2006,2043,2046,2049,1194
1914,1713857039354134820,2044,2042,2076,2077,2050,2058,1195
1915,1713857039364136236,2065,2059,2033,2053,2070,2069,1197
1916,1713857039374139115,2059,2036,2016,2043,2039,2035,1193
1917,1713857039384206638,2044,2049,2045,2048,2069,2074,1196
1918,1713857039394136574,2056,2050,2052,2052,2041,2059,1196
1919,1713857039404163878,2057,2074,2093,2071,2059,2072,1198
1920,1713857039414136780,2048,2045,2032,2060,2036,2051,1200
1921,1713857039424135420,2060,2069,2066,2056,2067,2052,1196
1922,1713857039434134952,2060,2056,2069,2060,2051,2056,1197
1923,1713857039444114178,2049,2041,2024,2046,2060,2060,1195
1924,1713857039454138445,2053,2042,2004,2062,2042,2046,1193
1925,1713857039464141936,2040,2049,2010,2047,2072,2061,1195
1926,1713857039474167555,2060,2050,2035,2070,2045,2052,1197
1927,1713857039484147212,2054,2063,2074,2056,2070,2053,1194
1928,1713857039494150032,2073,2076,2097,2060,2039,2052,1195
1929,1713857039504149412,2046,2056,2046,2056,2053,2063,1196
1930,1713857039514155299,2045,2040,2034,2056,2038,2050,1197
1931,1713857039524155822,2049,2046,2014,2049,2057,2052,1196
1932,1713857039534160856,2058,2064,2113,2058,2048,2054,1196
1933,1713857039544161681,2059,2047,2030,2046,2066,2058,1196
1934,1713857039554165743,2048,2036,2035,2052,2036,2065,1197
1935,1713857039564170676,2061,2068,2095,2053,2054,2052,1198
1936,1713857039574145583,2047,2056,2064,2074,2029,2044,1196
1937,1713857039584147370,2060,2068,2082,2061,2060,2069,1197
1938,1713857039594142351,2070,2105,2140,2062,2042,2052,1195
1939,1713857039604141512,2052,2056,2059,2059,2061,2054,1198
1940,1713857039614120639,2057,2044,2033,2041,2043,2054,1194
1941,1713857039624141928,2052,2046,2040,2023,2056,2046,1194
1942,1713857039634140037,2055,2041,2016,2046,2042,2050,1199
1943,1713857039644142164,2046,2045,2020,2053,2052,2045,1194
1944,1713857039654142908,2056,2043,2030,2046,2037,2052,1197
1945,1713857039664141218,2053,2056,2037,2058,2058,2054,1193
1946,1713857039674142493,2057,2048,2003,2049,2043,2053,1195
1947,1713857039684140672,2072,2057,2021,2047,2041,2037,1192
1948,1713857039694133308,2047,2035,2054,2070,2026,2071,1196
1949,1713857039704147472,2056,2053,2040,2048,2065,2050,1197
1950,1713857039714149449,2058,2043,2056,2058,2047,2047,1194
1951,1713857039724161890,2056,2057,2045,2045,2066,2054,1197
1952,1713857039734144072,2058,2061,2056,2070,2061,2061,1195
1953,1713857039744145418,2058,2059,2051,2058,2062,2052,1195
1954,1713857039754149961,2056,2056,2084,2053,2042,2050,1194
1955,1713857039764150625,2056,2058,2053,2069,2068,2060,1198
1956,1713857039774155108,2062,2042,2064,2066,2037,2037,1194
1957,1713857039784158709,2051,2044,2028,2056,2067,2060,1198
1958,1713857039794164795,2056,2040,2038,2060,2057,2041,1195
1959,1713857039804162553,2061,2062,2044,2058,2064,2045,1195
1960,1713857039814162937,2054,2038,2069,2070,2042,2052,1196
1961,1713857039824168501,2054,2046,2045,2064,2060,2038,1193
1962,1713857039834131622,2062,2056,2056,2057,2046,2050,1195
1963,1713857039844132967,2045,2046,2018,2045,2059,2056,1197
1964,1713857039854178331,2056,2039,1996,2056,2040,2051,1196
1965,1713857039864128192,2052,2044,2021,2041,2065,2065,1194
1966,1713857039874132054,2056,2068,2042,2073,2043,2046,1194
1967,1713857039884131855,2063,2089,2175,2057,2069,2057,1196
1968,1713857039894135547,2056,2047,2077,2060,2044,2049,1196
1969,1713857039904141252,2054,2062,2060,2051,2060,2053,1196
1970,1713857039914142798,2059,2057,2050,2061,2042,2048,1197
1971,1713857039924131255,2060,2068,2078,2049,2060,2063,1194
1972,1713857039934151533,2058,2053,2044,2063,2049,2069,1197
1973,1713857039944132603,2053,2046,2020,2054,2056,2056,1194
1974,1713857039954124278,2065,2050,2010,2046,2044,2051,1195
1975,1713857039964131877,2050,2058,2083,2034,2064,2052,1197
1976,1713857039974132702,2061,2052,2046,2056,2048,2060,1195
1977,1713857039984129277,2069,2096,2178,2073,2076,2066,1196
1978,1713857039994130492,2057,2047,2076,2066,2068,2056,1197
1979,1713857040004131169,2058,2062,2041,2054,2061,2052,1196
1980,1713857040014130822,2059,2036,1992,2050,2043,2054,1195
1981,1713857040024129573,2047,2043,2068,2062,2058,2040,1196
1982,1713857040034134247,2066,2055,2071,2066,2058,2060,1195
1983,1713857040044139091,2060,2058,2094,2064,2060,2054,1196
1984,1713857040054148096,2060,2068,2086,2061,2041,2036,1194
1985,1713857040064133797,2052,2060,2045,2054,2064,2053,1195
1986,1713857040074131695,2046,2044,2044,2057,2047,2054,1196
1987,1713857040084137202,2060,2069,2052,2066,2076,2061,1198
1988,1713857040094101716,2052,2033,2052,2060,2043,2045,1194
1989,1713857040104131967,2070,2086,2115,2076,2069,2064,1198
1990,1713857040114140159,2045,2038,2041,2051,2047,2062,1197
1991,1713857040124130522,2053,2054,2082,2057,2040,2047,1194
1992,1713857040134132760,2058,2061,2075,2062,2052,2057,1195
1993,1713857040144134157,2056,2073,2080,2052,2048,2046,1195
1994,1713857040154134822,2047,2052,2068,2057,2041,2050,1197
1995,1713857040164131508,2059,2066,2081,2068,2064,2068,1196
1996,1713857040174088245,2049,2038,2034,2056,2044,2043,1194
1997,1713857040184131195,2058,2069,2065,2062,2064,2054,1197
1998,1713857040194138314,2056,2064,2101,2069,2047,2057,1194
1999,1713857040204139060,2064,2065,2072,2060,2060,2064,1195
2000,1713857040214138692,2049,2042,2037,2047,2047,2047,1194
2001,1713857040224132843,2053,2060,2057,2056,2064,2054,1196
2002,1713857040234138469,2057,2062,2122,2064,2049,2048,1197
2003,1713857040244140869,2060,2080,2062,2064,2067,2065,1197
2004,1713857040254145683,2059,2042,2030,2049,2043,2047,1194
2005,1713857040264131305,2054,2073,2060,2051,2058,2032,1192
2006,1713857040274136900,2051,2033,2012,2048,2041,2056,1196
2007,1713857040284118493,2049,2056,2036,2046,2060,2055,1194
2008,1713857040294135204,2058,2064,2114,2057,2046,2056,1195
2009,1713857040304136681,2055,2046,2012,2041,2058,2047,1194
2010,1713857040314136955,2061,2069,2191,2072,2050,2064,1196
2011,1713857040324139475,2048,2044,2073,2062,2064,2052,1196
2012,1713857040334140290,2061,2038,2069,2062,2046,2055,1196
2013,1713857040344139081,2047,2045,2020,2055,2054,2040,1194
2014,1713857040354137812,2050,2040,2020,2059,2042,2054,1197
2015,1713857040364133887,2050,2047,2029,2054,2068,2056,1195
2016,1713857040374137558,2060,2056,2070,2052,2052,2056,1198
2017,1713857040384141471,2064,2073,2070,2056,2071,2057,1197
2018,1713857040394110556,2062,2072,2149,2068,2044,2056,1197
2019,1713857040404135155,2057,2059,2073,2068,2064,2056,1196
2020,1713857040414134526,2052,2042,2043,2056,2040,2052,1195
2021,1713857040424133337,2050,2052,2012,2078,2055,2051,1194
2022,1713857040434106391,2061,2034,2032,2064,2054,2060,1195
2023,1713857040444139208,2056,2072,2085,2056,2070,2062,1195
2024,1713857040454125741,2049,2049,2020,2057,2057,2059,1197
2025,1713857040464134144,2065,2080,2069,2060,2061,2054,1194
2026,1713857040474133065,2056,2046,2045,2060,2044,2054,1194
2027,1713857040484134432,2056,2072,2062,2046,2057,2045,1192
2028,1713857040494141181,2054,2064,2090,2065,2043,2053,1195
2029,1713857040504129979,2056,2056,2045,2047,2052,2051,1195
2030,1713857040514155640,2056,2039,2040,2056,2037,2051,1197
2031,1713857040524132673,2047,2056,2056,2045,2047,2051,1195
2032,1713857040534153022,2057,2049,2058,2061,2041,2044,1194
2033,1713857040544128090,2052,2050,2033,2050,2058,2047,1194
2034,1713857040554139409,2058,2057,2118,2060,2056,2049,1197
2035,1713857040564137849,2054,2052,2044,2067,2056,2040,1193
2036,1713857040574138564,2056,2042,2078,2058,2050,2056,1197
2037,1713857040584141484,2049,2043,2060,2046,2052,2054,1198
2038,1713857040594148053,2058,2059,2056,2061,2040,2054,1197
2039,1713857040604149118,2046,2047,2046,2056,2057,2053,1196
2040,1713857040614128597,2053,2041,2034,2052,2047,2056,1196
2041,1713857040624140125,2048,2043,2032,2038,2057,2051,1197
2042,1713857040634136491,2059,2051,2114,2068,2044,2036,1193
2043,1713857040644137968,2045,2051,2031,2044,2064,2055,1197
2044,1713857040654139906,2069,2061,2101,2074,2048,2041,1194
2045,1713857040664137434,2056,2037,1987,2056,2053,2044,1192
2046,1713857040674142419,2046,2030,2019,2057,2056,2061,1196
2047,1713857040684135998,2046,2033,2008,2043,2052,2046,1193
2048,1713857040694144842,2057,2047,2048,2056,2047,2052,1197
2049,1713857040704136817,2058,2059,2060,2065,2086,2053,1195
2050,1713857040714143637,2047,2032,2027,2046,2045,2049,1194
2051,1713857040724111889,2063,2061,2052,2048,2066,2065,1194
2052,1713857040734147483,2052,2049,2041,2064,2055,2047,1194
2053,1713857040744137173,2052,2052,2032,2051,2062,2048,1196
2054,1713857040754131374,2061,2060,2068,2064,2058,2057,1197
2055,1713857040764132700,2060,2066,2107,2072,2060,2064,1197
2056,1713857040774140191,2047,2033,2042,2048,2051,2052,1196
2057,1713857040784129671,2059,2059,2045,2053,2056,2049,1196
2058,1713857040794133143,2064,2076,2080,2056,2046,2049,1197
2059,1713857040804131602,2037,2030,2029,2047,2048,2051,1196
2060,1713857040814133240,2061,2061,2087,2058,2029,2040,1195
2061,1713857040824140540,2049,2051,2036,2056,2068,2066,1195
2062,1713857040834140373,2070,2082,2129,2064,2042,2062,1198
2063,1713857040844136648,2048,2056,2023,2059,2049,2047,1194
2064,1713857040854135690,2050,2041,2036,2047,2051,2061,1197
2065,1713857040864133058,2065,2068,2048,2064,2060,2057,1193
2066,1713857040874139306,2051,2062,2080,2056,2047,2053,1196
2067,1713857040884132464,2052,2058,2044,2049,2049,2053,1194
2068,1713857040894136878,2058,2050,2063,2058,2047,2051,1196
2069,1713857040904139447,2064,2082,2140,2061,2048,2040,1192
2070,1713857040914140684,2060,2045,2056,2047,2057,2066,1198
2071,1713857040924143934,2062,2064,2120,2057,2072,2068,1197
2072,1713857040934148729,2057,2059,2044,2056,2044,2053,1198
2073,1713857040944134089,2060,2082,2146,2077,2068,2062,1197
2074,1713857040954155180,2065,2069,2082,2059,2049,2052,1198
2075,1713857040964136652,2054,2063,2112,2056,2061,2041,1194
2076,1713857040974135473,2061,2047,2058,2061,2073,2056,1196
2077,1713857040984130486,2038,2056,2058,2060,2057,2054,1200
2078,1713857040994132864,2064,2056,2045,2057,2052,2061,1198
2079,1713857041004140308,2060,2062,2082,2061,2064,2068,1198
2080,1713857041014133557,2052,2050,2042,2058,2040,2037,1194
2081,1713857041024134413,2059,2072,2070,2045,2064,2054,1197
2082,1713857041034101354,2056,2060,2110,2064,2048,2047,1194
2083,1713857041044139333,2051,2046,2051,2042,2053,2053,1197
2084,1713857041054126569,2062,2050,2068,2056,2052,2052,1195
2085,1713857041064143481,2050,2048,2033,2056,2056,2057,1196
2086,1713857041074134405,2056,2047,2053,2064,2045,2053,1197
2087,1713857041084139280,2056,2062,2080,2061,2072,2047,1193
2088,1713857041094133842,2056,2046,2039,2059,2046,2061,1196
2089,1713857041104132162,2053,2064,2040,2061,2063,2071,1196
2090,1713857041114132487,2060,2054,2050,2062,2048,2049,1194
2091,1713857041124133975,2050,2035,2040,2048,2060,2053,1196
2092,1713857041134144012,2049,2033,2026,2061,2040,2052,1197
2093,1713857041144117296,2045,2052,2053,2049,2058,2057,1195
2094,1713857041154135180,2059,2057,2058,2051,2039,2042,1193
2095,1713857041164134102,2056,2056,2076,2046,2050,2052,1196
2096,1713857041174137414,2053,2043,2046,2053,2056,2062,1194
2097,1713857041184136566,2052,2057,2053,2055,2054,2046,1194
2098,1713857041194130908,2058,2045,2000,2057,2053,2044,1195
2099,1713857041204132125,2050,2044,2034,2051,2050,2048,1196
2100,1713857041214134074,2049,2040,2021,2054,2051,2056,1197
2101,1713857041224135401,2048,2058,2044,2088,2048,2041,1193
2102,1713857041234141869,2058,2044,2047,2066,2051,2053,1196
2103,1713857041244145201,2063,2057,2063,2064,2053,2057,1196
2104,1713857041254141026,2050,2061,2058,2068,2056,2058,1194
2105,1713857041264146001,2056,2063,2046,2049,2056,2053,1195
2106,1713857041274149263,2058,2048,2037,2046,2048,2057,1197
2107,1713857041284130445,2040,2044,2019,2045,2057,2052,1196
2108,1713857041294134649,2060,2052,2050,2068,2051,2052,1194
2109,1713857041304133030,2045,2037,2013,2045,2061,2041,1195
2110,1713857041314134046,2057,2058,2095,2067,2053,2058,1198
2111,1713857041324132849,2052,2059,2041,2058,2059,2061,1197
2112,1713857041334133464,2056,2066,2027,2052,2051,2059,1197
2113,1713857041344133689,2050,2040,2013,2040,2053,2046,1193
2114,1713857041354133202,2054,2047,2025,2051,2046,2045,1196
2115,1713857041364132164,2058,2072,2090,2056,2062,2052,1198
2116,1713857041374132890,2064,2085,2157,2068,2079,2050,1196
2117,1713857041384136302,2054,2050,2045,2052,2060,2068,1197
2118,1713857041394139955,2054,2056,2078,2056,2040,2044,1196
2119,1713857041404143417,2057,2058,2040,2059,2045,2047,1195
2120,1713857041414147169,2055,2068,2076,2052,2047,2046,1194
2121,1713857041424157126,2045,2037,2024,2044,2056,2050,1194
2122,1713857041434140112,2056,2045,2037,2048,2049,2065,1196
2123,1713857041444136238,2052,2052,2037,2058,2046,2059,1195
2124,1713857041454136913,2057,2060,2077,2061,2056,2049,1194
2125,1713857041464136487,2058,2058,2076,2044,2050,2047,1192
2126,1713857041474133605,2052,2058,2068,2056,2045,2058,1195
2127,1713857041484134000,2052,2049,2062,2057,2061,2055,1196
2128,1713857041494133964,2061,2040,2005,2052,2041,2049,1196
2129,1713857041504151156,2056,2061,2057,2051,2056,2053,1193
2130,1713857041514136378,2051,2062,2086,2064,2058,2060,1195
2131,1713857041524116548,2056,2056,2060,2061,2053,2046,1194
2132,1713857041534132478,2060,2065,2052,2057,2053,2037,1192
2133,1713857041544135128,2062,2064,2062,2064,2056,2052,1196
2134,1713857041554155588,2053,2047,2020,2058,2049,2054,1197
2135,1713857041564131979,2065,2085,2127,2064,2066,2056,1197
2136,1713857041574140362,2046,2047,2018,2040,2043,2048,1195
2137,1713857041584138252,2068,2049,2036,2053,2062,2058,1197
2138,1713857041594144751,2052,2041,2048,2094,2050,2047,1196
2139,1713857041604145817,2048,2037,2008,2053,2038,2040,1195
2140,1713857041614151494,2053,2044,2031,2046,2047,2052,1196
2141,1713857041624140634,2060,2058,2056,2058,2057,2061,1196
2142,1713857041634130656,2062,2080,2156,2075,2056,2053,1196
2143,1713857041644131733,2059,2060,2038,2057,2056,2062,1195
2144,1713857041654149447,2058,2052,2054,2075,2051,2053,1196
2145,1713857041664141423,2049,2053,2058,2059,2053,2053,1195
2146,1713857041674137168,2056,2052,2056,2064,2056,2053,1196
2147,1713857041684137192,2060,2065,2075,2061,2064,2056,1194
2148,1713857041694139471,2048,2049,2039,2054,2057,2050,1197
2149,1713857041704133863,2050,2047,2044,2052,2061,2058,1197
2150,1713857041714133777,2061,2056,2085,2057,2035,2049,1197
2151,1713857041724137319,2052,2059,2029,2044,2040,2049,1195
2152,1713857041734141694,2049,2040,2034,2048,2047,2068,1194
2153,1713857041744143903,2057,2056,2055,2055,2052,2050,1196
2154,1713857041754130136,2056,2049,2045,2054,2054,2053,1195
2155,1713857041764133278,2060,2051,2044,2060,2048,2053,1195
2156,1713857041774138704,2056,2052,2060,2048,2048,2052,1195
2157,1713857041784138187,2055,2060,2069,2056,2057,2056,1197
2158,1713857041794139484,2056,2056,2053,2059,2047,2056,1197
2159,1713857041804140050,2047,2044,2067,2056,2053,2052,1194
2160,1713857041814132998,2058,2042,2031,2056,2054,2059,1198
2161,1713857041824136530,2059,2061,2068,2060,2062,2065,1196
2162,1713857041834133658,2060,2048,2025,2053,2054,2056,1197
2163,1713857041844134514,2067,2091,2152,2072,2066,2056,1196
2164,1713857041854139831,2046,2042,2023,2048,2042,2044,1193
2165,1713857041864124851,2050,2030,2022,2051,2053,2044,1192
2166,1713857041874133315,2054,2061,2034,2068,2054,2047,1192
2167,1713857041884137699,2076,2081,2123,2066,2058,2064,1196
2168,1713857041894154470,2049,2045,2059,2058,2051,2050,1198
2169,1713857041904131233,2049,2052,2024,2056,2047,2042,1194
2170,1713857041914136689,2052,2045,2046,2057,2049,2053,1196
2171,1713857041924141083,2064,2049,2032,2045,2054,2062,1197
2172,1713857041934145036,2052,2048,2033,2058,2041,2052,1196
2173,1713857041944146494,2052,2058,2054,2041,2044,2050,1197
2174,1713857041954131284,2051,2064,2052,2081,2053,2048,1196
2175,1713857041964134285,2056,2055,2047,2061,2064,2060,1195
2176,1713857041974137246,2056,2057,2062,2066,2056,2046,1192
2177,1713857041984134996,2065,2072,2064,2072,2052,2050,1197
2178,1713857041994144642,2049,2037,2031,2051,2049,2053,1196
2179,1713857042004133925,2057,2070,2104,2065,2056,2064,1199
2180,1713857042014134139,2053,2059,2104,2072,2053,2047,1193
2181,1713857042024140678,2051,2045,2045,2049,2051,2056,1196
2182,1713857042034134198,2060,2069,2090,2054,2051,2052,1196
2183,1713857042044143233,2048,2041,2015,2046,2056,2056,1196
2184,1713857042054139229,2058,2061,2057,2057,2054,2068,1197
2185,1713857042064164790,2056,2058,2040,2054,2065,2074,1193
2186,1713857042074123362,2056,2046,2064,2054,2049,2049,1197
2187,1713857042084150417,2065,2079,2051,2049,2054,2057,1196
2188,1713857042094133344,2051,2036,1998,2056,2054,2052,1195
2189,1713857042104140715,2056,2053,2052,2056,2051,2050,1197
2190,1713857042114137141,2057,2044,2023,2057,2056,2053,1195
2191,1713857042124136374,2045,2048,2025,2052,2046,2045,1192
2192,1713857042134133051,2053,2037,2032,2060,2046,2043,1193
2193,1713857042144133276,2049,2060,2062,2051,2052,2048,1197
2194,1713857042154131416,2059,2074,2049,2051,2053,2046,1196
2195,1713857042164135721,2051,2055,2045,2042,2057,2058,1196
2196,1713857042174159058,2062,2070,2099,2051,2055,2049,1196
2197,1713857042184132703,2054,2044,2050,2050,2049,2053,1196
2198,1713857042194133249,2058,2064,2153,2073,2072,2061,1193
2199,1713857042204129565,2068,2061,2036,2053,2050,2052,1197
2200,1713857042214133158,2057,2062,2124,2065,2060,2056,1196
2201,1713857042224131719,2056,2073,2114,2061,2052,2061,1196
2202,1713857042234103320,2056,2057,2106,2056,2053,2045,1195
2203,1713857042244138544,2060,2080,2132,2069,2053,2052,1195
2204,1713857042254141976,2050,2060,2072,2060,2056,2062,1195
2205,1713857042264141439,2078,2093,2184,2088,2069,2076,1195
2206,1713857042274160306,2052,2046,2030,2049,2047,2034,1195
2207,1713857042284132198,2057,2061,2085,2051,2054,2051,1197
2208,1713857042294135771,2059,2051,2109,2040,2046,2064,1194
2209,1713857042304133761,2047,2036,1982,2052,2033,2045,1193
2210,1713857042314138225,2049,2034,1993,2037,2032,2056,1195
2211,1713857042324138831,2077,2114,2226,2064,2062,2059,1196
2212,1713857042334135769,2059,2044,2024,2042,2057,2056,1195
