seq,time,data[0],data[1],data[2],data[3],data[4],data[5],data[6]
201,1713858883976555577,2005,1974,2037,2060,1992,2047,1195
202,1713858883986586508,2117,2156,2102,2042,2130,2074,1197
203,1713858883996564660,2001,2003,2064,2073,1985,2048,1196
204,1713858884006556657,2122,2116,2074,2038,2136,2055,1197
205,1713858884016557552,1997,1971,2018,2061,1992,2060,1196
206,1713858884026554300,2116,2125,2060,2037,2130,2057,1196
207,1713858884036558783,2005,1978,2015,2061,1998,2042,1192
208,1713858884046556363,2108,2100,1972,2034,2120,2056,1197
209,1713858884056557300,2005,1974,2011,2060,1989,2061,1195
210,1713858884066555370,2108,2137,2124,2041,2137,2069,1196
211,1713858884076553110,2015,2000,2083,2069,1987,2047,1193
212,1713858884086558074,2122,2136,2093,2041,2138,2050,1196
213,1713858884096557988,2025,2001,2066,2088,1992,2044,1194
214,1713858884106557051,2107,2089,1950,2024,2124,2047,1193
215,1713858884116557747,2004,1989,2005,2068,1972,2040,1193
216,1713858884126555776,2091,2116,2105,2041,2126,2061,1197
217,1713858884136554158,1997,1972,1989,2053,1974,2047,1194
218,1713858884146552700,2107,2133,2047,2033,2123,2046,1192
219,1713858884156557784,2005,1972,2031,2084,1980,2058,1194
220,1713858884166558209,2120,2158,2172,2042,2137,2054,1197
221,1713858884176556279,2003,1976,2035,2054,1965,2037,1192
222,1713858884186553939,2104,2098,1980,2036,2118,2045,1193
223,1713858884196556919,2020,1974,1969,2090,1986,2082,1196
224,1713858884206554630,2092,2108,2011,2037,2128,2068,1196
225,1713858884216555716,2008,1969,2042,2060,1971,2046,1192
226,1713858884226554238,2112,2119,2054,2029,2128,2015,1193
227,1713858884236556977,2016,2016,2037,2077,1983,2055,1194
228,1713858884246554867,2097,2081,1980,2021,2120,2019,1193
229,1713858884256554571,1990,1976,2032,2056,1972,2035,1190
230,1713858884266552011,2120,2142,2178,2045,2129,2047,1193
231,1713858884276554681,2000,1956,1970,2061,1981,2050,1194
232,1713858884286555345,2100,2120,2017,2055,2144,2065,1193
233,1713858884296557734,2010,1964,1973,2074,1971,2053,1196
234,1713858884306558080,2096,2090,2008,2021,2128,2054,1196
235,1713858884316554618,2012,2020,2083,2064,1989,2059,1198
236,1713858884326554903,2094,2086,1985,2028,2114,2005,1193
237,1713858884336555016,1989,1968,1946,2060,1984,2036,1193
238,1713858884346553598,2110,2114,2041,2020,2120,2061,1195
239,1713858884356556158,2032,2044,2041,2074,1995,2051,1195
240,1713858884366552886,2104,2126,2053,2035,2140,2056,1195
241,1713858884376554253,2018,1977,2072,2073,1965,2026,1192
242,1713858884386552844,2104,2128,2036,2040,2115,2024,1192
243,1713858884396556145,2012,1992,2053,2072,1992,2096,1196
244,1713858884406554516,2121,2140,2089,2041,2125,2036,1193
245,1713858884416555593,2002,1981,2014,2070,1984,2067,1197
246,1713858884426554425,2100,2106,1997,2030,2132,2056,1196
247,1713858884436558266,2032,2049,2132,2091,2002,2061,1196
248,1713858884446554203,2170,2280,2408,2091,2158,2068,1196
249,1713858884456558165,1994,1999,2138,2068,1995,2068,1193
250,1713858884466556396,2122,2148,2088,2060,2147,2060,1194
251,1713858884476557743,2018,1986,2025,2054,1964,2024,1193
252,1713858884486561284,2125,2151,2061,2050,2136,2060,1197
253,1713858884496558944,2005,1996,2042,2072,1984,2044,1193
254,1713858884506560702,2112,2135,2113,2048,2133,2069,1196
255,1713858884516561558,2010,2045,2068,2072,1990,2032,1193
256,1713858884526562604,2096,2070,1919,2016,2123,2053,1194
257,1713858884536561567,1998,1988,2045,2055,1982,2067,1194
258,1713858884546561811,2109,2120,2131,2053,2112,2010,1192
259,1713858884556564420,2020,2000,2114,2086,1997,2054,1196
260,1713858884566561529,2102,2129,2115,2032,2138,2061,1197
261,1713858884576563237,2010,2044,2077,2065,1982,2062,1196
262,1713858884586565997,2094,2116,2043,2029,2128,2061,1195
263,1713858884596564638,2001,1966,1951,2056,1995,2047,1193
264,1713858884606565354,2104,2085,1956,2008,2148,2095,1196
265,1713858884616567192,2020,2024,2065,2072,1984,2044,1193
266,1713858884626565804,2109,2108,2029,2039,2124,2057,1197
267,1713858884636567071,2011,1981,2008,2060,1977,2050,1197
268,1713858884646569449,2114,2145,2082,2037,2126,2058,1197
269,1713858884656568562,2005,1990,2043,2068,1976,2047,1195
270,1713858884666568626,2104,2123,2041,2043,2143,2093,1196
271,1713858884676570575,2027,2032,2086,2070,2002,2054,1195
272,1713858884686569908,2113,2141,2096,2042,2132,2058,1194
273,1713858884696556716,2020,2003,2131,2068,1983,2052,1197
274,1713858884706557132,2108,2110,2035,2036,2130,2065,1196
275,1713858884716555443,2001,1976,2032,2056,1977,2057,1196
276,1713858884726553854,2104,2112,2024,2028,2120,2053,1196
277,1713858884736555642,2011,2005,2052,2062,2000,2050,1195
278,1713858884746552621,2096,2098,2002,2032,2120,2056,1195
279,1713858884756557905,2016,2024,2052,2082,1972,2045,1193
280,1713858884766557048,2088,2070,1970,2029,2132,2072,1197
281,1713858884776556291,2016,1985,2018,2065,1989,2037,1191
282,1713858884786554442,2101,2117,2053,2041,2135,2054,1196
283,1713858884796554777,2038,2053,2193,2100,2000,2062,1196
284,1713858884806555943,2092,2113,2095,2039,2128,2022,1194
285,1713858884816557711,2002,2019,2140,2058,2000,2077,1194
286,1713858884826551403,2096,2093,1992,2024,2109,2045,1194
287,1713858884836553432,2010,1989,2033,2057,1964,2044,1192
288,1713858884846556161,2087,2078,1976,2016,2115,2048,1195
289,1713858884856555874,2014,1952,1963,2066,2000,2068,1192
290,1713858884866559426,2098,2072,1965,2020,2116,2052,1196
291,1713858884876557236,2036,2066,2214,2086,2013,2075,1196
292,1713858884886555938,2124,2124,2064,2038,2124,2046,1194
293,1713858884896565872,1994,1961,2020,2057,1981,2046,1192
294,1713858884906555946,2094,2096,2019,2033,2134,2057,1194
295,1713858884916555129,2046,2116,2317,2102,2017,2069,1195
296,1713858884926552980,2097,2128,2141,2039,2120,2049,1193
297,1713858884936554026,2024,1990,2068,2061,1996,2052,1197
298,1713858884946563719,2085,2062,1933,2019,2129,2044,1192
299,1713858884956559365,2018,2000,2052,2074,1995,2056,1195
300,1713858884966556193,2099,2120,2026,2041,2134,2052,1198
301,1713858884976557660,2024,2005,2063,2073,2004,2066,1198
302,1713858884986554899,2100,2113,2015,2046,2120,2056,1198
303,1713858884996560134,2021,1982,2026,2064,1976,2040,1193
304,1713858885006560319,2120,2152,2098,2056,2146,2066,1196
305,1713858885016560575,2014,2014,2044,2077,2000,2052,1196
306,1713858885026553938,2106,2100,2064,2032,2128,2062,1196
307,1713858885036561379,2008,1986,2044,2064,1980,2045,1193
308,1713858885046558990,2112,2117,2006,2042,2132,2057,1197
309,1713858885056558265,2010,1988,2053,2076,1978,2047,1192
310,1713858885066557228,2104,2146,2154,2040,2128,2076,1195
311,1713858885076556322,2019,1989,2029,2064,1991,2048,1197
312,1713858885086555006,2088,2100,1989,2034,2125,2052,1196
313,1713858885096560322,2020,2020,2095,2090,1991,2061,1196
314,1713858885106555859,2088,2078,1978,2022,2117,2050,1195
315,1713858885116557017,2013,2001,2056,2070,2000,2054,1197
316,1713858885126557695,2106,2104,2030,2038,2122,2060,1196
317,1713858885136559995,2019,2001,2080,2068,1994,2061,1195
318,1713858885146557145,2102,2143,2144,2042,2131,2045,1193
319,1713858885156557251,2015,2022,2128,2067,1993,2066,1196
320,1713858885166555945,2114,2153,2065,2040,2135,2072,1194
321,1713858885176561561,2017,2020,2052,2066,1970,2053,1197
322,1713858885186558672,2103,2104,2050,2037,2128,2059,1198
323,1713858885196562315,2008,2004,2032,2077,1985,2052,1195
324,1713858885206553915,2114,2146,2084,2045,2118,2068,1196
325,1713858885216556856,2000,1986,2047,2057,1974,2040,1194
326,1713858885226554016,2104,2136,2096,2050,2123,2045,1193
327,1713858885236556677,2015,1997,2037,2078,1997,2053,1195
328,1713858885246557334,2102,2112,2012,2046,2132,2060,1193
329,1713858885256555357,2002,2000,2096,2062,2002,2049,1194
330,1713858885266555423,2100,2104,2070,2035,2135,2051,1194
331,1713858885276555819,2010,1986,2050,2072,1989,2050,1195
332,1713858885286559793,2101,2112,2030,2035,2140,2056,1198
333,1713858885296563996,2021,2011,2080,2068,1988,2056,1195
334,1713858885306554765,2104,2108,2040,2045,2129,2056,1196
335,1713858885316556484,2006,1989,2058,2076,1982,2043,1192
336,1713858885326556300,2100,2116,2072,2030,2120,2051,1196
337,1713858885336554151,2013,2012,2033,2072,1998,2046,1193
338,1713858885346553205,2120,2140,2158,2051,2129,2061,1196
339,1713858885356554624,2017,2002,2068,2071,1994,2062,1196
340,1713858885366553547,2086,2093,1990,2030,2112,2044,1194
341,1713858885376553554,2018,2009,2101,2072,2000,2057,1196
342,1713858885386556856,2099,2105,2029,2033,2112,2052,1197
343,1713858885396557703,2014,1993,2061,2072,1986,2043,1195
344,1713858885406553361,2105,2114,2053,2041,2122,2056,1196
345,1713858885416553887,2012,1992,2074,2068,1990,2057,1192
346,1713858885426557039,2112,2142,2170,2066,2134,2066,1194
347,1713858885436554591,2012,2008,2080,2061,1981,2039,1193
348,1713858885446558194,2095,2084,1984,2026,2112,2048,1195
349,1713858885456560404,2016,1999,2040,2058,1997,2050,1194
350,1713858885466556372,2102,2104,2042,2036,2122,2072,1194
351,1713858885476553181,2008,2021,2089,2076,1988,2048,1195
352,1713858885486552476,2098,2123,2072,2044,2120,2050,1194
353,1713858885496554967,2008,1997,2045,2064,1984,2050,1196
354,1713858885506556676,2092,2098,2045,2041,2132,2062,1196
355,1713858885516558094,2018,2001,2045,2074,1988,2049,1194
356,1713858885526555616,2107,2125,2085,2045,2124,2052,1196
357,1713858885536554059,2020,2032,2096,2079,1995,2050,1195
358,1713858885546557190,2094,2095,2031,2041,2120,2056,1196
359,1713858885556555002,2020,1981,2042,2059,1992,2065,1194
360,1713858885566558024,2100,2113,2034,2036,2124,2044,1194
361,1713858885576555475,2010,2004,2066,2064,1992,2056,1196
362,1713858885586558396,2098,2100,2037,2036,2129,2056,1195
363,1713858885596554876,2030,2026,2120,2081,1995,2070,1196
364,1713858885606559110,2081,2091,2016,2034,2122,2052,1194
365,1713858885616556681,2008,1994,2060,2065,1982,2047,1195
366,1713858885626559292,2090,2104,2010,2036,2120,2051,1195
367,1713858885636554568,2028,1990,2023,2076,1986,2051,1194
368,1713858885646557349,2089,2109,2047,2036,2130,2064,1195
369,1713858885656555512,2008,1997,2046,2065,1990,2059,1194
370,1713858885666557181,2087,2102,2026,2030,2122,2056,1195
371,1713858885676553981,2033,2056,2199,2077,1990,2050,1193
372,1713858885686557233,2109,2125,2117,2046,2136,2072,1193
373,1713858885696555756,2008,2019,2124,2072,1985,2036,1193
374,1713858885706555681,2096,2107,2052,2049,2131,2048,1195
375,1713858885716558243,2020,2001,2052,2074,1976,2053,1195
376,1713858885726557377,2111,2128,2049,2049,2132,2058,1195
377,1713858885736556922,2008,2003,2066,2068,1986,2062,1196
378,1713858885746558530,2109,2116,2024,2034,2134,2056,1196
379,1713858885756559408,2015,1998,2007,2062,1985,2052,1195
380,1713858885766558151,2100,2101,2000,2047,2121,2050,1195
381,1713858885776558779,2001,1994,2042,2069,1986,2057,1197
382,1713858885786562141,2112,2154,2142,2045,2130,2068,1197
383,1713858885796560333,2003,1998,2053,2064,1981,2050,1196
384,1713858885806561321,2104,2104,2043,2037,2124,2050,1196
385,1713858885816563471,2016,2010,2073,2069,1996,2058,1196
386,1713858885826569709,2091,2108,2080,2036,2112,2050,1195
387,1713858885836563543,2017,1981,1984,2056,1988,2056,1195
388,1713858885846566174,2082,2094,2012,2038,2125,2060,1195
389,1713858885856564667,2018,1996,2070,2074,1983,2048,1193
390,1713858885866564753,2096,2117,2123,2052,2124,2054,1194
391,1713858885876567263,1992,1984,2052,2061,1994,2056,1195
392,1713858885886568021,2110,2124,2056,2056,2129,2072,1196
393,1713858885896566885,1999,1984,2038,2061,1982,2050,1196
394,1713858885906569325,2094,2090,1989,2028,2108,2051,1196
395,1713858885916569431,2004,1981,2036,2065,1994,2052,1194
396,1713858885926567664,2108,2129,2124,2040,2123,2045,1193
397,1713858885936568852,2031,2003,2080,2072,1977,2052,1195
398,1713858885946571162,2086,2097,2022,2037,2109,2052,1196
399,1713858885956570096,2024,2021,2073,2071,1983,2052,1195
400,1713858885966552789,2102,2097,2018,2044,2124,2061,1197
401,1713858885976574035,2024,2013,2068,2067,1992,2054,1197
402,1713858885986554955,2107,2118,2012,2050,2122,2059,1194
403,1713858885996574258,2019,2003,2052,2072,1995,2050,1196
404,1713858886006556529,2088,2089,2026,2037,2117,2049,1195
405,1713858886016555896,2020,2008,2064,2073,1985,2053,1196
406,1713858886026581102,2096,2099,2052,2037,2117,2044,1195
407,1713858886036575238,2029,2058,2148,2077,2006,2056,1196
408,1713858886046556269,2088,2089,2018,2031,2112,2055,1195
409,1713858886056558210,2008,1997,2076,2075,1984,2053,1193
410,1713858886066558368,2098,2109,2056,2032,2124,2052,1194
411,1713858886076558776,2008,1992,2000,2065,1997,2056,1193
412,1713858886086554645,2085,2093,2069,2040,2123,2058,1196
413,1713858886096559422,2019,2023,2160,2070,1999,2049,1195
414,1713858886106557455,2101,2112,2069,2040,2122,2047,1193
415,1713858886116556922,2009,1988,2020,2058,1988,2058,1195
416,1713858886126554955,2094,2096,2024,2045,2109,2048,1195
417,1713858886136563319,2012,1996,2043,2070,1993,2056,1194
418,1713858886146555782,2097,2098,2033,2054,2112,2049,1195
419,1713858886156558975,2009,1993,2045,2064,1990,2047,1194
420,1713858886166556900,2098,2109,2032,2041,2109,2057,1198
421,1713858886176566145,2011,2012,2068,2062,1996,2051,1195
422,1713858886186555341,2088,2106,2049,2042,2112,2042,1194
423,1713858886196556711,2014,1999,2044,2072,1995,2066,1194
424,1713858886206555767,2096,2108,2071,2040,2114,2048,1196
425,1713858886216558990,2014,2021,2112,2071,1986,2050,1197
426,1713858886226556313,2090,2077,2002,2032,2117,2055,1195
427,1713858886236555348,2018,2009,2124,2072,1992,2051,1194
428,1713858886246563150,2088,2100,2023,2037,2112,2052,1196
429,1713858886256557066,2028,2020,2139,2072,1984,2050,1194
430,1713858886266566752,2096,2112,2072,2040,2101,2056,1195
431,1713858886276562712,1987,1969,1988,2054,1985,2048,1195
432,1713858886286555966,2113,2124,2125,2057,2110,2061,1196
433,1713858886296564350,2013,2001,2072,2073,2009,2068,1197
434,1713858886306560900,2093,2124,2132,2050,2100,2060,1196
435,1713858886316559315,2010,1986,2048,2054,1999,2047,1192
436,1713858886326556707,2096,2136,2178,2051,2123,2042,1195
437,1713858886336560572,2013,1977,1986,2062,1979,2041,1193
438,1713858886346556551,2099,2094,2042,2051,2113,2048,1194
439,1713858886356557931,2017,2008,2048,2068,1996,2059,1196
440,1713858886366560103,2120,2164,2234,2064,2120,2056,1197
441,1713858886376558357,2020,1994,2021,2058,2006,2061,1196
442,1713858886386556861,2082,2080,1992,2036,2106,2040,1194
443,1713858886396559544,2017,1993,1982,2074,1997,2052,1195
444,1713858886406558319,2097,2098,2055,2037,2109,2052,1194
445,1713858886416557625,2018,2001,2016,2060,1984,2052,1194
446,1713858886426557983,2097,2105,2054,2046,2098,2045,1193
447,1713858886436558161,2029,2027,2168,2077,2012,2066,1195
448,1713858886446549292,2093,2096,2004,2041,2096,2048,1197
449,1713858886456560170,2018,2030,2052,2081,1996,2052,1193
450,1713858886466557272,2098,2126,2099,2053,2116,2069,1195
451,1713858886476558602,2011,1992,2021,2049,1996,2041,1190
452,1713858886486556285,2073,2051,1982,2036,2108,2052,1194
453,1713858886496557986,2026,1973,2004,2060,1997,2058,1194
454,1713858886506558594,2093,2088,2020,2044,2112,2047,1193
455,1713858886516559974,2011,2000,2064,2068,1981,2050,1197
456,1713858886526558499,2104,2097,2058,2045,2114,2047,1192
457,1713858886536558175,2024,2006,2085,2074,2002,2058,1195
458,1713858886546559686,2098,2100,2085,2059,2112,2058,1195
459,1713858886556556998,2028,2024,2094,2054,2000,2053,1197
460,1713858886566557356,2088,2088,2034,2034,2120,2052,1198
461,1713858886576556011,2020,2012,2126,2072,1988,2046,1193
462,1713858886586557581,2093,2130,2121,2062,2121,2055,1197
463,1713858886596568479,2016,2005,2070,2068,2002,2052,1197
464,1713858886606558067,2095,2121,2163,2053,2103,2052,1197
465,1713858886616559096,2023,2028,2048,2062,2000,2056,1196
466,1713858886626554895,2092,2098,2049,2026,2099,2045,1194
467,1713858886636558890,2024,2036,2164,2085,2001,2063,1196
468,1713858886646557084,2078,2074,2001,2034,2102,2068,1195
469,1713858886656560047,2008,2009,2057,2065,1980,2040,1191
470,1713858886666557249,2084,2100,2054,2040,2105,2048,1196
471,1713858886676563739,2016,2002,2048,2072,2006,2051,1195
472,1713858886686562253,2088,2104,2055,2046,2110,2052,1195
473,1713858886696566198,2003,2004,2040,2056,1997,2048,1193
474,1713858886706560665,2101,2129,2147,2068,2120,2058,1195
475,1713858886716560963,2020,1997,2043,2057,2005,2056,1195
476,1713858886726561092,2093,2102,2059,2040,2101,2048,1196
477,1713858886736561871,2014,2010,2078,2060,2005,2052,1195
478,1713858886746561768,2101,2082,2033,2040,2108,2047,1194
479,1713858886756564070,2013,2008,2005,2074,2002,2057,1198
480,1713858886766563386,2073,2083,2037,2025,2106,2040,1193
481,1713858886776567351,2021,2031,2059,2064,2000,2051,1197
482,1713858886786566156,2080,2104,2089,2048,2112,2052,1195
483,1713858886796565261,2022,2007,2083,2061,2001,2046,1193
484,1713858886806565770,2082,2071,2025,2036,2097,2044,1194
485,1713858886816566929,2024,2010,2069,2060,2001,2052,1198
486,1713858886826568379,2073,2069,2005,2045,2101,2045,1196
487,1713858886836566974,2034,2028,2092,2072,2007,2062,1198
488,1713858886846575668,2081,2082,2033,2053,2121,2044,1194
489,1713858886856568251,2022,2015,2055,2054,1991,2056,1194
490,1713858886866552639,2084,2089,2052,2043,2108,2052,1197
491,1713858886876569057,2018,2004,2068,2051,1992,2048,1197
492,1713858886886555288,2081,2089,2038,2047,2112,2065,1197
493,1713858886896554655,2025,2024,2111,2064,1996,2054,1194
494,1713858886906552788,2083,2086,2034,2040,2098,2049,1197
495,1713858886916555972,2024,2002,2058,2066,2012,2054,1196
496,1713858886926554627,2093,2115,2099,2042,2104,2061,1197
497,1713858886936559293,2044,2029,2092,2074,2004,2068,1195
498,1713858886946553860,2077,2076,2028,2056,2112,2068,1195
499,1713858886956555540,2044,2050,2192,2086,2007,2060,1195
500,1713858886966554896,2081,2086,2044,2038,2104,2057,1197
501,1713858886976557479,2032,2045,2090,2072,2002,2056,1197
502,1713858886986555112,2084,2082,2024,2060,2109,2054,1196
503,1713858886996556381,2008,2001,2038,2064,1994,2068,1196
504,1713858887006557521,2088,2097,2039,2046,2105,2035,1194
505,1713858887016554935,2030,2024,2082,2059,2000,2053,1198
506,1713858887026557990,2086,2088,2030,2055,2096,2054,1197
507,1713858887036558469,2026,2018,2028,2075,2001,2058,1197
508,1713858887046556395,2075,2069,2002,2042,2107,2055,1198
509,1713858887056557455,2034,2043,2091,2069,2006,2063,1195
510,1713858887066555450,2089,2089,2033,2041,2112,2049,1196
511,1713858887076556181,2014,2014,2056,2052,2013,2060,1196
512,1713858887086558073,2088,2096,2060,2047,2106,2058,1196
513,1713858887096556519,2021,2013,2076,2060,1998,2050,1194
514,1713858887106555987,2092,2114,2090,2052,2112,2052,1194
515,1713858887116557559,2025,2005,2034,2053,1998,2051,1195
516,1713858887126555845,2092,2110,2104,2044,2109,2052,1196
517,1713858887136557396,2026,2020,2064,2056,1994,2056,1194
518,1713858887146554950,2085,2090,2074,2052,2108,2052,1198
519,1713858887156557785,2032,2030,2112,2076,2009,2054,1193
520,1713858887166556542,2097,2084,2037,2039,2112,2058,1197
521,1713858887176555939,2035,2034,2176,2081,2010,2054,1196
522,1713858887186554355,2078,2090,2026,2040,2109,2052,1196
523,1713858887196557300,2029,2021,2042,2069,2004,2053,1194
524,1713858887206557639,2088,2098,2068,2048,2108,2051,1198
525,1713858887216558339,2004,1988,2010,2056,1997,2049,1197
526,1713858887226554822,2085,2098,2092,2056,2123,2056,1196
527,1713858887236555893,2033,2052,2114,2064,2005,2047,1194
528,1713858887246559959,2092,2100,2106,2046,2120,2053,1197
529,1713858887256555570,2015,1986,2016,2056,2005,2054,1194
530,1713858887266554326,2086,2100,2037,2047,2104,2045,1192
531,1713858887276557582,2024,2038,2061,2069,1999,2065,1196
532,1713858887286557701,2079,2089,2052,2051,2106,2049,1197
533,1713858887296558692,2029,2033,2070,2064,2002,2058,1194
534,1713858887306558400,2104,2101,2064,2040,2100,2056,1194
535,1713858887316557307,2033,2050,2137,2080,2005,2058,1194
536,1713858887326554830,2086,2099,2120,2048,2104,2057,1196
537,1713858887336558126,2028,2025,2041,2060,2005,2052,1194
538,1713858887346554117,2089,2092,2065,2053,2109,2063,1196
539,1713858887356555058,2021,2004,2082,2069,1996,2062,1195
540,1713858887366557141,2100,2106,2080,2039,2098,2052,1197
541,1713858887376559925,2015,2008,2082,2063,2000,2054,1195
542,1713858887386554384,2094,2125,2056,2054,2100,2059,1195
543,1713858887396554653,2018,2013,2040,2065,2003,2066,1196
544,1713858887406559151,2083,2093,2036,2047,2101,2050,1196
545,1713858887416555993,2020,1998,2010,2064,1994,2056,1196
546,1713858887426553287,2085,2064,2010,2034,2092,2042,1194
547,1713858887436556081,2025,2005,2025,2064,2005,2050,1195
548,1713858887446562603,2085,2072,1998,2036,2099,2048,1196
549,1713858887456556941,2043,2012,2064,2066,2010,2062,1195
550,1713858887466553323,2088,2093,2054,2047,2114,2056,1196
551,1713858887476556298,2027,2024,2064,2069,2009,2059,1196
552,1713858887486556607,2080,2074,2028,2047,2108,2052,1196
553,1713858887496554000,2024,2010,2018,2060,1995,2040,1193
554,1713858887506553820,2094,2092,2054,2046,2099,2061,1195
555,1713858887516557215,2026,2000,2036,2056,2000,2053,1196
556,1713858887526558726,2097,2100,2078,2044,2109,2057,1194
557,1713858887536560178,2024,2002,2080,2067,1997,2054,1196
558,1713858887546555458,2102,2149,2168,2066,2114,2050,1196
559,1713858887556556209,2026,2019,2029,2064,2010,2046,1193
560,1713858887566557510,2084,2092,2048,2040,2105,2051,1197
561,1713858887576557249,2033,2067,2160,2089,2009,2043,1192
562,1713858887586556125,2075,2097,2052,2044,2104,2046,1194
563,1713858887596560702,2031,2072,2252,2086,2020,2066,1197
564,1713858887606554169,2086,2084,2044,2032,2098,2052,1197
565,1713858887616556252,2020,2021,2047,2057,2008,2064,1196
566,1713858887626556621,2081,2109,2072,2046,2109,2044,1192
567,1713858887636557943,2021,2009,2047,2056,2001,2056,1196
568,1713858887646557020,2093,2105,2050,2047,2104,2055,1195
569,1713858887656556999,2022,2011,2047,2064,2000,2057,1195
570,1713858887666557379,2080,2100,2046,2051,2109,2054,1196
571,1713858887676556345,2036,2030,2106,2069,2012,2056,1195
572,1713858887686555804,2085,2108,2038,2045,2106,2052,1196
573,1713858887696566453,2027,2053,2149,2080,2008,2057,1196
574,1713858887706554919,2077,2077,2044,2026,2100,2058,1193
575,1713858887716559778,2034,2008,2049,2068,2007,2058,1196
576,1713858887726560187,2098,2132,2120,2064,2113,2058,1195
577,1713858887736556349,2025,2024,2062,2060,2018,2058,1198
578,1713858887746557490,2082,2081,2030,2055,2114,2053,1197
579,1713858887756559062,2029,2020,2073,2063,1994,2058,1196
580,1713858887766558210,2103,2125,2113,2051,2105,2056,1198
581,1713858887776557567,2019,2013,2089,2080,2013,2061,1195
582,1713858887786556924,2077,2100,2075,2038,2092,2052,1195
583,1713858887796561462,2020,2000,2037,2053,2011,2065,1196
584,1713858887806556592,2081,2095,2095,2052,2109,2047,1193
585,1713858887816556591,2030,2011,2017,2067,2007,2058,1196
586,1713858887826559696,2077,2080,2044,2041,2100,2052,1197
587,1713858887836559615,2032,2053,2152,2076,2003,2054,1193
588,1713858887846553722,2081,2093,2029,2039,2097,2052,1198
589,1713858887856558149,2029,2024,2118,2073,2009,2069,1193
590,1713858887866560323,2076,2076,2057,2043,2092,2033,1192
591,1713858887876557877,2018,2006,2011,2043,2000,2049,1196
592,1713858887886557024,2080,2085,2026,2042,2104,2053,1194
593,1713858887896556151,2035,2019,2053,2068,2008,2060,1196
594,1713858887906558214,2102,2133,2113,2068,2101,2056,1197
595,1713858887916561068,2026,2038,2143,2072,2017,2059,1195
596,1713858887926557240,2071,2069,2008,2040,2094,2047,1193
597,1713858887936559043,2011,2001,2018,2060,2003,2052,1196
598,1713858887946577918,2084,2080,2050,2045,2090,2041,1193
599,1713858887956562226,2025,2026,2085,2064,2008,2050,1195
600,1713858887966559740,2080,2096,2129,2061,2104,2056,1197
601,1713858887976562845,2022,1994,1998,2060,2001,2055,1195
602,1713858887986560980,2074,2074,2032,2046,2096,2042,1194
603,1713858887996561711,2023,2030,2091,2073,2008,2067,1196
604,1713858888006561981,2075,2082,2024,2035,2102,2042,1192
605,1713858888016562673,2028,2036,2057,2060,2004,2054,1197
606,1713858888026565488,2077,2084,2022,2043,2096,2034,1191
607,1713858888036563685,2024,2017,2046,2060,2014,2066,1196
608,1713858888046564848,2085,2082,2018,2044,2088,2049,1196
609,1713858888056566742,2028,2011,2031,2065,2012,2066,1195
610,1713858888066565170,2086,2078,2010,2041,2096,2040,1193
611,1713858888076566312,2020,2002,2027,2061,2006,2056,1197
612,1713858888086566302,2084,2079,2029,2051,2103,2049,1196
613,1713858888096567395,2038,2036,2093,2064,2018,2061,1194
614,1713858888106567586,2077,2080,2045,2048,2103,2046,1195
615,1713858888116569830,2022,2009,2038,2074,2016,2064,1197
616,1713858888126568689,2076,2080,2047,2041,2100,2049,1194
617,1713858888136569201,2040,2027,2060,2072,2009,2054,1194
618,1713858888146545195,2084,2069,2043,2052,2090,2049,1196
619,1713858888156570022,2020,2005,2035,2064,2007,2049,1196
620,1713858888166552739,2082,2077,2063,2056,2088,2049,1198
621,1713858888176557390,2036,2024,2056,2066,2020,2066,1196
622,1713858888186573861,2080,2097,2058,2056,2096,2047,1195
623,1713858888196572769,2024,2015,2042,2056,2011,2058,1196
624,1713858888206555697,2076,2089,2047,2040,2097,2060,1199
625,1713858888216556650,2036,2021,2048,2065,2015,2055,1197
626,1713858888226574604,2068,2073,2058,2044,2092,2042,1194
627,1713858888236557863,2035,2018,2069,2058,2008,2057,1197
628,1713858888246578162,2072,2066,2069,2040,2089,2041,1193
629,1713858888256558856,2043,2031,2072,2064,2005,2061,1193
630,1713858888266559868,2077,2053,1997,2045,2092,2046,1192
631,1713858888276562132,2024,2040,2108,2064,2017,2060,1195
632,1713858888286555039,2077,2085,2032,2056,2094,2058,1194
633,1713858888296557204,2032,2020,2062,2067,2014,2059,1196
634,1713858888306560220,2077,2068,2042,2041,2098,2053,1193
635,1713858888316561793,2012,2018,2044,2056,2008,2058,1196
636,1713858888326555872,2084,2090,2068,2048,2092,2058,1193
637,1713858888336561003,2036,2025,2060,2062,2018,2061,1194
638,1713858888346557697,2078,2085,2044,2053,2099,2050,1194
639,1713858888356560833,2032,2024,2053,2058,2007,2057,1195
640,1713858888366561054,2077,2078,2029,2047,2108,2052,1196
641,1713858888376560844,2036,2002,2028,2058,2015,2056,1199
642,1713858888386560113,2098,2118,2106,2061,2102,2056,1198
643,1713858888396558010,2033,2022,2030,2059,2003,2054,1195
644,1713858888406561136,2079,2090,2106,2049,2096,2066,1195
645,1713858888416562428,2032,2023,2068,2059,2012,2047,1193
646,1713858888426560526,2078,2068,2034,2047,2099,2044,1192
647,1713858888436562290,2026,2021,2007,2050,1995,2044,1194
648,1713858888446558823,2084,2092,2084,2066,2096,2052,1198
649,1713858888456561639,2022,2010,2024,2062,2007,2050,1193
650,1713858888466562181,2084,2117,2191,2056,2082,2058,1195
651,1713858888476560999,2036,2033,2114,2056,2016,2059,1196
652,1713858888486561360,2062,2070,2033,2033,2097,2051,1196
653,1713858888496563664,2028,2010,2058,2049,2006,2056,1196
654,1713858888506560329,2084,2086,2060,2059,2095,2050,1193
655,1713858888516560720,2031,2027,2104,2061,2005,2052,1195
656,1713858888526558686,2078,2083,2072,2047,2113,2054,1197
657,1713858888536562053,2040,2026,2069,2059,2010,2053,1195
658,1713858888546561814,2077,2097,2057,2056,2101,2043,1194
659,1713858888556558618,2028,2023,2063,2064,2012,2061,1197
660,1713858888566559379,2085,2097,2112,2060,2099,2056,1198
661,1713858888576564158,2038,2028,2049,2066,2004,2055,1196
662,1713858888586562486,2070,2083,2039,2044,2090,2041,1192
663,1713858888596567136,2050,2061,2144,2074,2020,2066,1194
664,1713858888606563359,2064,2074,2056,2046,2090,2043,1193
665,1713858888616558038,2032,2010,2028,2064,2000,2056,1196
666,1713858888626555744,2087,2082,2021,2044,2107,2052,1196
667,1713858888636556407,2017,1999,2029,2051,2004,2049,1194
668,1713858888646558912,2076,2070,2041,2054,2099,2052,1196
669,1713858888656560244,2043,2021,2056,2056,1999,2049,1193
670,1713858888666560525,2072,2072,2025,2041,2099,2057,1194
671,1713858888676559805,2031,2037,2034,2050,2012,2057,1196
672,1713858888686557771,2077,2077,1979,2043,2098,2044,1191
673,1713858888696567630,2030,2017,2080,2060,2009,2052,1194
674,1713858888706559194,2088,2126,2200,2077,2118,2063,1196
675,1713858888716557763,2030,2004,2011,2049,1993,2050,1197
676,1713858888726557202,2080,2080,2048,2058,2102,2048,1194
677,1713858888736558845,2039,2019,2060,2066,2006,2053,1194
678,1713858888746557322,2077,2082,2062,2054,2094,2062,1196
679,1713858888756559277,2036,2062,2078,2066,2001,2060,1197
680,1713858888766558376,2082,2095,2085,2056,2104,2058,1197
681,1713858888776558356,2032,2044,2131,2078,2003,2057,1197
682,1713858888786557725,2066,2069,2035,2036,2096,2052,1195
683,1713858888796559930,2034,2042,2111,2058,2002,2051,1193
684,1713858888806558067,2068,2056,2026,2029,2102,2052,1195
685,1713858888816557636,2020,2021,2051,2046,2002,2078,1195
686,1713858888826558027,2072,2079,2020,2050,2094,2051,1195
687,1713858888836558669,2024,2017,2038,2052,2003,2046,1193
688,1713858888846557558,2083,2069,2025,2036,2118,2055,1197
689,1713858888856558329,2018,2007,2033,2067,1997,2056,1193
690,1713858888866560293,2057,2047,1994,2029,2089,2035,1193
691,1713858888876559392,2050,2052,2095,2065,2004,2061,1193
692,1713858888886559573,2080,2112,2136,2065,2108,2052,1194
693,1713858888896559894,2029,2014,2041,2057,2001,2061,1195
694,1713858888906562609,2097,2138,2166,2059,2113,2052,1193
695,1713858888916562760,2025,2007,2042,2056,2003,2050,1196
696,1713858888926562010,2064,2066,2007,2041,2097,2050,1194
697,1713858888936562521,2024,2007,2012,2059,2005,2050,1196
698,1713858888946563913,2110,2132,2129,2048,2121,2065,1194
699,1713858888956563783,2025,1993,2014,2051,2001,2054,1196
700,1713858888966564596,2072,2074,2024,2041,2103,2032,1193
701,1713858888976568233,2027,2017,2101,2077,2016,2042,1192
702,1713858888986565268,2071,2058,2044,2040,2094,2036,1191
703,1713858888996565208,2018,1985,2012,2050,1982,2052,1195
704,1713858889006567814,2073,2074,2078,2066,2111,2013,1192
705,1713858889016571081,2049,2039,2088,2054,1968,2048,1197
706,1713858889026567436,2085,2072,2000,2040,2123,2064,1193
707,1713858889036568661,2033,2035,2132,2074,1997,2059,1197
708,1713858889046569203,2088,2103,2064,2053,2114,1982,1192
709,1713858889056571460,2004,1999,2064,2056,2024,2040,1191
710,1713858889066570510,2060,2063,1996,2047,2112,2052,1196
711,1713858889076570652,2044,2092,2227,2089,1981,2042,1191
712,1713858889086559683,2077,2072,2036,2030,2101,2028,1193
713,1713858889096558232,2028,2013,2120,2057,1995,2030,1194
714,1713858889106559196,2090,2130,2152,2061,2122,2058,1195
715,1713858889116558086,2028,2008,1994,2061,2006,2056,1195
716,1713858889126557296,2074,2088,2034,2054,2112,2070,1195
717,1713858889136555665,2024,2033,2085,2072,1990,2068,1196
718,1713858889146557099,2073,2088,2052,2046,2112,2054,1196
719,1713858889156556751,2030,2045,2110,2070,1999,2059,1196
720,1713858889166558035,2074,2065,2000,2031,2109,2058,1197
721,1713858889176555131,2025,2013,2047,2069,2005,2067,1196
722,1713858889186555224,2074,2057,1985,2041,2101,2054,1197
723,1713858889196555857,2017,2003,2017,2081,2006,2060,1197
724,1713858889206556610,2086,2110,2084,2051,2121,2053,1196
725,1713858889216557334,2020,1997,2085,2057,1992,2047,1193
726,1713858889226555141,2092,2080,2042,2040,2116,2053,1195
727,1713858889236555784,2028,2069,2192,2079,1994,2049,1195
728,1713858889246556197,2080,2061,1990,2032,2110,2048,1197
729,1713858889256557621,2024,2037,2044,2072,1995,2047,1190
730,1713858889266552674,2084,2076,2044,2044,2112,2047,1193
731,1713858889276561613,2024,2023,2051,2048,1995,2050,1196
732,1713858889286561604,2095,2130,2051,2070,2122,2060,1197
733,1713858889296555816,2023,2019,2064,2060,1976,2053,1197
734,1713858889306555858,2106,2156,2129,2067,2112,2064,1197
735,1713858889316559587,2015,2003,2041,2056,1989,2047,1192
736,1713858889326557254,2091,2085,2042,2049,2104,2051,1196
737,1713858889336558509,2024,1996,2042,2060,1991,2055,1194
738,1713858889346557729,2080,2088,2109,2055,2124,2061,1197
739,1713858889356557430,2035,2022,2062,2076,2004,2064,1196
740,1713858889366554126,2094,2107,2052,2049,2121,2052,1197
741,1713858889376562003,2008,2001,1988,2064,1992,2047,1192
742,1713858889386562305,2086,2069,1946,2047,2105,2053,1197
743,1713858889396556707,2034,2043,2152,2073,2004,2060,1196
744,1713858889406559334,2090,2083,2029,2033,2112,2047,1193
745,1713858889416562050,2020,2013,2035,2060,1988,2056,1197
746,1713858889426558296,2102,2127,2048,2045,2112,2052,1196
747,1713858889436557216,2018,2021,2112,2072,2001,2052,1196
748,1713858889446559061,2085,2091,2039,2034,2104,2044,1197
749,1713858889456558211,2000,2002,2031,2051,1990,2041,1192
750,1713858889466555287,2090,2082,2024,2046,2117,2057,1194
751,1713858889476557263,2017,2012,2061,2065,1984,2051,1196
752,1713858889486556934,2077,2050,1997,2046,2111,2056,1196
753,1713858889496558339,2024,2022,2095,2076,2002,2062,1196
754,1713858889506559903,2091,2128,2091,2050,2124,2056,1197
755,1713858889516600844,2029,2040,2128,2068,1999,2065,1196
756,1713858889526560509,2083,2080,2037,2043,2113,2045,1193
757,1713858889536558877,2028,2032,2092,2084,2004,2058,1196
758,1713858889546558138,2088,2084,2064,2037,2130,2060,1196
759,1713858889556558120,2027,2012,2023,2056,1977,2050,1198
760,1713858889566557050,2078,2085,2021,2045,2120,2061,1196
761,1713858889576557112,2028,2062,2218,2081,2002,2055,1197
762,1713858889586557314,2084,2092,2053,2060,2124,2051,1196
763,1713858889596595970,2021,2042,2044,2066,1990,2051,1196
764,1713858889606596783,2088,2079,2033,2047,2112,2048,1196
765,1713858889616594752,2013,1989,2000,2052,1982,2044,1194
766,1713858889626595475,2089,2069,1989,2042,2129,2046,1194
767,1713858889636595677,2013,2002,2037,2061,1989,2051,1195
768,1713858889646594127,2085,2082,2050,2046,2113,2046,1193
769,1713858889656594640,2015,1994,2004,2071,1994,2054,1196
770,1713858889666555236,2083,2064,1972,2029,2115,2054,1196
771,1713858889676593271,2014,2008,2049,2065,2003,2061,1195
772,1713858889686594204,2097,2098,2030,2042,2118,2055,1196
773,1713858889696592593,2014,1999,2042,2063,1988,2056,1194
774,1713858889706594248,2100,2101,2092,2045,2124,2059,1196
775,1713858889716591625,2013,2028,2088,2072,1984,2050,1196
776,1713858889726591076,2094,2090,2073,2040,2125,2056,1196
777,1713858889736592801,2018,2032,2176,2078,1981,2051,1195
778,1713858889746590959,2099,2102,2061,2051,2112,2065,1197
779,1713858889756591733,2002,1980,2001,2056,1988,2042,1196
780,1713858889766589120,2094,2102,2052,2049,2116,2052,1197
781,1713858889776590094,2020,2000,2024,2065,1978,2051,1194
782,1713858889786589845,2089,2108,2029,2048,2110,2063,1196
783,1713858889796590508,2011,2007,2027,2062,1992,2045,1195
784,1713858889806589248,2086,2097,2064,2048,2120,2055,1197
785,1713858889816589350,2027,2010,2032,2069,1996,2057,1194
786,1713858889826588039,2101,2098,2008,2046,2120,2048,1195
787,1713858889836587770,2012,2005,2027,2068,1986,2042,1192
788,1713858889846588524,2090,2083,2022,2056,2116,2047,1194
789,1713858889856587824,2026,2032,2078,2066,1993,2057,1194
790,1713858889866587385,2084,2096,2048,2046,2112,2062,1195
791,1713858889876585484,2012,2003,2027,2062,1987,2056,1195
792,1713858889886586859,2088,2078,2021,2031,2120,2047,1193
793,1713858889896585278,2015,2001,1997,2068,1998,2056,1197
794,1713858889906584908,2094,2100,2054,2051,2120,2049,1197
795,1713858889916583528,2011,2002,2012,2056,1986,2054,1195
796,1713858889926586986,2079,2077,2035,2027,2110,2052,1194
797,1713858889936586658,2005,2005,2064,2064,1985,2058,1196
798,1713858889946587110,2107,2127,2237,2065,2120,2064,1197
799,1713858889956587763,2020,1993,2032,2061,1972,2047,1193
800,1713858889966588016,2090,2110,2050,2054,2108,2058,1199
801,1713858889976589010,2030,2030,2172,2072,2012,2064,1196
802,1713858889986590375,2092,2106,2064,2043,2114,2051,1197
803,1713858889996590015,2017,2013,2065,2063,2002,2049,1195
804,1713858890006591040,2101,2116,2064,2052,2115,2059,1196
805,1713858890016592056,2032,2054,2090,2084,1998,2053,1194
806,1713858890026591688,2085,2104,2032,2037,2101,2038,1192
807,1713858890036592243,2005,1989,1986,2048,1983,2042,1194
808,1713858890046592757,2085,2081,2067,2041,2130,2062,1195
809,1713858890056593582,2023,2040,2112,2074,1998,2054,1193
810,1713858890066579749,2100,2110,2072,2050,2118,2061,1195
811,1713858890076578329,2010,2014,2096,2076,1988,2056,1196
812,1713858890086580748,2094,2082,2023,2041,2121,2050,1196
813,1713858890096578006,2034,2030,2039,2079,2002,2065,1195
814,1713858890106578380,2084,2085,2024,2041,2104,2044,1193
815,1713858890116577852,2018,2030,1987,2068,1992,2053,1195
816,1713858890126576893,2091,2074,2002,2052,2118,2053,1196
817,1713858890136578430,2023,1998,2017,2072,1994,2058,1197
818,1713858890146574977,2084,2097,2097,2048,2120,2046,1194
819,1713858890156577796,2035,2043,2100,2062,2000,2056,1197
820,1713858890166576587,2094,2094,2061,2049,2115,2050,1199
821,1713858890176573915,2030,2024,2042,2080,2004,2060,1193
822,1713858890186574841,2088,2076,2016,2042,2108,2046,1192
823,1713858890196576276,2015,2003,2056,2051,1988,2064,1194
824,1713858890206574457,2090,2086,2037,2031,2114,2068,1198
825,1713858890216574750,2028,2004,2028,2053,1994,2057,1197
826,1713858890226574804,2088,2077,2038,2041,2110,2054,1194
827,1713858890236574557,2015,1999,2023,2060,1984,2053,1198
828,1713858890246572186,2098,2108,2036,2056,2122,2056,1196
829,1713858890256571608,2020,2021,2045,2072,2000,2061,1195
830,1713858890266571781,2101,2118,2068,2047,2116,2052,1197
831,1713858890276571044,2015,2025,2060,2064,1994,2056,1194
832,1713858890286571237,2100,2129,2132,2052,2096,2052,1196
833,1713858890296571361,2030,2044,2118,2064,1988,2047,1191
834,1713858890306570263,2093,2115,2117,2053,2113,2056,1196
835,1713858890316569574,2013,2031,2068,2066,1989,2046,1191
836,1713858890326569468,2080,2080,2042,2041,2109,2051,1197
837,1713858890336569471,2022,2003,1991,2060,2000,2060,1195
838,1713858890346571208,2093,2096,2053,2046,2114,2054,1195
839,1713858890356571682,2020,2031,2084,2066,1992,2047,1193
840,1713858890366566355,2081,2088,2071,2052,2116,2057,1199
841,1713858890376565197,2028,2035,2087,2076,2001,2058,1197
842,1713858890386565951,2090,2080,2040,2047,2112,2058,1196
843,1713858890396565785,2024,2054,2132,2082,2016,2072,1194
844,1713858890406566499,2104,2128,2104,2065,2109,2062,1198
845,1713858890416566153,2005,1993,2019,2063,2003,2059,1195
846,1713858890426567177,2093,2092,2036,2036,2098,2046,1194
847,1713858890436568554,2007,1997,2009,2043,1992,2056,1196
848,1713858890446566072,2096,2114,2088,2051,2118,2057,1194
849,1713858890456566446,2017,2008,2104,2070,1989,2040,1194
850,1713858890466564967,2089,2072,2016,2042,2103,2053,1196
851,1713858890476567104,2020,2007,2056,2064,1995,2049,1195
852,1713858890486567168,2080,2085,2002,2044,2099,2046,1194
853,1713858890496565578,2024,2019,2075,2068,2001,2053,1199
854,1713858890506566353,2093,2085,2023,2040,2107,2049,1198
855,1713858890516566627,2008,1977,2013,2052,1982,2035,1192
856,1713858890526565548,2081,2061,2009,2042,2104,2042,1192
857,1713858890536568979,2028,2012,2042,2065,2004,2068,1197
858,1713858890546563662,2088,2108,2075,2044,2106,2056,1195
859,1713858890556566621,2019,2008,2068,2060,1991,2059,1198
860,1713858890566567997,2093,2117,2089,2049,2108,2055,1198
861,1713858890576565977,2026,2015,2057,2059,2012,2061,1199
862,1713858890586564086,2078,2088,2032,2042,2102,2036,1194
863,1713858890596565983,2022,2015,2058,2072,2013,2072,1197
864,1713858890606569103,2085,2077,2031,2040,2098,2055,1198
865,1713858890616566882,2026,2015,2057,2069,2000,2052,1197
866,1713858890626565593,2089,2104,2005,2036,2109,2057,1197
867,1713858890636566939,2017,1992,2003,2061,2012,2072,1195
868,1713858890646566721,2083,2084,2048,2053,2106,2052,1198
869,1713858890656567397,2015,2006,2040,2053,1996,2047,1194
870,1713858890666564744,2091,2100,2059,2056,2114,2057,1197
871,1713858890676565851,2025,2011,2042,2062,2009,2052,1195
872,1713858890686566194,2088,2094,2059,2050,2101,2052,1196
873,1713858890696572149,2029,2017,2062,2067,2010,2054,1196
874,1713858890706565831,2111,2131,2141,2070,2109,2057,1195
875,1713858890716565603,2021,1996,2034,2058,2005,2056,1197
876,1713858890726563233,2077,2061,1988,2036,2096,2046,1193
877,1713858890736564057,2019,2040,2120,2068,2008,2055,1194
878,1713858890746565845,2091,2088,2018,2040,2104,2068,1198
879,1713858890756565467,2016,2013,2030,2062,2005,2046,1192
880,1713858890766564719,2077,2083,2046,2042,2096,2047,1195
881,1713858890776567588,2018,2008,2050,2057,2010,2050,1195
882,1713858890786566409,2085,2088,2033,2047,2093,2059,1195
883,1713858890796566463,2046,2052,2067,2056,2013,2073,1196
884,1713858890806564702,2088,2082,2020,2049,2100,2047,1193
885,1713858890816564756,2028,2016,2101,2074,2012,2058,1198
886,1713858890826565841,2082,2088,2052,2050,2096,2051,1197
887,1713858890836566206,2017,2018,2024,2059,2006,2047,1196
888,1713858890846564055,2100,2152,2346,2072,2112,2059,1195
889,1713858890856565931,2017,2013,2003,2064,2015,2049,1192
890,1713858890866564513,2081,2076,2047,2030,2093,2047,1194
891,1713858890876567251,2023,2032,2061,2056,2006,2053,1198
892,1713858890886588776,2090,2089,2046,2049,2094,2056,1193
893,1713858890896566847,2025,2030,2084,2057,2013,2056,1195
894,1713858890906565157,2089,2097,2075,2056,2084,2052,1195
895,1713858890916566093,2016,1994,1998,2057,2013,2053,1195
896,1713858890926565945,2080,2077,2075,2046,2089,2049,1196
897,1713858890936566561,2028,2017,2072,2069,2020,2064,1197
898,1713858890946564550,2076,2079,2046,2047,2082,2044,1193
899,1713858890956567970,2014,1984,2008,2054,2011,2052,1195
900,1713858890966563415,2069,2075,2081,2042,2097,2051,1196
901,1713858890976566594,2029,2035,2054,2070,2018,2068,1196
902,1713858890986566988,2080,2064,2042,2037,2089,2046,1195
903,1713858890996566520,2038,2019,2020,2060,2029,2053,1195
904,1713858891006565022,2077,2082,2059,2043,2089,2045,1192
905,1713858891016565697,2041,2037,2044,2068,2026,2065,1196
906,1713858891026566704,2072,2063,2015,2050,2090,2045,1193
907,1713858891036566709,2037,2032,2063,2060,2024,2061,1196
908,1713858891046567234,2081,2077,2049,2042,2090,2044,1194
909,1713858891056567861,2029,2032,2075,2061,2021,2048,1195
910,1713858891066568477,2088,2096,2071,2051,2089,2056,1193
911,1713858891076569834,2041,2005,2025,2074,2024,2065,1197
912,1713858891086569679,2067,2062,2026,2052,2082,2049,1196
913,1713858891096570135,2036,2046,2056,2076,2027,2057,1193
914,1713858891106570861,2073,2067,1978,2038,2082,2045,1195
915,1713858891116571457,2049,2064,2073,2077,2040,2072,1196
916,1713858891126574417,2068,2057,1994,2050,2096,2053,1195
917,1713858891136572909,2025,2001,2004,2056,2024,2060,1197
918,1713858891146573135,2077,2072,2098,2052,2080,2050,1196
919,1713858891156574092,2040,2047,2101,2061,2031,2078,1196
920,1713858891166574317,2078,2073,2075,2048,2082,2040,1196
921,1713858891176575053,2036,2025,2020,2044,2018,2052,1197
922,1713858891186576982,2074,2060,2008,2055,2081,2049,1196
923,1713858891196575915,2033,2017,2033,2049,2023,2060,1196
924,1713858891206576871,2068,2056,2028,2037,2064,2048,1196
925,1713858891216577468,2049,2042,2104,2069,2030,2066,1196
926,1713858891226564518,2067,2056,2014,2047,2074,2053,1195
927,1713858891236564863,2030,2015,2010,2063,2024,2056,1195
928,1713858891246604604,2047,2049,2038,2050,2076,2037,1193
929,1713858891256566236,2036,2005,2001,2056,2028,2054,1192
930,1713858891266565700,2072,2039,1961,2048,2090,2037,1189
931,1713858891276566085,2029,2013,1983,2034,2031,2071,1195
932,1713858891286567132,2064,2051,2042,2043,2069,2041,1192
933,1713858891296567458,2051,2028,2079,2057,2024,2045,1192
934,1713858891306564176,2047,2046,1996,2041,2084,2042,1192
935,1713858891316566736,2052,2029,2013,2057,2028,2053,1196
936,1713858891326564717,2078,2105,2077,2052,2076,2043,1191
937,1713858891336565724,2055,2046,2077,2063,2032,2058,1196
938,1713858891346565238,2066,2058,2036,2040,2074,2053,1193
939,1713858891356566024,2047,2036,2036,2057,2024,2053,1194
940,1713858891366564256,2061,2053,2024,2041,2072,2036,1194
941,1713858891376566996,2060,2082,2104,2069,2033,2061,1196
942,1713858891386564596,2071,2057,2080,2040,2067,2047,1194
943,1713858891396564942,2026,2008,1997,2052,2034,2064,1194
944,1713858891406567121,2073,2088,2050,2049,2073,2050,1194
945,1713858891416566615,2048,2039,2017,2079,2038,2067,1196
946,1713858891426564666,2050,2018,1988,2049,2064,2035,1194
947,1713858891436567386,2039,2033,2038,2050,2018,2058,1196
948,1713858891446564396,2073,2111,2118,2056,2087,2062,1195
949,1713858891456566544,2052,2062,2106,2067,2037,2059,1195
950,1713858891466564525,2074,2082,1998,2061,2068,2040,1194
951,1713858891476565732,2034,2046,2101,2053,2031,2056,1195
952,1713858891486566700,2066,2071,2052,2055,2072,2036,1190
953,1713858891496566544,2052,2034,2013,2049,2033,2061,1193
954,1713858891506565847,2066,2058,2047,2051,2068,2032,1191
955,1713858891516564109,2044,2026,2056,2056,2043,2060,1195
956,1713858891526567060,2072,2074,2115,2072,2077,2045,1192
957,1713858891536596000,2050,2049,2067,2053,2041,2064,1195
958,1713858891546571438,2080,2101,2152,2069,2069,2057,1193
959,1713858891556565992,2036,2040,2043,2059,2030,2058,1195
960,1713858891566593360,2056,2046,2041,2044,2077,2039,1192
961,1713858891576593745,2047,2034,2024,2050,2033,2051,1195
962,1713858891586596295,2061,2064,2045,2054,2055,2037,1193
963,1713858891596594606,2049,2045,2116,2060,2042,2045,1190
964,1713858891606592388,2053,2068,2029,2063,2056,2036,1194
965,1713858891616591050,2051,2042,2038,2058,2037,2057,1197
966,1713858891626591766,2065,2088,2096,2077,2072,2048,1194
967,1713858891636589627,2046,2022,2022,2045,2038,2053,1196
968,1713858891646589752,2088,2160,2198,2085,2088,2072,1196
969,1713858891656590308,2046,2038,2037,2056,2034,2052,1192
970,1713858891666591084,2041,2048,2015,2044,2045,2032,1191
971,1713858891676591900,2048,2027,2009,2060,2037,2061,1196
972,1713858891686591074,2066,2072,2061,2072,2081,2043,1193
973,1713858891696591410,2046,2026,2002,2063,2040,2057,1195
974,1713858891706591845,2056,2065,2053,2045,2064,2042,1192
975,1713858891716588043,2049,2035,2017,2051,2038,2060,1197
976,1713858891726590152,2058,2081,2096,2058,2065,2031,1192
977,1713858891736591539,2052,2056,2004,2056,2042,2047,1193
978,1713858891746586334,2068,2056,2028,2059,2066,2057,1195
979,1713858891756588824,2041,2025,2009,2048,2045,2055,1196
980,1713858891766587917,2049,2035,2053,2053,2059,2037,1196
981,1713858891776585658,2052,2036,2063,2065,2042,2060,1196
982,1713858891786588247,2049,2036,2021,2048,2064,2045,1192
983,1713858891796584626,2053,2045,2051,2051,2042,2046,1193
984,1713858891806584570,2071,2091,2150,2065,2080,2057,1196
985,1713858891816583263,2045,2041,2022,2062,2033,2050,1196
986,1713858891826584771,2064,2052,2054,2050,2060,2046,1193
987,1713858891836585858,2093,2144,2346,2087,2064,2074,1193
988,1713858891846581003,2057,2080,2117,2061,2069,2053,1197
989,1713858891856580747,2044,2040,2025,2051,2049,2052,1194
990,1713858891866586584,2062,2074,2129,2050,2058,2045,1193
991,1713858891876579936,2057,2052,2061,2060,2047,2064,1196
992,1713858891886580321,2060,2081,2056,2059,2060,2038,1193
993,1713858891896582270,2052,2041,2052,2059,2049,2059,1196
994,1713858891906581624,2057,2047,2050,2057,2063,2046,1192
995,1713858891916578884,2057,2052,2060,2052,2048,2061,1198
996,1713858891926579950,2116,2174,2304,2106,2089,2084,1194
997,1713858891936580406,2041,2025,2003,2044,2042,2073,1195
998,1713858891946580672,2060,2077,2037,2052,2047,2040,1193
999,1713858891956579815,2058,2058,2056,2054,2057,2072,1196
1000,1713858891966582144,2049,2042,2052,2053,2058,2037,1194
1001,1713858891976579714,2053,2050,2086,2058,2053,2065,1195
1002,1713858891986580822,2055,2039,2006,2054,2056,2042,1193
1003,1713858891996576959,2053,2043,2002,2045,2042,2060,1194
1004,1713858892006579018,2051,2055,2117,2047,2068,2048,1197
1005,1713858892016579185,2052,2041,2029,2047,2042,2049,1197
1006,1713858892026575625,2044,2052,2047,2062,2058,2045,1195
1007,1713858892036575701,2060,2046,2060,2054,2061,2058,1196
1008,1713858892046574215,2040,2040,2066,2047,2048,2041,1193
1009,1713858892056574402,2061,2040,2067,2056,2056,2080,1192
1010,1713858892066575951,2054,2046,2036,2049,2056,2036,1191
1011,1713858892076573573,2053,2050,2035,2049,2041,2058,1195
1012,1713858892086574501,2045,2036,2005,2046,2053,2044,1193
1013,1713858892096576792,2052,2056,2024,2045,2051,2059,1195
1014,1713858892106572821,2052,2042,2047,2053,2048,2042,1194
1015,1713858892116573588,2061,2076,2082,2047,2044,2061,1195
1016,1713858892126571661,2047,2038,2105,2059,2049,2046,1193
1017,1713858892136572679,2070,2073,2053,2062,2056,2058,1194
1018,1713858892146574930,2044,2037,2001,2044,2050,2037,1193
1019,1713858892156570889,2073,2085,2162,2061,2047,2056,1194
1020,1713858892166571817,2040,2052,2044,2059,2045,2041,1193
1021,1713858892176571463,2074,2097,2114,2065,2064,2067,1194
1022,1713858892186571719,2049,2037,2014,2057,2058,2050,1195
1023,1713858892196571115,2056,2044,2015,2056,2051,2056,1196
1024,1713858892206569087,2034,2028,2041,2050,2056,2045,1193
1025,1713858892216571308,2088,2106,2197,2069,2065,2068,1197
1026,1713858892226575923,2051,2046,2081,2060,2052,2047,1194
1027,1713858892236568886,2069,2085,2163,2062,2061,2068,1198
1028,1713858892246571337,2044,2036,2041,2052,2042,2044,1192
1029,1713858892256567627,2070,2088,2123,2066,2062,2074,1193
1030,1713858892266569747,2042,2064,2100,2066,2058,2058,1194
1031,1713858892276570414,2065,2037,2013,2046,2050,2048,1197
1032,1713858892286566723,2047,2041,2034,2056,2053,2040,1191
1033,1713858892296568434,2064,2054,2020,2046,2053,2061,1195
1034,1713858892306564853,2056,2044,2044,2068,2064,2046,1191
1035,1713858892316565500,2056,2043,2047,2046,2049,2062,1195
1036,1713858892326568653,2042,2021,2034,2060,2052,2046,1193
1037,1713858892336564842,2059,2040,2128,2055,2050,2057,1194
1038,1713858892346564969,2044,2049,2057,2056,2037,2043,1193
1039,1713858892356564624,2071,2064,2091,2069,2056,2061,1195
1040,1713858892366565763,2042,2034,2036,2046,2045,2047,1194
1041,1713858892376589725,2060,2049,2027,2036,2058,2061,1198
1042,1713858892386564142,2052,2048,2060,2059,2057,2047,1191
1043,1713858892396564811,2058,2033,2028,2053,2052,2058,1195
1044,1713858892406565087,2046,2027,2042,2060,2053,2044,1194
1045,1713858892416565444,2068,2039,1998,2047,2046,2062,1195
1046,1713858892426566162,2041,2042,2076,2056,2048,2050,1195
1047,1713858892436566569,2068,2068,2040,2055,2048,2056,1196
1048,1713858892446567327,2052,2047,2066,2056,2054,2049,1197
1049,1713858892456567674,2056,2030,2044,2053,2053,2056,1193
1050,1713858892466568001,2049,2044,2048,2064,2049,2049,1196
1051,1713858892476568879,2062,2066,2052,2067,2058,2073,1195
1052,1713858892486569867,2047,2039,2080,2056,2040,2053,1194
1053,1713858892496570185,2070,2076,2042,2058,2060,2062,1194
1054,1713858892506570461,2052,2069,2056,2068,2054,2051,1196
1055,1713858892516555559,2060,2062,2058,2047,2054,2061,1196
1056,1713858892526574381,2036,2032,2029,2060,2041,2040,1193
1057,1713858892536554750,2065,2063,2056,2052,2058,2063,1193
1058,1713858892546574736,2045,2027,1984,2053,2045,2041,1192
1059,1713858892556555835,2061,2049,2028,2056,2069,2065,1196
1060,1713858892566556854,2045,2031,2015,2054,2049,2034,1197
1061,1713858892576557982,2067,2064,2026,2045,2055,2056,1196
1062,1713858892586557938,2056,2091,2059,2066,2047,2047,1194
1063,1713858892596577132,2057,2037,2023,2056,2049,2062,1198
1064,1713858892606559244,2041,2033,2007,2054,2036,2039,1194
1065,1713858892616559471,2069,2065,2080,2060,2064,2069,1196
1066,1713858892626560178,2037,2032,2010,2062,2052,2045,1195
1067,1713858892636560555,2062,2061,2020,2045,2056,2057,1197
1068,1713858892646563026,2042,2060,2121,2072,2048,2056,1197
1069,1713858892656562141,2064,2061,2078,2049,2055,2055,1194
1070,1713858892666562929,2047,2051,2053,2061,2048,2043,1194
1071,1713858892676563957,2054,2037,2015,2060,2051,2054,1193
1072,1713858892686564104,2042,2026,2025,2074,2048,2041,1193
1073,1713858892696593086,2073,2088,2081,2056,2064,2063,1196
1074,1713858892706555821,2024,2024,2021,2058,2044,2054,1196
1075,1713858892716593029,2069,2080,2088,2057,2059,2063,1197
1076,1713858892726555924,2034,2032,2013,2042,2044,2035,1193
1077,1713858892736557183,2068,2075,2084,2058,2059,2062,1195
1078,1713858892746557610,2037,2015,2020,2060,2032,2042,1194
1079,1713858892756559400,2064,2060,2015,2042,2056,2056,1196
1080,1713858892766554416,2050,2050,2070,2063,2052,2054,1194
1081,1713858892776554393,2062,2050,2016,2049,2065,2062,1197
1082,1713858892786556654,2037,2019,2045,2074,2041,2050,1195
1083,1713858892796559976,2066,2072,2004,2056,2056,2054,1194
1084,1713858892806555985,2046,2043,2090,2065,2040,2045,1194
1085,1713858892816589256,2054,2042,2004,2042,2068,2073,1195
1086,1713858892826554846,2049,2052,2101,2064,2044,2052,1197
1087,1713858892836558479,2065,2062,2040,2052,2064,2057,1195
1088,1713858892846578664,2032,2025,2040,2056,2040,2049,1196
1089,1713858892856591385,2060,2057,2036,2049,2060,2057,1193
1090,1713858892866559630,2044,2042,2035,2060,2044,2040,1192
1091,1713858892876557262,2075,2084,2046,2061,2054,2060,1195
1092,1713858892886560736,2037,2036,2069,2064,2042,2047,1194
1093,1713858892896592603,2066,2056,2050,2046,2062,2064,1196
1094,1713858892906551791,2026,2018,2044,2058,2035,2060,1196
1095,1713858892916559762,2069,2064,2034,2047,2056,2061,1194
1096,1713858892926557274,2050,2061,2104,2059,2038,2040,1192
1097,1713858892936556569,2067,2065,2084,2050,2067,2068,1194
1098,1713858892946557377,2041,2048,2123,2061,2040,2045,1194
1099,1713858892956557023,2083,2130,2246,2069,2064,2066,1193
1100,1713858892966555746,2031,2017,2028,2067,2034,2041,1194
1101,1713858892976556194,2064,2048,2013,2047,2057,2056,1197
1102,1713858892986556992,2037,2032,2065,2064,2040,2043,1193
1103,1713858892996556107,2058,2068,2001,2045,2058,2052,1195
1104,1713858893006554781,2046,2048,2142,2069,2043,2053,1196
1105,1713858893016553656,2058,2057,2096,2051,2066,2063,1196
1106,1713858893026553333,2043,2058,2092,2072,2033,2039,1192
1107,1713858893036554322,2084,2093,2113,2056,2064,2071,1195
1108,1713858893046554992,2025,2008,1979,2045,2024,2036,1194
1109,1713858893056555410,2069,2069,2050,2050,2065,2065,1193
1110,1713858893066577441,2046,2054,2080,2070,2057,2044,1192
1111,1713858893076553974,2080,2074,1997,2053,2065,2060,1193
1112,1713858893086554592,2042,2057,2125,2066,2035,2037,1190
1113,1713858893096555192,2084,2078,2047,2051,2072,2068,1195
1114,1713858893106554468,2024,2004,1990,2047,2032,2042,1194
1115,1713858893116553805,2080,2063,2029,2043,2052,2058,1193
1116,1713858893126576877,2028,2032,2039,2057,2032,2041,1193
1117,1713858893136561184,2075,2082,2102,2057,2068,2062,1195
1118,1713858893146556263,2040,2018,1970,2051,2030,2041,1192
1119,1713858893156573694,2057,2062,2030,2042,2069,2070,1198
1120,1713858893166556159,2066,2124,2268,2087,2050,2053,1197
1121,1713858893176554944,2071,2072,2072,2054,2078,2069,1195
1122,1713858893186557146,2042,2040,2048,2053,2036,2076,1195
1123,1713858893196558206,2054,2067,2062,2049,2069,2066,1197
1124,1713858893206557162,2040,2026,2040,2063,2038,2044,1194
1125,1713858893216571678,2067,2046,2026,2042,2062,2064,1194
1126,1713858893226558340,2038,2029,2060,2061,2036,2051,1194
1127,1713858893236560622,2066,2080,2078,2054,2064,2056,1197
1128,1713858893246562093,2034,2010,2020,2057,2041,2048,1196
1129,1713858893256561920,2056,2049,2022,2036,2064,2057,1193
1130,1713858893266563411,2045,2057,2068,2069,2056,2066,1194
1131,1713858893276562848,2060,2043,1993,2039,2058,2044,1192
1132,1713858893286563437,2042,2034,2050,2059,2053,2061,1195
1133,1713858893296577141,2069,2069,2052,2056,2069,2060,1195
1134,1713858893306570385,2049,2047,2121,2064,2031,2049,1197
1135,1713858893316565785,2062,2065,2015,2046,2062,2056,1194
1136,1713858893326590330,2034,2019,2018,2065,2037,2053,1195
1137,1713858893336566062,2096,2120,2139,2056,2076,2066,1195
1138,1713858893346567772,2029,2024,2062,2068,2048,2048,1197
1139,1713858893356571116,2064,2065,2029,2045,2052,2056,1197
1140,1713858893366568540,2034,2031,2026,2060,2029,2051,1197
1141,1713858893376569839,2074,2066,2013,2036,2066,2053,1198
1142,1713858893386569828,2034,2006,2006,2058,2030,2043,1193
1143,1713858893396570256,2066,2076,2040,2036,2065,2064,1197
1144,1713858893406553062,2032,2026,2051,2056,2037,2049,1197
1145,1713858893416579199,2072,2076,2082,2057,2069,2072,1198
1146,1713858893426572935,2025,2025,2044,2058,2031,2042,1195
1147,1713858893436557013,2072,2072,2028,2049,2069,2057,1199
1148,1713858893446554886,2035,2022,2028,2053,2034,2041,1193
1149,1713858893456555696,2064,2057,2049,2046,2075,2068,1193
1150,1713858893466553880,2040,2036,2081,2084,2032,2054,1196
1151,1713858893476542275,2073,2069,2043,2040,2066,2053,1193
1152,1713858893486557122,2043,2056,2064,2065,2036,2038,1193
1153,1713858893496554875,2064,2065,2024,2047,2060,2056,1196
1154,1713858893506565815,2037,2019,2044,2049,2034,2046,1194
1155,1713858893516556665,2084,2064,2004,2040,2069,2058,1194
1156,1713858893526555541,2038,2012,1956,2051,2030,2039,1192
1157,1713858893536561830,2077,2070,1979,2060,2072,2061,1196
1158,1713858893546557680,2043,2050,2032,2060,2036,2041,1192
1159,1713858893556552719,2068,2068,2036,2045,2082,2066,1196
1160,1713858893566558878,2038,2029,2042,2058,2032,2045,1191
1161,1713858893576559217,2064,2056,2029,2047,2074,2052,1196
1162,1713858893586555117,2034,2040,2076,2062,2031,2053,1195
1163,1713858893596557830,2068,2063,2018,2052,2066,2070,1197
1164,1713858893606554421,2035,2034,2083,2060,2029,2034,1193
1165,1713858893616553898,2067,2057,2034,2044,2068,2045,1193
1166,1713858893626557122,2048,2051,2056,2065,2037,2050,1195
1167,1713858893636560045,2064,2060,2034,2041,2078,2051,1199
1168,1713858893646592275,2038,2049,2069,2061,2035,2042,1192
1169,1713858893656559220,2064,2066,2048,2044,2065,2056,1195
1170,1713858893666557895,2030,2015,2080,2056,2034,2050,1193
1171,1713858893676555468,2066,2076,2028,2045,2063,2053,1196
1172,1713858893686556638,2026,2018,2028,2058,2025,2047,1193
1173,1713858893696556405,2076,2056,2022,2040,2066,2053,1196
1174,1713858893706557616,2041,2033,2037,2066,2043,2047,1192
1175,1713858893716556912,2065,2065,2023,2044,2062,2062,1196
1176,1713858893726558654,2028,2052,2138,2073,2047,2044,1193
1177,1713858893736556948,2073,2081,2062,2042,2065,2054,1198
1178,1713858893746554792,2032,2008,2021,2055,2026,2043,1196
1179,1713858893756555391,2075,2068,2100,2041,2078,2060,1197
1180,1713858893766564876,2036,2024,2038,2072,2023,2047,1196
1181,1713858893776556679,2076,2084,2024,2061,2081,2064,1196
1182,1713858893786555865,2036,2031,2040,2072,2037,2052,1196
1183,1713858893796556405,2063,2061,1969,2050,2074,2063,1195
1184,1713858893806555641,2041,2043,2037,2061,2033,2036,1196
1185,1713858893816556189,2073,2080,2072,2052,2082,2075,1196
1186,1713858893826557901,2040,2047,2094,2075,2030,2045,1192
1187,1713858893836557578,2070,2048,2046,2046,2068,2056,1197
1188,1713858893846553278,2045,2036,2093,2064,2034,2049,1196
1189,1713858893856556091,2072,2059,2053,2050,2076,2067,1196
1190,1713858893866554235,2040,2018,2032,2064,2027,2045,1192
1191,1713858893876555285,2065,2060,1996,2044,2080,2053,1195
1192,1713858893886556074,2026,2013,2004,2062,2026,2049,1194
1193,1713858893896555682,2075,2060,2033,2044,2070,2056,1196
1194,1713858893906554687,2028,2022,2024,2064,2032,2041,1195
1195,1713858893916553994,2086,2140,2149,2056,2070,2059,1196
1196,1713858893926556477,2030,2013,2050,2068,2040,2052,1197
1197,1713858893936580100,2092,2136,2244,2064,2096,2070,1198
1198,1713858893946553908,2043,2008,2030,2066,2024,2044,1194
1199,1713858893956557111,2088,2092,2053,2060,2090,2065,1198
1200,1713858893966557480,2017,1994,2002,2052,2019,2042,1193
1201,1713858893976558570,2081,2072,1993,2041,2094,2065,1196
1202,1713858893986553889,2025,2008,2044,2060,2013,2039,1194
1203,1713858893996556953,2072,2074,2034,2053,2077,2053,1197
1204,1713858894006555417,2040,2041,2105,2065,2038,2061,1196
1205,1713858894016557722,2081,2056,1952,2038,2074,2076,1197
1206,1713858894026555016,2025,2017,2036,2065,2026,2041,1195
1207,1713858894036554504,2073,2061,2010,2044,2078,2057,1196
1208,1713858894046555295,2040,2047,2072,2073,2031,2048,1197
1209,1713858894056555195,2082,2086,2053,2040,2048,2054,1193
1210,1713858894066557939,2028,2012,2009,2065,2026,2052,1196
1211,1713858894076556255,2076,2074,2043,2050,2061,2059,1196
1212,1713858894086551446,2040,2062,2122,2080,2021,2050,1195
1213,1713858894096554481,2075,2076,2052,2039,2088,2064,1197
1214,1713858894106551083,2035,2014,2001,2057,2019,2053,1196
1215,1713858894116553497,2082,2075,2024,2040,2072,2056,1197
1216,1713858894126576491,2026,2026,2057,2060,2028,2045,1193
1217,1713858894136554378,2084,2112,2140,2056,2080,2061,1195
1218,1713858894146554156,2023,2012,2040,2067,2028,2049,1198
1219,1713858894156556901,2072,2068,2037,2044,2085,2061,1197
1220,1713858894166555268,2040,2034,2096,2071,2029,2041,1195
1221,1713858894176558001,2064,2049,2024,2048,2074,2056,1196
1222,1713858894186553553,2037,2040,2073,2062,2034,2047,1194
1223,1713858894196556588,2079,2082,2048,2050,2088,2060,1197
1224,1713858894206554534,2029,2007,1982,2068,2014,2044,1194
1225,1713858894216555564,2073,2062,2024,2047,2085,2062,1197
1226,1713858894226554301,2031,2026,2070,2074,2034,2047,1195
1227,1713858894236554301,2082,2108,2104,2050,2080,2061,1198
1228,1713858894246555502,2031,2041,2047,2068,2021,2029,1194
1229,1713858894256557956,2073,2093,2078,2046,2088,2061,1192
1230,1713858894266553798,2033,2033,2044,2068,2024,2042,1190
1231,1713858894276556072,2072,2082,2037,2043,2091,2060,1195
1232,1713858894286554838,2042,2089,2232,2089,2037,2056,1195
1233,1713858894296557322,2080,2070,2027,2033,2072,2060,1196
1234,1713858894306553134,2038,2030,2077,2062,2026,2043,1193
1235,1713858894316556319,2073,2096,2026,2050,2081,2054,1194
1236,1713858894326554776,2016,2024,2028,2064,2012,2055,1196
1237,1713858894336552110,2074,2088,2058,2045,2080,2062,1195
1238,1713858894346558081,2028,2027,2035,2054,2045,2052,1195
1239,1713858894356553031,2100,2116,2111,2044,2094,2098,1197
1240,1713858894366554432,2028,2036,2084,2068,2026,2041,1195
1241,1713858894376553600,2086,2059,1996,2052,2104,2058,1195
1242,1713858894386555273,2040,2035,2047,2064,2029,2048,1195
1243,1713858894396555112,2077,2078,2036,2048,2055,2048,1195
1244,1713858894406555702,2048,2073,2102,2077,2027,2051,1194
1245,1713858894416555822,2081,2096,2086,2052,2072,2056,1195
1246,1713858894426556723,2013,1995,2002,2053,2013,2040,1192
1247,1713858894436557294,2077,2089,2025,2040,2099,2064,1196
1248,1713858894446558174,2036,2033,2077,2069,2022,2049,1194
1249,1713858894456558464,2076,2091,2053,2043,2076,2057,1195
1250,1713858894466559065,2030,2025,2105,2072,2031,2050,1197
1251,1713858894476559815,2090,2080,2054,2051,2079,2064,1194
1252,1713858894486560366,2024,2013,2049,2066,2021,2051,1195
1253,1713858894496560846,2089,2111,2093,2051,2095,2061,1197
1254,1713858894506562148,2023,2017,2065,2058,2020,2049,1199
1255,1713858894516562407,2085,2080,2065,2051,2077,2060,1197
1256,1713858894526562647,2013,2013,2037,2061,2032,2046,1193
1257,1713858894536563940,2079,2082,2064,2047,2089,2060,1197
1258,1713858894546565882,2030,2013,2034,2069,2021,2050,1198
1259,1713858894556564940,2085,2082,2049,2050,2089,2061,1195
1260,1713858894566565561,2049,2019,2053,2060,2022,2047,1195
1261,1713858894576565981,2077,2074,2122,2048,2098,2058,1197
1262,1713858894586543897,2035,2028,2072,2076,2021,2044,1193
1263,1713858894596567572,2088,2089,2018,2034,2073,2060,1198
1264,1713858894606552072,2020,2025,2067,2069,2016,2034,1194
1265,1713858894616568984,2078,2063,2025,2051,2075,2068,1196
1266,1713858894626569083,2035,2031,2046,2081,2017,2048,1197
1267,1713858894636552932,2082,2081,2049,2043,2105,2056,1195
1268,1713858894646553552,2018,2025,2049,2056,2018,2045,1194
1269,1713858894656552009,2082,2082,2043,2035,2096,2060,1192
1270,1713858894666554282,2025,2019,2052,2062,2018,2043,1192
1271,1713858894676554702,2093,2103,2129,2065,2095,2072,1195
1272,1713858894686554892,2019,2021,2054,2058,2017,2040,1194
1273,1713858894696555363,2083,2097,2079,2057,2090,2060,1195
1274,1713858894706555191,2032,2029,2070,2063,2008,2044,1194
1275,1713858894716554980,2084,2079,2050,2040,2106,2062,1193
1276,1713858894726555481,2015,2006,2037,2072,2007,2049,1196
1277,1713858894736559828,2085,2061,2034,2061,2090,2064,1200
1278,1713858894746556922,2024,2004,2032,2056,2008,2045,1194
1279,1713858894756555318,2083,2091,2040,2049,2089,2060,1194
1280,1713858894766557101,2028,2016,2066,2069,2030,2047,1195
1281,1713858894776555697,2089,2068,2036,2037,2089,2059,1198
1282,1713858894786554214,2021,2016,2047,2061,2018,2044,1193
1283,1713858894796575114,2078,2072,2015,2040,2091,2056,1195
1284,1713858894806560535,2026,2000,2034,2062,2024,2048,1198
1285,1713858894816557829,2089,2109,2082,2055,2097,2067,1197
1286,1713858894826563780,2020,2016,2030,2067,2001,2041,1192
1287,1713858894836558109,2084,2097,2053,2043,2088,2065,1197
1288,1713858894846555122,2021,2005,2060,2064,2006,2043,1196
1289,1713858894856563557,2078,2095,2067,2054,2095,2059,1194
1290,1713858894866553297,2025,1995,2033,2056,2004,2046,1191
1291,1713858894876565750,2080,2088,2060,2040,2084,2058,1196
1292,1713858894886554638,2024,1998,2056,2068,2024,2045,1193
1293,1713858894896557293,2076,2079,2032,2041,2087,2060,1195
1294,1713858894906558665,2022,2017,2045,2059,2019,2050,1195
1295,1713858894916555929,2075,2069,2020,2044,2092,2058,1196
1296,1713858894926562591,2024,1980,2029,2050,2020,2043,1195
1297,1713858894936557901,2086,2102,2102,2038,2112,2057,1198
1298,1713858894946553442,2027,2003,2043,2066,2004,2051,1197
1299,1713858894956561888,2079,2082,2054,2038,2094,2064,1195
1300,1713858894966557077,2013,1999,2044,2061,2020,2044,1193
1301,1713858894976554702,2084,2068,2012,2043,2101,2060,1197
1302,1713858894986557668,2018,1998,2058,2061,2019,2044,1194
1303,1713858894996555333,2072,2061,2020,2036,2113,2057,1195
1304,1713858895006557335,2019,2005,2015,2068,2025,2050,1195
1305,1713858895016555552,2098,2101,2044,2031,2090,2056,1196
1306,1713858895026560292,2017,2006,2040,2066,2003,2045,1194
1307,1713858895036555874,2105,2125,2064,2045,2103,2060,1196
1308,1713858895046554212,2032,2019,2072,2077,2002,2042,1193
1309,1713858895056561767,2092,2063,1992,2033,2114,2061,1195
1310,1713858895066557731,2021,1988,2001,2064,2004,2045,1195
1311,1713858895076560075,2089,2100,2093,2056,2101,2060,1197
1312,1713858895086557963,2026,2017,2057,2060,2016,2046,1192
1313,1713858895096554897,2085,2081,2056,2040,2093,2061,1194
1314,1713858895106555419,2012,1999,2026,2060,2008,2045,1192
1315,1713858895116558095,2105,2100,2071,2053,2089,2056,1195
1316,1713858895126560561,2032,2033,2076,2072,2020,2044,1191
1317,1713858895136557707,2097,2093,2091,2042,2089,2060,1197
1318,1713858895146560392,2030,2035,2103,2070,2015,2047,1194
1319,1713858895156566224,2079,2064,2038,2052,2089,2058,1197
1320,1713858895166557287,2011,2010,2022,2054,1989,2047,1193
1321,1713858895176554463,2095,2106,2078,2056,2099,2063,1198
1322,1713858895186556517,2027,2010,2040,2076,2021,2046,1193
1323,1713858895196560035,2083,2072,2030,2043,2106,2060,1193
1324,1713858895206558904,2020,2029,2028,2057,2012,2044,1194
1325,1713858895216554997,2088,2088,2022,2026,2095,2059,1196
1326,1713858895226552584,2032,2026,2070,2062,2009,2044,1193
1327,1713858895236559167,2076,2078,2031,2042,2122,2056,1196
1328,1713858895246553267,2032,2041,2097,2074,1998,2048,1197
1329,1713858895256554569,2094,2096,2083,2043,2088,2057,1193
1330,1713858895266557206,2016,2021,2035,2071,2017,2050,1195
1331,1713858895276552297,2073,2088,2045,2037,2082,2059,1197
1332,1713858895286555063,2016,2031,2056,2070,2006,2048,1197
1333,1713858895296555034,2100,2101,2045,2033,2086,2059,1197
1334,1713858895306575123,2026,2000,2042,2074,2007,2048,1195
1335,1713858895316561097,2076,2060,2041,2033,2083,2061,1195
1336,1713858895326557321,2031,2008,2048,2073,2013,2052,1197
1337,1713858895336561580,2090,2100,2047,2049,2104,2059,1197
1338,1713858895346562412,2008,1999,2037,2058,2008,2048,1195
1339,1713858895356564517,2082,2085,2030,2035,2098,2061,1196
1340,1713858895366559608,2016,1993,2035,2060,2009,2044,1197
1341,1713858895376557225,2093,2103,2060,2044,2096,2065,1197
1342,1713858895386558507,2007,2034,2025,2072,2015,2044,1192
1343,1713858895396561424,2088,2104,2060,2045,2094,2063,1195
1344,1713858895406561374,2020,2003,2080,2066,1991,2048,1196
1345,1713858895416567928,2099,2088,2028,2041,2093,2059,1198
1346,1713858895426565254,2004,2003,2044,2068,2012,2048,1194
1347,1713858895436564072,2070,2077,2038,2040,2095,2062,1195
1348,1713858895446565206,2025,2028,2070,2052,2012,2045,1193
1349,1713858895456530880,2089,2104,2063,2038,2095,2060,1194
1350,1713858895466565788,2020,1998,2053,2076,2011,2047,1192
1351,1713858895476566720,2098,2103,2048,2044,2096,2062,1195
1352,1713858895486572152,2013,1989,2031,2064,2005,2050,1196
1353,1713858895496567002,2089,2104,2057,2040,2100,2062,1194
1354,1713858895506568076,2025,2021,2057,2057,2011,2049,1197
1355,1713858895516572896,2077,2080,2001,2044,2104,2059,1195
1356,1713858895526564380,2025,2008,2035,2062,2001,2045,1196
1357,1713858895536569461,2081,2100,2042,2039,2098,2061,1196
1358,1713858895546570534,2024,2025,2094,2073,2015,2044,1193
1359,1713858895556554935,2086,2075,2052,2046,2090,2060,1196
1360,1713858895566556278,2013,2002,2056,2068,2023,2052,1196
1361,1713858895576556249,2090,2058,2042,2039,2100,2057,1196
1362,1713858895586554736,2029,2025,2075,2084,2025,2048,1195
1363,1713858895596555559,2085,2092,2053,2043,2096,2057,1196
1364,1713858895606555449,2008,2026,2084,2066,1996,2048,1194
1365,1713858895616559298,2090,2099,2050,2050,2104,2061,1197
1366,1713858895626554589,2016,2018,2043,2064,2011,2047,1194
1367,1713858895636557656,2084,2101,2077,2047,2090,2058,1196
1368,1713858895646553239,2013,2003,2047,2070,2006,2046,1194
1369,1713858895656556325,2102,2100,2054,2047,2118,2064,1197
1370,1713858895666554332,2019,1998,2032,2069,2006,2050,1196
1371,1713858895676557168,2071,2085,2017,2027,2094,2056,1195
1372,1713858895686555506,2016,2020,2060,2066,2002,2050,1197
1373,1713858895696558843,2088,2084,2008,2046,2097,2060,1196
1374,1713858895706556570,2014,2010,2052,2066,2017,2045,1195
1375,1713858895716557612,2084,2104,2088,2034,2094,2059,1195
1376,1713858895726555038,2025,2034,2052,2068,2008,2045,1192
1377,1713858895736555590,2075,2077,2026,2046,2095,2054,1195
1378,1713858895746553657,2027,2016,2060,2062,2010,2051,1196
1379,1713858895756557525,2084,2081,2062,2041,2106,2061,1198
1380,1713858895766561935,2024,2014,2040,2077,2018,2045,1196
1381,1713858895776556455,2094,2074,2049,2044,2104,2061,1195
1382,1713858895786559051,2024,2008,2104,2079,2015,2051,1196
1383,1713858895796557068,2104,2101,2028,2044,2104,2059,1195
1384,1713858895806564012,2014,2008,2053,2068,1997,2045,1194
1385,1713858895816557701,2090,2097,2045,2044,2103,2058,1196
1386,1713858895826561689,2012,2008,2072,2077,2012,2049,1196
1387,1713858895836557362,2092,2122,2065,2039,2101,2061,1197
1388,1713858895846562482,2020,2018,2085,2073,1998,2042,1193
1389,1713858895856555379,2094,2094,2052,2045,2097,2058,1195
1390,1713858895866553858,2017,2007,2019,2060,2004,2045,1192
1391,1713858895876556984,2077,2083,2010,2037,2091,2059,1194
1392,1713858895886558518,2022,2036,2047,2065,2005,2043,1193
1393,1713858895896554952,2090,2080,2021,2044,2100,2056,1196
1394,1713858895906553851,2018,2015,2053,2066,1982,2048,1194
1395,1713858895916561285,2099,2102,2073,2040,2104,2061,1194
1396,1713858895926554834,2009,2005,2035,2069,2009,2045,1192
1397,1713858895936557580,2096,2087,2045,2036,2095,2057,1195
1398,1713858895946553814,2033,2011,2052,2052,2014,2047,1192
1399,1713858895956557020,2093,2113,2080,2047,2112,2061,1196
1400,1713858895966561530,2017,2015,2066,2060,1996,2044,1195
1401,1713858895976557994,2090,2096,2069,2044,2108,2060,1197
1402,1713858895986556692,2020,2010,2051,2066,1993,2044,1192
1403,1713858895996558778,2090,2088,2051,2047,2113,2060,1196
1404,1713858896006555192,2015,2008,2052,2060,1992,2049,1196
1405,1713858896016558731,2093,2114,2084,2046,2113,2061,1196
1406,1713858896026556309,2013,2003,2060,2068,1995,2049,1197
1407,1713858896036556983,2098,2079,2040,2040,2090,2059,1196
1408,1713858896046554681,2013,2021,2046,2080,1986,2049,1199
1409,1713858896056554753,2112,2114,2094,2052,2114,2060,1193
1410,1713858896066556378,2015,2008,2044,2064,1993,2048,1195
1411,1713858896076555819,2090,2088,2049,2041,2107,2062,1195
1412,1713858896086554729,2017,2011,2065,2066,2010,2050,1197
1413,1713858896096554972,2108,2123,2144,2050,2100,2058,1195
1414,1713858896106555606,2032,2045,2116,2067,1994,2049,1195
1415,1713858896116556139,2092,2120,2057,2038,2109,2061,1195
1416,1713858896126557193,2021,2004,2077,2074,1997,2048,1197
1417,1713858896136557275,2088,2100,2020,2047,2106,2056,1198
1418,1713858896146558390,2022,2022,2047,2061,1996,2045,1193
1419,1713858896156558182,2097,2095,2047,2039,2104,2059,1197
1420,1713858896166557353,2017,2013,2081,2072,1992,2048,1198
1421,1713858896176555712,2100,2130,2104,2057,2113,2064,1196
1422,1713858896186556015,2029,2004,2051,2061,1969,2049,1196
1423,1713858896196553442,2084,2105,2013,2030,2106,2061,1195
1424,1713858896206554366,2024,2009,2034,2054,1994,2046,1192
1425,1713858896216555150,2086,2085,2034,2040,2109,2061,1196
1426,1713858896226555553,2018,2011,2066,2072,2003,2050,1197
1427,1713858896236556367,2097,2089,2052,2039,2120,2060,1196
1428,1713858896246554516,2021,2002,2041,2072,1998,2042,1193
1429,1713858896256582451,2083,2074,2008,2034,2115,2056,1195
1430,1713858896266555191,2010,1993,2039,2060,1982,2040,1193
1431,1713858896276555183,2106,2124,2109,2051,2122,2062,1197
1432,1713858896286558251,2019,2042,2136,2080,1989,2043,1193
1433,1713858896296557152,2090,2129,2096,2056,2117,2057,1195
1434,1713858896306554900,2034,2020,2133,2077,2005,2067,1196
1435,1713858896316555162,2096,2091,2030,2040,2116,2065,1195
1436,1713858896326553261,1996,1984,1978,2067,1981,2032,1195
1437,1713858896336553624,2090,2120,2036,2056,2128,2088,1195
1438,1713858896346554468,2008,1978,1997,2058,1976,2031,1193
1439,1713858896356557215,2093,2089,2059,2056,2120,2060,1196
1440,1713858896366559732,2004,1988,2040,2057,1984,2041,1194
1441,1713858896376557330,2100,2085,2057,2042,2120,2059,1195
1442,1713858896386554748,2026,2032,2148,2066,1985,2049,1196
1443,1713858896396555141,2065,2067,2037,2024,2108,2050,1195
1444,1713858896406558749,2015,1981,2052,2067,1965,2045,1193
1445,1713858896416556417,2090,2117,2120,2016,2117,2058,1195
1446,1713858896426554606,2017,2005,2075,2061,1992,2035,1194
1447,1713858896436557534,2120,2142,2176,2025,2117,2079,1196
1448,1713858896446555613,2011,2017,2034,2059,1981,2036,1193
1449,1713858896456554062,2091,2092,1998,2038,2126,2067,1194
1450,1713858896466559685,2043,2060,2226,2097,2000,2047,1193
1451,1713858896476557393,2097,2092,2031,2032,2126,2063,1194
1452,1713858896486556133,2010,1960,2010,2051,1960,2040,1193
1453,1713858896496554301,2084,2097,2011,2044,2122,2057,1194
1454,1713858896506555877,2008,1961,1965,2045,1979,2038,1192
1455,1713858896516558464,2104,2126,2154,2056,2125,2073,1197
1456,1713858896526557986,2027,2021,2085,2059,1982,2047,1192
1457,1713858896536558499,2101,2117,2100,2038,2134,2065,1195
1458,1713858896546557789,2016,1998,2100,2072,1987,2036,1192
1459,1713858896556556359,2100,2098,1982,2034,2122,2072,1195
1460,1713858896566558275,2008,1994,2050,2069,1967,2028,1193
1461,1713858896576558097,2094,2120,2070,2046,2116,2070,1195
1462,1713858896586558851,2029,2014,2056,2069,1978,2036,1196
1463,1713858896596558913,2082,2090,2059,2029,2120,2056,1196
1464,1713858896606559897,2011,1980,2086,2076,1990,2035,1194
1465,1713858896616562324,2118,2123,2064,2060,2109,2058,1196
1466,1713858896626561324,1997,1967,2020,2072,1980,2029,1195
1467,1713858896636561677,2113,2130,2154,2052,2125,2059,1194
1468,1713858896646570356,2008,2012,2110,2066,1986,2049,1197
1469,1713858896656562504,2101,2111,2086,2056,2116,2045,1192
1470,1713858896666564931,1993,1961,1988,2070,2003,2059,1194
1471,1713858896676563640,2100,2089,1992,2028,2129,2053,1198
1472,1713858896686564013,1998,1975,2076,2064,1972,2039,1192
1473,1713858896696564446,2100,2081,1990,2031,2123,2055,1195
1474,1713858896706565320,2016,2028,2089,2070,1980,2068,1195
1475,1713858896716565793,2099,2075,1970,2017,2120,2052,1197
1476,1713858896726566347,2007,2012,2047,2076,1973,2041,1195
1477,1713858896736567862,2096,2094,2005,2024,2114,2054,1195
1478,1713858896746551001,2008,1990,2042,2068,1978,2030,1190
1479,1713858896756568267,2098,2100,2072,2030,2131,2073,1195
1480,1713858896766568860,2018,2012,2053,2092,1981,2047,1194
1481,1713858896776569354,2114,2120,2061,2036,2120,2062,1197
1482,1713858896786551412,2025,2016,2090,2085,2002,2068,1195
1483,1713858896796571062,2108,2146,2071,2032,2124,2048,1195
1484,1713858896806554472,2003,2047,2154,2092,1984,2051,1196
1485,1713858896816553923,2097,2104,2022,2036,2128,2054,1197
1486,1713858896826555418,2008,2003,2068,2069,1981,2044,1194
1487,1713858896836555120,2110,2129,2012,2035,2122,2062,1194
1488,1713858896846573568,2004,1985,2016,2074,1986,2051,1196
1489,1713858896856554884,2100,2089,2062,2035,2131,2064,1194
1490,1713858896866562271,2021,1986,2051,2070,1997,2058,1194
1491,1713858896876555320,2100,2096,2029,2025,2118,2053,1193
1492,1713858896886557205,1997,1992,2036,2066,1986,2037,1192
1493,1713858896896553981,2115,2104,2026,2024,2121,2063,1194
1494,1713858896906551278,1995,1994,2040,2075,1989,2055,1195
1495,1713858896916551130,2112,2112,2053,2038,2126,2065,1197
1496,1713858896926559649,2011,2026,2093,2086,1998,2060,1196
1497,1713858896936576994,2108,2108,2034,2031,2128,2057,1195
1498,1713858896946556768,2011,2006,2109,2081,1989,2063,1195
1499,1713858896956557492,2112,2118,2068,2044,2138,2059,1195
1500,1713858896966554348,2014,2027,2186,2091,1986,2052,1198
1501,1713858896976553308,2123,2136,2114,2052,2128,2065,1196
1502,1713858896986551106,2002,1965,2030,2073,1986,2050,1193
1503,1713858896996557431,2095,2070,2015,2034,2108,2061,1197
1504,1713858897006553596,1985,1998,2130,2076,1988,2057,1196
1505,1713858897016554040,2120,2115,2042,2040,2129,2064,1197
1506,1713858897026552681,2010,1985,2021,2068,2003,2043,1192
1507,1713858897036556703,2117,2121,2043,2043,2133,2070,1195
1508,1713858897046559512,2010,2055,2140,2084,1995,2061,1196
1509,1713858897056558724,2109,2133,2106,2033,2121,2052,1193
1510,1713858897066562686,1990,1992,2090,2076,1986,2044,1193
1511,1713858897076563350,2112,2097,2010,2036,2132,2061,1195
1512,1713858897086560729,1989,1970,1988,2064,1989,2052,1195
1513,1713858897096561033,2116,2088,2011,2029,2130,2072,1195
1514,1713858897106555747,2012,2025,2091,2077,2008,2069,1196
1515,1713858897116563395,2104,2120,2036,2040,2110,2056,1195
1516,1713858897126560955,1993,1985,2103,2081,1995,2052,1195
1517,1713858897136560377,2091,2073,1976,2031,2129,2047,1194
1518,1713858897146562024,2016,1984,2016,2064,1994,2047,1194
1519,1713858897156561366,2112,2156,2142,2049,2130,2057,1198
1520,1713858897166560588,1994,1980,2038,2074,1998,2040,1197
1521,1713858897176560673,2116,2122,2078,2044,2120,2053,1197
1522,1713858897186559183,2005,1995,2055,2075,1996,2048,1194
1523,1713858897196562744,2103,2092,2020,2032,2122,2060,1196
1524,1713858897206556245,2024,2049,2132,2074,1996,2056,1195
1525,1713858897216561779,2113,2136,2192,2060,2119,2053,1197
1526,1713858897226554709,2033,2086,2233,2100,2002,2064,1197
1527,1713858897236557128,2101,2102,1988,2036,2120,2058,1196
1528,1713858897246561029,1992,1966,2050,2062,1987,2043,1194
1529,1713858897256556704,2120,2119,2066,2028,2104,2036,1191
1530,1713858897266554043,1997,1990,2046,2074,2001,2041,1192
1531,1713858897276555660,2124,2151,2108,2053,2127,2069,1195
1532,1713858897286557447,2014,2018,2184,2091,2005,2068,1197
1533,1713858897296560407,2124,2149,2111,2060,2128,2057,1193
1534,1713858897306558276,2000,1971,2004,2056,1993,2074,1194
1535,1713858897316579831,2105,2137,2079,2040,2117,2046,1194
1536,1713858897326558013,2025,2053,2192,2093,2006,2040,1192
1537,1713858897336558056,2104,2098,2014,2034,2109,2053,1196
1538,1713858897346556458,2010,2019,2165,2082,1998,2046,1194
1539,1713858897356554097,2105,2127,2068,2037,2108,2057,1195
1540,1713858897366559571,2032,2067,2231,2094,2006,2060,1196
1541,1713858897376556639,2089,2093,2060,2025,2097,2029,1193
1542,1713858897386556312,2008,1998,2014,2080,1999,2045,1194
1543,1713858897396556796,2133,2140,2064,2061,2138,2079,1195
1544,1713858897406552222,1994,1992,2066,2064,2000,2050,1195
1545,1713858897416555071,2104,2103,2064,2044,2114,2056,1197
1546,1713858897426552559,2016,2038,2149,2076,2002,2060,1196
1547,1713858897436558234,2107,2105,2062,2029,2112,2061,1197
1548,1713858897446554611,2009,2011,2073,2080,2002,2052,1197
1549,1713858897456555446,2089,2088,2013,2041,2105,2036,1192
1550,1713858897466554789,2005,2000,2062,2073,2007,2079,1197
1551,1713858897476557237,2105,2108,2048,2030,2104,2056,1197
1552,1713858897486558844,2009,2004,2055,2074,1996,2052,1198
1553,1713858897496558077,2102,2114,2055,2041,2112,2054,1197
1554,1713858897506557439,2008,2028,2112,2072,1997,2069,1196
1555,1713858897516559316,2093,2092,2011,2027,2126,2068,1197
1556,1713858897526558799,2010,1979,2050,2061,1989,2046,1196
1557,1713858897536562970,2127,2173,2223,2061,2132,2068,1196
1558,1713858897546560209,1993,1990,2053,2065,2002,2046,1192
1559,1713858897556560824,2099,2078,2017,2031,2114,2058,1197
1560,1713858897566580345,2005,1994,2047,2069,1994,2048,1200
1561,1713858897576564739,2109,2100,2036,2044,2125,2064,1197
1562,1713858897586564673,2008,1984,2046,2078,2004,2057,1195
1563,1713858897596566700,2100,2108,2025,2036,2106,2052,1197
1564,1713858897606565852,2008,2010,2065,2059,1987,2052,1195
1565,1713858897616574182,2096,2073,1971,2030,2100,2047,1193
1566,1713858897626568374,2024,2010,2107,2075,1999,2053,1196
1567,1713858897636571284,2105,2129,2069,2041,2108,2056,1197
1568,1713858897646571608,2009,1996,2061,2079,2012,2056,1196
1569,1713858897656581981,2093,2085,1996,2037,2116,2054,1196
1570,1713858897666585322,1989,1983,2036,2064,2001,2042,1194
1571,1713858897676587089,2097,2092,2008,2033,2114,2044,1195
1572,1713858897686557225,2010,2011,2057,2077,2000,2052,1196
1573,1713858897696566607,2100,2113,2061,2047,2125,2062,1196
1574,1713858897706552995,2007,1990,2021,2072,2000,2049,1195
1575,1713858897716556294,2116,2126,2140,2058,2116,2060,1194
1576,1713858897726553964,2020,1988,2058,2068,1985,2050,1194
1577,1713858897736568827,2091,2088,2013,2032,2122,2054,1195
1578,1713858897746552398,2003,1990,2048,2069,2005,2057,1196
1579,1713858897756561409,2091,2093,2057,2041,2126,2047,1193
1580,1713858897766550773,2033,2064,2188,2097,1992,2052,1198
1581,1713858897776602325,2093,2101,2000,2040,2125,2066,1196
1582,1713858897786556211,1993,1986,2034,2056,1989,2035,1194
1583,1713858897796584038,2117,2101,2043,2041,2116,2054,1195
1584,1713858897806557721,2052,2103,2384,2112,2015,2074,1197
1585,1713858897816555841,2093,2083,2047,2037,2108,2049,1196
1586,1713858897826553871,2020,1989,2007,2068,1999,2058,1196
1587,1713858897836558022,2105,2141,2108,2042,2101,2044,1193
1588,1713858897846553959,2014,2008,2098,2080,2024,2070,1197
1589,1713858897856557328,2093,2094,2001,2038,2107,2043,1191
1590,1713858897866555338,2002,1985,1960,2085,2005,2050,1194
1591,1713858897876556114,2083,2064,1961,2020,2110,2052,1195
1592,1713858897886553533,2032,2041,2097,2072,1987,2038,1193
1593,1713858897896557714,2117,2160,2076,2049,2138,2084,1195
1594,1713858897906558750,2004,1994,2032,2062,1992,2051,1196
1595,1713858897916555878,2098,2120,2131,2036,2120,2052,1194
1596,1713858897926557665,2011,1989,2081,2071,1986,2047,1194
1597,1713858897936568200,2088,2054,1980,2009,2116,2065,1194
1598,1713858897946556190,2006,1997,2049,2031,1996,2063,1194
1599,1713858897956560823,2104,2110,2093,2048,2124,2087,1196
1600,1713858897966555046,2004,1989,2040,2069,2002,2047,1195
1601,1713858897976557393,2109,2111,2033,2038,2120,2054,1194
1602,1713858897986555824,2022,2022,2134,2074,2003,2056,1197
1603,1713858897996556279,2076,2086,2073,2035,2121,2035,1193
1604,1713858898006557506,2013,1976,2015,2062,1984,2038,1191
1605,1713858898016559505,2116,2168,2184,2044,2126,2051,1194
1606,1713858898026554060,2021,1997,2033,2079,1997,2052,1197
1607,1713858898036558713,2091,2093,2078,2043,2124,2059,1196
1608,1713858898046554060,2034,2029,2136,2070,1998,2054,1195
1609,1713858898056578883,2096,2069,2025,2032,2122,2060,1195
1610,1713858898066553299,2030,1989,2048,2065,1997,2060,1195
1611,1713858898076554797,2093,2104,2066,2050,2122,2045,1193
1612,1713858898086552017,2020,2014,2074,2068,1988,2044,1193
1613,1713858898096560949,2093,2092,2067,2034,2114,2062,1195
1614,1713858898106551556,2006,2003,2064,2066,1998,2073,1195
1615,1713858898116557182,2089,2090,1962,2029,2107,2052,1193
1616,1713858898126562979,1995,1958,1960,2057,1989,2033,1193
1617,1713858898136554207,2104,2128,2090,2038,2133,2064,1197
1618,1713858898146554813,2026,2025,2065,2076,1993,2047,1193
1619,1713858898156557514,2090,2085,1985,2030,2120,2057,1195
1620,1713858898166556136,2004,1993,2024,2072,1999,2054,1195
1621,1713858898176563275,2112,2099,2031,2028,2112,2068,1196
1622,1713858898186558211,2005,2003,2116,2069,1992,2047,1195
1623,1713858898196554749,2108,2124,2053,2035,2117,2057,1197
1624,1713858898206558111,2008,2008,2089,2065,1992,2042,1194
1625,1713858898216556463,2101,2119,2051,2042,2116,2069,1198
1626,1713858898226560936,2019,2011,2071,2064,2002,2052,1198
1627,1713858898236555201,2106,2134,2128,2050,2124,2056,1197
1628,1713858898246555646,2009,2005,2057,2060,1997,2047,1193
1629,1713858898256556233,2102,2093,1990,2047,2125,2052,1194
1630,1713858898266552851,2025,2001,2034,2068,1998,2048,1196
1631,1713858898276576001,2090,2120,2052,2043,2112,2061,1196
1632,1713858898286554455,1995,1985,2021,2066,1997,2049,1195
1633,1713858898296558878,2104,2084,2014,2041,2119,2062,1196
1634,1713858898306554295,2009,2008,2062,2070,1997,2051,1195
1635,1713858898316558799,2101,2099,2049,2031,2116,2060,1196
1636,1713858898326555017,2021,2040,2084,2073,2000,2058,1194
1637,1713858898336585801,2097,2120,2098,2046,2122,2060,1195
1638,1713858898346551931,2017,2009,2039,2063,2000,2061,1196
1639,1713858898356554842,2093,2104,2044,2034,2102,2056,1194
1640,1713858898366555629,2004,1997,2069,2062,1996,2041,1195
1641,1713858898376558189,2094,2076,2033,2029,2101,2045,1192
1642,1713858898386561821,1999,1976,2034,2068,1993,2052,1197
1643,1713858898396572877,2094,2108,2047,2026,2116,2056,1196
1644,1713858898406571179,2031,2050,2281,2087,1998,2062,1196
1645,1713858898416570343,2103,2104,2049,2042,2118,2053,1196
1646,1713858898426573695,2001,2005,2035,2063,2008,2058,1194
1647,1713858898436573860,2114,2108,2029,2045,2126,2050,1194
1648,1713858898446605315,2000,1996,2069,2057,2004,2053,1197
1649,1713858898456561016,2105,2114,2066,2049,2112,2040,1192
1650,1713858898466558445,2003,1990,2036,2060,1997,2044,1192
1651,1713858898476559212,2089,2092,2004,2035,2114,2051,1195
1652,1713858898486553516,2029,2053,2109,2068,2007,2063,1194
1653,1713858898496554673,2099,2108,2011,2040,2114,2058,1195
1654,1713858898506565259,2014,2026,2060,2080,2004,2052,1196
1655,1713858898516558692,2092,2098,2028,2039,2120,2059,1196
1656,1713858898526580940,2035,2035,2148,2085,1998,2054,1194
1657,1713858898536561938,2100,2104,2095,2042,2120,2068,1196
1658,1713858898546557675,2009,1968,1976,2059,1990,2040,1192
1659,1713858898556558051,2098,2100,2052,2034,2120,2052,1195
1660,1713858898566558998,2002,1980,1979,2076,1990,2041,1193
1661,1713858898576561148,2089,2074,1964,2028,2118,2049,1197
1662,1713858898586563988,2027,2004,2002,2064,1995,2050,1197
1663,1713858898596563052,2094,2097,2057,2041,2105,2054,1197
1664,1713858898606558939,2022,2006,2033,2059,1993,2045,1192
1665,1713858898616557952,2101,2121,2096,2054,2124,2062,1197
1666,1713858898626565692,2003,1988,2008,2051,1980,2044,1193
1667,1713858898636562050,2120,2151,2182,2061,2130,2070,1196
1668,1713858898646560182,2022,2025,2096,2066,1992,2049,1198
1669,1713858898656558374,2106,2125,2150,2048,2112,2056,1194
1670,1713858898666559521,2013,2012,2089,2089,2006,2058,1194
1671,1713858898676559797,2096,2092,2052,2043,2113,2041,1193
1672,1713858898686580842,2015,1992,2016,2058,1991,2055,1194
1673,1713858898696563244,2113,2152,2143,2057,2121,2073,1196
1674,1713858898706560864,2005,1977,2008,2076,1989,2057,1196
1675,1713858898716561610,2104,2101,2066,2040,2112,2057,1196
1676,1713858898726562357,2020,1990,2028,2060,1996,2041,1193
1677,1713858898736561951,2094,2086,1963,2042,2112,2060,1194
1678,1713858898746563450,2021,2002,2056,2075,2009,2060,1197
1679,1713858898756588583,2093,2112,2026,2042,2113,2051,1197
1680,1713858898766564061,2020,2006,2040,2072,1994,2056,1198
1681,1713858898776564327,2092,2104,2098,2036,2116,2056,1197
1682,1713858898786567388,2020,2011,2089,2072,1997,2054,1197
1683,1713858898796564808,2090,2105,2037,2037,2114,2058,1196
1684,1713858898806577638,2030,2021,2085,2064,1999,2051,1195
1685,1713858898816596129,2117,2161,2168,2048,2122,2059,1198
1686,1713858898826567499,2025,2002,2013,2071,2002,2052,1196
1687,1713858898836570680,2101,2112,2092,2032,2112,2051,1196
1688,1713858898846567960,2010,1992,2044,2065,2001,2053,1196
1689,1713858898856570821,2099,2112,2057,2046,2110,2064,1198
1690,1713858898866570526,2024,2006,2061,2069,2014,2085,1198
1691,1713858898876567405,2100,2122,2108,2042,2112,2041,1194
1692,1713858898886570957,2011,1981,2015,2077,2000,2053,1196
1693,1713858898896570741,2096,2097,2072,2045,2117,2062,1196
1694,1713858898906581346,2025,2021,2083,2057,1997,2045,1194
1695,1713858898916551735,2088,2112,2046,2039,2113,2047,1193
1696,1713858898926553574,2016,2005,2072,2045,2008,2060,1196
1697,1713858898936576183,2098,2101,2045,2045,2118,2050,1195
1698,1713858898946578943,2001,1980,2038,2060,1996,2050,1195
1699,1713858898956555573,2095,2094,2005,2034,2106,2045,1193
1700,1713858898966558464,2019,1994,2029,2059,1998,2058,1196
1701,1713858898976556946,2085,2074,2003,2032,2106,2040,1194
1702,1713858898986557412,2024,1996,2045,2068,2001,2053,1194
1703,1713858898996560173,2084,2108,2044,2029,2112,2050,1196
1704,1713858899006586989,2024,2030,2138,2069,2017,2060,1197
1705,1713858899016561337,2098,2104,2056,2042,2110,2049,1194
1706,1713858899026560081,2004,2001,2049,2058,2002,2051,1196
1707,1713858899036561169,2093,2096,2066,2048,2114,2063,1196
1708,1713858899046560124,2029,2020,2079,2068,2000,2056,1195
1709,1713858899056718826,2098,2104,2009,2033,2105,2056,1195
1710,1713858899066605184,2015,1993,2060,2073,2002,2061,1196
1711,1713858899076563330,2110,2103,2096,2048,2118,2061,1195
1712,1713858899086560992,2029,2032,2066,2073,2000,2053,1197
1713,1713858899096564336,2088,2090,2011,2036,2104,2055,1193
1714,1713858899106555636,2009,2014,2054,2068,2008,2047,1193
1715,1713858899116566693,2088,2096,2043,2046,2120,2078,1196
1716,1713858899126559386,2015,1992,2004,2068,1993,2053,1195
1717,1713858899136561096,2107,2136,2159,2050,2116,2057,1197
1718,1713858899146561193,2020,2020,2094,2061,1997,2046,1196
1719,1713858899156561550,2089,2091,2006,2036,2110,2050,1198
1720,1713858899166573058,2018,2009,2056,2064,1988,2054,1197
1721,1713858899176597222,2093,2104,2043,2041,2110,2046,1196
1722,1713858899186563133,2010,2016,2046,2062,1998,2056,1196
1723,1713858899196568549,2099,2112,2102,2033,2106,2044,1195
1724,1713858899206558477,2001,1992,2104,2066,2003,2056,1195
1725,1713858899216560969,2100,2086,1977,2040,2106,2052,1196
1726,1713858899226554944,2020,2008,2020,2064,2005,2058,1197
1727,1713858899236558847,2102,2093,2015,2034,2117,2065,1195
1728,1713858899246557562,2017,2012,2096,2083,1999,2057,1195
1729,1713858899256559793,2106,2117,2040,2031,2109,2052,1193
1730,1713858899266557275,2020,2002,2042,2069,1997,2061,1196
1731,1713858899276582168,2099,2104,2107,2032,2114,2044,1194
1732,1713858899286560925,2015,2021,2069,2084,2012,2057,1195
1733,1713858899296560741,2109,2110,2013,2052,2124,2061,1196
1734,1713858899306563543,2028,2025,2092,2076,2009,2065,1195
1735,1713858899316561435,2089,2087,2004,2030,2112,2060,1197
1736,1713858899326558827,2031,2037,2114,2066,1996,2040,1193
1737,1713858899336558042,2090,2104,2009,2044,2108,2042,1192
1738,1713858899346563229,2029,2016,2006,2061,2009,2050,1196
1739,1713858899356561101,2081,2082,1994,2038,2114,2057,1197
1740,1713858899366556800,2036,2043,2128,2087,2008,2050,1196
1741,1713858899376559622,2084,2094,2040,2041,2108,2050,1196
1742,1713858899386560891,2005,2004,2043,2065,2004,2048,1196
1743,1713858899396559745,2096,2081,1992,2030,2111,2054,1197
1744,1713858899406554161,2004,1983,1998,2052,1996,2045,1193
1745,1713858899416557594,2097,2123,2049,2040,2112,2058,1196
1746,1713858899426556579,2024,2001,2048,2064,1996,2056,1195
1747,1713858899436557467,2096,2100,2034,2041,2104,2050,1198
1748,1713858899446564146,2024,1993,2041,2063,1997,2045,1195
1749,1713858899456559144,2095,2094,2052,2041,2116,2050,1194
1750,1713858899466553500,2016,2006,2049,2077,2002,2058,1194
1751,1713858899476576339,2093,2098,2024,2039,2120,2061,1195
1752,1713858899486553072,2036,2041,2102,2075,2015,2056,1196
1753,1713858899496557597,2096,2100,2037,2046,2106,2052,1196
1754,1713858899506556171,2032,2039,2112,2076,2012,2069,1195
1755,1713858899516556548,2087,2110,2040,2021,2108,2061,1195
1756,1713858899526553429,2018,2014,2047,2071,2004,2056,1195
1757,1713858899536558596,2093,2104,2068,2044,2113,2053,1196
1758,1713858899546563922,2021,2033,2113,2082,1996,2048,1197
1759,1713858899556559600,2098,2066,1955,2036,2108,2048,1197
1760,1713858899566555800,2028,2035,2060,2078,2002,2053,1197
1761,1713858899576556809,2088,2098,2032,2038,2116,2056,1196
1762,1713858899586557687,2007,2005,2069,2076,2008,2056,1194
1763,1713858899596586498,2097,2077,2004,2028,2105,2054,1194
1764,1713858899606557520,2015,2014,2060,2076,2010,2059,1197
1765,1713858899616556164,2097,2121,2048,2043,2122,2058,1195
1766,1713858899626557994,2006,2004,2067,2067,1995,2045,1193
1767,1713858899636559703,2111,2124,2116,2066,2122,2061,1194
1768,1713858899646564479,2009,1983,2025,2062,1989,2045,1193
1769,1713858899656581819,2089,2117,2036,2035,2116,2057,1194
1770,1713858899666561016,2020,2000,2056,2064,1998,2053,1193
1771,1713858899676573466,2101,2132,2148,2060,2112,2050,1195
1772,1713858899686563875,2012,1988,2033,2072,2005,2052,1193
1773,1713858899696568029,2084,2098,2037,2045,2120,2052,1196
1774,1713858899706564990,2019,2012,2084,2081,2010,2062,1196
1775,1713858899716565036,2097,2089,2005,2036,2115,2047,1192
1776,1713858899726567618,2004,1995,2042,2056,1982,2043,1194
1777,1713858899736566884,2110,2105,2136,2046,2124,2059,1197
1778,1713858899746567682,2024,2023,2024,2066,2002,2052,1197
1779,1713858899756569802,2104,2125,2085,2038,2122,2072,1198
1780,1713858899766567004,2015,2020,2088,2052,1995,2040,1195
1781,1713858899776568563,2097,2109,2028,2064,2117,2058,1194
1782,1713858899786554192,2027,2025,2036,2060,2005,2054,1196
1783,1713858899796569849,2098,2101,2002,2050,2122,2060,1196
1784,1713858899806556009,1998,1984,2029,2062,1985,2041,1194
1785,1713858899816570874,2097,2094,2048,2038,2104,2052,1197
1786,1713858899826553488,2012,2008,2061,2058,1996,2051,1195
1787,1713858899836553554,2094,2096,2088,2049,2111,2048,1197
1788,1713858899846553591,2008,2003,2015,2060,2002,2046,1193
1789,1713858899856564649,2097,2104,2036,2035,2104,2050,1194
1790,1713858899866555677,2013,2018,2021,2069,2006,2056,1196
1791,1713858899876554793,2090,2086,2008,2035,2104,2049,1194
1792,1713858899886556292,2029,1996,2032,2068,1996,2047,1194
1793,1713858899896558213,2097,2104,2028,2033,2108,2053,1194
1794,1713858899906553239,2026,2011,2073,2053,2002,2049,1195
1795,1713858899916556001,2088,2105,2086,2052,2114,2043,1193
1796,1713858899926554806,2016,2004,2064,2065,2002,2051,1195
1797,1713858899936555123,2100,2088,2006,2064,2108,2052,1195
1798,1713858899946555310,2012,1994,1988,2059,1993,2051,1195
1799,1713858899956556779,2092,2108,2070,2044,2118,2068,1197
1800,1713858899966555333,2018,2013,2047,2069,1996,2052,1196
1801,1713858899976557104,2090,2113,2095,2051,2109,2056,1195
1802,1713858899986553993,2021,2009,2015,2067,2000,2061,1198
1803,1713858899996557026,2098,2095,1998,2040,2118,2056,1196
1804,1713858900006561593,2028,2004,2026,2061,2000,2053,1196
1805,1713858900016555319,2104,2118,2137,2043,2120,2058,1196
1806,1713858900026555868,2017,2021,2078,2076,2002,2054,1197
1807,1713858900036553822,2095,2079,2031,2028,2109,2052,1198
1808,1713858900046554171,2033,2047,2115,2072,2006,2048,1197
1809,1713858900056553638,2090,2093,1997,2044,2113,2069,1195
1810,1713858900066554798,2032,2052,2140,2081,2017,2058,1194
1811,1713858900076552271,2098,2116,2062,2050,2101,2050,1195
1812,1713858900086553412,2018,2015,2054,2072,1999,2057,1196
1813,1713858900096554222,2110,2160,2194,2057,2127,2053,1196
1814,1713858900106552536,1978,1951,1942,2042,1994,2044,1192
1815,1713858900116552955,2105,2109,2050,2045,2102,2050,1196
1816,1713858900126553404,2022,2009,2053,2072,1995,2053,1196
1817,1713858900136559273,2099,2136,2074,2046,2116,2052,1196
1818,1713858900146553040,2008,2014,2064,2073,1998,2054,1194
1819,1713858900156553017,2088,2068,1984,2027,2106,2048,1198
1820,1713858900166552956,2019,2037,2121,2068,2006,2062,1195
1821,1713858900176553514,2093,2100,2018,2042,2110,2053,1196
1822,1713858900186554124,2025,2028,2108,2072,2000,2054,1197
1823,1713858900196555515,2089,2078,2006,2036,2101,2052,1196
1824,1713858900206552958,2019,2001,2044,2058,2006,2068,1197
1825,1713858900216554038,2080,2088,2020,2045,2113,2056,1196
1826,1713858900226554737,2024,2020,2029,2060,2003,2056,1196
1827,1713858900236554986,2103,2146,2188,2052,2120,2059,1196
1828,1713858900246551427,2012,2017,2053,2064,1995,2056,1196
1829,1713858900256556084,2108,2158,2063,2052,2112,2042,1193
1830,1713858900266555030,2017,2014,2073,2067,2005,2056,1194
1831,1713858900276554617,2102,2116,2042,2050,2105,2056,1193
1832,1713858900286556098,2027,2001,2038,2052,2004,2058,1197
1833,1713858900296556346,2110,2143,2130,2056,2121,2058,1195
1834,1713858900306557256,2013,1993,2025,2060,1993,2046,1192
1835,1713858900316557955,2096,2092,2034,2034,2100,2049,1197
1836,1713858900326553826,2022,2004,2072,2064,1998,2061,1196
1837,1713858900336560186,2086,2088,2066,2043,2108,2044,1194
1838,1713858900346554222,2030,2004,2070,2076,1998,2057,1197
1839,1713858900356555674,2096,2100,2041,2040,2108,2053,1197
1840,1713858900366552946,2011,2022,2078,2064,2008,2054,1196
1841,1713858900376554638,2090,2078,2001,2033,2112,2040,1192
1842,1713858900386552872,2024,2021,2080,2081,2008,2060,1196
1843,1713858900396553301,2102,2098,2064,2048,2103,2047,1193
1844,1713858900406551476,2033,2036,2026,2060,1993,2049,1194
1845,1713858900416557385,2086,2081,2037,2044,2104,2041,1194
1846,1713858900426555520,2028,2019,2083,2066,2000,2051,1196
1847,1713858900436553514,2088,2100,2092,2040,2106,2058,1196
1848,1713858900446551648,2022,2033,2120,2066,2000,2058,1197
1849,1713858900456556095,2104,2125,2085,2056,2115,2060,1193
1850,1713858900466554109,2018,2008,2061,2072,2018,2057,1196
1851,1713858900476556552,2096,2095,2056,2056,2115,2050,1195
1852,1713858900486554235,2009,2008,2025,2067,1996,2044,1193
1853,1713858900496553803,2088,2081,2020,2041,2101,2057,1195
1854,1713858900506553720,2017,1999,2033,2058,1994,2050,1196
1855,1713858900516556995,2076,2085,2013,2034,2116,2048,1194
1856,1713858900526552534,2021,2005,2096,2066,2014,2064,1196
1857,1713858900536560347,2088,2092,2015,2036,2116,2049,1196
1858,1713858900546557399,2024,2004,2030,2058,2001,2048,1196
1859,1713858900556557177,2102,2133,2073,2045,2108,2057,1200
1860,1713858900566554801,2023,1999,2079,2076,1996,2056,1197
1861,1713858900576553756,2085,2072,2006,2038,2104,2050,1196
1862,1713858900586554055,2025,2011,2021,2065,2008,2056,1196
1863,1713858900596555315,2074,2084,2025,2046,2117,2055,1197
1864,1713858900606554983,2013,2004,2046,2069,2008,2054,1197
1865,1713858900616556174,2098,2129,2133,2051,2126,2060,1197
1866,1713858900626553536,2014,2009,2048,2066,1996,2053,1197
1867,1713858900636562181,2094,2119,2015,2040,2118,2063,1196
1868,1713858900646556298,2036,2060,2179,2081,2008,2067,1197
1869,1713858900656557058,2076,2073,2028,2033,2109,2059,1195
1870,1713858900666553749,2021,2021,2080,2062,1992,2045,1193
1871,1713858900676553727,2099,2105,2097,2040,2107,2053,1197
1872,1713858900686555609,2020,1998,2048,2077,2008,2061,1196
1873,1713858900696558202,2077,2068,1998,2029,2110,2045,1192
1874,1713858900706555856,2014,1988,2038,2067,1995,2058,1194
1875,1713858900716553539,2095,2099,2047,2042,2107,2049,1195
1876,1713858900726554329,2020,1995,2018,2064,2000,2052,1195
1877,1713858900736557693,2092,2103,2038,2040,2112,2057,1196
1878,1713858900746578120,2008,1982,2007,2059,1992,2051,1197
1879,1713858900756564653,2084,2097,2065,2065,2116,2058,1196
1880,1713858900766555313,2019,2003,2032,2065,2005,2060,1195
1881,1713858900776557785,2092,2101,2044,2049,2112,2048,1196
1882,1713858900786555709,2016,2008,2036,2069,1990,2052,1197
1883,1713858900796557160,2080,2084,2028,2040,2100,2057,1195
1884,1713858900806556828,2009,1988,2009,2056,1992,2050,1197
1885,1713858900816557767,2094,2097,2033,2054,2120,2059,1196
1886,1713858900826557565,2032,2051,2120,2079,2002,2058,1197
1887,1713858900836557874,2083,2084,2000,2053,2120,2052,1196
1888,1713858900846558623,2033,2028,2072,2073,2004,2061,1195
1889,1713858900856559262,2080,2086,2056,2037,2106,2047,1192
1890,1713858900866559651,2023,2034,2088,2070,2004,2056,1196
1891,1713858900876560370,2109,2125,2196,2057,2118,2052,1197
1892,1713858900886560930,2015,2004,2008,2056,2001,2056,1197
1893,1713858900896561830,2096,2098,2074,2035,2113,2043,1193
1894,1713858900906562088,2015,2002,2056,2058,2004,2051,1197
1895,1713858900916563479,2084,2093,2030,2041,2105,2040,1193
1896,1713858900926563346,2019,2009,2082,2064,2006,2050,1196
1897,1713858900936563886,2102,2069,2032,2048,2112,2046,1193
1898,1713858900946565157,2028,2055,2096,2077,2006,2056,1196
1899,1713858900956565816,2089,2088,2053,2047,2112,2044,1192
1900,1713858900966566425,2022,2014,2043,2067,1987,2049,1197
1901,1713858900976567325,2096,2108,2054,2058,2116,2056,1196
1902,1713858900986567764,2018,2003,2052,2060,2000,2053,1197
1903,1713858900996568052,2098,2134,2212,2060,2116,2056,1194
1904,1713858901006567860,2025,2035,2101,2060,2002,2056,1197
1905,1713858901016553232,2101,2115,2032,2052,2112,2061,1196
1906,1713858901026552549,2024,2033,2095,2084,2009,2056,1197
1907,1713858901036553641,2098,2116,2116,2050,2113,2061,1195
1908,1713858901046556155,2023,2013,2037,2078,2009,2049,1196
1909,1713858901056554542,2107,2113,2098,2056,2116,2056,1196
1910,1713858901066554642,2046,2052,2137,2083,2004,2059,1195
1911,1713858901076553569,2093,2074,2036,2044,2112,2052,1193
1912,1713858901086553548,2024,2025,2056,2068,2002,2056,1195
1913,1713858901096557585,2082,2098,2061,2053,2106,2056,1195
1914,1713858901106564969,2032,2041,2031,2070,2004,2046,1192
1915,1713858901116555330,2106,2130,2152,2056,2116,2056,1197
1916,1713858901126553196,2018,2007,2041,2072,2006,2050,1194
1917,1713858901136554016,2086,2081,2033,2028,2102,2052,1197
1918,1713858901146554958,2026,2037,2064,2075,2011,2062,1196
1919,1713858901156557633,2097,2102,2041,2044,2120,2053,1195
1920,1713858901166556390,2024,2002,2009,2069,2008,2052,1196
1921,1713858901176555347,2110,2160,2167,2061,2117,2059,1196
1922,1713858901186554596,2013,1992,2019,2069,1997,2047,1193
1923,1713858901196556869,2092,2077,2015,2045,2105,2057,1197
1924,1713858901206553191,2025,2022,2104,2072,2009,2058,1196
1925,1713858901216553301,2098,2090,2027,2045,2113,2053,1197
1926,1713858901226553471,2021,2019,2087,2072,2012,2056,1195
1927,1713858901236552088,2085,2096,2049,2044,2104,2046,1193
1928,1713858901246538210,2004,1976,2049,2056,2002,2056,1194
1929,1713858901256554170,2095,2078,2052,2048,2106,2063,1195
1930,1713858901266552146,2018,2017,2068,2065,2005,2059,1195
1931,1713858901276554911,2103,2089,2030,2045,2106,2060,1196
1932,1713858901286552957,2028,2028,2073,2050,2004,2060,1195
1933,1713858901296554951,2090,2103,2089,2038,2113,2046,1192
1934,1713858901306553216,2018,2015,2052,2066,2012,2051,1194
1935,1713858901316554268,2089,2083,2035,2042,2108,2052,1195
1936,1713858901326556041,2023,2014,2056,2073,2009,2052,1196
1937,1713858901336555439,2085,2072,1992,2050,2107,2055,1196
1938,1713858901346556250,2032,2040,2013,2074,2000,2052,1195
1939,1713858901356555177,2085,2075,1997,2047,2116,2055,1197
1940,1713858901366555407,2020,2000,2051,2064,2000,2069,1198
1941,1713858901376555397,2093,2116,2099,2050,2105,2050,1195
1942,1713858901386554134,2021,2027,2058,2067,1997,2048,1197
1943,1713858901396554404,2092,2116,2085,2053,2113,2067,1196
1944,1713858901406557189,2020,2019,2073,2059,2004,2052,1195
1945,1713858901416553721,2088,2084,2024,2050,2109,2052,1197
1946,1713858901426553981,2010,2010,2024,2067,2002,2052,1196
1947,1713858901436554352,2088,2074,2004,2039,2088,2050,1196
1948,1713858901446553620,2011,1996,2020,2061,2002,2054,1197
1949,1713858901456558820,2079,2060,1982,2049,2106,2054,1193
1950,1713858901466555773,2030,2052,2095,2061,2004,2056,1195
1951,1713858901476555221,2085,2079,2020,2050,2104,2053,1195
1952,1713858901486555020,2032,2034,2109,2068,2014,2060,1195
1953,1713858901496555852,2096,2080,1996,2044,2101,2046,1194
1954,1713858901506556512,2028,1997,2007,2064,2002,2052,1196
1955,1713858901516554679,2077,2081,2003,2037,2095,2054,1194
1956,1713858901526553936,2029,2013,2037,2066,2003,2060,1196
1957,1713858901536553294,2093,2096,2018,2045,2099,2046,1192
1958,1713858901546554116,2033,2011,2024,2066,2011,2063,1198
1959,1713858901556555608,2087,2088,2021,2045,2105,2043,1195
1960,1713858901566550999,2041,2077,2234,2077,2019,2061,1198
1961,1713858901576554024,2091,2106,2121,2060,2112,2049,1197
1962,1713858901586559483,2026,2013,2094,2064,1998,2052,1196
1963,1713858901596566487,2077,2059,2005,2040,2090,2038,1192
1964,1713858901606561717,2041,2041,2073,2070,2008,2053,1195
1965,1713858901616555745,2085,2080,2035,2037,2098,2053,1197
1966,1713858901626561857,2027,2045,2176,2081,2015,2059,1194
1967,1713858901636557748,2074,2069,2004,2035,2094,2048,1195
1968,1713858901646560893,2032,2030,2087,2060,2011,2051,1196
1969,1713858901656559270,2076,2074,2020,2033,2103,2050,1194
1970,1713858901666553087,2030,2032,2052,2069,2013,2081,1194
1971,1713858901676556193,2094,2093,2069,2046,2091,2056,1194
1972,1713858901686553287,2022,2018,2054,2065,2000,2058,1196
1973,1713858901696564527,2084,2076,2026,2039,2098,2047,1194
1974,1713858901706557914,2017,1998,2003,2061,2016,2060,1192
1975,1713858901716558325,2085,2085,2026,2043,2086,2047,1194
1976,1713858901726556852,2017,2036,2044,2064,2011,2056,1195
1977,1713858901736557302,2082,2103,2086,2040,2113,2051,1195
1978,1713858901746557883,2032,2027,2040,2059,2018,2058,1198
1979,1713858901756558853,2092,2091,2041,2054,2105,2052,1196
1980,1713858901766558913,2027,2016,2060,2066,2005,2054,1197
1981,1713858901776559634,2086,2089,2044,2051,2094,2044,1192
1982,1713858901786559584,2012,2008,2029,2054,2001,2056,1195
1983,1713858901796560696,2104,2112,2115,2055,2099,2055,1195
1984,1713858901806564061,2036,2017,2052,2065,2014,2058,1194
1985,1713858901816561916,2085,2102,2076,2064,2097,2041,1193
1986,1713858901826561736,2021,2020,2053,2056,2008,2049,1196
1987,1713858901836562998,2084,2093,2054,2060,2108,2065,1195
1988,1713858901846567065,2024,2033,2058,2060,2002,2054,1195
1989,1713858901856566674,2082,2093,2062,2044,2090,2047,1192
1990,1713858901866565330,2034,2038,2061,2056,2008,2053,1194
1991,1713858901876578094,2070,2089,2070,2039,2097,2048,1197
1992,1713858901886567353,2040,2044,2193,2088,2026,2065,1196
1993,1713858901896565580,2076,2086,2018,2037,2090,2035,1195
1994,1713858901906552144,2017,2012,1999,2064,2002,2052,1197
1995,1713858901916568714,2088,2101,2070,2047,2098,2054,1196
1996,1713858901926551170,2024,2021,2048,2067,2010,2056,1196
1997,1713858901936553274,2088,2077,2030,2037,2096,2053,1197
1998,1713858901946573642,2026,2017,2036,2060,2002,2060,1196
1999,1713858901956574263,2088,2094,2050,2040,2100,2056,1194
2000,1713858901966556449,2032,2013,2037,2060,2010,2053,1197
2001,1713858901976558842,2084,2104,2070,2060,2101,2057,1198
2002,1713858901986557188,2030,2032,2088,2064,2009,2060,1197
2003,1713858901996557108,2086,2073,2026,2034,2098,2052,1197
2004,1713858902006554905,2033,2028,2082,2053,2006,2052,1197
2005,1713858902016553593,2084,2080,2044,2032,2101,2052,1196
2006,1713858902026553754,2028,2021,2062,2064,2006,2057,1197
2007,1713858902036558564,2090,2101,2080,2044,2099,2053,1197
2008,1713858902046555018,2028,2032,2084,2061,2008,2058,1195
2009,1713858902056552845,2072,2064,2046,2050,2097,2052,1194
2010,1713858902066556733,2029,2010,2042,2085,2013,2059,1195
2011,1713858902076556724,2077,2080,2050,2040,2099,2050,1195
2012,1713858902086563789,2027,2019,2049,2067,2024,2057,1197
2013,1713858902096553801,2088,2088,2050,2041,2100,2050,1196
2014,1713858902106560094,2024,2011,2054,2051,2014,2056,1196
2015,1713858902116557910,2088,2107,2078,2049,2087,2051,1193
2016,1713858902126557821,2032,2029,2054,2068,2015,2056,1198
2017,1713858902136556088,2086,2091,2096,2040,2099,2049,1194
2018,1713858902146558644,2024,2018,2041,2069,2009,2057,1195
2019,1713858902156556782,2079,2095,2057,2061,2101,2052,1195
2020,1713858902166563385,2032,2027,2075,2066,2009,2056,1196
2021,1713858902176561272,2083,2096,2072,2051,2106,2050,1197
2022,1713858902186558758,2032,2032,2056,2064,2009,2057,1196
2023,1713858902196594067,2074,2078,2037,2031,2100,2050,1196
2024,1713858902206562898,2028,2024,2036,2070,2015,2053,1194
2025,1713858902216580412,2087,2085,2058,2069,2094,2050,1197
2026,1713858902226561066,2036,2047,2114,2071,2033,2056,1196
2027,1713858902236560536,2074,2089,2045,2056,2097,2052,1195
2028,1713858902246596786,2033,2040,2062,2070,2025,2056,1197
2029,1713858902256559677,2080,2084,2074,2069,2101,2052,1193
2030,1713858902266561570,2040,2027,2073,2106,2024,2060,1195
2031,1713858902276559468,2076,2086,2077,2062,2098,2052,1196
2032,1713858902286557515,2047,2036,2079,2065,2012,2056,1196
2033,1713858902296583025,2080,2093,2060,2051,2077,2053,1196
2034,1713858902306560312,2033,2024,2052,2050,2008,2056,1196
2035,1713858902316562958,2082,2091,2059,2047,2085,2052,1197
2036,1713858902326555204,2040,2039,2052,2067,2026,2054,1193
2037,1713858902336559954,2073,2077,2032,2053,2080,2046,1195
2038,1713858902346555366,2035,2032,2045,2026,2011,2054,1196
2039,1713858902356558403,2076,2076,2052,1997,2078,2044,1195
2040,1713858902366554576,2044,2036,2068,2089,2022,2060,1197
2041,1713858902376555970,2077,2072,2049,2046,2089,2047,1193
2042,1713858902386561652,2034,2046,2064,2065,2026,2056,1196
2043,1713858902396555551,2081,2084,2026,2037,2092,2046,1194
2044,1713858902406561083,2041,2030,2059,2056,2022,2058,1196
2045,1713858902416559811,2084,2084,2061,2060,2093,2056,1197
2046,1713858902426577556,2038,2044,2049,2077,2032,2060,1197
2047,1713858902436556556,2070,2068,2046,2040,2089,2052,1196
2048,1713858902446557439,2038,2028,2052,2060,2024,2055,1195
2049,1713858902456555377,2072,2098,2068,2060,2078,2052,1196
2050,1713858902466555858,2039,2028,2069,2061,2023,2060,1194
2051,1713858902476559115,2073,2074,2060,2062,2093,2052,1196
2052,1713858902486557844,2040,2042,2061,2088,2032,2057,1194
2053,1713858902496559979,2077,2076,2056,2053,2092,2058,1194
2054,1713858902506581341,2043,2044,2053,2105,2025,2053,1195
2055,1713858902516558387,2066,2085,2083,2041,2083,2052,1196
2056,1713858902526556344,2039,2043,2068,2033,2004,2053,1195
2057,1713858902536556826,2069,2068,2046,2040,2069,2051,1197
2058,1713858902546559933,2042,2041,2059,2050,2022,2056,1196
2059,1713858902556555135,2070,2068,2056,2041,2079,2049,1199
2060,1713858902566559173,2041,2033,2060,2052,2030,2058,1197
2061,1713858902576554986,2072,2078,2062,2101,2080,2049,1197
2062,1713858902586554677,2046,2044,2056,2091,2024,2049,1194
2063,1713858902596555690,2065,2075,2052,2060,2088,2052,1196
2064,1713858902606561281,2044,2034,2050,2098,2018,2054,1197
2065,1713858902616554659,2069,2074,2057,2073,2080,2052,1196
2066,1713858902626557405,2043,2040,2057,2064,2027,2056,1196
2067,1713858902636553779,2070,2072,2057,2055,2081,2052,1199
2068,1713858902646555985,2045,2031,2055,2036,2020,2059,1197
2069,1713858902656554764,2070,2068,2050,2064,2091,2050,1194
2070,1713858902666555044,2038,2025,2052,2076,2026,2041,1193
2071,1713858902676553443,2068,2077,2053,2060,2097,2056,1196
2072,1713858902686558744,2044,2025,2045,2079,2033,2057,1196
2073,1713858902696558835,2060,2068,2071,2049,2079,2052,1195
2074,1713858902706565248,2041,2032,2083,2065,2034,2060,1195
2075,1713858902716560369,2067,2056,2046,2013,2076,2047,1195
2076,1713858902726556182,2052,2041,2058,2017,2040,2053,1195
2077,1713858902736559930,2068,2074,2052,2104,2099,2050,1197
2078,1713858902746557627,2044,2040,2054,2091,2037,2056,1196
2079,1713858902756555875,2073,2072,2057,2056,2090,2057,1196
2080,1713858902766554062,2044,2032,2052,2033,2029,2061,1193
2081,1713858902776554464,2077,2068,2051,2088,2080,2056,1196
2082,1713858902786555076,2041,2038,2056,2040,2040,2056,1197
2083,1713858902796571027,2068,2073,2057,2026,2084,2053,1197
2084,1713858902806573743,2050,2038,2051,2069,2030,2057,1196
2085,1713858902816561551,2062,2070,2049,2064,2104,2049,1197
2086,1713858902826555129,2042,2049,2058,2075,2036,2057,1197
2087,1713858902836552996,2062,2058,2044,2020,2068,2048,1196
2088,1713858902846558938,2052,2041,2060,2046,2027,2051,1197
2089,1713858902856554070,2074,2069,2053,2056,2088,2052,1193
2090,1713858902866555153,2044,2035,2058,2044,2037,2061,1197
2091,1713858902876555795,2072,2073,2053,2034,2079,2052,1197
2092,1713858902886555646,2047,2037,2050,2054,2041,2060,1196
2093,1713858902896556628,2071,2064,2048,2032,2086,2052,1195
2094,1713858902906556950,2041,2047,2058,2067,2040,2057,1195
2095,1713858902916557432,2060,2065,2058,2056,2086,2046,1192
2096,1713858902926557182,2042,2039,2061,2062,2058,2056,1194
2097,1713858902936558035,2068,2066,2053,2043,2076,2051,1194
2098,1713858902946558787,2047,2060,2068,2072,2033,2058,1197
2099,1713858902956559470,2066,2056,2031,2056,2075,2052,1198
2100,1713858902966559440,2054,2064,2124,2070,2036,2064,1198
2101,1713858902976560684,2069,2067,2044,2052,2070,2053,1195
2102,1713858902986560805,2051,2032,2058,2062,2028,2054,1196
2103,1713858902996561577,2064,2067,2052,2073,2081,2052,1196
2104,1713858903006562560,2053,2032,2053,2050,2029,2060,1195
2105,1713858903016563224,2070,2088,2056,2026,2082,2057,1197
2106,1713858903026563427,2046,2043,2065,2049,2038,2059,1198
2107,1713858903036563308,2069,2070,2052,2040,2071,2050,1195
2108,1713858903046564613,2043,2041,2058,2056,2034,2056,1196
2109,1713858903056565627,2069,2070,2054,2059,2067,2050,1194
2110,1713858903066624723,2045,2049,2061,2080,2027,2053,1197
2111,1713858903076566053,2064,2069,2056,2090,2088,2055,1197
2112,1713858903086567098,2041,2033,2059,2066,2032,2051,1196
2113,1713858903096568002,2068,2072,2056,2060,2106,2077,1196
2114,1713858903106568335,2041,2037,2051,2057,2015,2056,1195
2115,1713858903116570751,2073,2077,2056,2067,2092,2058,1196
2116,1713858903126551687,2038,2040,2056,2042,2004,2054,1197
2117,1713858903136570035,2064,2072,2056,2058,2064,2054,1198
2118,1713858903146570768,2049,2044,2065,2078,2063,2067,1196
2119,1713858903156553788,2079,2093,2058,2090,2089,2056,1197
2120,1713858903166554292,2045,2040,2048,1963,1986,2046,1195
2121,1713858903176552020,2064,2073,2061,2078,2083,2060,1198
2122,1713858903186551420,2032,2029,2025,1900,1971,2023,1193
2123,1713858903196556803,2059,2066,2047,1983,1988,2031,1194
2124,1713858903206556986,2047,2044,2064,2104,2093,2066,1196
2125,1713858903216563130,2060,2068,2045,2034,2063,2048,1194
2126,1713858903226555919,2045,2045,2062,2052,2026,2058,1197
2127,1713858903236556713,2068,2066,2056,2102,2161,2072,1198
2128,1713858903246556575,2037,2040,2066,2057,1996,2050,1195
2129,1713858903256555625,2064,2067,2052,2060,2060,2047,1193
2130,1713858903266555056,2053,2056,2066,2044,2056,2053,1195
2131,1713858903276556281,2073,2084,2054,2056,2084,2055,1196
2132,1713858903286556834,2043,2036,2052,2084,2050,2061,1195
2133,1713858903296556837,2075,2069,2058,2056,2089,2056,1196
2134,1713858903306556849,2038,2037,2047,2067,2036,2057,1195
2135,1713858903316556631,2071,2061,2028,2037,2064,2047,1192
2136,1713858903326557084,2037,2038,2058,2068,2011,2058,1196
2137,1713858903336558209,2066,2071,2052,2065,2068,2051,1196
2138,1713858903346557409,2040,2039,2056,2060,2021,2053,1196
2139,1713858903356556610,2064,2072,2073,2065,2078,2052,1194
2140,1713858903366556793,2040,2045,2047,2074,2034,2054,1198
2141,1713858903376557707,2069,2079,2054,2049,2067,2050,1197
2142,1713858903386556006,2046,2038,2081,2064,2028,2054,1198
2143,1713858903396557932,2061,2065,2039,2056,2064,2050,1196
2144,1713858903406555971,2043,2041,2046,2040,2020,2052,1194
2145,1713858903416563738,2062,2066,2048,2047,2085,2052,1195
2146,1713858903426556255,2042,2045,2064,2047,2028,2056,1195
2147,1713858903436556979,2067,2076,2064,2061,2076,2049,1197
2148,1713858903446559416,2046,2049,2029,2033,2010,2056,1196
2149,1713858903456557906,2073,2069,2052,2044,2070,2049,1195
2150,1713858903466568449,2042,2038,2053,2040,2030,2056,1193
2151,1713858903476551619,2064,2069,2067,2056,2079,2053,1196
2152,1713858903486556941,2045,2046,2059,2068,2033,2056,1197
2153,1713858903496554629,2064,2068,2034,2020,2094,2046,1191
2154,1713858903506557627,2038,2042,2060,2057,2025,2055,1196
2155,1713858903516552830,2070,2064,2056,2026,2068,2049,1195
2156,1713858903526555558,2037,2043,2059,2069,2028,2057,1194
2157,1713858903536556843,2066,2068,2056,2057,2080,2052,1195
2158,1713858903546560602,2043,2037,2057,2061,2024,2053,1196
2159,1713858903556555254,2069,2059,2072,2035,2077,2055,1194
2160,1713858903566563873,2040,2029,2046,2064,2034,2057,1196
2161,1713858903576552814,2060,2051,2041,2059,2078,2052,1197
2162,1713858903586552886,2036,2036,2033,2061,2025,2050,1196
2163,1713858903596559221,2068,2069,2052,2056,2089,2049,1195
2164,1713858903606556969,2045,2040,2057,2047,2036,2055,1195
2165,1713858903616558945,2064,2074,2055,2068,2072,2047,1193
2166,1713858903626558166,2042,2048,2054,2086,2032,2057,1196
2167,1713858903636558109,2067,2066,2055,2054,2074,2052,1198
2168,1713858903646557991,2040,2037,2056,2073,2036,2056,1196
2169,1713858903656556650,2070,2073,2076,2050,2081,2052,1195
2170,1713858903666557824,2043,2047,2091,2076,2031,2057,1197
2171,1713858903676556524,2068,2069,2042,2050,2068,2048,1197
2172,1713858903686556907,2040,2032,2054,2073,2033,2054,1195
2173,1713858903696568642,2070,2092,2122,2065,2072,2052,1195
2174,1713858903706558035,2040,2047,2061,2069,2059,2060,1197
2175,1713858903716560321,2062,2070,2056,2046,2068,2050,1197
2176,1713858903726557609,2045,2040,2044,2049,2031,2056,1197
2177,1713858903736557580,2066,2062,2036,2048,2075,2053,1196
2178,1713858903746557372,2049,2046,2076,2065,2040,2060,1193
2179,1713858903756557645,2068,2060,2036,2065,2077,2054,1195
2180,1713858903766557056,2042,2043,2053,2077,2033,2057,1196
2181,1713858903776556738,2068,2068,2049,2049,2073,2056,1197
2182,1713858903786557152,2040,2030,2050,2084,2025,2052,1196
2183,1713858903796557074,2070,2066,2049,2076,2113,2055,1197
2184,1713858903806557547,2041,2024,2035,2065,2029,2056,1193
2185,1713858903816558310,2062,2045,2013,2047,2090,2050,1196
2186,1713858903826559495,2038,2043,2064,2059,2047,2056,1194
2187,1713858903836560068,2072,2068,2041,2010,2074,2041,1194
2188,1713858903846560442,2042,2032,2053,2056,2032,2058,1195
2189,1713858903856561085,2070,2069,2047,2048,2086,2052,1196
2190,1713858903866561388,2042,2045,2060,2059,2035,2053,1193
2191,1713858903876562413,2060,2057,2056,2036,2077,2052,1194
2192,1713858903886567315,2040,2040,2076,2068,2033,2058,1196
2193,1713858903896563669,2064,2052,1968,2059,2068,2047,1193
2194,1713858903906576737,2044,2034,2050,2062,2037,2054,1197
2195,1713858903916566169,2067,2059,2056,2050,2074,2052,1195
2196,1713858903926566201,2047,2046,2056,2055,2034,2058,1195
2197,1713858903936567246,2067,2069,2047,2054,2079,2052,1196
2198,1713858903946567970,2040,2047,2053,2050,2032,2060,1196
2199,1713858903956566770,2067,2072,2060,2061,2072,2053,1197
2200,1713858903966567564,2044,2038,2050,2045,2033,2053,1196
2201,1713858903976569569,2068,2067,2052,2041,2049,2047,1195
2202,1713858903986542690,2044,2038,2060,2064,2020,2060,1196
2203,1713858903996572259,2074,2061,2049,2047,2078,2029,1193
2204,1713858904006569708,2041,2030,2050,2060,2064,2061,1196
2205,1713858904016573509,2069,2057,2028,2050,2083,2052,1198
2206,1713858904026557592,2042,2039,2046,2064,2039,2057,1196
2207,1713858904036557937,2072,2068,2052,2046,2077,2050,1197
2208,1713858904046556067,2046,2044,2056,2072,2029,2057,1196
2209,1713858904056556631,2064,2064,2040,2058,2070,2051,1194
2210,1713858904066564881,2031,2030,2032,2059,2026,2056,1195
2211,1713858904076559725,2058,2058,2012,2053,2064,2047,1193
2212,1713858904086564157,2064,2098,2229,2057,2024,2058,1195
