seq,time,data[0],data[1],data[2],data[3],data[4],data[5],data[6]
201,1716364699165866818,2060,2048,2026,2057,2104,2085,1196
202,1716364699175867285,2041,2052,2149,2053,2034,2020,1193
203,1716364699185869526,2047,2076,2112,2072,2119,2053,1198
204,1716364699195861797,2052,2048,2034,2091,2097,2041,1194
205,1716364699205865531,2060,2056,2086,2050,2080,2052,1196
206,1716364699215862272,2062,2057,1960,2044,2008,1990,1192
207,1716364699225863289,2056,2039,2034,2051,2088,2052,1194
208,1716364699235861433,2064,2056,2053,2040,2012,2058,1197
209,1716364699245862210,2062,2077,2150,2068,2079,2014,1193
210,1716364699255862758,2018,2011,1964,2038,2027,2052,1197
211,1716364699265867604,2049,2052,2054,2039,2064,2049,1196
212,1716364699275862761,2051,2069,2125,2089,2021,2003,1194
213,1716364699285864050,2044,2041,2021,2052,2082,2060,1196
214,1716364699295861441,2045,2041,2042,2040,2013,2042,1194
215,1716364699305866928,2047,2037,2033,2068,2063,2036,1197
216,1716364699315861935,2077,2064,2081,2052,1994,2100,1196
217,1716364699325858685,2050,2085,2148,2081,2113,2124,1196
218,1716364699335859112,2065,2056,2044,2059,1999,2017,1195
219,1716364699345862305,2057,2069,2122,2088,2116,2116,1198
220,1716364699355862592,2072,2056,2060,2059,1997,2050,1197
221,1716364699365863500,2076,2056,2059,2022,2051,2053,1194
222,1716364699375860350,2057,2071,2149,2080,2044,2106,1197
223,1716364699385858773,2046,2046,2060,2060,2084,2065,1196
224,1716364699395859020,2081,2053,2017,2076,2048,2045,1196
225,1716364699405859538,2068,2024,1958,2034,2072,2065,1198
226,1716364699415858893,2059,2049,2024,2022,1963,2025,1193
227,1716364699425859500,2044,2037,2038,2044,2072,2114,1196
228,1716364699435857693,2050,2047,2017,2068,2063,2072,1197
229,1716364699445860335,2058,2044,1978,2059,2083,2056,1195
230,1716364699455860872,2044,2046,2018,2068,2027,2041,1194
231,1716364699465909321,2057,2056,2042,2067,2076,2050,1194
232,1716364699475863209,2066,2054,2074,2065,2025,2059,1194
233,1716364699485863046,2065,2077,2136,2064,2081,1933,1193
234,1716364699495863002,2047,2044,2034,2040,2013,2054,1197
235,1716364699505863419,2035,2096,2226,2084,2120,2106,1195
236,1716364699515863916,2059,2037,1982,2071,2072,2031,1194
237,1716364699525862480,2049,2040,2004,2046,2074,2056,1197
238,1716364699535862717,2052,2040,1997,2030,1998,1981,1196
239,1716364699545863946,2064,2015,1956,2049,2082,2054,1196
240,1716364699555863692,2073,2077,2129,2067,1994,2040,1193
241,1716364699565865481,2044,2027,1973,2023,2070,2038,1196
242,1716364699575869476,2052,2060,2053,2045,2099,2058,1197
243,1716364699585864563,2072,2068,2049,2049,2088,2098,1196
244,1716364699595875390,2062,2060,2049,2051,2082,2057,1196
245,1716364699605865728,2073,2098,2128,2076,2118,2066,1195
246,1716364699615863510,2039,2057,2074,2061,2004,2056,1197
247,1716364699625863887,2065,2051,2005,2058,2097,2094,1197
248,1716364699635862070,2088,2033,1989,2040,1980,1977,1194
249,1716364699645864361,2073,2052,2003,2060,2098,2061,1196
250,1716364699655880087,2008,2018,2007,2049,2012,2068,1196
251,1716364699665868191,2038,2020,1985,2047,2088,2073,1195
252,1716364699675862406,2073,2097,2152,2079,2024,2046,1194
253,1716364699685863765,2067,2066,2106,2068,2093,2024,1192
254,1716364699695861347,2050,2047,2046,2049,2038,2081,1196
255,1716364699705867675,2060,2052,2035,2040,2062,2058,1198
256,1716364699715869535,2056,2071,2104,2054,1988,2017,1194
257,1716364699725872417,2072,2053,1995,2045,2090,2051,1196
258,1716364699735863076,2040,2074,2067,2049,2015,2026,1194
259,1716364699745865116,2064,2045,2030,2056,2078,2094,1196
260,1716364699755897634,2056,2037,2027,2051,2008,2049,1196
261,1716364699765869788,2070,2044,2005,2069,2108,2049,1196
262,1716364699775863101,2064,2092,2152,2059,2010,2010,1194
263,1716364699785862287,2054,2052,2082,2060,2076,2083,1196
264,1716364699795920313,2040,2024,1980,2037,1993,2051,1197
265,1716364699805869834,2060,2037,2065,2059,2127,2128,1196
266,1716364699815864770,2048,2032,1962,2033,2005,2030,1193
267,1716364699825864476,2056,2013,1950,2041,2120,2065,1194
268,1716364699835864794,2045,2060,2087,2060,2015,2117,1197
269,1716364699845865030,2058,2049,2080,2082,2154,2124,1196
270,1716364699855862312,2052,2018,1957,2046,2026,2065,1196
271,1716364699865884870,2064,2053,2054,2044,2093,2052,1194
272,1716364699875865701,2072,2129,2201,2085,2005,2060,1196
273,1716364699885868472,2064,2036,2000,2050,2102,2078,1194
274,1716364699895880632,2088,2083,2037,2068,2027,1996,1194
275,1716364699905866011,2068,2048,2063,2047,2094,2114,1197
276,1716364699915862150,2064,2050,1996,2047,2024,1906,1192
277,1716364699925861976,2060,2060,2047,2059,2096,2088,1196
278,1716364699935862503,2053,2084,2094,2068,2028,2022,1194
279,1716364699945868601,2008,2011,2032,2045,2085,2075,1196
280,1716364699955875030,2051,2047,2028,2016,2010,2046,1194
281,1716364699965863785,2016,2039,2043,2039,2093,2057,1198
282,1716364699975860024,2052,2077,2047,2065,1994,2049,1198
283,1716364699985860511,2054,2039,1972,2043,2076,2047,1192
284,1716364699995860698,2015,2016,1984,2033,1976,2024,1194
285,1716364700005859182,2053,2045,2050,2051,2084,2080,1196
286,1716364700015859068,2037,2051,2064,2032,1993,2002,1192
287,1716364700025867861,2052,2056,2104,2045,2041,2002,1192
288,1716364700035859902,2068,2052,2013,2056,1964,2054,1194
289,1716364700045863185,2048,2049,2067,2051,2083,2069,1195
290,1716364700055858041,2050,2051,2058,2040,2004,2067,1196
291,1716364700065860843,2036,2069,2210,2050,2073,2108,1195
292,1716364700075859236,2050,2035,1992,2076,2064,1936,1192
293,1716364700085859033,2052,2036,2051,2058,2097,2038,1193
294,1716364700095859339,2051,2070,2085,2082,2053,2084,1196
295,1716364700105862302,2068,2041,2029,2056,2087,2044,1193
296,1716364700115825478,2073,2072,2073,2056,2009,2120,1196
297,1716364700125860461,2044,2020,1957,2058,2084,2059,1196
298,1716364700135875897,2063,2036,2017,2074,2088,2060,1196
299,1716364700145861065,2061,2032,1994,2047,2072,2013,1193
300,1716364700155859198,2073,2034,1990,2041,2010,2037,1193
301,1716364700165860096,2076,2043,2109,2040,2075,2040,1194
302,1716364700175859161,2077,2033,1979,2053,2014,2024,1194
303,1716364700185876631,2093,2088,2109,2099,2112,2062,1196
304,1716364700195861117,2104,2063,2045,2035,1973,2064,1193
305,1716364700205861745,2064,2053,2020,2054,2047,2109,1194
306,1716364700215859447,2007,2047,2156,2066,1965,2040,1193
307,1716364700225858993,2042,2049,2044,2059,2018,2079,1193
308,1716364700235857336,2064,2098,2105,2047,2077,2096,1193
309,1716364700245862302,2089,2086,2044,2024,2089,2042,1193
310,1716364700255860154,2049,2042,2029,2037,1989,2002,1193
311,1716364700265860401,2033,2033,1992,2049,2037,2163,1196
312,1716364700275860487,2056,2047,2043,2031,1995,2080,1195
313,1716364700285861666,2050,2044,2033,2052,2095,2057,1194
314,1716364700295861322,2056,2048,2041,2054,1958,2029,1190
315,1716364700305859976,2047,2029,1986,2058,2125,2196,1197
316,1716364700315859982,2049,2027,1919,2041,2024,2041,1193
317,1716364700325860219,2018,2032,2027,2046,2073,2053,1196
318,1716364700335865685,2066,2049,2043,2049,1975,2056,1198
319,1716364700345861264,2036,2087,2227,2109,2073,2029,1194
320,1716364700355864416,2049,2030,2038,2057,2009,2045,1193
321,1716364700365861737,2038,2054,2053,2057,2097,2131,1196
322,1716364700375859650,1997,2047,2147,2073,1944,1960,1195
323,1716364700385860157,2054,2041,2022,2050,2068,2060,1197
324,1716364700395860144,2061,2077,2136,2065,1973,1925,1193
325,1716364700405861322,2064,2042,2005,2064,2084,2162,1196
326,1716364700415861039,2049,2069,2058,2060,2026,2059,1196
327,1716364700425858861,2077,2044,2025,2049,2094,2058,1193
328,1716364700435859548,2040,2025,1990,2040,2018,2041,1193
329,1716364700445862230,2055,2056,2047,2049,2060,2128,1195
330,1716364700455860192,2054,2052,2028,2054,2049,2170,1195
331,1716364700465860590,2069,2093,2147,2070,2081,2045,1193
332,1716364700475860596,2108,2024,1950,2020,1969,2064,1197
333,1716364700485858629,2099,2059,2040,2024,2053,2044,1193
334,1716364700495859076,2060,2056,2009,2092,2109,2084,1195
335,1716364700505862058,2068,2044,2053,2048,2080,2082,1195
336,1716364700515857816,2049,2073,2200,2052,2004,2024,1194
337,1716364700525860247,2048,2050,2056,2027,2012,2045,1193
338,1716364700535860404,2068,2058,2084,2040,1997,2122,1198
339,1716364700545864318,2100,2108,2149,2085,2134,2134,1197
340,1716364700555859796,2068,2050,2022,2056,2085,2071,1197
341,1716364700565862347,2051,2038,2029,2066,2107,2100,1196
342,1716364700575823069,2076,2120,2170,2090,2024,2032,1196
343,1716364700585862941,2056,2033,2012,2041,2077,2110,1196
344,1716364700595863208,2104,2112,2195,2078,2034,2104,1197
345,1716364700605874786,2080,2056,2038,2081,2094,2040,1193
346,1716364700615863351,2086,2095,2104,2073,2013,2088,1196
347,1716364700625863438,2052,2069,2123,2038,2059,2097,1194
348,1716364700635863895,2059,2035,2009,2011,1972,2104,1197
349,1716364700645863080,2085,2078,2187,2074,2142,2070,1196
350,1716364700655864389,2046,2042,2028,2048,2000,2076,1195
351,1716364700665863643,2071,2082,2150,2090,2100,2145,1196
352,1716364700675863009,2053,2051,2056,2064,2026,2095,1195
353,1716364700685863857,2041,2059,2072,2056,2109,2051,1195
354,1716364700695864605,2060,2044,2048,2057,2013,2010,1194
355,1716364700705872557,2061,2060,2061,2034,2070,2036,1195
356,1716364700715864608,2076,2083,2124,2072,2056,2042,1194
357,1716364700725861969,2067,2036,2020,2062,2064,1998,1195
358,1716364700735864891,2058,2056,2051,2066,2008,2084,1195
359,1716364700745865729,2064,2064,2006,2068,2084,2084,1196
360,1716364700755866317,2058,2034,2012,2039,2001,2059,1197
361,1716364700765867365,2061,2057,2055,2050,2098,2100,1197
362,1716364700775866400,2061,2056,2073,2061,2020,2044,1193
363,1716364700785867087,2047,2036,2042,2056,2088,2120,1197
364,1716364700795868216,2038,2028,2021,2042,2001,2012,1194
365,1716364700805868573,2068,2048,1976,2080,2104,2010,1193
366,1716364700815868098,2050,2080,2171,2093,1997,2042,1193
367,1716364700825868686,2049,2080,2134,2089,2108,2083,1195
368,1716364700835870115,2009,2024,1975,2047,2008,2112,1195
369,1716364700845871234,2062,2052,2060,2051,2094,2078,1196
370,1716364700855870378,2057,2043,2032,2049,2009,2036,1192
371,1716364700865872369,2064,2046,2043,2070,2092,2045,1192
372,1716364700875871213,2058,2054,2032,2054,1992,2056,1196
373,1716364700885871480,2049,2046,2064,2041,2076,2040,1193
374,1716364700895871677,2052,2036,2000,2033,2008,2068,1195
375,1716364700905872154,2037,2040,2031,2036,2074,2048,1194
376,1716364700915872271,2062,2049,2052,2058,2062,2047,1191
377,1716364700925872888,2075,2081,2164,2068,2091,2075,1198
378,1716364700935873556,2038,2043,2038,2043,1984,2040,1197
379,1716364700945873452,2076,2084,2073,2028,2096,2077,1197
380,1716364700955874430,2029,2043,2073,2050,1981,2007,1193
381,1716364700965880569,2036,2029,2016,2052,2101,2056,1198
382,1716364700975874744,2054,2050,2072,2082,2054,2053,1196
383,1716364700985874881,2028,2037,2016,2033,2053,2024,1194
384,1716364700995875127,2052,2057,2056,2078,2024,2036,1193
385,1716364701005875104,2068,2059,2084,2090,2152,2063,1196
386,1716364701015858599,2062,2075,2121,2052,2010,2034,1193
387,1716364701025876108,2061,2049,2069,2069,2108,2068,1195
388,1716364701035858461,2066,2077,2144,2074,1989,2028,1192
389,1716364701045877153,2036,2041,2015,2056,2047,2045,1194
390,1716364701055885836,2060,2045,2036,2048,2008,2080,1195
391,1716364701065879541,2062,2091,2173,2076,2107,2080,1194
392,1716364701075861633,2053,2058,2098,2052,2000,2052,1198
393,1716364701085879523,2069,2044,2037,2001,2045,1910,1192
394,1716364701095862036,2034,2043,1990,2050,2034,2046,1193
395,1716364701105861472,2015,2006,1979,2040,2174,2112,1194
396,1716364701115862220,2105,2118,2212,2081,2003,2048,1196
397,1716364701125863609,2052,2046,2032,2041,2104,2097,1195
398,1716364701135862914,2064,2082,2156,2053,2001,2061,1197
399,1716364701145864483,2062,2058,2058,2031,2080,2056,1196
400,1716364701155863649,2057,2071,2137,2065,1974,1937,1192
401,1716364701165865569,2064,2139,2218,2101,2128,2110,1197
402,1716364701175860054,2050,2045,2030,2045,1989,2058,1196
403,1716364701185864730,2052,2050,2012,2044,2073,2044,1192
404,1716364701195863163,2064,2061,2005,2051,1992,2035,1193
405,1716364701205863240,2047,2041,2041,2046,2122,2022,1194
406,1716364701215863306,2046,2044,2024,2057,2005,2025,1194
407,1716364701225863353,2053,2046,2031,2034,2077,2073,1196
408,1716364701235891312,2056,2035,1972,2036,2005,2049,1196
409,1716364701245864037,2072,2079,1992,2059,2090,2096,1194
410,1716364701255862190,2050,2046,2020,2043,1949,1936,1193
411,1716364701265865011,2040,2045,2046,2088,2098,2031,1193
412,1716364701275861331,2061,2065,2124,2076,2020,2032,1195
413,1716364701285895502,2068,2057,2024,2057,2093,2065,1195
414,1716364701295863107,2052,2081,2164,2060,1997,2102,1196
415,1716364701305867372,2042,2040,2043,2044,2088,1920,1192
416,1716364701315864644,2060,2047,2037,2069,2020,2040,1192
417,1716364701325863447,2058,2056,2063,2064,2096,2093,1196
418,1716364701335928958,2060,2056,2059,2047,2012,2045,1194
419,1716364701345865564,2051,2054,2056,2054,2077,2049,1195
420,1716364701355863337,2089,2120,2186,2105,2027,2047,1195
421,1716364701365866038,2070,2054,2030,2052,2090,2053,1197
422,1716364701375858771,2046,2028,2001,2030,1994,2042,1195
423,1716364701385895888,2061,2039,2002,2052,2099,2053,1197
424,1716364701395863041,2040,2043,2056,2066,2036,2065,1197
425,1716364701405862317,2054,2046,2062,2040,2064,2076,1196
426,1716364701415862353,2060,2082,2107,2046,1996,2049,1195
427,1716364701425864193,2031,2052,2146,2069,2076,2072,1195
428,1716364701435898124,2054,2037,2008,2037,1985,2034,1192
429,1716364701445864306,2066,2041,2026,2050,2122,2117,1199
430,1716364701455861206,2061,2121,2216,2077,2012,2026,1191
431,1716364701465867244,2080,2050,2000,2052,2066,2058,1197
432,1716364701475866209,2062,2048,2012,2044,2004,2047,1194
433,1716364701485888387,2057,2052,1989,2001,2052,2032,1194
434,1716364701495864939,2065,2044,2012,2053,2004,2036,1193
435,1716364701505865206,2068,2052,2026,2049,2079,2134,1197
436,1716364701515865533,2018,2072,2169,2073,2017,2088,1194
437,1716364701525868926,2040,2021,1980,2051,2117,2051,1195
438,1716364701535866749,2044,2039,2026,2040,2014,2028,1193
439,1716364701545866123,2062,2060,2068,2062,2073,2081,1195
440,1716364701555864788,2034,2060,2096,2058,1987,1973,1193
441,1716364701565864945,2062,2068,2082,2038,2111,2077,1194
442,1716364701575879919,2076,2083,2148,2076,2058,2057,1196
443,1716364701585865388,2065,2080,2152,2077,2127,2088,1198
444,1716364701595865485,2017,2042,2045,2056,2033,2032,1192
445,1716364701605863708,2061,2044,2036,2044,2073,2033,1193
446,1716364701615848526,2050,2107,2164,2104,2037,2061,1196
447,1716364701625864572,2054,2054,2049,2058,2091,2072,1193
448,1716364701635875970,2059,2077,2052,2076,2016,2047,1193
449,1716364701645906014,2072,2066,2081,2082,2096,2047,1193
450,1716364701655862137,2032,2041,2037,2035,1945,2026,1194
451,1716364701665866872,2085,2142,2152,2099,2091,2159,1196
452,1716364701675865406,2024,2018,1969,2041,2043,2060,1195
453,1716364701685865092,2051,2066,2125,2081,2084,2073,1196
454,1716364701695895015,2036,2045,2034,2037,1986,2057,1196
455,1716364701705863431,2062,2064,2110,2069,2101,2064,1196
456,1716364701715865401,2069,2086,2104,2077,1994,2032,1193
457,1716364701725865969,2053,2041,2033,2039,2073,2104,1197
458,1716364701735866277,2035,2016,1986,2020,2000,2086,1196
459,1716364701745875560,2061,2060,2053,2071,2117,2085,1195
460,1716364701755862743,2059,2058,2080,2050,2011,2031,1194
461,1716364701765864311,2052,2048,2057,2062,2122,2070,1198
462,1716364701775865971,2058,2072,2124,2053,1987,2066,1196
463,1716364701785863874,2058,2050,2045,2054,2092,2053,1196
464,1716364701795863960,2068,2084,2145,2090,2041,2056,1194
465,1716364701805864849,2061,2028,1972,2045,2044,2081,1196
466,1716364701815865536,2066,2074,2093,2052,1979,2077,1196
467,1716364701825863719,2047,2047,2107,2059,2077,2063,1196
468,1716364701835862634,2044,2058,2058,2060,2026,2090,1194
469,1716364701845860386,2066,2034,1935,2024,2164,2062,1195
470,1716364701855861875,2063,2057,2052,2050,1993,2033,1193
471,1716364701865862192,2068,2088,2143,2087,2086,1924,1193
472,1716364701875861447,2075,2088,2148,2079,2066,2052,1195
473,1716364701885859630,2033,2061,2074,2065,2104,2045,1194
474,1716364701895859877,2034,2055,2076,2083,1987,2051,1193
475,1716364701905860234,2059,2044,2007,2028,2117,2024,1192
476,1716364701915861102,2072,2069,2116,2032,1981,2031,1193
477,1716364701925860968,2074,2114,2290,2084,2085,2048,1196
478,1716364701935861286,2073,2058,2051,2042,1990,2029,1195
479,1716364701945865840,2068,2094,2204,2066,2116,2074,1196
480,1716364701955866078,2057,2046,2000,2040,1995,2010,1193
481,1716364701965864971,2060,2048,2039,2040,2091,2059,1196
482,1716364701975863726,2036,2044,2010,2004,1963,2017,1191
483,1716364701985864233,2052,2043,2049,2051,2090,1913,1192
484,1716364701995864630,2058,2045,2015,2042,1998,2004,1194
485,1716364702005863415,2076,2092,2108,2093,2152,2071,1198
486,1716364702015865815,2044,2028,2022,2053,2013,2036,1197
487,1716364702025865431,2066,2067,2076,2069,2108,2053,1197
488,1716364702035869445,2041,2057,2073,2050,1997,2065,1194
489,1716364702045864572,2052,2088,2128,2041,2085,2089,1197
490,1716364702055885939,2055,2032,2005,2040,1988,2029,1193
491,1716364702065869384,2056,2052,2055,2060,2098,2062,1196
492,1716364702075868749,2053,2056,2047,2049,2005,2028,1194
493,1716364702085869818,2067,2032,1972,2030,2068,2014,1198
494,1716364702095871918,2061,2084,2101,1995,1942,2113,1198
495,1716364702105869731,2057,2058,2030,2056,2084,2034,1193
496,1716364702115873223,2050,2050,2045,2052,2004,2042,1191
497,1716364702125870495,2043,2030,1997,2042,2090,2057,1195
498,1716364702135868448,2091,2163,2276,2128,2050,2093,1198
499,1716364702145865027,2066,2040,2018,2032,2100,1978,1193
500,1716364702155878560,2047,2086,2137,2062,1976,2032,1193
501,1716364702165869880,2054,2046,2045,2056,2084,2054,1194
502,1716364702175872060,2080,2112,2242,2083,1993,2117,1195
503,1716364702185875493,2072,2044,2064,2084,2124,2014,1192
504,1716364702195866964,2046,2043,2018,2054,1985,2046,1195
505,1716364702205870687,1992,2043,2148,2067,2095,2061,1194
506,1716364702215874390,2052,2018,1981,1996,1954,2023,1193
507,1716364702225867975,2060,2063,2078,2084,2118,2080,1194
508,1716364702235868402,2053,2056,2029,2057,2014,2066,1196
509,1716364702245868819,2055,2065,2134,2052,2034,2126,1196
510,1716364702255910364,2057,2040,2012,2045,2010,2043,1192
511,1716364702265881646,2044,2045,2033,2033,2084,2056,1197
512,1716364702275864961,2052,2048,2061,2042,1996,2047,1194
513,1716364702285873884,2061,2061,2080,2062,2089,2064,1197
514,1716364702295871486,2046,2049,2068,2063,2015,2067,1195
515,1716364702305872615,2040,2061,2093,2076,2141,2106,1196
516,1716364702315880156,2075,2043,2024,2045,2014,2026,1195
517,1716364702325867157,2091,2141,2189,2100,2130,2076,1197
518,1716364702335872845,2056,2048,2028,2065,2028,2040,1193
519,1716364702345872401,2065,2046,2045,2045,2093,2137,1197
520,1716364702355905750,2053,2035,2029,2045,2004,2041,1193
521,1716364702365880659,2049,2041,2020,2045,2092,2069,1197
522,1716364702375868703,2051,2053,2041,2053,1996,2048,1197
523,1716364702385877135,2034,2058,2109,2056,2104,2048,1196
524,1716364702395874717,2055,2044,2027,2037,2007,2034,1193
525,1716364702405876116,2056,2047,2047,2061,2113,2058,1197
526,1716364702415876102,2054,2048,2014,2046,1963,1944,1192
527,1716364702425890736,2052,2063,2025,2061,2120,2030,1192
528,1716364702435873951,2059,2044,1989,2059,2049,1997,1193
529,1716364702445871874,2055,2056,2033,2060,2090,2043,1194
530,1716364702455874475,2074,2052,2040,2043,2012,2049,1195
531,1716364702465876375,2047,2101,2131,2073,2088,2101,1198
532,1716364702475877594,2061,2074,2153,2066,1993,2040,1193
533,1716364702485877850,2052,2027,1992,2039,2102,2070,1197
534,1716364702495865173,2054,2062,2124,2046,2002,2069,1195
535,1716364702505878474,2068,2062,2065,2070,2058,2029,1195
536,1716364702515878020,2054,2036,2024,2012,1982,2027,1192
537,1716364702525863099,2073,2075,2121,2096,2139,2092,1196
538,1716364702535821837,2049,2042,2045,2021,1978,1979,1195
539,1716364702545869083,2057,2077,2085,2077,2105,2060,1197
540,1716364702555881152,2057,2044,2052,2001,2008,1998,1194
541,1716364702565884104,2040,2057,2144,2078,2090,2065,1195
542,1716364702575870455,2042,2035,2014,1997,1968,2013,1196
543,1716364702585872214,2060,2077,2128,2092,2100,2044,1195
544,1716364702595866700,2044,2068,2132,2069,2017,1964,1193
545,1716364702605882016,2058,2047,2024,2061,2103,2074,1196
546,1716364702615865591,2061,2041,2024,2043,1997,2042,1192
547,1716364702625864025,2073,2104,2125,2084,2116,2066,1194
548,1716364702635865063,2042,2039,2033,2039,2014,2050,1196
549,1716364702645868596,2076,2051,2044,2067,2117,2077,1199
550,1716364702655867832,2044,2040,2000,2029,2032,2112,1195
551,1716364702665866034,2064,2042,2006,2062,2112,2058,1197
552,1716364702675826686,2057,2104,2180,2075,1994,2060,1196
553,1716364702685866367,2057,2053,2004,2059,2091,2056,1194
554,1716364702695864220,2048,2046,2036,2054,2047,2036,1193
555,1716364702705863065,2046,2044,2057,2056,2060,2006,1193
556,1716364702715878250,2065,2056,2100,1990,1932,2060,1194
557,1716364702725864470,2041,2038,2020,2069,2116,2072,1195
558,1716364702735862733,2076,2076,2100,2068,2006,2051,1196
559,1716364702745862519,2072,2052,2054,2050,2100,2096,1196
560,1716364702755864329,2032,2044,2082,2056,1985,1980,1193
561,1716364702765882520,2061,2052,2013,2052,2092,2027,1196
562,1716364702775862458,2037,2073,2080,2064,2032,2039,1195
563,1716364702785862214,2062,2052,2008,2060,2108,2072,1199
564,1716364702795868332,2046,2074,2088,2068,1989,2050,1196
565,1716364702805860293,2050,2049,2047,2080,2101,2056,1194
566,1716364702815866050,2057,2078,2140,2058,1992,1928,1193
567,1716364702825863442,2056,2046,2020,2062,2104,2063,1194
568,1716364702835863389,2052,2064,2077,2063,1997,2031,1192
569,1716364702845861191,2042,2058,2102,2060,2074,2024,1192
570,1716364702855870265,2064,2088,2157,2081,1960,2031,1193
571,1716364702865870812,2049,2048,2038,2033,2079,2048,1193
572,1716364702875866570,2028,2058,2121,2072,2006,2133,1194
573,1716364702885868611,2050,2038,2020,2040,2067,2014,1195
574,1716364702895879788,2053,2046,2045,2037,1988,2034,1195
575,1716364702905870307,2072,2068,2075,2080,2112,2072,1196
576,1716364702915869732,2073,2098,2095,2088,2011,2061,1196
577,1716364702925865460,2052,2035,1996,2064,2098,2073,1196
578,1716364702935866008,2040,2088,2212,2046,1978,2036,1195
579,1716364702945863349,2056,2057,2033,2048,2088,2056,1197
580,1716364702955864047,2050,2040,2026,2042,1994,2042,1193
581,1716364702965869413,2050,2053,2057,2065,2037,2119,1197
582,1716364702975865713,2050,2029,1964,2047,2001,2068,1194
583,1716364702985867854,2049,2026,1996,2045,2076,2054,1197
584,1716364702995863491,2066,2070,2089,2074,2037,2056,1196
585,1716364703005868568,2077,2092,2121,2059,2059,2066,1195
586,1716364703015871751,2056,2053,2067,2076,2032,2059,1196
587,1716364703025863952,2052,2070,2184,2058,2052,2003,1191
588,1716364703035864500,2059,2075,2091,2072,1993,2073,1196
589,1716364703045863995,2067,2043,2013,2042,2065,2061,1194
590,1716364703055867618,2072,2082,2015,2063,2020,2051,1196
591,1716364703065877684,2059,2053,2040,2058,2093,2116,1196
592,1716364703075865688,2095,2069,2028,2045,2002,2064,1194
593,1716364703085868469,2069,2037,1993,2065,2092,2109,1196
594,1716364703095864097,2056,2043,2004,2040,1999,2017,1192
595,1716364703105865316,2068,2082,2090,2073,2107,2080,1195
596,1716364703115864631,2044,2009,1922,2012,1988,2022,1194
597,1716364703125862183,2058,2016,1985,2027,2077,2032,1194
598,1716364703135864594,2033,2018,1996,2048,2025,2057,1195
599,1716364703145862166,2022,2046,2017,2072,2112,2073,1198
600,1716364703155865338,2045,2057,2073,2046,1990,2020,1194
601,1716364703165861648,2061,2072,2084,2072,2088,2095,1197
602,1716364703175864240,2056,2074,2104,2060,2026,2037,1194
603,1716364703185864826,2047,2049,2042,2067,2116,2074,1197
604,1716364703195864322,2065,2064,2040,2058,2005,2034,1194
605,1716364703205862646,2072,2064,2138,2066,2093,2132,1195
606,1716364703215862983,2053,2038,2005,2045,2006,2021,1193
607,1716364703225853541,2060,2063,2079,2063,2099,2047,1192
608,1716364703235863968,2046,2060,2053,2061,2009,2022,1193
609,1716364703245864435,2045,2047,2037,2052,2098,2067,1197
610,1716364703255862347,2047,2048,1988,2052,2036,2073,1197
611,1716364703265865379,2015,2026,2042,2031,2058,2085,1197
612,1716364703275865476,2082,2114,2120,2086,1981,2053,1195
613,1716364703285862978,2061,2060,2117,2061,2111,2105,1196
614,1716364703295865639,2056,2032,2008,2027,1961,2045,1192
615,1716364703305861257,2042,2047,2033,2069,2081,2025,1195
616,1716364703315867306,2056,2044,1997,2029,1986,1965,1192
617,1716364703325862011,2072,2064,2036,2061,2101,2110,1197
618,1716364703335863121,2048,2036,2008,2062,2020,2077,1197
619,1716364703345869579,2046,2043,2039,2043,2068,2044,1194
620,1716364703355869024,2072,2072,2112,2065,2001,2054,1196
621,1716364703365863090,2065,2108,2216,2074,2086,2122,1196
622,1716364703375863136,2072,2074,2026,2070,2024,2071,1197
623,1716364703385864896,2059,2046,2062,2052,2097,2100,1195
624,1716364703395873088,2066,2085,2193,2074,2004,2064,1195
625,1716364703405866341,2032,2056,2085,2071,2130,2074,1195
626,1716364703415862090,2038,2068,2150,2071,2009,2046,1193
627,1716364703425865883,2064,2049,2008,2056,2064,2002,1189
628,1716364703435864297,2013,2029,2016,2058,2019,2086,1192
629,1716364703445864133,2040,2036,2075,2063,2116,2069,1196
630,1716364703455870521,2031,2008,1988,2031,1997,2041,1193
631,1716364703465865889,2050,2059,2101,2068,2067,2053,1196
632,1716364703475865205,2052,2039,2024,2064,2015,1959,1194
633,1716364703485863527,2065,2070,2111,2089,2150,2075,1197
634,1716364703495863474,2048,2052,2049,2044,1987,2052,1198
635,1716364703505871606,2048,2064,2102,2060,2080,2081,1195
636,1716364703515872254,2058,2037,2036,2072,2025,2040,1195
637,1716364703525862301,2044,2039,2040,2088,2154,2054,1198
638,1716364703535864702,2057,2060,2066,2053,1988,2038,1194
639,1716364703545865590,2054,2058,2044,2060,2107,2036,1194
640,1716364703555890955,2048,2037,2020,2040,1992,2052,1196
641,1716364703565865192,2066,2045,2000,2044,2098,2052,1196
642,1716364703575863806,2046,2061,2097,2060,1992,2025,1193
643,1716364703585863793,2052,2061,2084,2059,2078,2065,1195
644,1716364703595864069,2060,2070,2075,2030,1981,2086,1198
645,1716364703605867342,2045,2045,2031,2052,2087,2026,1193
646,1716364703615872198,2052,2072,2003,2068,2015,2082,1195
647,1716364703625874849,2058,2040,2016,2039,2085,2058,1194
648,1716364703635863144,2068,2072,2052,2059,1999,2029,1192
649,1716364703645864693,2062,2075,2100,2068,2097,2142,1195
650,1716364703655862315,2058,2048,2036,2047,2013,2065,1195
651,1716364703665867552,2072,2084,2126,2080,2088,2069,1197
652,1716364703675861256,2047,2046,2056,2066,2008,1996,1195
653,1716364703685861343,2077,2109,2145,2092,2137,2128,1195
654,1716364703695861750,2048,2037,2072,2055,2003,2054,1196
655,1716364703705859552,2053,2084,2117,2087,2121,2066,1196
656,1716364703715867934,2048,2042,2021,2049,2003,2051,1194
657,1716364703725863102,2057,2052,2046,2086,2089,2005,1195
658,1716364703735861335,2061,2047,1998,2046,2003,2053,1196
659,1716364703745862744,2065,2062,2024,2073,2115,2056,1197
660,1716364703755862289,2056,2053,2041,2053,1965,2030,1195
661,1716364703765870501,2065,2056,2028,2045,2051,1996,1192
662,1716364703775865599,2069,2057,2041,2043,1988,2028,1194
663,1716364703785863952,2057,2065,2101,2068,2105,2140,1196
664,1716364703795862035,2057,2022,1962,2029,1988,2046,1194
665,1716364703805861720,2064,2036,1981,2042,2100,2048,1198
666,1716364703815875744,2049,2048,2029,2037,2003,2044,1194
667,1716364703825863387,2057,2042,2024,2056,2094,2048,1196
668,1716364703835855889,2041,2062,2099,2058,1995,1976,1192
669,1716364703845862759,2066,2088,2138,2056,2100,2056,1196
670,1716364703855862925,2072,2056,2079,2050,2009,2035,1194
671,1716364703865863913,2053,2066,2087,2062,2083,2110,1197
672,1716364703875861996,2065,2067,2069,2061,2020,2084,1197
673,1716364703885861722,2056,2038,2016,2057,2101,2068,1197
674,1716364703895861418,2049,2049,2050,2020,1986,2042,1195
675,1716364703905861034,2060,2052,2045,2052,2085,2047,1194
676,1716364703915860669,2051,2044,2057,2050,2039,2024,1192
677,1716364703925859153,2053,2048,2032,2065,2123,2058,1197
678,1716364703935861344,2051,2045,2030,2040,1988,2041,1194
679,1716364703945862091,2045,2046,2072,2048,2079,2097,1198
680,1716364703955862479,2040,2031,2037,2046,1994,2044,1193
681,1716364703965877234,2077,2071,2098,2080,2116,2073,1195
682,1716364703975864636,2058,2053,2047,2070,2030,2056,1195
683,1716364703985859703,2051,2043,2030,2032,2063,2036,1194
684,1716364703995867755,2049,2056,2086,2056,1986,2040,1195
685,1716364704005865457,2056,2041,2004,2051,2096,2123,1198
686,1716364704015868218,2028,2037,2006,2055,1976,2080,1198
687,1716364704025866111,2054,2042,2006,2061,2109,2053,1196
688,1716364704035866979,2045,2047,2027,2048,2018,2058,1196
689,1716364704045864541,2050,2034,2030,2080,2136,2064,1195
690,1716364704055867272,2058,2105,2168,2091,2036,2045,1192
691,1716364704065865145,2058,2052,2052,2074,2112,2076,1194
692,1716364704075864310,2057,2060,2036,2036,2020,2041,1192
693,1716364704085865578,2051,2060,2060,2061,2081,2073,1195
694,1716364704095865996,2052,2032,1974,2036,2017,2092,1195
695,1716364704105869088,2076,2096,2144,2092,2106,2043,1192
696,1716364704115873072,2051,2042,2024,2050,2001,2028,1193
697,1716364704125867538,2035,2047,2020,2049,2077,1988,1194
698,1716364704135868236,2065,2044,1981,2072,2000,2031,1195
699,1716364704145864575,2076,2068,2108,2066,2107,2024,1193
700,1716364704155865163,2045,2041,2060,2025,1982,2057,1197
701,1716364704165872062,2070,2080,2108,2072,2134,2093,1196
702,1716364704175865406,2034,2047,2046,2052,2003,2092,1196
703,1716364704185871785,2070,2088,1988,2068,2104,2035,1194
704,1716364704195871881,2064,2120,2162,2057,2026,2086,1195
705,1716364704205892146,2054,2037,1977,2001,2122,2124,1195
706,1716364704215865002,2059,2064,2104,2086,2018,2047,1195
707,1716364704225867232,2038,2030,2043,2049,2080,2050,1194
708,1716364704235867800,2044,2047,2057,2050,2014,2056,1194
709,1716364704245841687,2042,2099,2139,2095,2100,2041,1196
710,1716364704255874766,2057,2057,2080,2040,2005,2053,1193
711,1716364704265867348,2036,2028,2024,1998,2045,1901,1194
712,1716364704275867024,2042,2053,2068,2069,2044,2075,1196
713,1716364704285867531,2064,2056,2046,2073,2129,2080,1196
714,1716364704295891603,2052,2041,2044,2065,2012,2022,1193
715,1716364704305878214,2064,2037,1978,2043,2080,2049,1194
716,1716364704315871157,2063,2075,2111,2065,1999,2033,1194
717,1716364704325870894,2063,2051,2045,2052,2077,2062,1196
718,1716364704335871651,2056,2047,2024,2068,2053,2023,1193
719,1716364704345871768,2071,2116,2233,2106,2101,2088,1197
720,1716364704355893125,2032,2010,1978,2047,2074,2053,1196
721,1716364704365873634,2069,2042,1994,2029,2049,2047,1193
722,1716364704375870064,2056,2037,2083,2027,1984,2098,1195
723,1716364704385872946,2052,2024,1970,2030,2062,2054,1196
724,1716364704395879124,2063,2023,1955,2008,1985,2040,1191
725,1716364704405873861,2050,2040,2000,2020,2072,2052,1197
726,1716364704415874949,2047,2021,1968,2026,1996,2016,1193
727,1716364704425876529,2052,2046,1995,2060,2122,2055,1194
728,1716364704435876645,2041,2032,1976,2008,2025,2028,1192
729,1716364704445858097,2066,2052,2044,2009,2062,2120,1196
730,1716364704455875025,2057,2036,1948,2024,1982,2069,1195
731,1716364704465875613,2037,2036,1996,2038,2099,2045,1195
732,1716364704475877372,2052,2045,2005,2062,2024,2075,1192
733,1716364704485857652,2051,2051,2036,2067,2118,2097,1196
734,1716364704495876735,2030,2001,1936,2027,1964,2076,1194
735,1716364704505877091,2069,2046,1997,2064,2128,2103,1197
736,1716364704515860817,2035,2050,2042,2039,1992,2028,1194
737,1716364704525879720,2043,2044,2036,2046,2051,2025,1191
738,1716364704535862333,2033,2015,2003,2014,1941,1890,1195
739,1716364704545859314,2040,2013,1999,2043,2084,2056,1196
740,1716364704555879017,2049,2076,2146,2052,2011,2041,1192
741,1716364704565862102,2065,2068,2030,2049,2086,2089,1195
742,1716364704575883028,2030,2015,1948,2030,2032,2064,1194
743,1716364704585859199,2081,2072,2094,2090,2100,2077,1195
744,1716364704595881758,2034,2056,2104,2056,1977,2003,1192
745,1716364704605861456,2043,2026,2020,2035,2074,2045,1192
746,1716364704615863406,2040,2045,2051,2042,1977,2015,1192
747,1716364704625885815,2072,2057,2078,2048,2114,2122,1195
748,1716364704635860614,2072,2094,2142,2056,1990,2038,1192
749,1716364704645859478,2052,2029,1978,2041,2104,2055,1196
750,1716364704655862932,2049,2049,1998,2064,2010,2023,1192
751,1716364704665888477,2067,2054,2042,2052,2128,2094,1196
752,1716364704675864387,2046,2038,2015,2046,2014,2043,1191
753,1716364704685867159,2047,2060,2173,2076,2106,2136,1196
754,1716364704695864080,2048,2044,2024,2041,1981,2027,1194
755,1716364704705862613,2019,2029,2026,2032,2121,2069,1197
756,1716364704715872168,2048,2045,2013,2064,2002,2135,1198
757,1716364704725866423,2066,2064,2087,2077,2097,2074,1196
758,1716364704735863784,2057,2045,2017,2043,1977,2044,1194
759,1716364704745865164,2054,2032,1984,2054,2114,2011,1195
760,1716364704755864458,2053,2068,2080,2053,1996,2041,1192
761,1716364704765889102,2047,2073,2133,2078,2096,2062,1195
762,1716364704775865063,2061,2046,2025,2045,1988,2033,1191
763,1716364704785868185,2050,2056,2078,2058,2084,2049,1196
764,1716364704795863693,2046,2047,2046,2037,2016,2056,1197
765,1716364704805868840,2045,2061,2082,2082,2074,2013,1193
766,1716364704815859549,2058,2053,2052,2052,1985,2034,1193
767,1716364704825867270,2054,2045,2052,2072,2123,2136,1194
768,1716364704835863589,2050,2015,1978,2017,1995,2090,1195
769,1716364704845867332,2046,2031,1922,2057,2170,2041,1193
770,1716364704855865676,2050,2048,2074,2038,1960,2035,1192
771,1716364704865866003,2039,2068,2085,2068,2089,2068,1197
772,1716364704875865939,2050,2023,1982,2033,2040,2021,1192
773,1716364704885866256,2069,2033,1966,2045,2161,2132,1197
774,1716364704895867706,2054,2073,2125,2072,1999,2010,1193
775,1716364704905866560,2050,2028,2013,2033,2073,2039,1193
776,1716364704915864062,2052,2086,2153,2104,2064,2019,1195
777,1716364704925865641,2047,2013,1957,2033,2077,2057,1196
778,1716364704935864806,2026,2029,2022,2053,2011,1997,1194
779,1716364704945867938,2070,2065,2065,2044,2058,2077,1197
780,1716364704955866472,2045,2050,2060,2061,2035,2105,1197
781,1716364704965866128,2056,2053,2052,2084,2173,2005,1193
782,1716364704975876303,2075,2033,1878,2028,1994,2065,1196
783,1716364704985865990,2044,2024,1990,2040,2085,2050,1196
784,1716364704995868752,2064,2095,2084,2053,1965,2023,1193
785,1716364705005871584,2051,2032,1978,2032,2076,1906,1193
786,1716364705015866510,2041,2049,2062,2040,1983,2041,1192
787,1716364705025863381,2057,2056,2057,2076,2160,2154,1193
788,1716364705035862236,2043,2037,2005,2040,1972,1927,1191
789,1716364705045862202,2058,2040,2014,2041,2076,1947,1194
790,1716364705055861437,2059,2047,2036,2046,1995,2064,1196
791,1716364705065862185,2065,2120,2183,2105,2124,2083,1196
792,1716364705075864556,2043,2040,2057,2060,2034,2057,1194
793,1716364705085865815,2056,2039,2017,2067,2132,2046,1193
794,1716364705095865270,2054,2073,2064,2026,1974,2092,1193
795,1716364705105863353,2062,2109,2133,2088,2127,2053,1194
796,1716364705115860774,2034,2042,2041,2058,1993,2028,1193
797,1716364705125864939,2046,2011,1968,2041,2098,2005,1193
798,1716364705135862881,2070,2090,2179,2066,1960,1960,1193
799,1716364705145863058,2070,2044,2018,2032,2062,2057,1196
800,1716364705155860781,2057,2076,2064,2064,2001,2061,1196
801,1716364705165863722,2050,2027,2000,2014,2050,2069,1196
802,1716364705175861916,2075,2105,2107,2080,2040,2065,1195
803,1716364705185862293,2053,2037,2021,2033,2068,2072,1197
804,1716364705195869543,2046,2056,2056,2073,2007,2068,1197
805,1716364705205861364,2047,2032,2013,2051,2069,2104,1195
806,1716364705215860519,2065,2066,2063,2052,1976,2024,1194
807,1716364705225863721,2072,2098,2225,2093,2060,2025,1193
808,1716364705235860552,2033,2033,2028,2037,1973,2047,1191
809,1716364705245861510,2049,2098,2160,2106,2114,2110,1196
810,1716364705255859793,2043,2054,2085,2060,2016,2037,1193
811,1716364705265862264,2038,2042,2002,2062,2096,2096,1194
812,1716364705275860147,2034,2042,2035,2040,1998,1972,1192
813,1716364705285866285,2068,2057,2049,2049,2018,2024,1192
814,1716364705295864678,2053,2039,2030,2064,1992,2019,1194
815,1716364705305866759,2032,2014,2013,2033,2081,2042,1194
816,1716364705315859582,2042,2041,2020,2045,2009,2101,1196
817,1716364705325864247,2038,2025,2012,2036,2082,2053,1197
818,1716364705335861438,2036,2009,1973,2018,1989,1990,1195
819,1716364705345862607,2079,2073,2082,2070,2100,2032,1194
820,1716364705355863655,2056,2043,2006,2044,2001,2025,1193
821,1716364705365860886,2064,2059,2085,2056,2126,2145,1197
822,1716364705375860923,2069,2115,2120,2095,2041,2047,1193
823,1716364705385864506,2046,2045,2043,2080,2143,2088,1195
824,1716364705395862710,2062,2093,2230,2093,2034,2042,1194
825,1716364705405861463,2062,2035,1993,2058,2121,2090,1195
826,1716364705415868363,2050,2061,2026,2063,1985,2056,1195
827,1716364705425860555,2059,2032,1956,2044,2099,2043,1191
828,1716364705435861884,2058,2112,2157,2068,1992,2144,1196
829,1716364705445860718,2059,2029,2021,2037,2083,2061,1194
830,1716364705455866445,2057,2036,1996,2009,1974,2047,1194
831,1716364705465865319,2110,2147,2260,2154,2196,1992,1194
832,1716364705475862350,2041,2026,1993,2042,2039,2080,1196
833,1716364705485860483,2040,2032,2008,2048,2080,1980,1193
834,1716364705495863455,2042,2073,2129,2061,1972,1972,1192
835,1716364705505860506,2044,2019,1982,2041,2091,2096,1197
836,1716364705515860422,2061,2064,2083,2068,1998,2061,1198
837,1716364705525865468,2025,2034,2097,2058,2085,2037,1192
838,1716364705535863942,2024,2026,2017,2056,2020,2020,1193
839,1716364705545861033,2069,2047,2027,1981,2048,2074,1198
840,1716364705555873904,2074,2069,2086,2072,2039,2110,1197
841,1716364705565862639,2044,2038,2050,2052,2100,2113,1198
842,1716364705575864198,2053,2061,2033,2072,2026,2072,1195
843,1716364705585864105,2084,2068,2094,2064,2072,2068,1195
844,1716364705595862388,2017,2017,1987,2032,1997,2010,1193
845,1716364705605864007,2054,2024,1945,2044,2110,2055,1195
846,1716364705615865086,2037,2042,2106,2041,2003,1908,1192
847,1716364705625868018,2045,2066,2126,2059,2064,2064,1195
848,1716364705635864898,2052,2082,2161,2077,2014,2053,1195
849,1716364705645866448,2052,2046,2040,2063,2109,2021,1195
850,1716364705655864942,2066,2042,2029,2051,2018,2117,1198
851,1716364705665864847,2052,2124,2224,2102,2116,2083,1197
852,1716364705675865676,2042,2070,2077,2056,1985,2045,1194
853,1716364705685872616,2056,2026,1992,2056,2100,2018,1195
854,1716364705695863455,2049,2046,2060,2056,2012,2029,1193
855,1716364705705866567,2057,2041,2021,2051,2091,2124,1196
856,1716364705715864129,2043,2045,2028,2064,2000,2054,1197
857,1716364705725868854,2065,2128,2230,2115,2152,2115,1197
858,1716364705735865855,2052,2032,2008,2042,2032,2091,1197
859,1716364705745867134,2061,2032,1978,2066,2133,2181,1195
860,1716364705755865888,2076,2068,2071,2056,1984,2064,1195
861,1716364705765870673,2049,2054,1987,2032,2108,2096,1196
862,1716364705775866873,2075,2064,2003,2060,2034,2010,1194
863,1716364705785884472,2047,2063,2070,2047,2112,2066,1196
864,1716364705795871595,2061,2047,1995,2037,1967,2023,1194
865,1716364705805870940,2032,2085,2168,2083,2120,2021,1194
866,1716364705815869193,2049,2043,2032,2024,2004,2009,1193
867,1716364705825874099,2037,2013,1941,2043,2091,2048,1194
868,1716364705835874286,2052,2045,2063,2009,1950,2026,1192
869,1716364705845870505,2061,2044,2015,2050,2099,2057,1196
870,1716364705855871453,2038,2055,2044,2047,2024,2060,1195
871,1716364705865870919,2034,2088,2156,2104,2097,2105,1195
872,1716364705875873129,2056,2036,2002,2029,1999,2011,1192
873,1716364705885871923,2066,2045,2046,2077,2102,2084,1197
874,1716364705895871960,2045,2040,2009,2052,2008,2033,1192
875,1716364705905876034,2043,2045,2064,2057,2107,2064,1196
876,1716364705915878395,2062,2034,1992,2055,2088,2133,1197
877,1716364705925878803,2086,2097,2144,2079,2093,2075,1194
878,1716364705935876925,2066,2091,2162,2061,2008,2042,1194
879,1716364705945875329,2042,2033,2030,2056,2106,2042,1194
880,1716364705955854776,2043,2052,2049,2070,2033,2064,1197
881,1716364705965860704,2069,2056,2105,2072,2095,2009,1194
882,1716364705975861512,2052,2018,1942,2026,1971,2032,1194
883,1716364705985864975,2047,2048,2066,2018,2104,2078,1197
884,1716364705995875902,2066,2062,2052,2056,2021,2039,1193
885,1716364706005878694,2056,2041,2021,2049,2094,2037,1192
886,1716364706015878260,2038,2006,1897,1996,1984,2012,1192
887,1716364706025878917,2057,2020,1974,2028,2069,2044,1194
888,1716364706035864116,2060,2068,2132,2035,1995,2003,1193
889,1716364706045870785,2062,2043,2047,2049,2065,2030,1192
890,1716364706055860902,2050,2098,2181,2109,2037,2058,1198
891,1716364706065867221,2042,2034,2006,2046,2073,2056,1196
892,1716364706075881214,2086,2059,2046,2035,1997,2020,1192
893,1716364706085880699,2081,2079,2064,2069,2122,2056,1196
894,1716364706095863233,2053,2044,2054,2052,2020,2068,1196
895,1716364706105866846,2060,2068,2066,2069,2105,2046,1194
896,1716364706115863776,2021,2076,2161,2097,2004,2032,1193
897,1716364706125882088,2060,2027,1978,2040,2099,2064,1197
898,1716364706135861486,2040,2024,2000,2045,2020,2050,1197
899,1716364706145863817,2062,2050,2037,2045,2098,2120,1197
900,1716364706155862881,2077,2110,2193,2101,2053,2097,1196
901,1716364706165863399,2068,2060,2018,2073,2084,2041,1194
902,1716364706175869306,2059,2068,2088,2068,2024,2057,1196
903,1716364706185872028,2071,2073,2062,2069,2117,2030,1194
904,1716364706195861664,2030,2042,2086,2046,1989,2100,1195
905,1716364706205902057,2065,2047,2028,2058,2097,2184,1195
906,1716364706215859774,2092,2120,2168,2098,2027,2061,1197
907,1716364706225863437,2053,2057,2047,2047,2078,2074,1193
908,1716364706235865769,2041,2088,2149,2047,1943,2037,1192
909,1716364706245864943,2052,2029,1992,2040,2084,2053,1195
910,1716364706255860732,2050,2054,2069,2073,2072,2056,1198
911,1716364706265866169,2065,2088,2116,2078,2064,2073,1194
912,1716364706275874010,2048,2026,1929,2036,2002,2008,1194
913,1716364706285872864,2052,2030,1965,2040,2098,2060,1195
914,1716364706295861810,2034,2024,1997,2041,1999,2090,1196
915,1716364706305878928,2049,2031,2006,2056,2107,2060,1196
916,1716364706315861532,2047,2033,2001,2034,1969,2074,1193
917,1716364706325869213,2042,2035,1995,2024,2074,2028,1195
918,1716364706335861985,2064,2051,2072,2059,2008,2066,1197
919,1716364706345885647,2067,2054,2020,2028,2052,2049,1197
920,1716364706355863332,2057,2039,2016,2045,2000,1945,1194
921,1716364706365869329,2080,2094,2185,2076,2100,2104,1197
922,1716364706375864396,2037,2016,1965,2028,1960,2047,1194
923,1716364706385867309,2073,2096,2117,2106,2145,2069,1195
924,1716364706395866393,2041,2057,2075,2040,2007,2048,1197
925,1716364706405863003,2061,2061,2075,2061,2088,2104,1197
926,1716364706415863841,2036,2030,2024,2046,2022,2070,1197
927,1716364706425866052,2053,2050,2048,2053,2068,2035,1192
928,1716364706435861159,2046,2025,1968,2056,2019,2050,1195
929,1716364706445864502,2073,2088,2178,2096,2082,2102,1194
930,1716364706455864669,2036,2027,1969,2036,1978,2039,1192
931,1716364706465864925,2059,2076,2068,2077,2077,2050,1195
932,1716364706475867938,2061,2049,2035,2034,1980,2043,1194
933,1716364706485863306,2070,2068,2072,2054,2069,2040,1194
934,1716364706495864755,2039,2033,2005,2035,1993,2049,1196
935,1716364706505863499,2045,2037,2036,2026,2052,2067,1192
936,1716364706515859047,2046,2042,2040,2062,2024,2021,1194
937,1716364706525865816,2047,2037,2007,2041,2096,2091,1194
938,1716364706535862406,2052,2052,2028,2060,1984,2038,1194
939,1716364706545826364,2060,2074,2107,2078,2136,2077,1196
940,1716364706555863150,2021,2014,1887,2041,1992,2005,1193
941,1716364706565866102,2043,2049,2006,2067,2142,2088,1197
942,1716364706575864456,2060,2066,2074,2049,1995,2041,1193
943,1716364706585864933,2077,2073,2141,2092,2118,2104,1196
944,1716364706595864659,2037,2020,1976,2012,1971,2037,1194
945,1716364706605862732,2054,2050,2046,2026,2088,2046,1193
946,1716364706615863731,2072,2141,2238,2085,2034,2007,1192
947,1716364706625864108,2048,2028,2004,2037,2095,2062,1195
948,1716364706635863533,2053,2045,2000,2046,2017,2040,1196
949,1716364706645865363,2061,2052,1974,2037,2052,2003,1194
950,1716364706655864598,2059,2064,2082,2059,1971,2025,1193
951,1716364706665867510,2062,2058,2062,2084,2109,2047,1193
952,1716364706675868137,2046,2033,2040,2064,2032,2112,1196
953,1716364706685864206,2056,2039,2033,2033,2044,2052,1195
954,1716364706695865776,2041,2043,2026,2059,2009,2076,1195
955,1716364706705863719,2057,2044,2042,2044,2080,2060,1195
956,1716364706715862894,2028,2040,2121,2037,1984,2050,1199
957,1716364706725870244,2038,2029,2002,2000,2072,2053,1195
958,1716364706735863608,2069,2091,2153,2066,2005,2049,1197
959,1716364706745865398,2058,2042,2005,2049,2079,2037,1194
960,1716364706755864973,2053,2047,2047,2064,2013,2064,1196
961,1716364706765876362,2069,2077,2094,2097,2170,2047,1193
962,1716364706775866649,2026,2045,2017,2049,1999,2065,1196
963,1716364706785864362,2061,2060,2117,2061,2093,2089,1196
964,1716364706795862525,2070,2110,2203,2106,2016,2040,1192
965,1716364706805862621,2037,2066,2084,2061,2117,2068,1194
966,1716364706815861105,2049,2057,2064,2043,1984,2082,1198
967,1716364706825872453,2064,2050,2064,2056,2129,2048,1194
968,1716364706835861629,2018,2019,1994,2017,1949,2034,1192
969,1716364706845836638,2060,2034,1972,2026,2097,2080,1194
970,1716364706855864547,2038,2045,1996,2026,2040,2019,1193
971,1716364706865866467,2061,2047,2040,2063,2109,2079,1197
972,1716364706875865231,2039,2042,2017,2039,1972,2038,1192
973,1716364706885863214,2067,2082,2168,2070,2074,2054,1196
974,1716364706895863240,2044,2032,2010,2060,2017,2008,1193
975,1716364706905866433,2044,2019,1996,2056,2106,2030,1193
976,1716364706915864657,2054,2063,2123,2062,1984,1982,1195
977,1716364706925864433,2052,2053,2072,2058,2095,2047,1193
978,1716364706935862225,2066,2146,2326,2115,2029,2042,1196
979,1716364706945870086,2050,2038,2053,2052,2097,2044,1195
980,1716364706955865233,2040,2071,2090,2098,2080,2024,1193
981,1716364706965868486,2060,2045,2002,2034,2068,2050,1195
982,1716364706975864084,2029,2013,1981,2044,1976,1953,1192
983,1716364706985867237,2062,2042,2010,2050,2084,2078,1197
984,1716364706995862414,2046,2021,1948,2015,1958,1994,1193
985,1716364707005864825,2059,2038,2013,2068,2124,2068,1195
986,1716364707015864882,2057,2091,2162,2062,2014,2074,1197
987,1716364707025866551,2055,2040,2037,2057,2126,2153,1194
988,1716364707035863622,2060,2076,2131,2072,2033,2108,1196
989,1716364707045864511,2058,2056,2060,2057,2102,2069,1194
990,1716364707055866851,2048,2044,2004,2050,2042,2051,1194
991,1716364707065879832,2062,2065,2089,2045,2084,2064,1197
992,1716364707075867115,2051,2053,2073,2047,2000,2060,1196
993,1716364707085868624,2056,2043,2030,2040,2056,2064,1194
994,1716364707095861587,2100,2172,2257,2124,2044,2058,1193
995,1716364707105867304,2041,2031,1996,2041,2101,2094,1195
996,1716364707115860519,2047,2040,2005,2037,2003,2068,1197
997,1716364707125863680,2068,2123,2198,2069,2136,2061,1197
998,1716364707135860992,2048,2015,1959,2024,1980,2027,1194
999,1716364707145861169,2054,2036,2023,2039,2083,2041,1194
1000,1716364707155862217,2070,2112,2238,2106,2015,2001,1193
1001,1716364707165860751,2054,2037,2010,2058,2086,2056,1195
1002,1716364707175867420,2065,2054,2049,2071,2007,2118,1196
1003,1716364707185863028,2069,2065,2072,2074,2140,2072,1197
1004,1716364707195860650,2061,2052,2033,2051,1949,2042,1192
1005,1716364707205870495,2071,2073,2095,2082,2130,2139,1198
1006,1716364707215873819,2037,2015,1964,2047,1981,2029,1193
1007,1716364707225866791,2056,2040,2015,2056,2102,2068,1193
1008,1716364707235864013,2036,2100,2274,2081,1982,2002,1190
1009,1716364707245865853,2042,2046,2064,2066,2096,2040,1194
1010,1716364707255860419,2062,2079,2053,2073,2008,2033,1192
1011,1716364707265864453,2060,2045,2054,2043,2091,2116,1197
1012,1716364707275886411,2070,2091,2249,2128,2024,2039,1192
1013,1716364707285862522,2054,2036,2000,2032,2101,2028,1195
1014,1716364707295862448,2062,2079,2101,2054,2005,1964,1193
1015,1716364707305865811,2049,2051,2030,2052,2020,2034,1192
1016,1716364707315860208,2048,2046,2066,2061,2036,2053,1197
1017,1716364707325869060,2069,2053,2030,2053,2100,2064,1196
1018,1716364707335861463,2069,2061,2083,2053,2011,2013,1195
1019,1716364707345901706,2073,2036,1997,2035,2117,2090,1196
1020,1716364707355866365,2038,2041,2020,2054,1984,2039,1193
1021,1716364707365876010,2041,2048,2104,2029,2124,2089,1196
1022,1716364707375875836,2048,2044,2062,2019,1977,2033,1193
1023,1716364707385859401,2056,2058,2048,2068,2119,2060,1196
1024,1716364707395864537,2058,2052,2087,2058,2016,2069,1197
1025,1716364707405862540,2041,2024,1996,2062,2108,2056,1196
1026,1716364707415862736,2058,2053,2045,2043,1981,2043,1193
1027,1716364707425873333,2050,2046,2056,2049,2084,2112,1192
1028,1716364707435862019,2059,2047,2033,2053,2020,2042,1193
1029,1716364707445866464,2049,2043,2034,2051,2114,2044,1193
1030,1716364707455864426,2084,2127,2277,2090,2019,2084,1194
1031,1716364707465864683,2056,2038,2025,2047,2079,2056,1193
1032,1716364707475869839,2057,2056,2070,2048,1989,2035,1192
1033,1716364707485863604,2078,2078,2072,2069,2114,2061,1196
1034,1716364707495863219,2064,2073,2114,2047,2000,2031,1193
1035,1716364707505863567,2056,2045,2024,2053,2084,2074,1197
1036,1716364707515860908,2048,2059,2046,2063,1988,2076,1196
1037,1716364707525896893,2044,2046,2013,2022,2078,2065,1197
1038,1716364707535861803,2055,2049,2025,2045,1978,2036,1194
1039,1716364707545865707,2062,2114,2218,2088,2083,2008,1196
1040,1716364707555865683,2046,2044,2053,2052,1999,2032,1192
1041,1716364707565869988,2046,2034,1968,2058,2108,2101,1195
1042,1716364707575863883,2044,2016,1945,2030,1980,2037,1194
1043,1716364707585882915,2058,2028,1966,2052,2080,2060,1196
1044,1716364707595863014,2047,2036,2014,2089,2066,2044,1192
1045,1716364707605862890,2052,2038,1985,2058,2112,2049,1196
1046,1716364707615863438,2061,2077,2100,2049,1992,2044,1192
1047,1716364707625866239,2061,2070,2118,2064,2096,2164,1195
1048,1716364707635863902,2057,2063,2044,2050,1994,2065,1196
1049,1716364707645864971,2052,2044,2038,2051,2099,2047,1193
1050,1716364707655864847,2040,2080,2120,2076,2008,2089,1196
1051,1716364707665864973,2052,2029,2000,2062,2112,2038,1193
1052,1716364707675865441,2054,2056,2068,2057,1998,2045,1193
1053,1716364707685865888,2073,2072,2096,2073,2107,2088,1196
1054,1716364707695867016,2045,2040,2043,2049,1994,2057,1196
1055,1716364707705866632,2056,2042,2019,2056,2096,1982,1193
1056,1716364707715876377,2049,2032,2015,2034,2003,2056,1195
1057,1716364707725884890,2046,2037,2013,2038,2102,2014,1193
1058,1716364707735868816,2057,2056,2065,2034,2005,2041,1196
1059,1716364707745868632,2056,2054,2053,2056,2088,2050,1196
1060,1716364707755868819,2049,2069,2032,2060,2020,2128,1198
1061,1716364707765868926,2034,2013,1942,2007,2065,2064,1196
1062,1716364707775868712,2062,2061,2052,2044,1994,2041,1194
1063,1716364707785869449,2054,2052,2053,2057,2105,2076,1195
1064,1716364707795869646,2032,2017,1983,2047,2032,2025,1193
1065,1716364707805870374,2031,2016,1962,2086,2128,2052,1196
1066,1716364707815870000,2050,2042,2008,2037,1965,2027,1192
1067,1716364707825872571,2037,2048,2069,2063,2101,2067,1193
1068,1716364707835872728,2035,2019,1996,2036,2030,1972,1192
1069,1716364707845872263,2089,2100,2154,2064,2160,2140,1196
1070,1716364707855871709,2052,2052,2048,2060,2028,2063,1198
1071,1716364707865872557,2092,2200,2516,2135,2114,2105,1196
1072,1716364707875874598,2044,2029,2008,2037,2013,2076,1195
1073,1716364707885875055,2070,2095,2196,2087,2092,2056,1195
1074,1716364707895875192,2052,2056,2045,2042,1989,2033,1193
1075,1716364707905845412,2043,2042,2050,2042,2123,2043,1192
1076,1716364707915875515,2056,2057,2045,2053,2000,2047,1193
1077,1716364707925875922,2029,2033,2003,2070,2126,2066,1196
1078,1716364707935882001,2038,2034,2004,2070,2024,2040,1195
1079,1716364707945882598,2052,2047,2014,2051,2104,2064,1195
1080,1716364707955874710,2048,2045,2012,2045,1998,1912,1194
1081,1716364707965860059,2059,2059,2058,2062,2113,2067,1195
1082,1716364707975877558,2044,2046,2036,2047,1984,2014,1193
1083,1716364707985862576,2053,2071,2122,2050,2098,2050,1196
1084,1716364707995878563,2051,2040,2020,2028,1993,2036,1193
1085,1716364708005862369,2049,2025,1972,2043,2110,2067,1196
1086,1716364708015879247,2052,2050,2004,2064,2056,2084,1196
1087,1716364708025862121,2064,2053,2044,2065,2116,2084,1195
1088,1716364708035862449,2029,2027,2031,2037,1954,2024,1193
1089,1716364708045888354,2056,2036,2026,2042,2078,2052,1195
1090,1716364708055863533,2046,2058,2112,2045,1984,2049,1197
1091,1716364708065864402,2046,2032,2010,2027,2101,2040,1195
1092,1716364708075863436,2038,2036,2009,2050,1993,2029,1192
1093,1716364708085863182,2058,2032,2011,2052,2115,2081,1197
1094,1716364708095863068,2049,2036,1936,2037,1994,2029,1194
1095,1716364708105859889,2067,2061,2006,2047,2088,2053,1197
1096,1716364708115864864,2051,2051,2066,2054,1984,1910,1193
1097,1716364708125860202,2048,2040,2045,2051,2080,2002,1193
1098,1716364708135863445,2105,2208,2526,2158,2042,2140,1198
1099,1716364708145866508,2061,2053,2048,2049,2099,2061,1197
1100,1716364708155866093,2052,2050,2046,2056,2000,2029,1194
1101,1716364708165861261,2056,2029,1991,2032,2106,2166,1196
1102,1716364708175866297,2050,2076,2045,2070,2040,2058,1197
1103,1716364708185862987,2060,2063,2065,2039,2096,2061,1196
1104,1716364708195862031,2056,2052,2039,2045,2009,2040,1193
1105,1716364708205863841,2056,2036,2050,2058,2073,2085,1197
1106,1716364708215864349,2048,2025,1966,1997,1946,2032,1193
1107,1716364708225860758,2064,2071,2153,2069,2090,1952,1192
1108,1716364708235864482,2051,2034,1979,2034,1975,2072,1198
1109,1716364708245863547,2057,2056,2038,2060,2093,2056,1194
1110,1716364708255865166,2048,2061,2074,2051,1990,2031,1194
1111,1716364708265863309,2049,2031,2027,2022,2097,2061,1194
1112,1716364708275863386,2042,2034,1986,2050,2008,2106,1195
1113,1716364708285866208,2088,2130,2222,2112,2152,2088,1194
1114,1716364708295874540,2048,2037,1999,2048,2000,2037,1192
1115,1716364708305860189,2064,2064,2109,2057,2090,2088,1196
1116,1716364708315861759,2050,2045,2021,2048,2006,2041,1192
1117,1716364708325865713,2052,2050,2046,2051,2097,2102,1197
1118,1716364708335863105,2051,2048,2049,2041,1994,2045,1195
1119,1716364708345863452,2054,2030,1971,2041,2084,2066,1196
1120,1716364708355874800,2068,2073,2071,2049,1987,2090,1196
1121,1716364708365860439,2053,2040,2035,2031,2099,2060,1196
1122,1716364708375864303,2057,2078,2122,2049,1983,2033,1195
1123,1716364708385862556,2041,2026,1983,2036,2086,2008,1193
1124,1716364708395895915,2034,2056,2047,2040,1988,2028,1193
1125,1716364708405858771,2045,2044,2040,2074,2140,2062,1197
1126,1716364708415865591,2064,2042,2012,2052,1991,2041,1193
1127,1716364708425864135,2059,2065,2095,2073,2061,1955,1193
1128,1716364708435906001,2054,2041,2027,2035,2002,2047,1193
1129,1716364708445861543,2051,2058,2100,2060,2097,2064,1196
1130,1716364708455861169,2041,2040,2028,2058,1969,2001,1192
1131,1716364708465868449,2059,2063,2046,2066,2130,2070,1196
1132,1716364708475861712,2052,2094,2169,2062,1992,2040,1195
1133,1716364708485882509,2060,2041,2028,2049,2094,2072,1197
1134,1716364708495866574,2058,2046,2016,2048,1999,2042,1196
1135,1716364708505869006,2045,2042,2022,2071,2123,2007,1194
1136,1716364708515873571,2045,2053,2058,2043,2003,2053,1196
1137,1716364708525864771,2059,2060,2049,2061,2106,2065,1197
1138,1716364708535869216,2045,2034,1990,2061,2033,2056,1197
1139,1716364708545863872,2058,2028,1957,2056,2139,2088,1195
1140,1716364708555866634,2051,2036,2004,2054,1994,1999,1192
1141,1716364708565864807,2041,2041,2032,2029,2098,2088,1194
1142,1716364708575880513,2062,2067,2064,2054,1973,2058,1196
1143,1716364708585873526,2056,2051,2037,2064,2123,2096,1196
1144,1716364708595867312,2039,2057,2044,2044,2047,2083,1197
1145,1716364708605869682,2058,2037,2016,2020,2063,2046,1196
1146,1716364708615866803,2064,2050,2030,2053,1990,2042,1193
1147,1716364708625867892,2059,2068,2108,2058,2072,2088,1195
1148,1716364708635867117,2070,2100,2124,2070,2003,2060,1196
1149,1716364708645878304,2061,2069,2086,2075,2138,2076,1197
1150,1716364708655864174,2060,2048,2060,2050,1974,1966,1193
1151,1716364708665866676,2055,2046,2049,2047,2114,2049,1197
1152,1716364708675872813,2066,2069,2047,2011,1982,2082,1196
1153,1716364708685879933,2054,2051,2096,2052,2088,2073,1197
1154,1716364708695872937,2043,2056,2057,2046,1995,2029,1194
1155,1716364708705865890,2057,2049,2022,2039,2096,2068,1196
1156,1716364708715888469,2048,2048,2042,2072,2012,1919,1192
1157,1716364708725864190,2059,2054,2046,2058,2097,2084,1198
1158,1716364708735865499,2056,2044,2054,2047,2005,2038,1193
1159,1716364708745884030,2063,2064,2032,2058,2093,2066,1197
1160,1716364708755868096,2047,2056,2073,2032,2017,2034,1194
1161,1716364708765870918,2076,2145,2315,2121,2140,2176,1196
1162,1716364708775879370,2037,2011,1972,2043,2014,2060,1195
1163,1716364708785874799,2058,2050,2064,2064,2129,2068,1195
1164,1716364708795877250,2058,2066,2130,2062,1979,2020,1195
1165,1716364708805860976,2052,2056,2077,2061,2099,2057,1197
1166,1716364708815860251,2050,2046,2040,2027,1994,2019,1194
1167,1716364708825862792,2044,2024,1988,2034,2084,2035,1190
1168,1716364708835863720,2037,2081,2091,2065,2010,2082,1196
1169,1716364708845881701,2058,2044,2030,2039,2084,1949,1194
1170,1716364708855866999,2060,2089,2107,2090,2052,2066,1196
1171,1716364708865872106,2068,2064,2088,2031,2077,2046,1193
1172,1716364708875867414,2056,2046,2041,2035,2013,2038,1191
1173,1716364708885861588,2047,2045,2046,2065,2114,2085,1196
1174,1716364708895877405,2072,2068,2107,2062,1984,2036,1192
1175,1716364708905856602,2071,2085,2114,2072,2102,2065,1198
1176,1716364708915863772,2053,2036,2010,2037,1989,2032,1193
1177,1716364708925861535,2061,2066,2088,2067,2096,2017,1194
1178,1716364708935863885,2064,2052,2042,2054,1998,2057,1197
1179,1716364708945881856,2056,2048,2008,2063,2080,2059,1197
1180,1716364708955869088,2042,2052,2099,2066,2014,2047,1193
1181,1716364708965868203,2050,2037,1996,2046,2112,2102,1197
1182,1716364708975865906,2056,2047,2028,2051,2026,2049,1195
1183,1716364708985859088,2057,2053,2014,2047,2089,2060,1196
1184,1716364708995863283,2052,2058,2083,2072,2024,2084,1195
1185,1716364709005880122,2075,2080,2113,2088,2130,2104,1196
1186,1716364709015862405,2057,2047,2013,2045,1997,2042,1192
1187,1716364709025859846,2057,2048,2040,2064,2124,2064,1193
1188,1716364709035860303,2054,2062,2053,2064,1997,2044,1190
1189,1716364709045883063,2052,2043,2018,2050,2120,2053,1197
1190,1716364709055862711,2049,2054,2064,2049,2006,2030,1193
1191,1716364709065867807,2056,2047,2064,2060,2104,2035,1194
1192,1716364709075864027,2058,2053,2029,2048,2010,2048,1196
1193,1716364709085861439,2049,2043,2036,2052,2095,1994,1193
1194,1716364709095875431,2053,2057,2028,2053,2030,2057,1196
1195,1716364709105864237,2060,2046,2054,2055,2114,2033,1193
1196,1716364709115863892,2056,2100,2184,2069,2015,2013,1194
1197,1716364709125866163,2030,2036,2020,2047,2097,2052,1195
1198,1716364709135866290,2064,2062,2064,2059,1941,2029,1194
1199,1716364709145878960,2058,2049,2052,2064,2108,2059,1196
1200,1716364709155867776,2057,2032,1966,2044,2027,2015,1193
1201,1716364709165864577,2029,2027,1962,2035,2084,2038,1194
1202,1716364709175864853,2052,2045,2043,2047,1994,2033,1194
1203,1716364709185864720,2054,2056,2072,2037,2120,2033,1195
1204,1716364709195866079,2070,2071,2061,2060,2014,2043,1192
1205,1716364709205864492,2068,2056,2051,2055,2148,2063,1196
1206,1716364709215866282,2079,2121,2216,2085,2008,2037,1193
1207,1716364709225862531,2054,2024,1973,2022,2077,2056,1195
1208,1716364709235867247,2056,2052,1993,2057,2007,2032,1193
1209,1716364709245872643,2064,2041,2031,2043,2101,2080,1195
1210,1716364709255894592,2028,2034,2024,2053,2018,2015,1194
1211,1716364709265870443,2060,2040,2020,2078,2136,2061,1196
1212,1716364709275868075,2060,2069,2095,2068,2010,2053,1196
1213,1716364709285871047,2050,2046,2068,2077,2137,2074,1197
1214,1716364709295889077,2052,2078,2132,2080,2036,1997,1194
1215,1716364709305871530,2079,2098,2146,2092,2122,2053,1196
1216,1716364709315869823,2058,2049,2030,2048,2015,2058,1198
1217,1716364709325895879,2052,2045,2017,2053,2104,2058,1198
1218,1716364709335873945,2041,2068,2042,2076,2068,2104,1197
1219,1716364709345870254,2054,2056,2062,2079,2120,2100,1195
1220,1716364709355872485,2056,2058,2093,2049,2027,2109,1195
1221,1716364709365875196,2069,2057,2055,2041,2104,2100,1198
1222,1716364709375895812,2064,2073,2122,2072,2029,2046,1193
1223,1716364709385870580,2056,2049,2030,2041,2065,2069,1197
1224,1716364709395858474,2056,2065,2059,2073,2040,2075,1196
1225,1716364709405858040,2051,2037,2022,2064,2097,2044,1194
1226,1716364709415873787,2052,2049,2048,2038,2001,2011,1194
1227,1716364709425905473,2051,2060,2052,2062,2096,2073,1194
1228,1716364709435881825,2056,2056,2079,2060,2008,2056,1195
1229,1716364709445861503,2046,2045,2057,2036,2065,1929,1192
1230,1716364709455861840,2061,2064,2101,2056,2034,2066,1197
1231,1716364709465881974,2062,2063,2059,2043,2067,2084,1195
1232,1716364709475872913,2033,2033,2010,2058,2012,2118,1198
1233,1716364709485864524,2054,2070,2146,2045,2093,2061,1197
1234,1716364709495884820,2048,2047,2059,2047,2008,1939,1193
1235,1716364709505876780,2060,2072,2098,2095,2134,2075,1197
1236,1716364709515862199,2053,2059,2096,2061,2034,2056,1197
1237,1716364709525861916,2058,2057,2068,2078,2110,2069,1196
1238,1716364709535863535,2065,2066,2052,2021,1972,2027,1195
1239,1716364709545871136,2050,2022,1992,2036,2113,2064,1197
1240,1716364709555861414,2056,2051,2038,2041,2018,2040,1193
1241,1716364709565865438,2038,2046,2029,2059,2098,2061,1197
1242,1716364709575863009,2057,2034,1993,2035,1967,1968,1195
1243,1716364709585860151,2066,2050,2073,2062,2090,2064,1197
1244,1716364709595863965,2055,2042,1997,2042,2016,2084,1196
1245,1716364709605863410,2050,2042,2014,2024,2087,2075,1197
1246,1716364709615861723,2069,2062,2068,2066,2032,2025,1192
1247,1716364709625861890,2040,2047,2090,2047,2072,2034,1191
1248,1716364709635867337,2041,2042,2048,2046,2002,2049,1197
1249,1716364709645868045,2053,2030,2011,2045,2089,2044,1193
1250,1716364709655865266,2055,2056,2074,2052,1960,2030,1194
1251,1716364709665868358,2056,2057,2066,2036,2104,2084,1197
1252,1716364709675865851,2054,2043,2031,2052,2035,2068,1195
1253,1716364709685861889,2047,2042,2047,2042,2048,2060,1195
1254,1716364709695876814,2053,2045,2042,2037,1976,2001,1194
1255,1716364709705865579,2054,2056,2051,2074,2121,2083,1196
1256,1716364709715857480,2047,2058,2089,2077,2025,2024,1192
1257,1716364709725872686,2053,2050,2028,2064,2147,2076,1197
1258,1716364709735865979,2048,2049,2024,2065,2046,2049,1197
1259,1716364709745863171,2053,2045,2038,2049,2095,2045,1195
1260,1716364709755864630,2068,2066,2052,2065,2008,2079,1197
1261,1716364709765864256,2049,2047,2067,2058,2091,2072,1200
1262,1716364709775871266,2052,2048,2029,2040,2006,2098,1196
1263,1716364709785864630,2066,2058,2049,2017,2045,2113,1197
1264,1716364709795873453,2047,2046,2044,2040,1953,2014,1196
1265,1716364709805866306,2046,2036,2056,2040,2080,2074,1195
1266,1716364709815867064,2056,2044,2032,2042,1970,2039,1193
1267,1716364709825864786,2053,2050,2035,2054,2084,2050,1196
1268,1716364709835869942,2057,2068,2082,2078,2021,2078,1197
1269,1716364709845869628,2060,2059,2065,2037,2101,2055,1197
1270,1716364709855867761,2055,2057,2064,2050,1996,2020,1195
1271,1716364709865862979,2056,2048,2036,2057,2096,2062,1195
1272,1716364709875865850,2062,2088,2163,2032,1985,1990,1193
1273,1716364709885864514,2062,2059,2046,2069,2126,2049,1196
1274,1716364709895864000,2050,2047,2047,2052,2008,2042,1192
1275,1716364709905864798,2054,2055,2068,2050,2087,2060,1194
1276,1716364709915865576,2064,2085,2077,2074,1992,2067,1196
1277,1716364709925862296,2048,2040,2032,2050,2088,2065,1195
1278,1716364709935873334,2056,2050,2040,2049,2002,2042,1194
1279,1716364709945870404,2058,2047,2037,2048,2094,2061,1198
1280,1716364709955870972,2056,2053,2025,2056,2011,2025,1195
1281,1716364709965862092,2062,2054,2037,2049,2056,2008,1194
1282,1716364709975867138,2052,2052,2048,2047,1981,2037,1195
1283,1716364709985867545,2065,2072,2106,2065,2101,2065,1196
1284,1716364709995865648,2059,2052,2036,2048,2013,2035,1196
1285,1716364710005862759,2047,2042,2033,2040,2090,2088,1197
1286,1716364710015865931,2057,2048,2032,2050,2004,2037,1194
1287,1716364710025864024,2046,2034,2012,2058,2104,2067,1194
1288,1716364710035867307,2056,2047,2021,2048,1989,2041,1193
1289,1716364710045869899,2051,2074,2106,2076,2107,2066,1196
1290,1716364710055865447,2042,2075,2121,2064,1993,2014,1192
1291,1716364710065863109,2050,2034,2019,1988,2081,2045,1194
1292,1716364710075871401,2053,2051,2026,2062,2012,2032,1191
1293,1716364710085863282,2057,2050,2044,2056,2083,2057,1195
1294,1716364710095866645,2051,2045,2036,2045,2017,2033,1193
1295,1716364710105862303,2060,2048,2052,2039,2061,2060,1196
1296,1716364710115864454,2036,2026,1967,2015,1956,2028,1193
1297,1716364710125862667,2067,2051,2023,2025,2053,2056,1194
1298,1716364710135865810,2045,2051,2040,2037,2000,2058,1198
1299,1716364710145866417,2062,2063,2072,2068,2132,2103,1196
1300,1716364710155870010,2060,2054,2053,2053,2006,2056,1197
1301,1716364710165884555,2032,2024,1955,2038,2088,2050,1197
1302,1716364710175866897,2045,2044,2053,2038,1974,2098,1197
1303,1716364710185864810,2052,2041,2033,2059,2109,2064,1196
1304,1716364710195864767,2065,2053,2042,2050,2018,2034,1196
1305,1716364710205883028,2052,2075,2211,2057,2085,2054,1197
1306,1716364710215865882,2056,2040,1999,2041,1996,2046,1194
1307,1716364710225861690,2055,2055,2074,2064,2118,2069,1194
1308,1716364710235870052,2064,2052,2029,2068,2030,2040,1193
1309,1716364710245867023,2054,2072,2133,2044,2080,2056,1197
1310,1716364710255892197,2056,2064,2080,2067,2025,2048,1196
1311,1716364710265866435,2056,2066,2080,2071,2137,2103,1196
1312,1716364710275869247,2052,2057,2082,2049,2024,2021,1194
1313,1716364710285863473,2053,2044,2042,2045,2090,2067,1197
1314,1716364710295863429,2058,2044,2039,2050,1995,2034,1193
1315,1716364710305862113,2064,2068,2105,2041,2056,2061,1198
1316,1716364710315861699,2048,2045,2010,2029,1974,2072,1195
1317,1716364710325864611,2042,2032,1981,2048,2089,2051,1198
1318,1716364710335868675,2061,2084,2100,2088,2001,2040,1194
1319,1716364710345868842,2056,2044,2000,2065,2082,2058,1196
1320,1716364710355866103,2052,2052,2017,2050,1998,2030,1195
1321,1716364710365873474,2061,2068,2125,2076,2090,2056,1196
1322,1716364710375868982,2056,2053,2036,2068,2030,2049,1198
1323,1716364710385862566,2052,2057,2061,2064,2092,2062,1198
1324,1716364710395865077,2056,2059,2072,2061,2020,2052,1194
1325,1716364710405862659,2047,2031,1990,2050,2075,2041,1194
1326,1716364710415869929,2051,2036,1987,2046,2009,2085,1198
1327,1716364710425862462,2056,2060,2042,2060,2091,2058,1193
1328,1716364710435867398,2051,2049,2047,2057,2005,2035,1193
1329,1716364710445866904,2036,2040,2077,2046,2090,2043,1195
1330,1716364710455894322,2057,2047,2037,2058,2016,2068,1196
1331,1716364710465865664,2041,2031,2027,2069,2113,2074,1196
1332,1716364710475866232,2052,2061,2060,2059,1981,2033,1193
1333,1716364710485866058,2056,2037,2026,2016,2051,2058,1196
1334,1716364710495871534,2047,2055,2100,2058,1970,2038,1193
1335,1716364710505864217,2049,2037,2011,2040,2092,2065,1198
1336,1716364710515861679,2052,2080,2200,2068,2019,2047,1196
1337,1716364710525868278,2068,2080,2141,2056,2076,2075,1197
1338,1716364710535865489,2057,2076,2134,2057,2031,2010,1196
1339,1716364710545868712,2057,2076,2120,2073,2116,2078,1196
1340,1716364710555863839,2076,2075,2110,2046,2008,2043,1194
1341,1716364710566024249,2044,2028,1992,2052,2108,2061,1197
1342,1716364710575864152,2050,2045,2020,2041,2005,2024,1193
1343,1716364710585867385,2054,2047,2037,2045,2081,2060,1195
1344,1716364710595863114,2054,2052,2043,2051,2010,2032,1192
1345,1716364710605868751,2060,2064,2080,2064,2096,2075,1196
1346,1716364710615869910,2060,2052,2024,2054,2027,2044,1193
1347,1716364710625868914,2039,2042,1997,2017,2056,2097,1196
1348,1716364710635879902,2056,2050,2052,2053,1988,2029,1194
1349,1716364710645869699,2045,2041,2064,2062,2092,2051,1195
1350,1716364710655883822,2036,2043,2058,2056,2013,2034,1193
1351,1716364710665865724,2039,2033,2026,2057,2092,2057,1196
1352,1716364710675863547,2053,2047,2051,2061,2022,2061,1197
1353,1716364710685867340,2054,2032,1992,2072,2133,2046,1193
1354,1716364710695864341,2051,2042,2016,2061,2014,2048,1195
1355,1716364710705864318,2051,2042,2024,2061,2114,2065,1196
1356,1716364710715835610,2046,2037,1997,2053,2048,2048,1197
1357,1716364710725868248,2044,2052,2009,2055,2077,2056,1196
1358,1716364710735867794,2051,2047,2010,2046,2003,2033,1194
1359,1716364710745866788,2064,2048,2073,2053,2095,2096,1198
1360,1716364710755867126,2058,2053,2054,2052,1988,2049,1198
1361,1716364710765873053,2057,2056,2072,2029,2050,2066,1195
1362,1716364710775866417,2076,2060,2077,2054,2013,2074,1195
1363,1716364710785866885,2042,2033,1990,2049,2124,2072,1199
1364,1716364710795865769,2056,2052,2030,2052,2011,2047,1193
1365,1716364710805869172,2058,2053,2052,2046,2087,2054,1197
1366,1716364710815864680,2068,2058,2085,2066,2024,2060,1196
1367,1716364710825870067,2053,2049,2047,2060,2101,2069,1194
1368,1716364710835865866,2050,2073,2084,2072,2038,2042,1192
1369,1716364710845872234,2052,2044,2024,2074,2125,2052,1195
1370,1716364710855863324,2048,2053,2044,2072,2040,2034,1192
1371,1716364710865863350,2054,2050,2026,2060,2073,2060,1196
1372,1716364710875863968,2048,2051,2068,2064,2028,2037,1194
1373,1716364710885869094,2052,2048,2042,2064,2088,2050,1195
1374,1716364710895884379,2059,2053,2006,2064,2006,2031,1194
1375,1716364710905867203,2058,2060,2094,2054,2067,2036,1194
1376,1716364710915865096,2064,2041,2040,2050,2000,2033,1197
1377,1716364710925862768,2037,2046,2140,2074,2111,2056,1197
1378,1716364710935868185,2046,2043,2015,2026,2001,2042,1194
1379,1716364710945868542,2053,2043,2034,2044,2075,2044,1195
1380,1716364710955866405,2068,2079,2096,2036,2004,2037,1193
1381,1716364710965874316,2049,2049,2052,2063,2104,2067,1198
1382,1716364710975860416,2051,2057,2104,2060,2009,2001,1194
1383,1716364710985864581,2054,2056,2117,2064,2114,2074,1196
1384,1716364710995862734,2058,2052,2053,2040,2002,2029,1193
1385,1716364711005870765,2059,2040,2015,2014,2062,2070,1197
1386,1716364711015873677,2046,2057,2079,2083,2041,2043,1192
1387,1716364711025861581,2046,2037,2009,2056,2097,2054,1193
1388,1716364711035866507,2042,2047,2043,2022,1956,2024,1194
1389,1716364711045869419,2056,2050,2037,2056,2097,2085,1196
1390,1716364711055866800,2050,2036,1992,2057,2051,2109,1196
1391,1716364711065867228,2057,2061,2081,2053,2078,2054,1196
1392,1716364711075868387,2051,2056,2057,2050,1989,2041,1193
1393,1716364711085864746,2049,2041,2054,2053,2094,2072,1196
1394,1716364711095866386,2062,2058,2050,2068,2060,2058,1196
1395,1716364711105865451,2047,2043,2044,2075,2113,2077,1197
1396,1716364711115865988,2056,2054,2045,2052,2026,2061,1196
1397,1716364711125866786,2056,2062,2152,2078,2132,2061,1196
1398,1716364711135867744,2052,2047,2056,2046,2013,2038,1194
1399,1716364711145867500,2058,2061,2102,2040,2050,2053,1198
1400,1716364711155867527,2058,2060,2104,2093,2041,2025,1193
1401,1716364711165868235,2031,2037,2037,2060,2084,2062,1194
1402,1716364711175868442,2056,2053,2052,2085,2066,2056,1195
1403,1716364711185868799,2061,2058,2081,2085,2159,2045,1195
1404,1716364711195868575,2049,2046,2052,2052,2000,2030,1193
1405,1716364711205868492,2056,2061,2098,2069,2114,2072,1196
1406,1716364711215873176,2057,2049,2041,2046,2022,2045,1192
1407,1716364711225869566,2049,2042,2013,2043,2088,2068,1193
1408,1716364711235869784,2055,2053,2024,2048,2009,2058,1195
1409,1716364711245870391,2058,2031,1993,2037,2153,2072,1196
1410,1716364711255870007,2058,2058,2024,2050,2031,2043,1194
1411,1716364711265890552,2064,2085,2209,2088,2126,2064,1195
1412,1716364711275872094,2050,2041,2028,2067,2044,2048,1197
1413,1716364711285872672,2053,2065,2078,2047,2085,2068,1196
1414,1716364711295872377,2046,2051,2065,2083,2048,2053,1196
1415,1716364711305873005,2058,2058,2066,2065,2084,2056,1194
1416,1716364711315873523,2036,2046,2066,2052,1976,2045,1197
1417,1716364711325884200,2085,2084,2139,2063,2086,2101,1197
1418,1716364711335874207,2061,2076,2116,2072,2018,2045,1194
1419,1716364711345874464,2051,2043,2028,2048,2060,2064,1196
1420,1716364711355874270,2039,2060,2080,2031,2008,2033,1195
1421,1716364711365877523,2056,2047,2035,2042,2077,2064,1196
1422,1716364711375875686,2043,2042,2002,2062,2004,2029,1193
1423,1716364711385875933,2056,2042,2051,2054,2089,2083,1196
1424,1716364711395876040,2049,2066,2112,2072,2021,2050,1196
1425,1716364711405876517,2067,2065,2089,2073,2107,2060,1197
1426,1716364711415880090,2035,2040,2024,2063,2024,2038,1193
1427,1716364711425877301,2057,2044,2058,2032,2091,2073,1193
1428,1716364711435877749,2058,2064,2078,2067,2044,2021,1192
1429,1716364711445877816,2058,2096,2160,2075,2088,2080,1194
1430,1716364711455884625,2060,2062,1994,2071,2054,2049,1195
1431,1716364711465880083,2056,2058,2072,2049,2061,2042,1194
1432,1716364711475861615,2052,2049,2077,2060,1996,2002,1194
1433,1716364711485863455,2044,2049,2051,2073,2174,2060,1197
1434,1716364711495915900,2057,2066,2096,2060,2020,2020,1194
1435,1716364711505863848,2047,2035,2004,2044,2062,2056,1195
1436,1716364711515862692,2049,2039,2011,2054,2013,2033,1194
1437,1716364711525864382,2052,2048,2057,2078,2106,2068,1198
1438,1716364711535863648,2051,2056,2069,2063,2032,2030,1193
1439,1716364711545866410,2046,2056,2099,2078,2148,2068,1197
1440,1716364711555864171,2052,2041,2009,2041,2019,2029,1194
1441,1716364711565865671,2049,2041,2017,2015,2078,2072,1197
1442,1716364711575867340,2056,2080,2073,2039,2035,2009,1194
1443,1716364711585865944,2062,2078,2116,2075,2092,2088,1194
1444,1716364711595865830,2046,2042,2056,2034,2004,2020,1194
1445,1716364711605866769,2040,2058,2074,2064,2098,2058,1194
1446,1716364711615865353,2068,2056,2058,2032,1940,2052,1194
1447,1716364711625865640,2064,2049,2049,2040,1987,2037,1192
1448,1716364711635867931,2047,2072,2099,2076,2082,2037,1194
1449,1716364711645865813,2059,2104,2201,2085,2121,2020,1193
1450,1716364711655864467,2069,2138,2225,2096,2052,1981,1191
1451,1716364711665866688,2060,2042,2015,2062,2120,2069,1196
1452,1716364711675866564,2046,2053,2041,2055,2015,2061,1193
1453,1716364711685866190,2074,2082,2178,2079,2092,2064,1196
1454,1716364711695865075,2053,2036,2008,2084,2076,2062,1196
1455,1716364711705870812,2064,2112,2249,2092,2101,1993,1191
1456,1716364711715866631,2064,2066,2104,2064,2025,2056,1194
1457,1716364711725865805,2069,2078,2079,2064,2090,2072,1197
1458,1716364711735864048,2062,2043,2017,2051,2010,2030,1196
1459,1716364711745868524,2088,2088,2092,2064,2085,2096,1197
1460,1716364711755864692,2064,2054,2050,2054,2003,2043,1194
1461,1716364711765868767,2059,2048,2018,2046,2073,2020,1195
1462,1716364711775869525,2057,2054,2026,2075,2078,1949,1194
1463,1716364711785865234,2056,2051,2042,2053,2085,2066,1196
1464,1716364711795865841,2038,2048,2078,2050,2002,2046,1193
1465,1716364711805866218,2056,2042,2033,2058,2086,2060,1195
1466,1716364711815864902,2053,2041,2025,2048,2009,2047,1194
1467,1716364711825870610,2048,2053,2016,2021,2021,2053,1194
1468,1716364711835864645,2049,2045,2045,2052,2019,2057,1195
1469,1716364711845869871,2053,2049,2068,2052,2077,2080,1196
1470,1716364711855865550,2054,2047,2061,2053,2013,2047,1192
1471,1716364711865932243,2051,2064,2060,2061,2100,2105,1194
1472,1716364711875878437,2051,2050,2052,2048,2002,2020,1193
1473,1716364711885863966,2061,2053,2056,2056,2084,2061,1197
1474,1716364711895864704,2053,2043,2040,2058,2017,2056,1195
1475,1716364711905864821,2051,2037,2018,2030,2095,2037,1192
1476,1716364711915935762,2058,2052,2041,2056,1990,2096,1196
1477,1716364711925866296,2060,2049,2019,2049,2080,2056,1196
1478,1716364711935865983,2065,2072,2104,2077,2045,2057,1196
1479,1716364711945866701,2049,2040,2012,2048,2069,2060,1198
1480,1716364711955867108,2036,2060,2072,2045,1972,2038,1194
1481,1716364711965867084,2061,2044,2062,2073,2093,2068,1197
1482,1716364711975866750,2050,2049,2077,2050,2004,2040,1195
1483,1716364711985861827,2054,2053,2053,2057,2083,2065,1196
1484,1716364711995865601,2052,2058,2033,2049,2018,2032,1194
1485,1716364712005865528,2060,2081,2115,2076,2112,2086,1195
1486,1716364712015863630,2050,2047,2042,2021,1984,2035,1192
1487,1716364712025866412,2057,2052,2070,2065,2081,2077,1196
1488,1716364712035866839,2054,2049,2055,2070,2015,2028,1193
1489,1716364712045865604,2061,2045,2084,2053,2091,2006,1194
1490,1716364712055928068,2067,2064,2058,2072,2051,2058,1196
1491,1716364712065865326,2060,2052,2054,2047,2091,2061,1197
1492,1716364712075865243,2057,2056,2056,2054,2008,2043,1192
1493,1716364712085861993,2052,2039,2037,2074,2132,2053,1193
1494,1716364712095866288,2049,2047,2024,2057,2040,2122,1196
1495,1716364712105863118,2056,2057,2076,2040,2071,2074,1197
1496,1716364712115867252,2055,2056,2074,2064,2040,2045,1194
1497,1716364712125868000,2058,2051,2049,2035,2022,2049,1195
1498,1716364712135868398,2050,2065,2100,2068,2045,2044,1195
1499,1716364712145866550,2056,2037,2012,2053,2064,2065,1194
1500,1716364712155868351,2040,2048,2046,2057,2013,2047,1194
1501,1716364712165924544,2056,2049,2050,2057,2084,2059,1197
1502,1716364712175866390,2070,2094,2182,2085,2043,2056,1196
1503,1716364712185864984,2052,2036,2019,2056,2129,2137,1195
1504,1716364712195865241,2058,2059,2054,2060,2037,2039,1192
1505,1716364712205862933,2048,2057,2078,2050,2085,2048,1196
1506,1716364712215865725,2058,2070,2128,2081,2015,2052,1196
1507,1716364712225865371,2057,2052,2029,2073,2105,2058,1194
1508,1716364712235867892,2047,2046,2031,2063,2016,2039,1192
1509,1716364712245873549,2050,2069,2093,2072,2085,2073,1194
1510,1716364712255868095,2063,2050,2052,2061,2028,2052,1194
1511,1716364712265866559,2053,2038,1996,2047,2063,2029,1195
1512,1716364712275867788,2044,2053,2061,2062,2042,2041,1194
1513,1716364712285863927,2050,2049,2057,2020,2052,2052,1195
1514,1716364712295866128,2035,2042,2027,2061,2030,2035,1194
1515,1716364712305863930,2055,2062,2112,2072,2100,2064,1195
1516,1716364712315866712,2061,2052,2092,2062,2026,2048,1195
1517,1716364712325863623,2056,2060,2008,2053,2113,2036,1193
1518,1716364712335864170,2057,2059,2058,2038,2034,2052,1197
1519,1716364712345919281,2060,2050,2053,2044,2057,2053,1196
1520,1716364712355864094,2064,2048,2059,2063,2052,2067,1196
1521,1716364712365910147,2043,2043,1983,2055,2107,2058,1197
1522,1716364712375904543,2050,2051,2054,2056,2021,2025,1192
1523,1716364712385861829,2062,2064,2094,2070,2097,2087,1195
1524,1716364712395903374,2058,2060,2056,2054,1985,2037,1194
1525,1716364712405901517,2056,2056,2041,2057,2100,2052,1195
1526,1716364712415901944,2056,2052,2068,2071,2028,2045,1192
1527,1716364712425899356,2056,2049,2064,2072,2118,2080,1194
1528,1716364712435900945,2054,2053,2034,2048,2000,2034,1195
1529,1716364712445900491,2063,2072,2081,2057,2073,2053,1195
1530,1716364712455878686,2061,2045,2020,2043,2028,2054,1195
1531,1716364712465899452,2061,2067,2096,2073,2090,2061,1195
1532,1716364712475897034,2061,2049,2029,2049,2032,2047,1191
1533,1716364712485896910,2062,2053,2043,2049,2098,2069,1196
1534,1716364712495896747,2065,2092,2171,2077,2038,2058,1193
1535,1716364712505911000,2054,2045,2016,2042,2081,2058,1193
1536,1716364712515896389,2056,2059,2033,2052,2021,2068,1196
1537,1716364712525896125,2064,2056,2065,2064,2089,2060,1198
1538,1716364712535895049,2037,2047,2064,2041,2017,2034,1194
1539,1716364712545895387,2060,2046,2041,2060,2074,2061,1196
1540,1716364712555893559,2056,2056,2072,2052,2014,2037,1194
1541,1716364712565892103,2053,2056,2073,2063,2086,2072,1197
1542,1716364712575892601,2056,2058,2051,2056,2014,2038,1194
1543,1716364712585890424,2060,2056,2067,2066,2099,2069,1197
1544,1716364712595890680,2064,2057,2016,2059,2022,2084,1195
1545,1716364712605891338,2061,2078,2136,2070,2073,2050,1197
1546,1716364712615888269,2059,2060,2057,2037,1996,2043,1194
1547,1716364712625889317,2060,2054,2063,2059,2078,2060,1195
1548,1716364712635889374,2048,2058,2011,2029,2022,2047,1194
1549,1716364712645888138,2073,2093,2114,2090,2094,2074,1196
1550,1716364712655891181,2055,2052,2041,2053,2008,2022,1192
1551,1716364712665885587,2057,2067,2141,2058,2079,2069,1196
1552,1716364712675885873,2048,2044,2040,2069,2033,2050,1195
1553,1716364712685887603,2061,2066,2091,2065,2078,2061,1197
1554,1716364712695884023,2058,2064,2066,2060,2021,2042,1193
1555,1716364712705886704,2064,2058,2060,2053,2095,2061,1195
1556,1716364712715904766,2060,2088,2180,2074,2043,2107,1196
1557,1716364712725883552,2056,2049,2035,2060,2102,2078,1196
1558,1716364712735883007,2060,2068,2087,2068,2042,2048,1197
1559,1716364712745881591,2050,2049,2048,2038,2056,2061,1195
1560,1716364712755891616,2041,2040,2039,2060,2036,2055,1196
1561,1716364712765881704,2058,2048,2089,2059,2078,2074,1197
1562,1716364712775883694,2056,2056,2045,2059,2032,2061,1194
1563,1716364712785883080,2059,2046,2036,2075,2098,2066,1196
1564,1716364712795882576,2058,2052,2037,2072,2075,2057,1196
1565,1716364712805884396,2057,2051,2026,2052,2043,2060,1196
1566,1716364712815883160,2056,2047,2015,2057,2053,2057,1196
1567,1716364712825883026,2060,2058,2044,2052,2076,2065,1193
1568,1716364712835883383,2043,2059,2080,2048,2004,2080,1195
1569,1716364712845883570,2062,2057,2068,2028,2041,2057,1196
1570,1716364712855876153,2064,2061,2040,2068,2033,2049,1195
1571,1716364712865875999,2064,2056,2085,2054,2100,2051,1195
1572,1716364712875874042,2045,2050,2062,2045,2011,2045,1192
1573,1716364712885874870,2060,2056,2047,2053,2076,2062,1197
1574,1716364712895886538,2057,2050,2057,2051,2031,2048,1194
1575,1716364712905876065,2069,2079,2128,2072,2084,2072,1194
1576,1716364712915875210,2054,2045,2034,2047,2013,2040,1193
1577,1716364712925875797,2063,2056,2058,2069,2106,2065,1195
1578,1716364712935872819,2055,2060,2077,2050,2030,2062,1197
1579,1716364712945871333,2044,2047,2054,2064,2090,2064,1198
1580,1716364712955923307,2056,2056,2060,2053,2031,2044,1195
1581,1716364712965876094,2049,2052,2051,2057,2100,2080,1195
1582,1716364712975872915,2048,2034,2005,2046,2036,2052,1195
1583,1716364712985874033,2047,2040,2009,2033,2049,2045,1192
1584,1716364712995873920,2055,2052,1990,2032,1986,2029,1195
1585,1716364713005872934,2054,2058,2067,2048,2067,2059,1196
1586,1716364713015871629,2056,2060,2096,2051,2018,2038,1195
1587,1716364713025871204,2065,2058,2056,2089,2104,2094,1193
1588,1716364713035872233,2049,2037,1995,2050,2037,2050,1193
1589,1716364713045873011,2056,2094,2143,2088,2089,2041,1194
1590,1716364713055872817,2039,2062,2085,2050,1982,2041,1192
1591,1716364713065875979,2050,2045,1997,2053,2088,2014,1192
1592,1716364713075880074,2045,2026,2043,2032,2025,2052,1195
1593,1716364713085873588,2066,2082,2149,2077,2073,2060,1194
1594,1716364713095877823,2056,2044,2028,2051,2036,2044,1193
1595,1716364713105872719,2069,2058,2047,2054,2064,2050,1197
1596,1716364713115875190,2055,2042,2014,2044,2009,2014,1194
1597,1716364713125878844,2044,2088,2216,2096,2108,2082,1195
1598,1716364713135873100,2040,2032,2000,2052,2028,2053,1198
1599,1716364713145871594,2052,2043,2030,2056,2059,2069,1196
1600,1716364713155873223,2046,2043,2047,2058,2060,2059,1197
1601,1716364713165882788,2053,2045,2025,2046,2070,2054,1195
1602,1716364713175875550,2063,2048,2043,2047,2013,2059,1197
1603,1716364713185872742,2040,2037,2029,2045,2068,2047,1194
1604,1716364713195873660,2034,2041,2036,2045,2017,2043,1192
1605,1716364713205872334,2054,2056,2026,2059,2082,2055,1196
1606,1716364713215874946,2084,2084,2108,2055,2040,2066,1196
1607,1716364713225872347,2060,2064,2107,2086,2072,2056,1194
1608,1716364713235871863,2064,2074,2121,2079,2036,2040,1196
1609,1716364713245869966,2063,2046,2002,2056,2078,2036,1192
1610,1716364713255871435,2052,2045,2027,2049,2030,2064,1196
1611,1716364713265904544,2069,2075,2105,2064,2065,2063,1195
1612,1716364713275883832,2045,2043,2034,2052,2020,2065,1196
1613,1716364713285879290,2056,2060,2056,2061,2090,2057,1197
1614,1716364713295883113,2054,2052,2049,2052,2008,2034,1192
1615,1716364713305880214,2059,2049,2034,2054,2077,2041,1193
1616,1716364713315881834,2056,2058,2074,2063,2073,2070,1195
1617,1716364713325878935,2051,2063,2079,2056,2100,2065,1197
1618,1716364713335880385,2053,2050,2064,2052,2033,2048,1197
1619,1716364713345879960,2047,2060,2070,2064,2092,2062,1196
1620,1716364713355879406,2057,2047,1970,2029,2000,2021,1195
1621,1716364713365882939,2051,2053,2034,2035,2034,2051,1197
1622,1716364713375879469,2062,2048,2029,2041,2008,2040,1193
1623,1716364713385887160,2058,2056,2064,2054,2095,2084,1198
1624,1716364713395883609,2062,2059,2090,2064,2029,2054,1196
1625,1716364713405886572,2054,2057,2092,2059,2089,2065,1195
1626,1716364713415873684,2056,2059,2051,2037,2012,2062,1197
1627,1716364713425882928,2056,2042,2045,2046,2069,2060,1196
1628,1716364713435872575,2063,2067,2064,2059,2008,2051,1197
1629,1716364713445872351,2045,2047,2039,2081,2113,2063,1196
1630,1716364713455876896,2057,2067,2102,2069,2033,2080,1195
1631,1716364713465873807,2049,2045,2035,2056,2095,2068,1197
1632,1716364713475873142,2043,2059,2073,2078,2081,2058,1195
1633,1716364713485872648,2037,2042,2048,2047,2086,2063,1195
1634,1716364713495892923,2053,2058,2051,2056,2025,2037,1192
1635,1716364713505872420,2060,2067,2093,2061,2074,2066,1197
1636,1716364713515873329,2057,2059,2047,2064,2014,2033,1194
1637,1716364713525873245,2051,2058,2060,2026,2048,2027,1194
1638,1716364713535871448,2063,2069,2079,2018,1992,2056,1197
1639,1716364713545871555,2072,2073,2080,2058,2048,2053,1198
1640,1716364713555873565,2051,2043,2028,2064,2048,2020,1194
1641,1716364713565871869,2060,2061,2068,2056,2078,2056,1198
1642,1716364713575874390,2057,2054,2054,2052,2021,2063,1196
1643,1716364713585873064,2056,2050,2074,2059,2060,2062,1197
1644,1716364713595914338,2056,2070,2080,2068,2023,2031,1194
1645,1716364713605871674,2030,2047,2088,2069,2078,2066,1197
1646,1716364713615892591,2051,2053,2074,2060,2019,2029,1193
1647,1716364713625903628,2062,2086,2209,2084,2088,2092,1194
1648,1716364713635917341,2061,2060,2039,2055,2064,2051,1197
1649,1716364713645903130,2061,2074,2081,2027,2053,2086,1193
1650,1716364713655902996,2048,2050,2056,2069,2080,2044,1192
1651,1716364713665901169,2064,2060,2086,2043,2032,2072,1195
1652,1716364713675900635,2052,2040,2037,2054,2038,2037,1194
1653,1716364713685934766,2064,2054,2053,2041,2075,2055,1194
1654,1716364713695901269,2061,2060,2062,2053,2021,2033,1192
1655,1716364713705895635,2052,2064,2088,2076,2120,2075,1195
1656,1716364713715898838,2067,2092,2112,2098,2086,2051,1195
1657,1716364713725897201,2056,2065,2102,2043,2057,2040,1193
1658,1716364713735895284,2053,2049,2034,2059,2042,2052,1197
1659,1716364713745897845,2054,2056,2076,2057,2090,2064,1197
1660,1716364713755892793,2042,2060,2073,2046,2005,2049,1197
1661,1716364713765895615,2050,2041,1997,2059,2093,2059,1197
1662,1716364713775893076,2056,2057,2065,2043,2031,2058,1196
1663,1716364713785892792,2047,2044,2036,2068,2099,2056,1196
1664,1716364713795903479,2065,2053,2037,2048,2027,2047,1194
1665,1716364713805889308,2053,2081,2070,2076,2077,2065,1195
1666,1716364713815889506,2051,2044,2036,2043,2016,2044,1192
1667,1716364713825893099,2057,2047,2042,2058,2075,2061,1195
1668,1716364713835890831,2056,2044,1994,2049,2034,2037,1193
1669,1716364713845889996,2056,2052,2035,2054,2081,2064,1196
1670,1716364713855884963,2054,2051,2057,2044,2016,2042,1193
1671,1716364713865887044,2055,2049,2052,2045,2093,2047,1194
1672,1716364713875892200,2043,2046,2029,2018,2000,2008,1193
1673,1716364713885887537,2053,2048,2046,2053,2070,2055,1196
1674,1716364713895896972,2062,2061,2096,2076,2046,2037,1193
1675,1716364713905883744,2060,2077,2076,2050,2066,2056,1195
1676,1716364713915882958,2066,2079,2147,2065,2038,2053,1196
1677,1716364713925884337,2066,2054,2042,2050,2099,2069,1195
1678,1716364713935895886,2049,2052,2033,2052,2033,2046,1195
1679,1716364713945885102,2049,2052,2067,2023,2050,2093,1198
1680,1716364713955886231,2046,2064,2097,2064,2032,2065,1196
1681,1716364713965884835,2063,2056,2075,2041,2072,2074,1194
1682,1716364713975881455,2053,2064,2126,2056,2014,2046,1193
1683,1716364713985898594,2052,2050,2037,2053,2068,2064,1196
1684,1716364713995882189,2050,2057,2050,2023,2010,2051,1196
1685,1716364714005877547,2069,2076,2099,2056,2061,2057,1197
1686,1716364714015880540,2052,2048,2050,2056,2009,2034,1193
1687,1716364714025881197,2050,2056,2086,2075,2088,2046,1192
1688,1716364714035881675,2054,2056,2045,2074,2046,2072,1196
1689,1716364714045877493,2053,2054,2092,2040,2069,2053,1195
1690,1716364714055878982,2060,2050,2040,2028,2019,2060,1198
1691,1716364714065877106,2058,2060,2094,2065,2081,2060,1195
1692,1716364714075878966,2050,2046,2022,2043,2029,2035,1192
1693,1716364714085879473,2056,2052,2026,2050,2082,2064,1197
1694,1716364714095909947,2048,2047,2056,2053,2025,2044,1193
1695,1716364714105876400,2049,2046,2036,2066,2092,2071,1197
1696,1716364714115878200,2053,2060,2086,2051,2020,2050,1195
1697,1716364714125875161,2058,2050,2032,2064,2090,2047,1195
1698,1716364714135873284,2070,2068,2105,2084,2069,2068,1197
1699,1716364714145871487,2053,2041,2025,2075,2117,2048,1195
1700,1716364714155889739,2056,2057,2081,2065,2024,2033,1194
1701,1716364714165873424,2061,2072,2083,2080,2093,2067,1197
1702,1716364714175872639,2056,2053,2069,2047,2008,2041,1194
1703,1716364714185873557,2050,2032,2017,2053,2070,2072,1197
1704,1716364714195870478,2058,2056,2036,2050,2024,2066,1195
1705,1716364714205872007,2056,2055,2056,2018,2035,2048,1197
1706,1716364714215983245,2059,2052,2032,2041,2035,2038,1194
1707,1716364714225869807,2064,2084,2105,2085,2109,2060,1195
1708,1716364714235874572,2058,2064,2070,2029,2013,2061,1197
1709,1716364714245868798,2056,2045,2013,2047,2075,2050,1197
1710,1716364714255867842,2049,2037,2001,2028,2051,2058,1198
1711,1716364714265868981,2053,2058,2075,2056,2065,2053,1196
1712,1716364714275864449,2064,2124,2248,2074,2032,2021,1194
1713,1716364714285867201,2058,2049,2037,2040,2062,2061,1196
1714,1716364714295877717,2055,2054,2047,2040,2041,2049,1199
1715,1716364714305868977,2056,2061,2055,2072,2092,2060,1195
1716,1716364714315871589,2053,2058,2057,2055,2026,2052,1195
1717,1716364714325903826,2056,2044,2032,2065,2104,2068,1196
1718,1716364714335902601,2060,2047,2020,2081,2019,2035,1195
1719,1716364714345868462,2096,2092,2098,2085,2089,2062,1196
1720,1716364714355863600,2039,2036,1999,2058,2036,2039,1193
1721,1716364714365910335,2065,2066,2156,2083,2120,2071,1194
1722,1716364714375898138,2053,2047,2021,2060,2000,2034,1193
1723,1716364714385863018,2064,2060,2057,2060,2082,2067,1196
1724,1716364714395868715,2069,2086,2092,2069,2044,2047,1192
1725,1716364714405865366,2062,2052,2022,2036,2043,2040,1193
1726,1716364714415894858,2058,2067,2126,2061,2052,2052,1197
1727,1716364714425900105,2068,2049,2002,2053,2072,2051,1194
1728,1716364714435895903,2062,2063,2092,2067,2053,2067,1196
1729,1716364714445869880,2051,2051,2053,2052,2069,2062,1196
1730,1716364714455894544,2056,2060,2086,2059,1995,2033,1194
1731,1716364714465891635,2059,2065,2127,2052,2083,2078,1196
1732,1716364714475895218,2036,2059,2069,2058,2033,2061,1198
1733,1716364714485893492,2049,2047,2042,2064,2063,2051,1197
1734,1716364714495869342,2050,2058,2078,2057,2024,2053,1195
1735,1716364714505865772,2056,2053,2041,2061,2114,2081,1195
1736,1716364714515865328,2050,2056,2072,2036,2019,2030,1193
1737,1716364714525892325,2056,2062,2107,2069,2096,2054,1198
1738,1716364714535890098,2046,2043,2001,2060,2067,2049,1198
1739,1716364714545868263,2061,2052,2057,2065,2057,2053,1198
1740,1716364714555866556,2059,2074,2078,2072,2044,2024,1194
1741,1716364714565887983,2055,2048,2047,2064,2088,2017,1195
1742,1716364714575891056,2053,2050,2038,2065,2048,2057,1198
1743,1716364714585866566,2056,2069,2098,2069,2085,2056,1198
1744,1716364714595868216,2061,2056,2070,2045,1994,2039,1196
1745,1716364714605868263,2052,2054,2016,2070,2097,2080,1198
1746,1716364714615893186,2048,2049,2055,2060,2033,2061,1195
1747,1716364714625893664,2059,2051,2016,2058,2090,2058,1192
1748,1716364714635894742,2053,2045,2045,2060,2021,2060,1195
1749,1716364714645869641,2044,2046,2036,2049,2065,2037,1193
1750,1716364714655884095,2053,2051,2041,2021,1994,2029,1194
1751,1716364714665870506,2056,2053,2072,2053,2060,2043,1193
1752,1716364714675870773,2040,2044,2038,2052,2008,2042,1193
1753,1716364714685881891,2061,2047,2037,2056,2106,2085,1196
1754,1716364714695881617,2053,2052,2015,2061,2040,2037,1194
1755,1716364714705880932,2041,2046,2050,2062,2064,2022,1194
1756,1716364714715876069,2056,2051,2044,2064,2053,2036,1195
1757,1716364714725878179,2065,2058,2057,2064,2080,2077,1197
1758,1716364714735878677,2066,2098,2220,2079,2038,2044,1194
1759,1716364714745873524,2062,2048,2045,2048,2064,2046,1194
1760,1716364714755873440,2054,2045,2040,2057,2027,2031,1193
1761,1716364714765929814,2059,2062,2068,2056,2042,2053,1198
1762,1716364714775874435,2060,2052,2057,2061,2028,2025,1194
1763,1716364714785873700,2056,2058,2096,2056,2080,2051,1197
1764,1716364714795874028,2049,2037,1989,2039,2026,2047,1194
1765,1716364714805877000,2050,2047,2047,2041,2013,2059,1195
1766,1716364714815874241,2064,2064,2080,2052,2026,2056,1197
1767,1716364714825876782,2066,2068,2069,2056,2072,2038,1193
1768,1716364714835877871,2052,2049,2044,2052,2034,2046,1195
1769,1716364714845876084,2058,2060,2072,2044,2077,2058,1196
1770,1716364714855888054,2051,2041,2040,2056,2038,2051,1194
1771,1716364714865877040,2050,2052,2072,2049,2073,2050,1195
1772,1716364714875878188,2049,2046,2042,2058,2049,2049,1196
1773,1716364714885877563,2044,2060,2065,2056,2071,2057,1195
1774,1716364714895877780,2041,2032,2001,2051,2045,2053,1196
1775,1716364714905858681,2047,2040,2009,2037,2060,2052,1196
1776,1716364714915888815,2057,2061,2035,2062,2063,2065,1198
1777,1716364714925858434,2068,2064,2029,2060,2050,2076,1199
1778,1716364714935858861,2047,2048,2015,2070,2033,2040,1196
1779,1716364714945861713,2051,2052,2082,2058,2054,2057,1194
1780,1716364714955861388,2058,2059,2105,2064,2033,2047,1194
1781,1716364714965863619,2060,2052,2040,2040,2024,2052,1194
1782,1716364714975863576,2052,2052,2036,2054,2036,2048,1195
1783,1716364714985860927,2041,2043,2064,2061,2080,2043,1195
1784,1716364714995869380,2049,2043,2020,2037,2015,2052,1196
1785,1716364715005861081,2052,2056,2060,2044,2074,2049,1196
1786,1716364715015857120,2064,2064,2087,2080,2075,2057,1197
1787,1716364715025856345,2064,2066,2079,2053,2052,2052,1192
1788,1716364715035858796,2057,2047,2032,2013,1990,2040,1192
1789,1716364715045858943,2040,2042,2049,2072,2090,2077,1195
1790,1716364715055888686,2069,2059,2052,2062,2040,2056,1196
1791,1716364715065864857,2048,2042,2005,2051,2077,2062,1196
1792,1716364715075861006,2061,2064,2108,2058,2029,2023,1192
1793,1716364715085862025,2060,2043,2029,2040,2056,2036,1194
1794,1716364715095861230,2047,2064,2078,2052,2036,2058,1196
1795,1716364715105862569,2048,2046,2041,2041,2047,2050,1196
1796,1716364715115857396,2053,2047,2011,2056,2028,2050,1196
1797,1716364715125862492,2052,2048,2034,2050,2062,2055,1197
1798,1716364715135863711,2053,2059,2077,2056,2036,2050,1200
1799,1716364715145860431,2062,2060,2048,2061,2072,2068,1194
1800,1716364715155859546,2042,2063,2056,2043,2026,2052,1196
1801,1716364715165861997,2061,2053,2052,2060,2084,2069,1195
1802,1716364715175862285,2053,2066,2123,2068,2062,2043,1194
1803,1716364715185855608,2057,2048,2030,2074,2132,2065,1197
1804,1716364715195857829,2064,2089,2088,2064,2020,2040,1193
1805,1716364715205861623,2059,2051,2041,2047,2078,2072,1197
1806,1716364715215866679,2060,2066,2074,2055,2036,2042,1194
1807,1716364715225865142,2044,2050,2037,2046,2070,2066,1195
1808,1716364715235860751,2045,2045,2066,2057,2030,2042,1193
1809,1716364715245857131,2073,2088,2145,2072,2100,2065,1195
1810,1716364715255855123,2053,2052,2048,2069,2071,2053,1196
1811,1716364715265864357,2043,2050,2056,2063,2084,2066,1198
1812,1716364715275860516,2059,2056,2074,2035,2020,2048,1197
1813,1716364715285869129,2056,2050,2039,2047,2060,2015,1193
1814,1716364715295864137,2052,2053,2015,2043,2021,2076,1196
1815,1716364715305887778,2057,2043,2029,2044,2076,2067,1197
1816,1716364715315862657,2060,2058,2040,2030,1998,2044,1193
1817,1716364715325881539,2045,2045,2047,2060,2079,2067,1198
1818,1716364715335861908,2054,2048,2022,2042,2038,2049,1198
1819,1716364715345861965,2056,2050,2056,2074,2088,2070,1197
1820,1716364715355864206,2042,2040,2027,2058,2034,2062,1197
1821,1716364715365863261,2047,2042,2022,2058,2095,2066,1196
1822,1716364715375862736,2056,2082,2115,2068,2049,2046,1194
1823,1716364715385859016,2080,2100,2136,2069,2068,2026,1193
1824,1716364715395862358,2056,2045,2048,2039,2015,2030,1194
1825,1716364715405859179,2055,2054,2046,2045,2057,2056,1198
1826,1716364715415863614,2058,2081,2168,2068,2024,2044,1194
1827,1716364715425862198,2057,2060,2100,2061,2054,2047,1193
1828,1716364715435865922,2049,2049,2065,2041,2030,2047,1193
1829,1716364715445862041,2050,2044,1998,2054,2077,2066,1195
1830,1716364715455862759,2041,2044,2032,2023,2015,2032,1193
1831,1716364715465859720,2038,2046,2077,2064,2081,2059,1196
1832,1716364715475865337,2059,2058,2093,2066,2072,2065,1196
1833,1716364715485861216,2056,2065,2098,2074,2100,2078,1196
1834,1716364715495860731,2056,2064,2084,2053,2022,2053,1197
1835,1716364715505861269,2052,2052,2035,2069,2091,2067,1194
1836,1716364715515862798,2053,2049,2029,2052,2043,2033,1193
1837,1716364715525863206,2058,2051,2049,2043,2036,2046,1195
1838,1716364715535861399,2056,2044,2034,2044,2030,2054,1197
1839,1716364715545863600,2066,2058,2033,2062,2070,2059,1197
1840,1716364715555859639,2052,2052,2042,2041,2038,2052,1198
1841,1716364715565867270,2047,2043,2049,2044,2051,2041,1196
1842,1716364715575865703,2040,2032,2010,2047,2049,2019,1195
1843,1716364715585859017,2053,2052,2037,2059,2077,2071,1196
1844,1716364715595865356,2052,2056,2084,2028,2026,2044,1194
1845,1716364715605863970,2052,2045,2037,2066,2101,2077,1197
1846,1716364715615862293,2056,2059,2123,2072,2046,2038,1194
1847,1716364715625862189,2055,2051,2120,2060,2070,2061,1195
1848,1716364715635861885,2053,2045,2039,2049,2065,2057,1196
1849,1716364715645862854,2048,2060,2081,2062,2099,2070,1195
1850,1716364715655860907,2060,2052,2021,2038,2000,2056,1194
1851,1716364715665863308,2048,2052,2051,2039,2056,2035,1194
1852,1716364715675886278,2045,2042,2032,2057,2040,2041,1193
1853,1716364715685866837,2056,2057,2053,2104,2158,2056,1196
1854,1716364715695866784,2060,2070,2078,2064,2044,2051,1196
1855,1716364715705863604,2044,2046,2042,2058,2068,2056,1197
1856,1716364715715863511,2053,2045,1992,2069,2041,2042,1194
1857,1716364715725864810,2070,2056,2028,2080,2073,2051,1197
1858,1716364715735865798,2050,2043,2021,2052,2028,2065,1198
1859,1716364715745870764,2060,2060,2093,2058,2076,2057,1196
1860,1716364715755863958,2057,2050,2039,2052,2034,2052,1198
1861,1716364715765865097,2064,2048,2028,2059,2084,2046,1194
1862,1716364715775865815,2056,2052,2038,2026,2010,2026,1192
1863,1716364715785891600,2044,2064,2066,2073,2080,2042,1195
1864,1716364715795864866,2053,2047,2044,2066,2064,2072,1197
1865,1716364715805861947,2040,2032,2036,2062,2073,2043,1193
1866,1716364715815869057,2049,2045,2066,2057,2042,2049,1197
1867,1716364715825862371,2047,2044,2037,2059,2085,2021,1193
1868,1716364715835864301,2056,2045,2009,2055,2045,2050,1194
1869,1716364715845862694,2056,2076,2051,2079,2069,2042,1194
1870,1716364715855863813,2045,2042,2029,2049,2041,2058,1195
1871,1716364715865863149,2060,2052,2048,2056,2064,2062,1197
1872,1716364715875863756,2060,2052,2049,2061,2029,2044,1192
1873,1716364715885859935,2057,2070,2076,2069,2090,2060,1197
1874,1716364715895863700,2061,2061,2065,2073,2048,2056,1195
1875,1716364715905868745,2052,2049,2022,2057,2100,2062,1195
1876,1716364715915867279,2077,2092,2135,2073,2044,2042,1194
1877,1716364715925862797,2053,2061,2099,2056,2056,2058,1197
1878,1716364715935861311,2056,2056,2085,2057,2015,2037,1196
1879,1716364715945862580,2060,2053,2048,2065,2074,2065,1198
1880,1716364715955861895,2056,2050,2048,2040,2035,2045,1195
1881,1716364715965864015,2058,2048,2013,2062,2077,2059,1197
1882,1716364715975868391,2053,2062,2050,2073,2047,2050,1196
1883,1716364715985874799,2054,2052,2042,2054,2074,2059,1196
1884,1716364715995863214,2050,2051,2064,2046,1984,2043,1192
1885,1716364716005865334,2056,2056,2058,2058,2070,2064,1196
1886,1716364716015865612,2056,2056,2088,2069,2026,2046,1195
1887,1716364716025871278,2041,2032,2015,2014,2034,2058,1196
1888,1716364716035863931,2064,2076,2120,2082,2030,2046,1193
1889,1716364716045864880,2043,2056,2049,2056,2086,2057,1198
1890,1716364716055866179,2048,2050,2043,2048,2036,2032,1192
1891,1716364716065868099,2046,2040,2034,2047,2060,2068,1197
1892,1716364716075875730,2059,2056,2088,2049,2039,2038,1194
1893,1716364716085866328,2056,2047,2041,2057,2079,2045,1194
1894,1716364716095871675,2042,2042,2039,2050,2000,2032,1193
1895,1716364716105867705,2046,2049,2029,2052,2080,2064,1197
1896,1716364716115871869,2060,2046,2032,2057,2037,2055,1196
1897,1716364716125869461,2073,2096,2188,2072,2078,2106,1198
1898,1716364716135867604,2053,2041,2021,2041,2027,2044,1194
1899,1716364716145867711,2040,2044,2059,2058,2093,2064,1198
1900,1716364716155871204,2048,2057,2036,2052,2026,2046,1195
1901,1716364716165875258,2058,2061,2048,2062,2087,2073,1197
1902,1716364716175874503,2048,2052,2070,2052,2032,2050,1197
1903,1716364716185868969,2040,2045,2032,2040,2032,2072,1197
1904,1716364716195881610,2052,2045,2034,2036,2028,2051,1197
1905,1716364716205872129,2047,2049,2041,2063,2072,2061,1197
1906,1716364716215872526,2056,2060,2047,2055,2028,2058,1198
1907,1716364716225874356,2060,2061,2106,2081,2092,2057,1195
1908,1716364716235872709,2069,2074,2060,2067,2050,2062,1198
1909,1716364716245884027,2058,2051,2058,2068,2094,2066,1195
1910,1716364716255892460,2060,2053,2047,2058,2043,2047,1195
1911,1716364716265874853,2054,2056,2036,2060,2065,2088,1196
1912,1716364716275876373,2059,2054,2031,2044,2005,2046,1192
1913,1716364716285878152,2057,2047,2024,2058,2068,2069,1194
1914,1716364716295888508,2052,2038,1984,2040,2026,2040,1193
1915,1716364716305873036,2056,2039,2014,2048,2056,2046,1194
1916,1716364716315873454,2056,2052,2058,2049,1998,2034,1195
1917,1716364716325878209,2047,2036,2018,2033,2050,2064,1200
1918,1716364716335893124,2056,2068,2079,2056,2023,2014,1195
1919,1716364716345868173,2059,2048,2026,2058,2072,2074,1197
1920,1716364716355861386,2056,2073,2108,2066,2041,2057,1198
1921,1716364716365863016,2052,2035,2006,1998,2010,2041,1195
1922,1716364716375866480,2041,2040,2024,2030,2018,2032,1195
1923,1716364716385891313,2055,2068,2172,2075,2078,2050,1196
1924,1716364716395877303,2049,2033,2007,2045,2021,2036,1192
1925,1716364716405863964,2054,2037,2000,2051,2087,2065,1198
1926,1716364716415864722,2055,2045,2053,2050,2025,2042,1192
1927,1716364716425867073,2054,2047,2032,2073,2094,2071,1193
1928,1716364716435869765,2057,2069,2100,2075,2016,2037,1193
1929,1716364716445863039,2044,2047,2046,2046,2020,2049,1197
1930,1716364716455868235,2049,2048,2047,2044,2011,2034,1194
1931,1716364716465862070,2055,2067,2081,2073,2083,2074,1196
1932,1716364716475884759,2052,2074,2181,2044,2002,2047,1193
1933,1716364716485862404,2050,2033,2011,1997,2040,2060,1196
1934,1716364716495893049,2052,2057,2051,2058,2047,2076,1198
1935,1716364716505861946,2061,2063,2059,2046,2066,2048,1195
1936,1716364716515863105,2056,2085,2169,2078,2052,2066,1196
1937,1716364716525868412,2042,2041,2011,2070,2135,2041,1194
1938,1716364716535864030,2054,2050,2037,2068,2052,2035,1193
1939,1716364716545865609,2057,2046,2035,2032,2046,2047,1193
1940,1716364716555863542,2046,2036,1987,2053,2043,2054,1197
1941,1716364716565863859,2054,2060,2078,2066,2079,2074,1196
1942,1716364716575868905,2052,2040,2048,2049,2020,2064,1196
1943,1716364716585863191,2069,2051,2081,2074,2116,2096,1196
1944,1716364716595900007,2050,2054,2060,2036,2013,2043,1193
1945,1716364716605863314,2064,2062,2057,2070,2088,2062,1195
1946,1716364716615863672,2056,2058,2037,2040,2024,2040,1193
1947,1716364716625873016,2058,2062,2130,2083,2056,2046,1192
1948,1716364716635870408,2064,2054,2081,2068,2066,2021,1192
1949,1716364716645866607,2060,2046,2032,2032,2061,2062,1195
1950,1716364716655877404,2042,2038,2022,2066,2050,2028,1192
1951,1716364716665855970,2034,2033,2025,2060,2084,2058,1198
1952,1716364716675869342,2046,2063,2043,2056,2041,2066,1197
1953,1716364716685865070,2070,2057,2045,2045,2027,2067,1196
1954,1716364716695870016,2045,2051,2041,2066,2041,2056,1196
1955,1716364716705877567,2048,2047,2032,2051,2076,2067,1196
1956,1716364716715857827,2049,2043,2032,2047,2019,2042,1194
1957,1716364716725856580,2050,2051,2038,2053,2026,2028,1194
1958,1716364716735864342,2034,2034,2029,2043,2021,2046,1194
1959,1716364716745866933,2056,2061,2063,2070,2075,2076,1194
1960,1716364716755876979,2046,2049,2037,2035,1998,2037,1194
1961,1716364716765858030,2052,2048,2068,2056,2066,2056,1196
1962,1716364716775868246,2068,2073,2057,2052,2064,2060,1194
1963,1716364716785870427,2059,2050,2022,2040,2064,2025,1193
1964,1716364716795886854,2056,2064,2064,2056,2034,2052,1196
1965,1716364716805885287,2058,2047,2033,2052,2064,2057,1198
1966,1716364716815859595,2059,2088,2137,2116,2096,2047,1193
1967,1716364716825858269,2043,2047,2056,2028,2047,2039,1191
1968,1716364716835855711,2056,2049,2041,2072,2056,2042,1193
1969,1716364716845868041,2056,2049,2037,2058,2076,2058,1197
1970,1716364716855876343,2066,2061,2064,2052,2017,2020,1194
1971,1716364716865856933,2051,2044,2035,2048,2079,2052,1194
1972,1716364716875867209,2060,2074,2085,2042,2026,2050,1196
1973,1716364716885867486,2054,2045,2028,2073,2084,2057,1198
1974,1716364716895886118,2070,2056,2029,2049,2024,2046,1194
1975,1716364716905867440,2040,2051,1997,2072,2132,2100,1198
1976,1716364716915855654,2054,2035,2007,2049,2016,2065,1196
1977,1716364716925892199,2062,2056,2058,2057,2077,2061,1196
1978,1716364716935869853,2049,2046,2045,2049,2033,2052,1198
1979,1716364716945862326,2041,2044,2059,2029,2069,2024,1194
1980,1716364716955860098,2064,2112,2221,2073,2020,2047,1195
1981,1716364716965881686,2056,2046,2021,2038,2047,2064,1196
1982,1716364716975867806,2058,2060,2042,2059,2042,2056,1196
1983,1716364716985865799,2056,2056,2018,2077,2086,2062,1196
1984,1716364716995887456,2061,2061,2049,2027,2010,2085,1196
1985,1716364717005862105,2061,2067,2059,2073,2100,2065,1196
1986,1716364717015856721,2047,2047,2013,2044,2022,2040,1192
1987,1716364717025875674,2053,2056,2085,2037,2052,2045,1192
1988,1716364717035867535,2048,2042,1989,2058,2037,2052,1196
1989,1716364717045865527,2028,2036,2009,2045,2041,2032,1194
1990,1716364717055877497,2052,2050,2033,2042,1996,2056,1195
1991,1716364717065858437,2049,2040,2070,2054,2081,2048,1197
1992,1716364717075867060,2049,2043,2024,2053,2034,2046,1192
1993,1716364717085868249,2044,2040,2012,2043,2068,2037,1194
1994,1716364717095885007,2043,2050,2053,2064,2019,2044,1192
1995,1716364717105868543,2057,2067,2083,2078,2095,2048,1197
1996,1716364717115858150,2046,2046,2062,2062,2031,2012,1195
1997,1716364717125864097,2056,2042,2028,2053,2092,2057,1198
1998,1716364717135864515,2052,2042,2025,2016,2013,2052,1198
1999,1716364717145864311,2063,2066,2071,2031,2046,2037,1195
2000,1716364717155878615,2057,2070,2112,2070,2056,2049,1196
2001,1716364717165867240,2053,2047,2036,2056,2097,2050,1196
2002,1716364717175870323,2050,2050,2056,2075,2057,2041,1195
2003,1716364717185857074,2056,2048,2049,2077,2078,2044,1193
2004,1716364717195891616,2053,2064,2120,2056,2038,2058,1197
2005,1716364717205867016,2053,2050,2034,2038,2035,2052,1197
2006,1716364717215878905,2053,2056,2068,2057,2048,2038,1193
2007,1716364717225859294,2063,2070,2174,2082,2086,2075,1194
2008,1716364717235862517,2047,2049,2036,2030,2008,2042,1192
2009,1716364717245865820,2056,2056,2062,2068,2072,2059,1194
2010,1716364717255863091,2052,2053,2063,2046,2017,2038,1194
2011,1716364717265876523,2053,2057,2086,2068,2061,2035,1191
2012,1716364717275862333,2044,2047,2035,2042,2018,2036,1195
2013,1716364717285863702,2059,2061,2077,2057,2064,2065,1196
2014,1716364717295863769,2053,2052,2040,2050,2034,2045,1194
2015,1716364717305870138,2054,2051,2049,2049,2077,2056,1196
2016,1716364717315877949,2044,2040,2008,2060,2065,2052,1196
2017,1716364717325867425,2033,2038,2048,2061,2077,2073,1197
2018,1716364717335863965,2057,2056,2080,2060,2024,2047,1194
2019,1716364717345865905,2058,2056,2081,2058,2069,2059,1195
2020,1716364717355864490,2071,2066,2058,2051,2024,2062,1196
2021,1716364717365861721,2068,2056,2042,2026,2040,2075,1196
2022,1716364717375864973,2047,2036,2040,2049,2040,2045,1194
2023,1716364717385863948,2062,2040,2030,2031,2100,2060,1197
2024,1716364717395863605,2052,2042,2008,2045,2019,2032,1194
2025,1716364717405863600,2059,2060,2067,2057,2049,2039,1195
2026,1716364717415880680,2042,2040,2021,2033,2008,2037,1193
2027,1716364717425867982,2062,2056,2049,2062,2065,2055,1194
2028,1716364717435862037,2041,2030,2021,2041,2021,2034,1194
2029,1716364717445868646,2061,2068,2073,2065,2091,2063,1196
2030,1716364717455865728,2060,2054,2022,2058,2036,2049,1195
2031,1716364717465866015,2048,2052,2055,2057,2082,2117,1198
2032,1716364717475861593,2046,2045,2030,1989,1960,2045,1193
2033,1716364717485883701,2056,2048,2067,2049,2049,2051,1196
2034,1716364717495861215,2052,2042,1989,2056,2013,2045,1193
2035,1716364717505864468,2046,2045,2038,2069,2096,2084,1197
2036,1716364717515865096,2054,2059,2042,2053,2008,2043,1193
2037,1716364717525863810,2044,2041,2056,2060,2088,2054,1198
2038,1716364717535863937,2045,2047,2036,2050,2040,2051,1200
2039,1716364717545864244,2062,2068,2120,2069,2067,2057,1197
2040,1716364717555855884,2050,2049,2042,2062,2077,2041,1192
2041,1716364717565870288,2057,2053,2079,2053,2077,2061,1197
2042,1716364717575867149,2064,2068,2084,2064,2040,2052,1197
2043,1716364717585858229,2058,2052,2020,2040,2060,2072,1197
2044,1716364717595857003,2061,2053,2058,2062,2045,2089,1197
2045,1716364717605866147,2059,2056,2078,2078,2096,2076,1196
2046,1716364717615865593,2052,2047,2079,2061,2075,2036,1192
2047,1716364717625863575,2059,2058,2073,2064,2034,2060,1195
2048,1716364717635889210,2052,2056,2094,2067,2018,2056,1195
2049,1716364717645860763,2059,2061,2052,2054,2071,2013,1193
2050,1716364717655866370,2053,2049,2046,2014,1993,2062,1197
2051,1716364717665871196,2048,2054,2068,2068,2077,2074,1198
2052,1716364717675876874,2047,2045,2030,2038,2046,2060,1195
2053,1716364717685869035,2056,2040,2009,2048,2073,2053,1197
2054,1716364717695861728,2067,2065,2084,2049,1995,2040,1195
2055,1716364717705867385,2055,2049,2034,2044,2080,2081,1196
2056,1716364717715866530,2052,2056,2056,2047,2008,2036,1193
2057,1716364717725865505,2056,2045,2022,2047,2074,2055,1197
2058,1716364717735863648,2061,2081,2149,2076,2027,2026,1194
2059,1716364717745863054,2066,2071,2093,2078,2090,2069,1197
2060,1716364717755866396,2061,2072,2069,2079,2075,2050,1196
2061,1716364717765864198,2063,2056,2062,2072,2088,2064,1197
2062,1716364717775864886,2051,2050,2036,2057,2037,2046,1195
2063,1716364717785867067,2074,2073,2100,2092,2118,2070,1196
2064,1716364717795847046,2059,2052,2064,2016,2004,2051,1196
2065,1716364717805864886,2056,2050,2041,2047,2078,2044,1193
2066,1716364717815867147,2066,2056,2069,2061,2067,2070,1194
2067,1716364717825866593,2053,2036,2008,2056,2072,2005,1193
2068,1716364717835864174,2064,2058,2037,2060,2034,2046,1193
2069,1716364717845864511,2058,2050,2032,2062,2093,2065,1195
2070,1716364717855868736,2062,2044,2028,2040,2022,2033,1194
2071,1716364717865879553,2056,2049,2044,2036,2067,2065,1197
2072,1716364717875863530,2053,2050,2044,2067,2060,2054,1195
2073,1716364717885863586,2049,2049,2092,2047,2057,2063,1197
2074,1716364717895861660,2050,2042,2039,2049,2028,2044,1193
2075,1716364717905863960,2043,2044,2044,2053,2079,2059,1196
2076,1716364717915863185,2045,2047,2028,2044,1976,2033,1192
2077,1716364717925866568,2054,2054,2074,2068,2088,2051,1195
2078,1716364717935865252,2054,2042,1995,2067,2053,2041,1194
2079,1716364717945862544,2060,2053,2013,2073,2090,2063,1198
2080,1716364717955862731,2058,2060,2065,2047,2026,2043,1194
2081,1716364717965863219,2058,2049,2014,2059,2077,2061,1196
2082,1716364717975872973,2064,2089,2145,2068,2010,2061,1196
2083,1716364717985863802,2056,2056,2034,2046,2075,2060,1197
2084,1716364717995862246,2052,2045,2042,2048,1993,2011,1194
2085,1716364718005862353,2045,2042,2064,2053,2043,2078,1197
2086,1716364718015865596,2064,2077,2113,2074,2023,2036,1193
2087,1716364718025865602,2052,2050,2046,2056,2062,2040,1191
2088,1716364718035882651,2056,2056,2056,2064,2056,2048,1195
2089,1716364718045863712,2053,2044,2028,2064,2080,2077,1196
2090,1716364718055864239,2045,2046,2030,2054,2031,2056,1195
2091,1716364718065873383,2049,2047,2043,2059,2024,2030,1192
2092,1716364718075869462,2051,2056,2057,2074,2020,2020,1193
2093,1716364718085863999,2057,2056,2055,2057,2079,2071,1197
2094,1716364718095865929,2044,2050,2066,2041,2014,2042,1194
2095,1716364718105869001,2056,2056,2071,2040,2078,2044,1193
2096,1716364718115869379,2057,2062,2090,2054,2047,2034,1192
2097,1716364718125869636,2051,2050,2072,2064,2072,2068,1197
2098,1716364718135879721,2069,2059,2036,2024,2001,2043,1196
2099,1716364718145867465,2062,2045,2050,2064,2076,2069,1199
2100,1716364718155870667,2064,2078,2132,2058,2024,2069,1196
2101,1716364718165871445,2068,2064,2090,2078,2132,2072,1198
2102,1716364718175871272,2064,2047,2046,2044,2017,2057,1196
2103,1716364718185870006,2060,2050,2059,2080,2064,2069,1196
2104,1716364718195867828,2059,2077,2156,2076,2057,2037,1193
2105,1716364718205869679,2049,2040,2028,2039,2048,2024,1194
2106,1716364718215872590,2079,2112,2160,2068,2031,2051,1197
2107,1716364718225873839,2051,2042,1989,2062,2081,2063,1194
2108,1716364718235874377,2047,2037,2023,2032,2027,2052,1196
2109,1716364718245876498,2049,2034,2044,2058,2124,2068,1196
2110,1716364718255870152,2060,2085,2126,2056,1981,2012,1194
2111,1716364718265871602,2056,2036,2058,2041,2061,2054,1196
2112,1716364718275875496,2048,2037,2013,2053,2030,2045,1193
2113,1716364718285875773,2060,2052,1988,2066,2092,2054,1195
2114,1716364718295891339,2045,2040,2031,2069,2053,2044,1194
2115,1716364718305857050,2057,2057,2065,2024,2021,2036,1193
2116,1716364718315876524,2059,2056,2048,2045,2013,2061,1196
2117,1716364718325876931,2083,2064,2038,2058,2048,2082,1197
2118,1716364718335877329,2051,2053,2053,2026,1998,2046,1195
2119,1716364718345877786,2054,2042,2033,2080,2097,2062,1195
2120,1716364718355880257,2062,2052,2052,2074,2048,2060,1197
2121,1716364718365858994,2053,2038,2032,2057,2032,2050,1196
2122,1716364718375853579,2046,2044,2052,2047,2052,2033,1196
2123,1716364718385881830,2059,2056,2068,2058,2066,2060,1198
2124,1716364718395879863,2051,2050,2041,2036,1999,2033,1192
2125,1716364718405879038,2058,2055,2068,2037,2047,2072,1195
2126,1716364718415856892,2060,2066,2046,2067,2042,2036,1194
2127,1716364718425856178,2055,2047,2025,2054,2066,2067,1194
2128,1716364718435863248,2054,2050,2044,2065,2041,2037,1192
2129,1716364718445863445,2054,2059,2046,2064,2068,2059,1195
2130,1716364718455880594,2054,2047,2044,2042,2046,2037,1194
2131,1716364718465859200,2052,2044,2056,2040,2053,2068,1195
2132,1716364718475855108,2047,2033,2012,2072,2037,2044,1194
2133,1716364718485864503,2064,2049,2032,2065,2061,2074,1197
2134,1716364718495887393,2053,2056,2077,2049,2031,2042,1193
2135,1716364718505865849,2065,2064,2073,2082,2107,2067,1198
2136,1716364718515865875,2050,2048,2042,2053,2014,2056,1196
2137,1716364718525865982,2045,2047,2072,2038,2068,2073,1197
2138,1716364718535863463,2061,2076,2085,2068,2045,2073,1196
2139,1716364718545865494,2053,2049,2048,2049,2080,2052,1197
2140,1716364718555886571,2052,2044,2030,2052,2024,2038,1194
2141,1716364718565869525,2053,2050,2056,2066,2080,2060,1196
2142,1716364718575853501,2071,2044,2031,2056,2040,2058,1194
2143,1716364718585865651,2057,2059,2053,2052,2064,2056,1196
2144,1716364718595866009,2058,2060,2100,2037,1994,2037,1195
2145,1716364718605887917,2058,2051,2050,2055,2082,2057,1196
2146,1716364718615869107,2058,2073,2136,2068,2052,2070,1196
2147,1716364718625869875,2054,2062,2061,2071,2070,2051,1192
2148,1716364718635865844,2054,2051,2032,2064,2046,2044,1195
2149,1716364718645865079,2056,2063,2058,2068,2100,2059,1196
2150,1716364718655865277,2056,2056,2047,2074,2060,2062,1196
2151,1716364718665863500,2058,2065,2062,2054,2077,2056,1197
2152,1716364718675865851,2048,2044,2041,2045,2029,2064,1196
2153,1716364718685864645,2080,2060,2053,2059,2046,2055,1195
2154,1716364718695866435,2057,2043,1998,2072,2041,2044,1193
2155,1716364718705866411,2061,2052,2018,2073,2084,2064,1197
2156,1716364718715862611,2067,2074,2120,2064,2027,2072,1197
2157,1716364718725866415,2048,2047,2051,2033,2051,2068,1198
2158,1716364718735868325,2044,2045,2037,2061,2038,2045,1196
2159,1716364718745861158,2059,2052,2070,2061,2098,2062,1197
2160,1716364718755894508,2061,2054,2095,2052,2043,2042,1193
2161,1716364718765863416,2051,2046,2025,2060,2088,2054,1196
2162,1716364718775865556,2056,2057,2062,2072,2060,2038,1194
2163,1716364718785863238,2056,2061,2060,2062,2077,2061,1194
2164,1716364718795865809,2057,2050,2046,2060,2068,2040,1195
2165,1716364718805862249,2056,2047,2034,2039,2071,2052,1198
2166,1716364718815864330,2042,2037,2021,2064,2051,2051,1196
2167,1716364718825866200,2045,2037,2014,2084,2113,2050,1195
2168,1716364718835864624,2062,2081,2128,2076,2048,2062,1197
2169,1716364718845865833,2046,2046,2034,2047,2070,2046,1192
2170,1716364718855865569,2045,2029,2000,2034,2056,2062,1197
2171,1716364718865865665,2055,2048,2021,2058,2061,2056,1197
2172,1716364718875863828,2047,2046,2036,2058,2045,2053,1195
2173,1716364718885868905,2067,2076,2108,2083,2104,2052,1196
2174,1716364718895885903,2056,2058,2106,2033,2009,2046,1193
2175,1716364718905887303,2050,2054,2029,2069,2100,2065,1195
2176,1716364718915861781,2049,2056,2011,2060,2010,2040,1193
2177,1716364718925875955,2049,2057,2052,2084,2112,2062,1198
2178,1716364718935864590,2052,2056,2034,2038,2014,2048,1198
2179,1716364718945864416,2061,2060,2077,2075,2092,2074,1198
2180,1716364718955877457,2063,2070,2161,2078,2041,2051,1194
2181,1716364718965858427,2030,2044,2073,2056,2065,2064,1197
2182,1716364718975848776,2021,2017,1981,2054,2041,2033,1195
2183,1716364718985866306,2062,2047,2057,2076,2094,2053,1196
2184,1716364718995856313,2050,2051,2065,2072,2031,2041,1194
2185,1716364719005867481,2058,2054,2032,2031,2024,2048,1198
2186,1716364719015866075,2061,2053,2056,2071,2046,2060,1196
2187,1716364719025864899,2057,2050,2039,2056,2077,2064,1195
2188,1716364719035867160,2065,2068,2064,2069,2067,2053,1193
2189,1716364719045860644,2049,2047,2053,2054,2070,2096,1197
2190,1716364719055863196,2047,2058,2116,2068,2022,2045,1192
2191,1716364719065867891,2060,2056,2088,2063,2064,2039,1191
2192,1716364719075853952,2060,2081,2112,2055,2020,2070,1196
2193,1716364719085867324,2056,2052,2045,2040,2065,2033,1193
2194,1716364719095877750,2060,2046,2028,2047,2032,2035,1194
2195,1716364719105865463,2059,2047,2024,1997,2036,2076,1196
2196,1716364719115864548,2056,2047,1997,2062,2037,2039,1193
2197,1716364719125861679,2058,2054,2078,2047,2062,2064,1197
2198,1716364719135864521,2066,2080,2093,2091,2086,2052,1198
2199,1716364719145867073,2060,2070,2103,2057,2088,2072,1197
2200,1716364719155866758,2053,2050,2037,2036,2000,2009,1195
2201,1716364719165864541,2053,2040,2042,2067,2100,2047,1194
2202,1716364719175860089,2052,2040,2029,2040,2007,2046,1193
2203,1716364719185858864,2060,2056,2047,2054,2053,2051,1196
2204,1716364719195888406,2056,2056,2015,2045,2024,2048,1196
2205,1716364719205870559,2056,2061,2107,2068,2069,2058,1195
2206,1716364719215861838,2056,2049,2038,2060,2057,2062,1195
2207,1716364719225859891,2064,2056,2064,2088,2085,2062,1197
2208,1716364719235865058,2056,2059,2035,2050,2025,2043,1194
2209,1716364719245866107,2054,2050,2102,2057,2083,2060,1195
2210,1716364719255864059,2050,2045,2030,2056,2036,2040,1192
2211,1716364719265880377,2059,2045,2024,2040,2049,2027,1194
2212,1716364719275863101,2054,2048,2016,2046,2024,2058,1196
