seq,time,data[0],data[1],data[2],data[3],data[4],data[5],data[6]
201,1713857801143283090,2056,2051,2058,2064,2050,2055,1195
202,1713857801153281628,2057,2056,2059,2054,2058,2052,1196
203,1713857801163291508,2055,2049,2058,2066,2056,2056,1197
204,1713857801173287050,2059,2065,2080,2050,2058,2056,1197
205,1713857801183289486,2057,2056,2066,2060,2050,2056,1197
206,1713857801193286130,2052,2056,2056,2064,2056,2052,1195
207,1713857801203287575,2056,2056,2054,2084,2054,2056,1197
208,1713857801213288457,2056,2053,2056,2052,2089,2060,1195
209,1713857801223284149,2056,2053,2052,2045,2014,2053,1195
210,1713857801233289461,2054,2053,2051,2050,2064,2047,1194
211,1713857801243285003,2058,2056,2063,2058,2031,2049,1195
212,1713857801253289723,2056,2054,2052,2063,2074,2057,1196
213,1713857801263288632,2057,2051,2047,2060,1995,2045,1193
214,1713857801273286940,2054,2055,2051,2052,2053,2048,1197
215,1713857801283288434,2050,2052,2051,2062,2038,2056,1197
216,1713857801293288304,2056,2061,2059,2064,2085,2061,1196
217,1713857801303289888,2053,2051,2054,2073,1972,2049,1196
218,1713857801313290150,2060,2058,2065,2056,2082,2053,1196
219,1713857801323291443,2057,2052,2058,2064,2006,2053,1197
220,1713857801333288979,2054,2052,2048,2025,2118,2053,1196
221,1713857801343292708,2059,2061,2074,2056,2033,2061,1195
222,1713857801353293260,2057,2060,2081,2066,2073,2049,1196
223,1713857801363294753,2055,2047,2040,2073,1990,2057,1195
224,1713857801373295076,2058,2056,2053,2058,2052,2044,1192
225,1713857801383295477,2064,2052,2054,2051,1839,2049,1194
226,1713857801393280258,2056,2054,2049,2033,1994,2047,1192
227,1713857801403297844,2056,2050,2055,2074,1787,2056,1195
228,1713857801413280982,2052,2054,2056,2064,2882,2052,1194
229,1713857801423300421,2060,2047,2049,2018,9,2051,1197
230,1713857801433299970,2057,2059,2056,2072,3664,2057,1196
231,1713857801443301354,2060,2052,2058,2065,8,2061,1194
232,1713857801453303079,2053,2057,2068,2074,4092,2034,1195
233,1713857801463284814,2058,2053,2043,2054,8,2058,1196
234,1713857801473288373,2056,2062,2082,2053,4092,2049,1198
235,1713857801483287842,2052,2052,2054,2045,8,2058,1195
236,1713857801493280729,2054,2057,2054,2024,4093,2050,1196
237,1713857801503287153,2068,2056,2050,2060,7,2056,1194
238,1713857801513289158,2059,2077,2128,2061,4092,2056,1195
239,1713857801523286774,2060,2048,2045,2054,7,2059,1193
240,1713857801533290833,2058,2065,2081,2036,4092,2047,1196
241,1713857801543285694,2061,2053,2046,2051,7,2058,1196
242,1713857801553286827,2056,2050,2045,2040,4091,2050,1195
243,1713857801563286617,2057,2051,2032,2028,7,2059,1194
244,1713857801573320704,2058,2058,2078,2058,4093,2052,1197
245,1713857801583287642,2060,2052,2038,2084,6,2061,1195
246,1713857801593283815,2056,2052,2045,2092,4092,2052,1199
247,1713857801603289477,2058,2052,2033,2028,8,2059,1195
248,1713857801613287635,2051,2054,2058,2089,4092,2046,1194
249,1713857801623289870,2065,2059,2045,2025,6,2043,1194
250,1713857801633300581,2065,2069,2054,2058,4092,2057,1199
251,1713857801643286145,2065,2053,2041,2083,797,2060,1196
252,1713857801653284873,2009,2011,1995,2053,4088,2020,1194
253,1713857801663284754,2066,2057,2036,2061,4089,2059,1197
254,1713857801673312238,2049,2043,2044,2080,4092,2052,1197
255,1713857801683287431,2054,2047,2021,2144,4093,2053,1198
256,1713857801693282693,2056,2052,2033,2076,2002,2053,1195
257,1713857801703282313,2056,2056,2051,2098,7,2061,1198
258,1713857801713283736,2053,2057,2067,2056,6,2052,1196
259,1713857801723287455,2056,2051,2042,2056,517,2062,1196
260,1713857801733286574,2056,2061,2060,2041,1169,2056,1195
261,1713857801743283158,2054,2046,2056,2054,1550,2050,1197
262,1713857801753284623,2065,2058,2026,2032,1803,2052,1194
263,1713857801763283030,2060,2065,2094,2041,1882,2059,1195
264,1713857801773308530,2050,2047,2028,2061,1957,2052,1196
265,1713857801783287892,2056,2061,2121,2074,1976,2057,1194
266,1713857801793284747,2054,2051,2036,2067,2023,2052,1194
267,1713857801803286651,2065,2053,2047,2082,2034,2064,1196
268,1713857801813286030,2045,2052,2052,2043,2033,2053,1197
269,1713857801823285230,2042,2047,2049,2077,2090,2067,1196
270,1713857801833287145,2054,2049,2047,2053,2037,2050,1197
271,1713857801843286695,2052,2051,2062,2025,2036,2054,1195
272,1713857801853284171,2064,2062,2044,2101,2092,2068,1198
273,1713857801863294462,2053,2052,2086,2040,2042,2057,1197
274,1713857801873302779,2057,2070,2103,2061,2069,2052,1196
275,1713857801883292239,2050,2045,2058,2049,2030,2043,1196
276,1713857801893285057,2056,2061,2088,2037,2045,2059,1196
277,1713857801903286611,2056,2047,2036,2049,2030,2074,1197
278,1713857801913284357,2054,2057,2029,2036,2053,1994,1194
279,1713857801923288687,2059,2051,2040,2049,2017,2070,1197
280,1713857801933294739,2080,2088,2145,2086,2098,2049,1197
281,1713857801943289841,2050,2038,2021,2094,2132,2076,1196
282,1713857801953289641,2088,2064,2071,2047,2064,2057,1195
283,1713857801963290734,2057,2058,2108,2056,2066,2076,1197
284,1713857801973309943,2060,2053,2077,2060,2033,2056,1198
285,1713857801983292540,2053,2074,2150,2078,2033,2031,1196
286,1713857801993290086,2056,2052,2045,2053,2094,2056,1197
287,1713857802003293395,2059,2033,1974,2050,2037,2050,1197
288,1713857802013298036,2069,2074,2078,2052,2069,2048,1197
289,1713857802023300743,2054,2050,2066,2053,2046,2057,1196
290,1713857802033300664,2061,2072,2106,2076,2062,2041,1194
291,1713857802043293442,2059,2072,2120,2082,2056,2052,1195
292,1713857802053294205,2051,2073,2138,2068,2074,2047,1194
293,1713857802063281512,2053,2030,2016,2041,2027,2064,1196
294,1713857802073318114,2072,2072,2106,2082,2039,2038,1194
295,1713857802083285272,2050,2043,2021,2004,2015,2050,1197
296,1713857802093285434,2052,2060,2065,2037,2024,2014,1195
297,1713857802103284163,2056,2056,2058,2060,2068,2061,1198
298,1713857802113292611,2062,2061,2006,2058,2048,2038,1194
299,1713857802123287913,2067,2072,2132,2081,2056,2039,1192
300,1713857802133290219,2048,2039,1972,2051,2088,2082,1196
301,1713857802143280141,2060,2059,2044,2048,2027,2050,1194
302,1713857802153285573,2050,2052,2053,2044,2065,2068,1195
303,1713857802163291907,2061,2043,2037,2051,2015,2049,1194
304,1713857802173301878,2059,2082,2036,2101,2076,2047,1193
305,1713857802183283334,2040,2026,1980,2042,2043,2101,1195
306,1713857802193282303,2040,2064,2056,2057,2082,2084,1195
307,1713857802203284829,2064,2066,2076,2072,2026,2050,1196
308,1713857802213283619,2055,2049,2020,2051,2079,2063,1195
309,1713857802223299191,2055,2050,2041,2047,2128,2105,1196
310,1713857802233288281,2060,2056,2069,2051,2056,2020,1194
311,1713857802243301859,2049,2061,2081,2072,2072,2002,1195
312,1713857802253284336,2073,2080,2125,2096,2052,2021,1193
313,1713857802263282665,2031,2048,2120,2049,2045,2056,1196
314,1713857802273308195,2090,2088,2099,2052,2061,2081,1198
315,1713857802283285202,2086,2050,1977,2038,2047,2071,1197
316,1713857802293279644,2012,2052,2043,2084,2077,1995,1196
317,1713857802303285807,1994,2018,2029,2081,2094,2097,1199
318,1713857802313292251,2059,2134,2214,2091,2065,2114,1197
319,1713857802323298013,2033,2042,2065,2032,2017,2022,1193
320,1713857802333288006,2083,2122,2419,2136,2096,2096,1197
321,1713857802343287085,2076,2035,1995,2064,2045,2064,1194
322,1713857802353284241,2101,2053,2016,2013,2018,2051,1196
323,1713857802363281918,2029,2041,2081,2056,2100,2046,1193
324,1713857802373297090,2056,2057,2068,2060,2021,2042,1192
325,1713857802383287222,2076,2028,1982,1996,1993,2004,1193
326,1713857802393283235,2068,2062,1993,2037,2097,2078,1198
327,1713857802403287846,2032,2047,2040,2039,2005,2030,1194
328,1713857802413282437,2072,2074,2065,2058,2075,2086,1197
329,1713857802423290845,2085,2113,2171,2074,2070,2054,1197
330,1713857802433281719,2075,2061,2022,2060,2061,2082,1195
331,1713857802443282432,2057,2061,2030,2076,2006,2009,1194
332,1713857802453288395,2060,2061,2051,2081,2093,2034,1193
333,1713857802463284940,2072,2077,2149,2044,2079,2058,1196
334,1713857802473295762,2043,2032,1957,2042,2052,2060,1198
335,1713857802483285054,2036,2021,1960,2040,2057,2060,1195
336,1713857802493280246,2045,2024,1955,2056,2060,2037,1193
337,1713857802503281971,2056,2026,1979,2055,2046,2052,1197
338,1713857802513279267,2056,2064,2088,2057,2042,2034,1194
339,1713857802523283607,2053,2083,2143,2084,2026,2060,1196
340,1713857802533281464,2058,2064,2060,2072,2140,2161,1196
341,1713857802543282387,2045,2056,2048,2061,2048,2052,1198
342,1713857802553280075,2064,2050,2032,2049,2052,2046,1190
343,1713857802563281800,2041,2034,2034,2031,2065,2050,1197
344,1713857802573316248,2044,2050,1992,2043,2064,2065,1195
345,1713857802583293355,2054,2045,2018,2031,2030,2059,1197
346,1713857802593282365,2050,2030,2005,2030,2052,2043,1196
347,1713857802603285763,2018,2048,2057,2042,1994,2026,1195
348,1713857802613285705,2058,2062,2072,2058,2044,2059,1195
349,1713857802623281688,2062,2064,2075,2060,2050,2067,1196
350,1713857802633282873,2030,2040,1996,2047,2083,2077,1196
351,1713857802643298574,2044,2036,2012,2048,2033,2046,1196
352,1713857802653299698,2057,2045,1999,2062,2056,2032,1194
353,1713857802663297445,2040,2028,2018,2042,2050,2048,1198
354,1713857802673293499,2065,2093,2155,2070,2061,2033,1194
355,1713857802683303119,2112,2068,2047,2059,2047,2116,1197
356,1713857802693302560,2079,2088,2164,2070,2068,1985,1195
357,1713857802703299205,2056,2060,2057,2040,2125,2070,1197
358,1713857802713296441,2057,2039,2027,2021,2050,2045,1193
359,1713857802723295421,2060,2059,2002,2056,2050,2052,1196
360,1713857802733292626,2054,2058,2064,2047,2070,2049,1198
361,1713857802743295303,2034,2060,2084,2040,2056,2061,1197
362,1713857802753293742,2046,2043,1998,2029,2058,2054,1196
363,1713857802763291309,2065,2084,2242,2080,2014,2045,1195
364,1713857802773306329,2071,2080,2176,2045,2050,2105,1196
365,1713857802783291282,2061,2042,2034,2068,2089,2061,1196
366,1713857802793289670,2069,2066,2095,2061,2057,2038,1193
367,1713857802803296926,2048,2046,2040,2053,2021,2050,1196
368,1713857802813292038,2040,2050,2035,2044,2056,2047,1193
369,1713857802823307499,2076,2073,2113,2052,2047,2053,1197
370,1713857802833292863,2034,2057,2053,2046,2054,2055,1196
371,1713857802843294487,2098,2105,2188,2083,2069,2066,1195
372,1713857802853293917,2053,2038,1994,2020,2035,2052,1197
373,1713857802863296133,2052,2040,2008,2035,2040,2041,1194
374,1713857802873303319,2066,2043,2000,2032,2039,2032,1195
375,1713857802883296227,2025,2048,2050,2056,2068,2090,1196
376,1713857802893297390,2064,2008,1931,2054,2092,2052,1197
377,1713857802903299306,2056,2044,2037,2031,2052,2073,1196
378,1713857802913299267,2072,2106,2152,2063,2092,2064,1196
379,1713857802923306252,2061,2060,2042,2004,2033,2056,1197
380,1713857802933301464,2066,2037,2008,2047,2056,2040,1195
381,1713857802943301857,2061,2042,1990,2057,2043,2058,1197
382,1713857802953303001,2044,2032,1953,2024,2060,2036,1193
383,1713857802963303233,2066,2044,2042,2044,2010,2058,1198
384,1713857802973302803,2085,2043,2027,2057,2064,2058,1198
385,1713857802983303636,2050,2028,1968,2056,2038,2043,1193
386,1713857802993287106,2030,2018,1966,2033,2065,2049,1197
387,1713857803003288402,2058,2047,2032,2052,2061,2069,1200
388,1713857803013289166,2039,2062,2080,2061,2065,2058,1193
389,1713857803023289107,2070,2029,2005,2053,2060,2063,1197
390,1713857803033285883,2055,2076,2101,2095,2151,2061,1196
391,1713857803043291146,2061,2061,2092,2068,2038,2084,1195
392,1713857803053292039,2057,2085,2088,2056,2036,2057,1197
393,1713857803063290548,2050,2112,2316,2076,2044,2091,1196
394,1713857803073299998,2070,2102,2173,2076,2066,2034,1194
395,1713857803083295101,2036,2037,2022,2034,2001,2018,1193
396,1713857803093325482,2072,2081,2095,2056,2017,2092,1197
397,1713857803103296858,2042,2046,2052,2065,2031,2042,1193
398,1713857803113295538,2027,2018,1966,2034,2072,2053,1195
399,1713857803123294677,2049,2042,2028,2040,2046,2072,1196
400,1713857803133294339,2092,2142,2394,2106,2060,2026,1194
401,1713857803143293639,2052,2043,2058,2036,2012,2049,1193
402,1713857803153296046,2076,2105,2214,2082,2083,2058,1194
403,1713857803163292301,2076,2070,2090,2088,2073,2060,1194
404,1713857803173306500,2056,2052,2050,2050,2074,2051,1194
405,1713857803183293507,2056,2041,2019,2053,2032,2059,1196
406,1713857803193289791,2049,2044,2027,2052,2056,2050,1195
407,1713857803203293451,2065,2041,2014,2052,2047,2069,1197
408,1713857803213291730,2086,2060,2076,2068,2081,2070,1197
409,1713857803223303464,2052,2040,2019,2057,2042,2052,1197
410,1713857803233289629,2059,2036,1997,2037,2056,2056,1198
411,1713857803243291294,2056,2064,2099,2065,2032,2061,1197
412,1713857803253291467,2056,2044,2008,2061,2070,2062,1198
413,1713857803263289946,2052,2034,1992,2048,2052,2072,1197
414,1713857803273306710,2052,2084,2174,2092,2086,2060,1199
415,1713857803283296643,2054,2036,2005,2049,2053,2040,1194
416,1713857803293299059,2071,2115,2200,2073,2034,2019,1193
417,1713857803303294483,2053,2058,2056,2064,2049,2054,1197
418,1713857803313291949,2048,2059,2051,2068,2033,2042,1193
419,1713857803323299716,2058,2064,2148,2049,2029,2044,1193
420,1713857803333290892,2057,2064,2102,2080,2106,2091,1199
421,1713857803343299420,2015,2028,1984,2043,2031,2028,1196
422,1713857803353292769,2074,2060,2068,2025,1950,2041,1193
423,1713857803363294153,2053,2047,2039,2064,2025,2028,1196
424,1713857803373307301,2075,2013,1934,2000,2079,2050,1197
425,1713857803383293656,2046,2036,2012,2055,2037,2060,1195
426,1713857803393293127,2050,2033,1993,2034,1971,2001,1193
427,1713857803403295725,2060,2054,2066,2051,2044,2045,1194
428,1713857803413292530,2070,2029,1965,2035,2049,2035,1193
429,1713857803423294015,2020,2044,2099,2068,2067,2072,1197
430,1713857803433293365,2086,2078,2096,2075,2028,2058,1197
431,1713857803443293788,2056,2026,1962,2032,2048,2060,1198
432,1713857803453295935,2053,2044,2056,2032,2052,2028,1194
433,1713857803463296688,2065,2091,2186,2069,2039,2002,1195
434,1713857803473300047,2080,2098,2176,2088,2051,2058,1198
435,1713857803483299297,2096,2019,1867,2041,2028,2032,1194
436,1713857803493299169,2021,2036,1997,2060,2042,2020,1195
437,1713857803503301465,2029,2034,2011,2052,2037,2040,1195
438,1713857803513283452,2045,2089,2196,2116,2100,2090,1198
439,1713857803523302641,2046,2028,1962,2045,1955,2042,1193
440,1713857803533303454,2072,2097,2146,2065,2043,2054,1195
441,1713857803543305862,2037,2007,1954,2013,2145,2085,1197
442,1713857803553304490,2120,2094,2029,2098,2146,2070,1195
443,1713857803563305535,2050,2088,2072,2104,2073,2077,1197
444,1713857803573306519,2093,2056,2013,2073,2093,2039,1195
445,1713857803583290910,2056,2057,2040,2074,2083,2060,1197
446,1713857803593306573,2035,2032,1981,2061,2021,2048,1196
447,1713857803603296244,2064,2056,2045,2056,2040,1974,1193
448,1713857803613293511,2080,2053,2043,2023,1930,2007,1193
449,1713857803623297340,2056,2060,2141,2060,2046,2057,1197
450,1713857803633297763,2066,2040,2009,2050,2041,2050,1195
451,1713857803643297344,2014,2026,1951,2053,2071,2059,1197
452,1713857803653294210,2093,2067,2078,2045,2109,1988,1194
453,1713857803663292299,2071,2101,2108,2072,2091,2068,1196
454,1713857803673296648,2073,2057,2032,2044,2060,2008,1195
455,1713857803683296721,2030,2040,2061,2012,1995,2030,1194
456,1713857803693294759,2047,2032,1886,2045,2093,2101,1197
457,1713857803703294851,2049,2046,2053,2046,2026,2067,1197
458,1713857803713292439,2036,2050,2146,2050,2044,2053,1197
459,1713857803723296308,2046,2053,2125,2017,2043,2074,1196
460,1713857803733302883,2070,2064,2043,2060,2046,2064,1196
461,1713857803743295139,2072,2096,2240,2078,2071,2039,1193
462,1713857803753292466,2075,2060,2074,2046,2070,2082,1195
463,1713857803763296746,2066,2047,2036,2044,2056,2088,1196
464,1713857803773294364,2032,2048,2053,2070,2061,2028,1193
465,1713857803783295528,2027,2040,1985,2061,2137,2092,1195
466,1713857803793293526,2042,2047,2065,2009,1996,2038,1193
467,1713857803803295302,2078,2108,2281,2082,2056,2049,1197
468,1713857803813296575,2059,2070,2104,2057,2093,2072,1196
469,1713857803823296347,2117,2067,2135,2050,2050,2052,1197
470,1713857803833292813,2049,2049,2035,2046,2066,2058,1196
471,1713857803843293165,2071,2072,2159,2078,2072,2077,1197
472,1713857803853293899,2039,2030,1982,2024,2047,2056,1197
473,1713857803863294391,2047,2042,2066,2024,2016,2057,1195
474,1713857803873296177,2057,2064,2024,2056,2035,2047,1197
475,1713857803883296349,2059,2058,2120,2076,2031,2059,1198
476,1713857803893291682,2045,2057,2124,2068,2056,2036,1195
477,1713857803903296063,2088,2079,2082,2042,2050,2009,1194
478,1713857803913294331,2052,2061,2120,2062,2100,2034,1195
479,1713857803923295275,2064,2073,2148,2066,2059,2056,1195
480,1713857803933296599,2047,2028,1984,2065,2060,2040,1193
481,1713857803943291742,2065,2077,2144,2069,2019,2045,1193
482,1713857803953292636,2079,2037,1952,2040,2124,2105,1194
483,1713857803963294481,2080,2047,2008,2042,2036,2033,1192
484,1713857803973302128,2027,2038,2037,2061,2032,2071,1196
485,1713857803983291720,2066,2036,2008,2024,2040,2039,1194
486,1713857803993290459,2054,2047,2033,2064,2059,2046,1194
487,1713857804003298237,2057,2030,1947,2063,2038,2049,1195
488,1713857804013294762,2028,2019,1972,2053,2067,2056,1194
489,1713857804023297159,2050,2038,2003,2032,1992,2045,1193
490,1713857804033291030,2054,2073,2149,2054,2096,2061,1196
491,1713857804043301513,2057,2038,2004,2044,2039,2052,1197
492,1713857804053293099,2040,2053,2068,2045,2076,2060,1195
493,1713857804063294483,2036,2022,1975,2029,2036,2056,1195
494,1713857804073293854,2023,2027,1930,2017,2050,2093,1197
495,1713857804083301541,2066,2096,2304,2112,2092,2093,1195
496,1713857804093292486,2075,2063,2054,2068,2049,2021,1194
497,1713857804103295533,2060,2039,2013,2046,2047,2053,1198
498,1713857804113295706,2077,2070,2104,2058,2061,2036,1193
499,1713857804123291621,2093,2116,2248,2107,2064,2063,1196
500,1713857804133291553,2030,2020,1985,2017,1967,2038,1194
501,1713857804143299340,2048,2045,2000,2077,2064,2120,1199
502,1713857804153294603,2045,2022,1948,2033,2070,2045,1192
503,1713857804163296078,2052,2061,2072,2042,2048,2064,1198
504,1713857804173293866,2056,2053,2088,2055,2044,2038,1194
505,1713857804183294279,2053,2067,2132,2074,2061,2060,1197
506,1713857804193296465,2072,2042,2021,2058,2048,2040,1193
507,1713857804203295115,2045,2047,1997,2048,2046,2060,1197
508,1713857804213281581,2058,2056,2035,2050,2058,2027,1194
509,1713857804223295520,2053,2072,2045,2080,2089,2070,1197
510,1713857804233304640,2066,2052,2051,2047,1973,2000,1194
511,1713857804243294222,2055,2043,2024,2053,2047,2050,1195
512,1713857804253297140,2083,2033,1977,2033,2052,2037,1193
513,1713857804263293766,2060,2040,2020,2059,2096,2108,1197
514,1713857804273294739,2042,2027,1980,2040,2052,2076,1196
515,1713857804283296635,2026,2024,1971,2050,2035,2052,1197
516,1713857804293296367,2049,2029,1988,2044,2132,1993,1194
517,1713857804303296209,2047,2037,1996,2043,1999,2064,1197
518,1713857804313295319,2060,2116,2246,2105,2072,2066,1195
519,1713857804323292556,2085,2047,2057,2043,2027,2040,1194
520,1713857804333294312,2071,2090,2135,2056,2043,2024,1193
521,1713857804343295327,2066,2035,1929,2038,2030,2050,1198
522,1713857804353293995,2090,2094,2140,2075,2076,2011,1194
523,1713857804363294078,2070,2052,2046,2050,2069,2067,1198
524,1713857804373299311,2055,2053,2056,2041,2070,2035,1192
525,1713857804383296728,2050,2054,2061,2059,2035,2064,1196
526,1713857804393296349,2059,2042,2039,2046,2080,2053,1196
527,1713857804403297283,2056,2042,2025,2043,2045,2050,1197
528,1713857804413302275,2042,2124,2306,2108,2054,2055,1196
529,1713857804423298450,2046,2037,2033,2040,2022,2023,1194
530,1713857804433301006,2062,2087,2143,2062,2058,2056,1196
531,1713857804443306930,2048,2032,1978,2026,2036,2052,1198
532,1713857804453301452,2050,2054,2044,2052,2055,2054,1196
533,1713857804463303399,2056,2036,2032,2045,2009,2082,1197
534,1713857804473305234,2046,2036,2038,2024,2034,2054,1197
535,1713857804483306418,2052,2040,2084,2037,2003,2044,1193
536,1713857804493303685,2066,2048,2001,2061,2043,2032,1193
537,1713857804503287837,2038,2039,2008,2056,2042,2054,1196
538,1713857804513306835,2065,2039,1972,2076,2076,2044,1195
539,1713857804523308110,2035,2017,1919,2045,1981,2022,1194
540,1713857804533307692,2062,2036,1999,2039,2061,2067,1198
541,1713857804543290000,2056,2026,1988,2040,2045,2046,1195
542,1713857804553291966,2047,2032,1971,2020,2043,2045,1193
543,1713857804563289854,2058,2079,2097,2063,2073,2089,1196
544,1713857804573292722,2036,2005,1913,2012,2041,2043,1194
545,1713857804583314617,2060,2036,2009,2039,2040,2050,1196
546,1713857804593294750,2034,2012,1949,2019,2049,2062,1196
547,1713857804603288690,2068,2083,2202,2074,2071,2053,1198
548,1713857804613295616,2065,2060,2048,2100,2042,2050,1195
549,1713857804623293154,2043,2024,2003,2041,2028,2042,1193
550,1713857804633295160,2069,2075,2123,2082,2086,2045,1193
551,1713857804643296123,2069,2076,2061,2056,2034,2048,1197
552,1713857804653296156,2052,2032,2000,2036,2057,2056,1198
553,1713857804663294755,2088,2045,2034,2049,2053,2054,1193
554,1713857804673294558,2063,2128,2285,2086,2068,2041,1195
555,1713857804683295811,2053,2044,2052,2047,2047,2056,1194
556,1713857804693295173,2056,2025,1978,2021,2058,2053,1197
557,1713857804703295345,2064,2068,2056,2062,2102,2065,1196
558,1713857804713296901,2053,2064,2008,2066,2120,1990,1194
559,1713857804723294548,2044,2058,2012,2053,2043,2050,1196
560,1713857804733310070,2042,2045,2059,2060,2047,2033,1193
561,1713857804743293160,2072,2061,2047,2050,2008,2040,1192
562,1713857804753292321,2058,2030,1993,2028,2068,2050,1196
563,1713857804763296000,2054,2037,2064,2027,2052,2056,1198
564,1713857804773297304,2047,2042,2026,2047,2018,2035,1193
565,1713857804783296715,2059,2047,2070,2053,2013,2048,1195
566,1713857804793295115,2057,2072,2072,2100,2094,2088,1196
567,1713857804803293574,2043,2048,2024,2064,2051,2058,1197
568,1713857804813294417,2060,2072,2124,2068,2096,2064,1196
569,1713857804823294079,2014,2023,1969,2029,1996,2056,1194
570,1713857804833296336,2068,2084,2164,2072,2072,2044,1192
571,1713857804843294514,2053,2047,2020,2059,2051,2056,1197
572,1713857804853294827,2087,2056,2009,2066,2056,2090,1195
573,1713857804863293607,2020,2046,2044,2064,2071,2047,1194
574,1713857804873293880,2028,2016,1951,2016,2001,2019,1194
575,1713857804883293191,2060,2088,2169,2075,2053,2057,1199
576,1713857804893298352,2033,2040,2037,2039,2037,2044,1195
577,1713857804903296511,2070,2066,2053,2061,2052,2056,1198
578,1713857804913295382,2053,2056,2056,2056,2074,2053,1198
579,1713857804923296616,2051,2048,2065,2044,2032,2061,1199
580,1713857804933296978,2068,2061,2012,2049,2074,2081,1196
581,1713857804943302432,2045,2031,1973,2058,2007,2026,1195
582,1713857804953297304,2053,2052,2041,2047,2060,2061,1195
583,1713857804963297116,2065,2056,1992,2048,2025,2045,1193
584,1713857804973307748,2060,2045,2015,2053,2051,2053,1196
585,1713857804983298763,2059,2053,2051,2051,2051,2050,1194
586,1713857804993299527,2053,2044,2046,2057,2063,2059,1196
587,1713857805003302667,2061,2082,2117,2047,2024,2054,1200
588,1713857805013301237,2052,2045,2029,2031,2061,2054,1198
589,1713857805023308012,2077,2094,2136,2100,2068,2069,1196
590,1713857805033302985,2049,2038,2041,2064,2050,2056,1195
591,1713857805043303799,2046,2047,2046,2008,2037,2044,1192
592,1713857805053304132,2088,2155,2479,2127,2074,2082,1196
593,1713857805063306318,2053,2041,2018,2042,2041,2040,1195
594,1713857805073304567,2049,2044,2046,2036,2054,2044,1192
595,1713857805083318516,2074,2085,2168,2080,2105,2072,1198
596,1713857805093306034,2042,2026,1982,2049,2000,2036,1195
597,1713857805103292621,2094,2048,2062,2069,2096,2052,1195
598,1713857805113291331,2075,2095,2185,2067,2035,2032,1192
599,1713857805123294609,2048,2029,2029,2067,2036,2053,1196
600,1713857805133294741,2073,2101,2156,2085,2104,2066,1197
601,1713857805143293842,2081,2080,2125,2056,2066,2078,1196
602,1713857805153295117,2040,2063,2026,2096,2144,2061,1195
603,1713857805163295470,2038,2035,2036,2060,2062,2055,1197
604,1713857805173295832,2056,2052,2037,2037,2005,2018,1195
605,1713857805183294382,2051,2046,2074,2075,2052,2056,1195
606,1713857805193297280,2036,2020,1992,2046,2033,2021,1193
607,1713857805203296481,2058,2053,2059,2059,2034,2049,1196
608,1713857805213296073,2046,2043,2002,2025,2061,2092,1197
609,1713857805223293610,2053,2081,2115,2079,2085,2074,1195
610,1713857805233293372,2046,2056,2026,2085,2087,2068,1195
611,1713857805243292202,2064,2087,2184,2070,2021,2045,1192
612,1713857805253297895,2049,2040,2001,2046,2052,2049,1196
613,1713857805263294531,2052,2040,2021,2044,2042,2048,1198
614,1713857805273291557,2065,2083,2180,2070,2033,2053,1197
615,1713857805283289966,2052,2040,2018,2057,2055,2054,1195
616,1713857805293290770,2052,2044,2026,2047,2053,2047,1194
617,1713857805303292135,2053,2060,2052,2054,2029,2034,1193
618,1713857805313304121,2072,2068,2002,2040,2061,2080,1194
619,1713857805323292671,2049,2031,2021,2028,2032,2048,1196
620,1713857805333299346,2060,2048,2065,2052,2037,2088,1195
621,1713857805343293998,2037,2053,2056,2057,2018,2042,1194
622,1713857805353305784,2051,2029,1972,2043,1987,2035,1192
623,1713857805363291688,2051,2081,2046,2077,2021,2079,1197
624,1713857805373293403,2047,2040,2013,2032,2016,2022,1194
625,1713857805383295871,2050,2036,2013,2044,2037,2031,1193
626,1713857805393293058,2045,2058,2015,2099,2147,2096,1196
627,1713857805403295194,2065,2043,1988,2041,2063,2070,1198
628,1713857805413292330,2026,2033,1872,2030,2011,2050,1197
629,1713857805423293836,2050,2028,1941,2022,2037,2036,1195
630,1713857805433297545,2089,2071,2097,2045,2056,2073,1195
631,1713857805443295143,2014,2023,2030,2072,2038,2065,1196
632,1713857805453293462,2064,2065,2047,2068,2092,2068,1198
633,1713857805463292633,2073,2011,1904,2005,2060,2074,1196
634,1713857805473293967,2046,2024,1944,2036,2072,2072,1196
635,1713857805483296064,2051,2054,2097,2056,2058,2043,1193
636,1713857805493293942,2033,2072,2092,2065,2096,2090,1197
637,1713857805503297211,2040,2042,1970,2072,2125,2076,1197
638,1713857805513293235,2060,2049,2011,2032,2056,2061,1198
639,1713857805523296003,2091,2037,1969,2034,2014,2029,1192
640,1713857805533331384,2060,2024,1946,2081,2019,2075,1196
641,1713857805543292751,2049,2033,1962,2045,2102,2074,1195
642,1713857805553296702,2060,2038,2051,2031,2089,2091,1197
643,1713857805563303477,2026,2022,1976,2047,2013,2034,1190
644,1713857805573294381,2077,2020,1937,2022,2099,2056,1196
645,1713857805583299183,2060,2027,1980,2052,2048,2075,1194
646,1713857805593308053,2046,2033,1968,2031,2018,2020,1193
647,1713857805603293647,2074,2060,2098,2041,2024,2029,1194
648,1713857805613302386,2040,2044,2070,2040,2084,2003,1194
649,1713857805623295525,2088,2106,2201,2073,2021,2060,1196
650,1713857805633299274,2051,2011,1981,2056,2061,2049,1197
651,1713857805643295088,2061,2036,2046,2064,2052,2068,1196
652,1713857805653295182,2052,2042,2040,2056,2040,2027,1194
653,1713857805663285745,2033,2022,1936,2080,2114,2052,1197
654,1713857805673291909,2048,2052,2014,2041,2040,2025,1196
655,1713857805683291982,2056,2040,2000,2061,2045,2048,1198
656,1713857805693294309,2100,2073,2083,2048,2050,2047,1194
657,1713857805703292988,2040,2077,2184,2062,2066,2079,1196
658,1713857805713292589,2068,2045,2036,2045,2033,2040,1193
659,1713857805723293083,2056,2040,2013,2045,2056,2066,1197
660,1713857805733292053,2061,2068,2060,2044,2002,2046,1191
661,1713857805743301123,2052,2050,2081,2033,2049,2072,1198
662,1713857805753293721,2059,2047,2060,2047,2030,2001,1193
663,1713857805763296478,2072,2052,2041,2042,2046,2052,1194
664,1713857805773295960,2061,2136,2345,2110,2069,2065,1195
665,1713857805783294680,2059,2059,2046,2054,2070,2060,1196
666,1713857805793296195,2060,2059,2062,2074,2069,2066,1193
667,1713857805803296288,2062,2034,2016,2045,2068,2040,1192
668,1713857805813296199,2056,2058,2050,2052,2069,2069,1194
669,1713857805823296472,2057,2079,2068,2072,2077,2048,1196
670,1713857805833325231,2037,2052,2061,2061,2088,2047,1194
671,1713857805843295345,2073,2050,2032,2049,2047,2043,1192
672,1713857805853293804,2050,2066,2112,2064,2062,2065,1195
673,1713857805863295960,2049,2050,2019,2053,2026,2043,1195
674,1713857805873294901,2057,2034,1998,2036,2061,2063,1198
675,1713857805883297258,2081,2099,2176,2062,2016,2034,1192
676,1713857805893297320,2039,2005,1972,2028,2035,2036,1195
677,1713857805903300879,2058,2045,2036,2049,2041,2045,1192
678,1713857805913299699,2056,2063,2122,2066,2027,2056,1197
679,1713857805923300673,2054,2032,1960,2017,2045,2047,1194
680,1713857805933300926,2044,2087,2103,2066,2062,2050,1196
681,1713857805943317320,2076,2048,2116,2038,2020,2050,1195
682,1713857805953303195,2004,2013,2126,2034,2042,2065,1193
683,1713857805963303277,2018,1917,1717,1956,2056,2025,1193
684,1713857805973304182,2054,2100,1996,2051,2027,2014,1193
685,1713857805983311838,2027,2012,1907,2024,2013,2049,1196
686,1713857805993265281,2076,2035,1980,2037,2030,2087,1196
687,1713857806003308749,2062,2057,2053,2064,2077,2049,1196
688,1713857806013290095,2059,2052,2061,2064,2055,2042,1194
689,1713857806023291460,2045,2041,2050,2080,2134,2106,1195
690,1713857806033311301,2061,2060,2058,2066,2063,2036,1193
691,1713857806043290423,2050,2053,2052,2059,2052,2048,1196
692,1713857806053293761,2015,2029,2017,2026,2056,2055,1197
693,1713857806063294845,2074,2154,2221,2096,2083,2104,1197
694,1713857806073295208,2053,2028,1979,2049,2080,2057,1196
695,1713857806083293677,2069,2086,2160,2081,2054,2052,1196
696,1713857806093292388,2052,2049,2030,2060,2053,2056,1197
697,1713857806103293311,2060,2045,1972,2086,2048,2073,1197
698,1713857806113295408,2031,2025,1991,2049,2069,2035,1193
699,1713857806123292734,2037,2000,1885,2013,2012,1975,1193
700,1713857806133305601,2090,2096,2117,2082,2084,2097,1196
701,1713857806143290936,2020,2018,1958,2046,2087,2050,1200
702,1713857806153289685,2073,2073,2054,2064,2064,2057,1193
703,1713857806163290669,2038,2062,2061,2108,2055,2067,1197
704,1713857806173288918,2061,2032,2008,2052,2054,2047,1193
705,1713857806183317125,2045,2044,2040,2032,2026,2027,1195
706,1713857806193291117,2081,2105,2198,2071,2064,2083,1195
707,1713857806203292372,2061,2058,2045,2041,2036,2037,1193
708,1713857806213293025,2047,2040,2056,2040,2053,2041,1194
709,1713857806223291644,2062,2066,2082,2021,2052,2056,1197
710,1713857806233269734,2049,2037,2021,2047,2024,2010,1193
711,1713857806243292581,2049,2096,2133,2092,2047,2060,1195
712,1713857806253292283,2062,2042,2004,2066,2077,2050,1195
713,1713857806263299739,2056,2050,2064,2045,2053,2057,1197
714,1713857806273296365,2045,2021,1961,2000,1963,2032,1193
715,1713857806283296948,2049,2031,1984,2037,2018,2001,1195
716,1713857806293295868,2056,2050,2060,2027,2025,2042,1194
717,1713857806303292675,2069,2072,2100,2050,2058,2060,1197
718,1713857806313296835,2024,2043,2042,2048,2034,2028,1193
719,1713857806323295694,2088,2099,2143,2089,2066,2120,1197
720,1713857806333298251,2058,2056,1992,2069,2046,2039,1193
721,1713857806343294917,2057,2053,2092,2052,2056,2052,1196
722,1713857806353294459,2054,2060,2061,2053,2052,2056,1195
723,1713857806363293900,2058,2017,1954,2024,2021,2016,1192
724,1713857806373294864,2044,2112,2296,2122,2102,2117,1196
725,1713857806383298774,2055,2029,1976,2035,2038,2064,1197
726,1713857806393309907,2049,2050,2045,2058,2040,2042,1195
727,1713857806403296303,2011,2028,1971,2024,2041,2040,1194
728,1713857806413294442,2059,2050,2021,2049,2079,2058,1197
729,1713857806423296358,2061,2057,2048,2055,2056,2057,1198
730,1713857806433294927,2064,2045,2034,2047,2047,2045,1193
731,1713857806443297795,2030,2088,2222,2118,2071,2058,1195
732,1713857806453298548,2049,2026,1996,2047,2038,2033,1197
733,1713857806463299012,2056,2048,2028,2051,2049,2047,1196
734,1713857806473298002,2057,2077,2120,2122,2059,2061,1194
735,1713857806483307232,2076,2017,1932,2047,2063,2058,1194
736,1713857806493311593,2053,2044,2046,2054,2062,2061,1195
737,1713857806503299171,2066,2053,2034,2050,2048,2047,1194
738,1713857806513306869,2068,2064,2108,2058,2053,2036,1195
739,1713857806523302873,2034,2046,2052,2060,2104,2060,1198
740,1713857806533304278,2058,2066,2112,2074,2052,2057,1196
741,1713857806543305482,2065,2053,2037,2040,2033,2045,1194
742,1713857806553290665,2045,2074,2098,2067,2043,2054,1195
743,1713857806563292832,2072,2072,2109,2062,2073,2076,1196
744,1713857806573294237,2058,2057,2093,2079,2065,2064,1195
745,1713857806583296954,2056,2053,2042,2074,2066,2051,1197
746,1713857806593300864,2056,2051,2037,2061,2040,2044,1195
747,1713857806603300706,2064,2052,2027,2066,2046,2052,1198
748,1713857806613295518,2060,2042,2028,2050,2050,2060,1197
749,1713857806623292395,2068,2060,2048,2044,2053,2057,1198
750,1713857806633252349,2052,2022,2000,2034,2047,2052,1196
751,1713857806643298400,2033,2027,1996,2023,2061,2056,1198
752,1713857806653291459,2064,2071,2134,2038,2061,2073,1197
753,1713857806663296250,2059,2052,2025,2057,2030,2044,1193
754,1713857806673290442,2050,2041,2026,2051,2054,2068,1197
755,1713857806683299642,2047,2048,2018,2060,2045,2040,1193
756,1713857806693326636,2061,2060,2017,2050,2052,2072,1196
757,1713857806703291210,2048,2048,2037,2050,2056,2046,1194
758,1713857806713286512,2071,2068,2084,2053,2057,2056,1195
759,1713857806723298398,2083,2061,2053,2061,2053,2045,1194
760,1713857806733291297,2044,2043,1961,2061,2046,2052,1197
761,1713857806743295497,2058,2041,2002,2060,2065,2041,1196
762,1713857806753290489,2055,2053,2075,2069,2069,2060,1193
763,1713857806763302094,2072,2031,1976,2038,2048,2043,1195
764,1713857806773295232,2019,2050,2064,2080,2074,2054,1198
765,1713857806783292991,2057,2020,1965,2010,2033,2033,1195
766,1713857806793321038,2058,2057,2052,2050,2046,2052,1196
767,1713857806803298145,2056,2058,2064,2056,2056,2053,1196
768,1713857806813294781,2048,2045,2035,2042,2021,2040,1192
769,1713857806823293671,2064,2050,2019,2058,2053,2036,1193
770,1713857806833293283,2052,2076,2115,2061,2051,2057,1195
771,1713857806843294317,2059,2060,2081,2058,2057,2056,1197
772,1713857806853291704,2051,2047,2046,2053,2046,2050,1196
773,1713857806863292287,2080,2126,2297,2094,2075,2083,1196
774,1713857806873293742,2054,2033,2011,2049,2044,2050,1197
775,1713857806883270880,2066,2058,2060,2054,2047,2040,1193
776,1713857806893316211,2050,2042,2009,2046,2046,2053,1197
777,1713857806903291214,2076,2088,2113,2072,1977,2064,1197
778,1713857806913289352,2047,2033,2040,2043,2046,2064,1197
779,1713857806923288713,2060,2066,2057,2042,2057,2070,1198
780,1713857806933323052,2030,2037,2021,2059,2036,2056,1197
781,1713857806943294259,2072,2059,2040,2065,2049,2047,1193
782,1713857806953295233,2057,2045,2008,2052,2044,2042,1190
783,1713857806963293391,2056,2061,2000,2084,2068,2056,1197
784,1713857806973297541,2055,2044,2045,2056,2044,2035,1192
785,1713857806983293536,2056,2044,1996,2048,2052,2065,1198
786,1713857806993308448,2059,2046,2053,2080,2097,2042,1193
787,1713857807003293161,2066,2060,2084,2058,2058,2048,1196
788,1713857807013280127,2072,2064,2123,2086,2100,2045,1194
789,1713857807023291031,2054,2036,1988,2033,2021,2044,1192
790,1713857807033292676,2044,2040,2026,2055,2076,2058,1196
791,1713857807043291025,2053,2050,2052,2058,2061,2052,1196
792,1713857807053288802,2048,2048,2031,2068,2091,2057,1196
793,1713857807063294204,2084,2112,2278,2084,2072,2077,1196
794,1713857807073291331,2058,2078,2112,2066,2050,2058,1195
795,1713857807083292696,2048,2044,2014,2050,2056,2055,1197
796,1713857807093299210,2044,2044,2069,2045,2049,2052,1196
797,1713857807103295856,2068,2050,2025,2034,2034,2058,1198
798,1713857807113288643,2078,2112,2211,2064,2042,2056,1197
799,1713857807123292443,2046,2041,2017,2024,2060,2051,1197
800,1713857807133292495,2033,2036,1994,2068,2054,2046,1194
801,1713857807143291805,2062,2073,2106,2058,2072,2070,1195
802,1713857807153289864,2062,2058,2068,2058,2046,2059,1194
803,1713857807163280217,2048,2054,2059,2051,2058,2048,1194
804,1713857807173289487,2066,2069,2117,2088,2056,2055,1195
805,1713857807183294008,2055,2111,2278,2082,2068,2062,1196
806,1713857807193294541,2058,2032,2000,2051,2047,2040,1194
807,1713857807203293240,2044,2049,2059,2052,2056,2051,1198
808,1713857807213295908,2036,2030,2029,2047,2046,2056,1194
809,1713857807223295348,2060,2044,2004,2052,2054,2043,1193
810,1713857807233293577,2049,2068,2100,2074,2056,2071,1197
811,1713857807243294541,2017,2033,2024,2038,2051,2049,1195
812,1713857807253296467,2043,2057,2070,2073,2052,2053,1197
813,1713857807263293222,2044,2047,2048,2046,2050,2049,1197
814,1713857807273296610,2044,2040,2042,2042,2037,2049,1196
815,1713857807283295310,2064,2077,2097,2069,2058,2053,1197
816,1713857807293314048,2069,2084,2103,2072,2073,2069,1196
817,1713857807303294402,2064,2068,2196,2054,2044,2059,1195
818,1713857807313293863,2052,2055,2092,2048,2046,2044,1194
819,1713857807323295448,2049,2047,2028,2030,2067,2057,1197
820,1713857807333295420,2042,2037,2037,2056,2041,2044,1195
821,1713857807343297977,2057,2029,1994,2038,2039,2048,1194
822,1713857807353297108,2047,2045,2043,2054,2041,2047,1192
823,1713857807363299484,2037,2051,2044,2059,2058,2045,1194
824,1713857807373299396,2065,2070,2106,2058,2064,2068,1197
825,1713857807383301382,2061,2058,2056,2065,2072,2068,1196
826,1713857807393309229,2047,2033,2030,2040,2029,2049,1195
827,1713857807403309451,2058,2075,2114,2078,2065,2045,1192
828,1713857807413302250,2052,2047,2058,2058,2044,2058,1195
829,1713857807423304005,2072,2060,2066,2049,2045,2048,1196
830,1713857807433305108,2050,2045,2040,2056,2022,2051,1197
831,1713857807443288900,2043,2040,2049,2034,2044,2053,1196
832,1713857807453308018,2053,2047,2026,2062,2060,2051,1197
833,1713857807463306879,2048,2053,2047,2047,2037,2044,1194
834,1713857807473290138,2050,2043,2064,2040,2040,2053,1196
835,1713857807483290721,2062,2062,2042,2044,2052,2044,1193
836,1713857807493290542,2049,2026,1990,2040,2040,2037,1193
837,1713857807503294011,2057,2045,2050,2058,2059,2060,1196
838,1713857807513294374,2055,2047,2037,2067,2048,2050,1196
839,1713857807523294095,2053,2053,2054,2050,2052,2053,1196
840,1713857807533293496,2059,2062,2060,2044,2068,2057,1196
841,1713857807543293578,2053,2088,2167,2074,2047,2057,1197
842,1713857807553299823,2047,2047,2056,2056,2046,2056,1193
843,1713857807563292380,2077,2067,2059,2054,2048,2044,1194
844,1713857807573293615,2045,2040,2044,2060,2049,2033,1193
845,1713857807583293015,2061,2056,2019,2056,2062,2076,1196
846,1713857807593295021,2041,2012,2014,2048,2037,2040,1194
847,1713857807603303570,2051,2031,2001,2043,2056,2056,1198
848,1713857807613293151,2044,2014,2013,2049,2029,2026,1194
849,1713857807623285709,2038,2047,2064,2032,2050,2068,1196
850,1713857807633294858,2072,2057,2044,2060,2050,2028,1192
851,1713857807643293788,2057,2046,2045,2049,2031,2047,1192
852,1713857807653293369,2045,2033,2011,2058,2053,2060,1196
853,1713857807663293482,2061,2067,2065,2074,2031,2044,1194
854,1713857807673277563,2070,2092,2140,2066,2068,2056,1197
855,1713857807683297714,2064,2043,2035,2058,2061,2046,1194
856,1713857807693297886,2056,2034,2000,2062,2056,2060,1196
857,1713857807703296726,2050,2041,2025,2064,2100,2056,1195
858,1713857807713294564,2047,2043,2020,2037,2040,2048,1194
859,1713857807723295738,2066,2098,2190,2072,2039,2056,1196
860,1713857807733294398,2065,2083,2194,2068,2045,2030,1194
861,1713857807743293377,2057,2056,2058,2064,2089,2057,1197
862,1713857807753293230,2047,2028,1978,2056,2034,2061,1196
863,1713857807763295025,2044,2028,2005,2035,2033,2032,1192
864,1713857807773294465,2061,2076,2165,2066,2033,2045,1193
865,1713857807783292875,2056,2054,2038,2051,2045,2052,1197
866,1713857807793296764,2052,2034,1995,2042,2038,2057,1196
867,1713857807803296265,2063,2066,2040,2061,2042,2041,1194
868,1713857807813290175,2051,2040,2042,2046,2024,2052,1195
869,1713857807823297641,2056,2047,2048,2056,2056,2058,1196
870,1713857807833309456,2056,2058,2061,2081,2051,2037,1196
871,1713857807843326562,2057,2064,2076,2057,2056,2051,1196
872,1713857807853299681,2052,2050,2032,2049,2044,2066,1198
873,1713857807863294253,2028,2051,2048,2053,2044,2041,1193
874,1713857807873296169,2035,2040,2054,2058,2045,2064,1199
875,1713857807883296161,2064,2068,2051,2047,2061,2059,1198
876,1713857807893297034,2058,2046,2031,2051,2042,2047,1192
877,1713857807903298720,2059,2063,2078,2050,2056,2053,1196
878,1713857807913299253,2044,2037,1977,2047,2044,2077,1196
879,1713857807923299745,2060,2061,2043,2047,2051,2041,1192
880,1713857807933301151,2049,2036,2027,2051,2041,2044,1194
881,1713857807943299439,2062,2051,2022,2049,2072,2072,1196
882,1713857807953299731,2050,2037,1983,2047,2050,2052,1196
883,1713857807963302319,2045,2012,1914,2052,2014,2038,1194
884,1713857807973302651,2046,2010,1981,2033,2036,2062,1197
885,1713857807983305057,2040,2029,2027,2050,2044,2042,1191
886,1713857807993301793,2060,2088,2144,2041,2036,2042,1191
887,1713857808003306326,2023,1988,1894,2014,2056,2052,1197
888,1713857808013308201,2064,2078,2160,2077,2052,2029,1194
889,1713857808023294947,2045,2036,1962,2048,2042,2040,1194
890,1713857808033300459,2055,2044,2020,2043,2045,2071,1195
891,1713857808043291073,2046,2056,2050,2056,2052,2040,1192
892,1713857808053301444,2056,2048,1997,2060,2051,2058,1196
893,1713857808063293961,2042,2044,2032,2050,2056,2048,1195
894,1713857808073291228,2057,2064,2073,2058,2018,2046,1196
895,1713857808083292261,2076,2109,2198,2075,2072,2072,1194
896,1713857808093295138,2064,2070,2071,2082,2103,2058,1194
897,1713857808103294559,2040,2051,2060,2052,2061,2045,1193
898,1713857808113296044,2057,2052,2002,2065,2066,2070,1197
899,1713857808123292339,2066,2065,2010,2074,2088,2052,1195
900,1713857808133295346,2052,2047,2050,2062,2040,2000,1194
901,1713857808143312801,2029,2037,1965,2042,2056,2044,1192
902,1713857808153296391,2049,2050,2062,2032,2046,2062,1193
903,1713857808163296924,2060,2049,2029,2051,2061,2069,1195
904,1713857808173293879,2045,2052,2089,2064,2032,2043,1192
905,1713857808183294011,2061,2066,2077,2064,2063,2046,1193
906,1713857808193295315,2056,2057,2069,2061,2045,2045,1192
907,1713857808203294936,2053,2054,2056,2061,2073,2068,1195
908,1713857808213294366,2058,2068,2044,2060,2041,2051,1199
909,1713857808223295921,2057,2048,2068,2052,2054,2048,1195
910,1713857808233293878,2068,2060,2027,2079,2047,2043,1193
911,1713857808243292056,2042,2047,2026,2046,2053,2060,1197
912,1713857808253293691,2055,2042,2034,2034,2040,2051,1197
913,1713857808263293021,2042,2044,2026,2063,2060,2058,1196
914,1713857808273292402,2072,2056,2073,2054,2052,2068,1197
915,1713857808283295901,2056,2067,2054,2053,2060,2043,1195
916,1713857808293321442,2060,2041,1978,2064,2030,2050,1197
917,1713857808303294642,2044,2021,1949,2051,2057,2049,1196
918,1713857808313291036,2061,2049,2013,2064,2037,2066,1196
919,1713857808323290497,2076,2084,2134,2072,2064,2056,1196
920,1713857808333291390,2058,2031,1972,2064,2041,2028,1192
921,1713857808343295750,2056,2061,2108,2049,2084,2106,1193
922,1713857808353296613,2054,2036,2020,2031,2032,2043,1191
923,1713857808363292477,2068,2109,2180,2109,2035,2055,1194
924,1713857808373292939,2044,2017,1969,2034,2014,2053,1196
925,1713857808383295566,2052,2020,1954,2018,2070,2018,1195
926,1713857808393293634,2037,2060,2216,2059,2035,2037,1193
927,1713857808403293916,2064,2017,1906,2029,2041,2041,1195
928,1713857808413296101,2084,2064,2076,2055,2046,2045,1194
929,1713857808423291384,2096,2144,2385,2106,2084,2066,1197
930,1713857808433294111,2047,2037,1990,2056,2045,2050,1196
931,1713857808443293110,2045,2016,1960,2012,2043,2043,1192
932,1713857808453293163,2066,2088,2162,2058,2081,2072,1196
933,1713857808463291171,2056,2057,2050,2064,2054,2057,1196
934,1713857808473291543,2012,2040,2036,2044,1987,2040,1194
935,1713857808483292546,2102,2131,2330,2073,2084,2150,1196
936,1713857808493295965,2056,2051,2056,2048,2037,2032,1192
937,1713857808503291978,2023,1995,1828,2049,2042,2072,1197
938,1713857808513294154,2045,2012,1962,2037,2061,2076,1197
939,1713857808523295699,2053,2052,2042,2045,2054,2045,1193
940,1713857808533292754,2057,2113,2252,2082,2066,2050,1195
941,1713857808543290702,2044,2065,2117,2070,2044,2045,1193
942,1713857808553307576,2047,2068,2152,2056,2056,2086,1194
943,1713857808563294763,2036,2028,2006,2024,2028,2026,1192
944,1713857808573303762,2070,2050,2108,2084,2093,2108,1197
945,1713857808583295197,2053,2013,1924,2034,2044,2042,1192
946,1713857808593314646,2037,2029,2005,2053,2031,2037,1193
947,1713857808603303807,2087,2077,2105,2047,2071,2069,1196
948,1713857808613292526,2073,2073,2190,2064,2041,1988,1191
949,1713857808623296827,2028,2085,2139,2056,2030,1932,1194
950,1713857808633295156,2034,2034,2011,2072,2073,2099,1196
951,1713857808643298604,2050,2036,1997,2041,2028,2011,1193
952,1713857808653294397,2048,2042,2037,2036,2056,2096,1197
953,1713857808663297024,2065,2009,1836,2013,2056,1976,1193
954,1713857808673295633,2060,2142,2282,2064,2045,2073,1194
955,1713857808683294552,2057,2036,1983,2034,2060,2020,1192
956,1713857808693298070,2049,2069,2077,2070,2087,2058,1193
957,1713857808703302360,2074,2061,2120,2046,2080,2044,1192
958,1713857808713295559,2034,2040,2028,2038,2040,2050,1197
959,1713857808723294648,2058,2088,2216,2065,2060,2059,1197
960,1713857808733296103,2030,2013,1989,2032,2037,2061,1196
961,1713857808743302006,2046,2037,2030,2042,2011,1930,1192
962,1713857808753298290,2060,1937,1720,2000,2013,2045,1191
963,1713857808763296278,2072,2138,2358,2092,2096,2174,1197
964,1713857808773297522,2017,2015,1982,2033,2072,1934,1192
965,1713857808783297423,2056,2053,2047,2054,2092,2094,1196
966,1713857808793298357,2027,2019,2033,2044,2045,2130,1195
967,1713857808803298810,2086,2078,2052,2047,2054,2094,1197
968,1713857808813304512,2073,2092,2114,2101,2041,2092,1198
969,1713857808823300967,2085,2064,2061,2045,2053,2081,1194
970,1713857808833301079,2021,2047,2070,2052,2038,2060,1197
971,1713857808843307583,2049,2064,2054,2084,2044,2102,1194
972,1713857808853303947,2086,2093,2196,2092,2052,2021,1193
973,1713857808863303999,2056,2122,2221,2124,2092,2053,1195
974,1713857808873304271,2060,2040,2015,2032,2012,2016,1195
975,1713857808883306196,2052,2045,2020,2053,2052,2165,1199
976,1713857808893306408,2043,2010,1924,2040,2058,2088,1197
977,1713857808903308053,2070,2038,2077,2040,2058,2086,1198
978,1713857808913289348,2047,2076,2132,2058,2053,2132,1196
979,1713857808923292526,2061,2073,2172,2057,2040,2009,1193
980,1713857808933292067,2044,2103,2226,2099,2061,2020,1195
981,1713857808943299713,2056,2071,2173,2080,2086,2212,1197
982,1713857808953294384,2058,2044,2018,2043,2029,2066,1193
983,1713857808963292683,2056,2062,2078,2056,2060,2051,1196
984,1713857808973291653,2049,2032,1997,2044,2042,2056,1196
985,1713857808983298297,2072,2096,2240,2084,2067,2107,1196
986,1713857808993300233,2052,2036,2031,2047,2030,2040,1194
987,1713857809003295094,2057,2055,2053,2060,2066,2053,1197
988,1713857809013292557,2056,2049,2060,2060,2044,2064,1195
989,1713857809023291145,2072,2118,2180,2079,2088,2084,1194
990,1713857809033292169,2053,2045,2034,2037,2049,2072,1194
991,1713857809043295827,2058,2059,2056,2062,2079,2058,1196
992,1713857809053292611,2054,2045,2045,2061,2036,2061,1197
993,1713857809063293184,2058,2064,2053,2072,2064,2056,1196
994,1713857809073293986,2057,2057,2061,2068,2048,2056,1197
995,1713857809083298076,2056,2054,2061,2062,2069,2056,1197
996,1713857809093292827,2052,2052,2048,2044,2054,2057,1197
997,1713857809103293549,2068,2071,2070,2074,2076,2064,1196
998,1713857809113295033,2062,2064,2102,2086,2058,2060,1196
999,1713857809123295214,2064,2056,2051,2070,2056,2054,1194
1000,1713857809133293643,2048,2044,2058,2056,2045,2051,1195
1001,1713857809143294616,2054,2056,2058,2084,2067,2052,1198
1002,1713857809153314024,2073,2041,2054,2052,2052,2070,1195
1003,1713857809163294026,2061,2058,2056,2085,2060,2058,1196
1004,1713857809173294779,2058,2065,2061,2029,2035,2055,1195
1005,1713857809183293638,2053,2055,2058,2035,2065,2051,1197
1006,1713857809193321974,2056,2072,2065,2088,2050,2057,1197
1007,1713857809203291906,2065,2057,2046,2069,2056,2044,1194
1008,1713857809213292609,2057,2049,2051,2029,2041,2049,1197
1009,1713857809223296568,2052,2056,2055,1996,2063,2048,1197
1010,1713857809233304143,2054,2055,2053,2136,2057,2058,1193
1011,1713857809243299265,2058,2072,2059,2082,2057,2048,1196
1012,1713857809253289226,2058,2056,2055,2057,2060,2045,1192
1013,1713857809263293716,2063,2064,2068,2120,2064,1985,1194
1014,1713857809273293557,2060,2056,2062,2089,2077,2042,1196
1015,1713857809283293879,1996,2060,2057,2152,2080,2053,1196
1016,1713857809293299621,2031,2047,2054,2024,2060,2085,1196
1017,1713857809303291326,2035,2046,2045,2040,2049,2060,1196
1018,1713857809313301667,2058,2055,2067,2102,2055,2037,1193
1019,1713857809323289685,2057,2062,2056,2072,2060,1993,1194
1020,1713857809333288083,2056,2045,2049,2036,2053,2066,1196
1021,1713857809343297382,2054,2057,2064,1968,2052,2047,1194
1022,1713857809353294949,2056,2044,2056,2074,2056,2058,1193
1023,1713857809363291312,2064,2058,2057,2093,2088,2060,1193
1024,1713857809373290402,2061,2062,2053,2060,2052,2039,1193
1025,1713857809383294230,2060,2068,2065,2135,2068,2107,1196
1026,1713857809393294362,2064,2046,2053,2093,2088,2088,1196
1027,1713857809403296016,2050,2055,2053,2071,2073,2050,1195
1028,1713857809413295736,2056,2049,2056,2076,2029,2100,1196
1029,1713857809423300256,2058,2056,2058,2049,2034,2049,1197
1030,1713857809433307051,2051,2045,2048,2058,2034,2053,1195
1031,1713857809443302673,2056,2057,2063,2064,2064,2035,1189
1032,1713857809453284559,2115,2068,2052,2066,2038,1998,1194
1033,1713857809463287766,2052,2056,2048,2000,2034,2038,1192
1034,1713857809473288378,2056,2048,2044,2075,2020,2014,1194
1035,1713857809483289061,2060,2064,2047,2032,2023,2068,1197
1036,1713857809493283581,2057,2048,2056,2025,2009,2057,1196
1037,1713857809503288872,2057,2060,2056,2040,2060,2056,1194
1038,1713857809513281238,2052,2056,2058,2076,2033,2056,1196
1039,1713857809523286340,2060,2059,2063,2020,2060,2057,1198
1040,1713857809533289256,2052,2052,2066,2076,2040,2057,1195
1041,1713857809543290440,2050,2056,2058,2060,2112,2059,1194
1042,1713857809553295490,2053,2046,2052,2136,2052,2056,1194
1043,1713857809563284430,2056,2064,2057,1919,2016,2047,1192
1044,1713857809573282398,2057,2056,2062,2031,2064,2064,1197
1045,1713857809583283460,2054,2056,2059,2054,2065,2056,1195
1046,1713857809593283332,2053,2052,2058,2050,2062,2062,1197
1047,1713857809603247162,2053,2046,2046,2046,2073,2052,1194
1048,1713857809613286680,2058,2049,2045,2084,2101,2064,1196
1049,1713857809623306831,2056,2052,2048,2060,2056,2056,1194
1050,1713857809633291622,2056,2048,2050,2057,2037,2049,1196
1051,1713857809643293887,2056,2057,2049,2082,2076,2054,1196
1052,1713857809653296143,2057,2048,2030,2080,2024,2052,1195
1053,1713857809663292116,2060,2069,2098,2005,2049,2049,1197
1054,1713857809673297037,2051,2046,2042,2050,2032,2046,1193
1055,1713857809683292369,2050,2055,2053,2052,2023,2040,1193
1056,1713857809693323821,2057,2054,2048,2069,2056,2057,1196
1057,1713857809703301558,2050,2051,2044,2029,2065,2056,1197
1058,1713857809713291780,2052,2049,2056,2050,2033,2052,1196
1059,1713857809723293084,2053,2056,2056,2083,2069,2056,1197
1060,1713857809733292594,2057,2047,2041,2046,2042,2048,1196
1061,1713857809743289419,2050,2050,2056,2022,2054,2052,1196
1062,1713857809753294540,2056,2051,2047,2040,2045,2054,1197
1063,1713857809763294161,2052,2040,2048,2033,2062,2050,1195
1064,1713857809773295023,2058,2049,2052,2089,2041,2056,1196
1065,1713857809783291728,2052,2051,2048,2029,2060,2052,1195
1066,1713857809793293732,2057,2053,2048,2060,2047,2052,1195
1067,1713857809803296209,2054,2066,2061,2094,2073,2055,1197
1068,1713857809813295699,2054,2040,2053,2100,2056,2054,1196
1069,1713857809823295299,2056,2056,2058,2052,2064,2051,1195
1070,1713857809833294008,2053,2046,2047,2045,2032,2053,1196
1071,1713857809843292886,2050,2050,2039,2079,2061,2045,1193
1072,1713857809853293359,2056,2047,2052,2069,2054,2065,1196
1073,1713857809863299191,2056,2053,2041,2054,2048,2061,1198
1074,1713857809873295966,2053,2044,2027,2060,2038,2041,1193
1075,1713857809883293923,2054,2050,2032,2038,2056,2008,1194
1076,1713857809893292070,2059,2049,2048,1995,2027,2056,1197
1077,1713857809903299536,2046,2050,2045,2014,2056,2047,1195
1078,1713857809913293074,2052,2062,2057,2049,2049,2060,1196
1079,1713857809923295200,2054,2052,2057,2072,2067,2058,1196
1080,1713857809933294209,2056,2052,2060,2009,2040,2046,1193
1081,1713857809943288048,2055,2060,2053,2036,2050,2037,1193
1082,1713857809953331253,2059,2055,2058,2043,2038,2011,1193
1083,1713857809963294242,2053,2056,2060,2082,2071,2053,1196
1084,1713857809973294443,2058,2053,2055,2073,2044,2056,1194
1085,1713857809983292130,2063,2065,2069,2069,2064,2052,1195
1086,1713857809993293273,2057,2051,2048,2044,2050,2058,1195
1087,1713857810003299667,2064,2060,2063,2062,2068,2052,1197
1088,1713857810013294014,2056,2047,2045,2017,2045,2052,1196
1089,1713857810023295056,2050,2049,2049,2040,2062,2050,1197
1090,1713857810033291429,2054,2073,2069,2047,2025,2005,1195
1091,1713857810043288895,2053,2051,2051,2053,2063,2051,1197
1092,1713857810053298464,2044,2056,2056,2072,2045,2068,1196
1093,1713857810063293585,2056,2052,2056,2044,2061,2061,1197
1094,1713857810073294046,2053,2056,2056,2059,2039,2056,1199
1095,1713857810083313224,2053,2052,2060,2055,2068,2056,1196
1096,1713857810093296311,2060,2061,2052,2056,2032,2050,1196
1097,1713857810103291863,2056,2056,2058,2032,2067,2056,1196
1098,1713857810113293086,2052,2046,2056,2040,2048,2050,1198
1099,1713857810123310520,2054,2054,2047,2021,2052,2028,1192
1100,1713857810133298807,2058,2053,2057,2026,2045,2052,1196
1101,1713857810143292416,2056,2051,2041,2021,2058,2056,1196
1102,1713857810153290822,2062,2056,2075,2028,2040,2056,1195
1103,1713857810163291705,2056,2064,2091,2099,2065,2054,1195
1104,1713857810173293208,2065,2046,2026,2124,2028,2057,1195
1105,1713857810183295883,2049,2047,2026,2090,2062,2045,1194
1106,1713857810193335522,2056,2053,2010,1982,2044,2060,1196
1107,1713857810203294081,2051,2048,2033,2070,2069,2052,1197
1108,1713857810213298861,2066,2061,2064,2066,2053,2061,1196
1109,1713857810223298981,2064,2058,2060,2088,2074,2058,1196
1110,1713857810233279083,2065,2066,2070,2126,2052,2058,1197
1111,1713857810243299664,2057,2060,2053,2088,2071,2055,1195
1112,1713857810253296538,2059,2057,2052,2052,2045,2056,1196
1113,1713857810263280547,2049,2053,2047,2050,2073,2053,1198
1114,1713857810273285046,2060,2061,2069,2067,2044,2053,1195
1115,1713857810283300797,2052,2041,2018,2037,2052,2046,1195
1116,1713857810293304094,2061,2054,2050,2066,2037,2056,1196
1117,1713857810303282983,2046,2048,2059,2050,2053,2049,1198
1118,1713857810313285779,2048,2039,2045,2040,2032,2053,1196
1119,1713857810323283816,2057,2059,2040,2057,2078,2064,1197
1120,1713857810333284617,2052,2045,2040,2013,1998,2019,1193
1121,1713857810343291502,2052,2052,2047,2035,2066,2075,1196
1122,1713857810353284057,2061,2078,2065,2075,2045,2056,1196
1123,1713857810363287014,2061,2060,2065,2096,2070,2026,1193
1124,1713857810373284259,2057,2050,2046,1963,1980,2022,1194
1125,1713857810383286994,2068,2072,2090,2078,2141,2157,1195
1126,1713857810393289059,2057,2049,2056,1928,1984,2082,1194
1127,1713857810403283408,2054,2054,2050,2026,2049,2013,1192
1128,1713857810413283418,2060,2056,2058,2101,2063,1944,1193
1129,1713857810423290503,2056,2056,2054,2031,2053,2228,1196
1130,1713857810433286976,2056,2050,2049,1976,2040,2017,1194
1131,1713857810443289311,2061,2063,2060,1985,2040,2073,1194
1132,1713857810453290223,2054,2046,2050,1980,2037,2050,1197
1133,1713857810463289752,2053,2058,2059,2105,2069,2056,1197
1134,1713857810473326465,2055,2053,2056,2044,2040,2047,1194
1135,1713857810483286246,2055,2059,2049,2056,2069,2040,1194
1136,1713857810493290315,2063,2076,2064,2037,2040,2060,1197
1137,1713857810503283642,2054,2061,2057,2044,2064,2022,1193
1138,1713857810513286298,2056,2049,2051,2026,2041,2068,1197
1139,1713857810523292881,2060,2064,2052,2024,2059,2040,1193
1140,1713857810533289164,2053,2046,2050,2056,2040,2039,1194
1141,1713857810543290918,2059,2062,2058,2128,2088,2076,1196
1142,1713857810553293173,2049,2031,2010,2088,2046,2052,1195
1143,1713857810563287752,2068,2085,2132,2036,2061,2056,1194
1144,1713857810573291721,2056,2038,2022,2045,2039,2057,1197
1145,1713857810583284176,2056,2056,2054,2040,2060,2052,1196
1146,1713857810593286501,2060,2059,2056,2040,2050,2077,1197
1147,1713857810603286652,2057,2065,2109,2069,2070,2076,1195
1148,1713857810613286592,2056,2045,2034,2078,2041,2056,1196
1149,1713857810623287655,2052,2042,2022,2034,2074,2054,1194
1150,1713857810633291422,2056,2056,2056,1982,2037,2050,1196
1151,1713857810643287375,2063,2076,2073,2057,2068,2065,1195
1152,1713857810653281725,2056,2057,2026,2036,2024,2038,1193
1153,1713857810663286023,2053,2052,2047,2053,2065,2024,1193
1154,1713857810673294120,2055,2054,2046,2017,2031,2053,1197
1155,1713857810683286755,2053,2057,2046,2046,2065,2049,1197
1156,1713857810693288859,2058,2058,2093,2060,2045,2054,1198
1157,1713857810703288089,2051,2050,2024,2047,2072,2052,1196
1158,1713857810713289872,2056,2056,2067,2064,2038,2040,1194
1159,1713857810723290174,2053,2056,2063,2037,2085,2056,1196
1160,1713857810733286707,2056,2045,2036,2032,2032,2088,1197
1161,1713857810743294462,2052,2055,2040,2038,2053,2043,1196
1162,1713857810753294854,2058,2050,2056,2041,2026,2058,1195
1163,1713857810763306817,2056,2059,2054,2042,2061,2032,1192
1164,1713857810773289243,2060,2050,2056,2068,2070,2099,1195
1165,1713857810783296017,2060,2068,2090,2057,2063,2054,1195
1166,1713857810793297711,2053,2049,2033,2069,2045,2054,1196
1167,1713857810803296489,2056,2058,2061,2072,2076,2095,1196
1168,1713857810813294425,2061,2058,2067,2036,2021,2070,1196
1169,1713857810823296951,2060,2056,2051,2032,2062,2086,1195
1170,1713857810833297131,2053,2052,2052,2044,2032,2029,1193
1171,1713857810843297512,2063,2072,2099,2060,2080,2051,1197
1172,1713857810853308785,2053,2041,2029,2047,2038,2013,1196
1173,1713857810863304326,2058,2064,2081,2061,2042,2040,1194
1174,1713857810873285510,2051,2037,2000,2042,2025,2046,1193
1175,1713857810883293376,2045,2033,2030,2036,2024,2045,1193
1176,1713857810893285190,2060,2064,2122,2097,2040,2056,1196
1177,1713857810903283347,2051,2042,2037,2060,2086,2088,1197
1178,1713857810913286093,2072,2107,2219,2093,2033,2049,1197
1179,1713857810923291243,2049,2044,2041,2048,2044,2046,1193
1180,1713857810933283088,2059,2080,2239,2059,1997,2052,1197
1181,1713857810943284020,2040,2018,2012,2005,2001,2059,1197
1182,1713857810953281346,2062,2063,2045,2064,2046,2035,1192
1183,1713857810963300052,2055,2053,2029,2054,2026,2052,1196
1184,1713857810973287117,2058,2067,2104,2081,2048,2064,1197
1185,1713857810983285825,2065,2082,2116,2070,2070,2040,1193
1186,1713857810993283401,2047,2030,1996,2042,2011,2032,1194
1187,1713857811003285375,2058,2061,2052,2069,2043,2051,1195
1188,1713857811013281966,2058,2033,1999,2049,2053,2081,1196
1189,1713857811023284741,2050,2059,2085,2056,2072,2042,1193
1190,1713857811033266775,2062,2064,2072,2088,2102,2082,1196
1191,1713857811043291995,2065,2062,2046,2060,2024,2035,1193
1192,1713857811053288458,2080,2052,2034,2072,2060,2061,1197
1193,1713857811063278047,2046,2041,2024,2054,2081,2064,1197
1194,1713857811073294939,2050,2036,2036,2042,2014,2028,1194
1195,1713857811083285801,2052,2047,2032,2036,2104,2065,1196
1196,1713857811093293175,2062,2070,2132,2064,2037,2052,1198
1197,1713857811103284848,2060,2062,2072,2049,2064,2065,1195
1198,1713857811113284807,2061,2033,1992,2050,2042,2047,1192
1199,1713857811123283624,2035,2050,2056,2054,2074,2040,1193
1200,1713857811133288003,2061,2058,2141,2073,2072,2063,1195
1201,1713857811143286430,2046,2027,1945,2038,2062,2053,1196
1202,1713857811153283273,2052,2033,2013,2036,2035,2066,1193
1203,1713857811163293953,2058,2056,2039,2056,2128,2056,1195
1204,1713857811173290947,2055,2047,2047,2050,2040,2041,1193
1205,1713857811183285215,2050,2046,2033,2041,2033,2024,1194
1206,1713857811193290485,2073,2054,2053,2064,2026,2082,1197
1207,1713857811203286416,2064,2058,2020,2051,2053,2025,1194
1208,1713857811213286446,2052,2036,2010,2051,2035,2047,1194
1209,1713857811223288590,2059,2047,2008,2054,2066,2058,1197
1210,1713857811233286356,2099,2120,2316,2077,2041,2060,1196
1211,1713857811243296154,2047,2041,2020,2058,2083,2040,1192
1212,1713857811253282738,2045,2010,1933,2012,2027,2076,1197
1213,1713857811263284050,2063,2089,2096,2040,2094,2054,1196
1214,1713857811273294720,2052,2036,1999,2051,2029,2068,1197
1215,1713857811283288217,2050,2048,2040,2056,2065,2052,1193
1216,1713857811293285461,2059,2082,2127,2064,2072,2076,1194
1217,1713857811303289839,2048,2017,1969,2042,2083,2044,1193
1218,1713857811313282906,2067,2076,2028,2033,2049,2063,1195
1219,1713857811323308355,2056,2100,2154,2072,2068,2041,1195
1220,1713857811333286361,2056,2014,1922,2044,2064,2032,1192
1221,1713857811343288585,2056,2078,2084,2013,2068,2034,1194
1222,1713857811353285308,2070,2098,2149,2069,2030,2052,1197
1223,1713857811363287722,2052,2056,2077,2045,2064,2048,1198
1224,1713857811373290988,2050,2084,2077,2078,2054,2098,1197
1225,1713857811383287781,2051,2032,2020,2044,2060,2057,1197
1226,1713857811393283963,2057,2037,1983,2033,1992,2045,1194
1227,1713857811403285687,2072,2112,2081,2118,2045,2047,1195
1228,1713857811413283963,2053,2020,1964,2040,2066,2064,1196
1229,1713857811423289984,2050,2050,2039,2048,2058,2049,1194
1230,1713857811433288030,2060,2060,2058,2054,2036,2048,1196
1231,1713857811443286436,2056,2037,2035,2042,2052,2071,1197
1232,1713857811453284312,2060,2072,2105,2078,2000,2006,1195
1233,1713857811463289591,2052,2057,2017,2035,2004,2042,1196
1234,1713857811473289050,2060,2069,2092,2053,2053,2061,1197
1235,1713857811483287576,2044,2036,2012,2037,2058,2051,1197
1236,1713857811493287937,2056,2052,2071,2034,2056,2056,1196
1237,1713857811503283879,2065,2126,2268,2096,2098,2058,1196
1238,1713857811513286924,2072,2072,2081,2069,2044,2075,1197
1239,1713857811523290621,2064,2057,2031,2042,2044,2041,1194
1240,1713857811533293676,2072,2094,2069,2085,2097,2119,1196
1241,1713857811543292413,2041,2028,2000,2030,2061,2074,1195
1242,1713857811553289788,2051,2049,2034,2052,2072,2060,1196
1243,1713857811563291060,2045,2028,1993,2050,2056,2033,1192
1244,1713857811573292532,2057,2062,2080,2056,2078,2062,1197
1245,1713857811583294005,2048,2065,2085,2067,2081,2056,1196
1246,1713857811593294005,2053,2030,2040,2044,2054,2060,1197
1247,1713857811603295267,2060,2081,2106,2081,2092,2115,1198
1248,1713857811613295026,2056,2035,2046,2041,2084,2080,1195
1249,1713857811623296097,2057,2088,2087,2062,2081,2047,1195
1250,1713857811633298221,2056,2037,2018,2037,2017,2033,1194
1251,1713857811643278281,2048,2077,2107,2080,1996,2042,1192
1252,1713857811653273582,2061,2017,1956,2020,1992,2056,1195
1253,1713857811663300193,2043,2056,2080,2052,2004,2042,1195
1254,1713857811673304842,2046,2024,1970,2044,2022,2043,1194
1255,1713857811683284863,2069,2092,2142,2084,2117,2053,1196
1256,1713857811693286325,2059,2059,2085,2079,2052,2072,1196
1257,1713857811703285483,2056,2064,2065,2050,2074,2043,1193
1258,1713857811713281735,2046,2025,1985,2074,2093,2068,1196
1259,1713857811723289680,2035,2025,1972,2022,1964,2030,1194
1260,1713857811733305040,2059,2045,2048,2056,2042,2075,1196
1261,1713857811743285180,2072,2073,2101,2040,2041,2042,1194
1262,1713857811753285370,2050,2032,2012,2046,2041,2049,1195
1263,1713857811763284739,2053,2056,2043,2054,2000,2049,1198
1264,1713857811773285160,2046,2024,2006,2064,2087,2054,1197
1265,1713857811783282624,2049,2070,2070,2076,2104,2064,1196
1266,1713857811793284638,2068,2023,1969,2034,2102,2066,1196
1267,1713857811803282854,2066,2113,2137,2084,2081,2019,1194
1268,1713857811813285388,2053,2022,1958,2041,2048,2081,1198
1269,1713857811823284345,2054,2036,2001,2047,2061,2012,1193
1270,1713857811833299675,2034,2036,2032,2022,2016,2055,1196
1271,1713857811843290105,2088,2114,2222,2076,2059,2051,1194
1272,1713857811853287731,2050,2036,2004,2038,2047,2041,1195
1273,1713857811863285036,2074,2108,2121,2087,2092,2061,1197
1274,1713857811873286337,2072,2113,2254,2088,2049,2059,1199
1275,1713857811883285245,2055,2063,2014,2059,2094,2069,1196
1276,1713857811893290595,2066,2059,2145,2065,2053,2079,1198
1277,1713857811903282077,2047,2068,2101,2074,2036,1986,1193
1278,1713857811913296585,2054,2036,1999,2052,2028,2044,1195
1279,1713857811923286956,2066,2070,2090,2060,2069,2051,1198
1280,1713857811933307195,2050,2059,2112,2050,2049,2053,1197
1281,1713857811943288008,2053,2057,2038,2049,1992,2052,1195
1282,1713857811953282998,2045,2025,1980,2048,2036,2040,1192
1283,1713857811963283508,2053,2058,2034,2056,2060,2044,1194
1284,1713857811973284950,2057,2060,2099,2056,2065,2064,1197
1285,1713857811983281353,2068,2065,2060,2060,2046,2056,1197
1286,1713857811993285651,2032,2030,2033,2030,2017,2069,1196
1287,1713857812003279949,2069,2125,2121,2078,2061,2060,1195
1288,1713857812013285226,2064,2027,1932,2034,2026,2020,1193
1289,1713857812023288119,2044,2047,2045,2046,2058,2046,1193
1290,1713857812033319670,2052,2038,2013,2056,2034,2060,1195
1291,1713857812043282727,2056,2048,1994,2061,2066,2051,1196
1292,1713857812053280951,2047,2040,2052,2068,2061,2056,1198
1293,1713857812063284527,2046,2019,1947,2040,2058,2053,1197
1294,1713857812073284676,2076,2077,2144,2047,2029,1994,1193
1295,1713857812083285997,2051,2044,2024,2043,2057,2054,1197
1296,1713857812093274253,2064,2045,1997,2062,2077,2068,1197
1297,1713857812103289682,2044,2040,1980,2064,2086,2075,1195
1298,1713857812113287677,2056,2052,2028,2040,1983,2053,1196
1299,1713857812123289117,2068,2079,2122,2073,2082,2058,1194
1300,1713857812133289677,2029,2026,2031,2042,2024,2047,1193
1301,1713857812143288253,2073,2088,2160,2080,2101,2074,1194
1302,1713857812153293562,2052,2025,1984,2044,2053,2052,1194
1303,1713857812163290605,2054,2056,2038,2050,2066,2051,1195
1304,1713857812173293529,2054,2060,2146,2068,2048,2063,1196
1305,1713857812183293989,2049,2052,2052,1944,2044,2041,1194
1306,1713857812193304768,2081,2097,2142,2076,2051,2061,1198
1307,1713857812203288485,2046,2064,2098,2062,2071,2058,1195
1308,1713857812213296830,2057,2056,2022,2053,2037,2038,1191
1309,1713857812223298932,2047,2034,2001,2090,2056,2047,1193
1310,1713857812233313009,2056,2020,1980,2064,2047,2057,1195
1311,1713857812243287177,2049,2038,1969,2040,2019,2049,1196
1312,1713857812253301894,2056,2044,2069,2049,2042,2055,1195
1313,1713857812263283507,2043,2065,2099,2065,2064,2100,1195
1314,1713857812273283987,2040,2027,1992,2028,2059,2066,1195
1315,1713857812283284275,2057,2049,2026,2058,2074,2050,1196
1316,1713857812293314753,2056,2070,2112,2026,2041,2052,1196
1317,1713857812303285345,2084,2137,2270,2074,2065,2040,1192
1318,1713857812313289091,2062,2076,2120,2076,2075,2080,1196
1319,1713857812323282897,2054,2045,2024,2038,2064,2058,1196
1320,1713857812333284108,2072,2099,2141,2060,2065,2093,1197
1321,1713857812343286261,2037,2036,1996,2068,2081,2044,1193
1322,1713857812353283724,2060,2041,2012,2050,2041,2057,1194
1323,1713857812363287951,2064,2069,2026,2076,2092,2066,1196
1324,1713857812373287159,2054,2045,2036,2069,2019,2048,1196
1325,1713857812383290143,2076,2077,2139,2098,2080,2050,1196
1326,1713857812393289300,2049,2029,1971,2060,2040,2064,1196
1327,1713857812403282205,2047,2054,2037,2052,2040,2053,1197
1328,1713857812413285640,2069,2104,2164,2116,2125,2084,1196
1329,1713857812423289145,2061,2056,2027,2062,2134,2062,1196
1330,1713857812433284254,2096,2130,2236,2064,2060,2056,1197
1331,1713857812443285426,2055,2052,2056,2053,2031,2040,1193
1332,1713857812453292637,2045,2034,2077,2057,2041,2096,1196
1333,1713857812463284551,2058,2041,2000,2030,2105,2085,1195
1334,1713857812473284660,2048,2060,2113,2043,2011,2041,1192
1335,1713857812483282674,2051,2050,2047,2064,2058,2055,1196
1336,1713857812493287282,2051,2056,2138,2094,2051,2059,1196
1337,1713857812503292601,2066,2070,2097,2123,2067,2061,1197
1338,1713857812513286818,2061,2029,2004,2067,2033,2044,1193
1339,1713857812523285875,2049,2044,2074,1997,2058,2057,1195
1340,1713857812533283890,2072,2055,2026,2061,2045,2047,1192
1341,1713857812543285512,2063,2088,2161,2094,2037,2073,1197
1342,1713857812553293055,2062,2049,2032,2069,2056,2076,1193
1343,1713857812563282843,2066,2050,2037,2049,2079,2051,1197
1344,1713857812573296960,2053,2080,2146,2084,2048,2116,1196
1345,1713857812583286087,2040,2052,2072,2066,2042,2038,1194
1346,1713857812593284642,2062,2043,2083,2075,2055,2047,1193
1347,1713857812603297877,2058,2064,2057,2052,2075,2043,1194
1348,1713857812613285542,2078,2087,2141,2077,2023,2045,1195
1349,1713857812623285250,2059,2095,2028,2089,2100,2080,1196
1350,1713857812633282713,2036,2003,1948,2034,2049,2116,1196
1351,1713857812643286459,2057,2047,2064,2047,2097,2056,1198
1352,1713857812653282561,2047,2042,2024,2045,2017,2036,1196
1353,1713857812663282639,2064,2081,2102,2056,2086,2064,1197
1354,1713857812673284571,2025,2011,1989,2049,2036,2040,1195
1355,1713857812683285963,2061,2059,2052,2040,2089,2067,1197
1356,1713857812693317192,2060,2052,2065,2067,2034,2078,1197
1357,1713857812703282733,2045,2021,1941,2037,2057,2067,1196
1358,1713857812713282632,2032,2015,1964,2034,2018,2041,1196
1359,1713857812723286668,2054,2035,1945,2029,2052,2034,1192
1360,1713857812733284162,2051,2039,2016,2047,2050,2055,1197
1361,1713857812743296846,2070,2124,2340,2096,2084,2048,1198
1362,1713857812753281655,2070,2090,2212,2111,2072,2042,1193
1363,1713857812763281853,2044,2036,1997,2060,2057,2056,1193
1364,1713857812773282603,2074,2056,2061,2041,2028,2052,1196
1365,1713857812783304144,2082,2102,2171,2090,2079,2081,1196
1366,1713857812793298401,2056,2041,2015,2049,2045,2050,1196
1367,1713857812803284864,2052,2012,1917,2026,2057,2015,1194
1368,1713857812813285714,2065,2064,2045,2058,2021,2021,1194
1369,1713857812823283648,2052,2053,2017,2050,2061,2012,1192
1370,1713857812833280881,2066,2040,1996,2070,2011,2060,1195
1371,1713857812843290199,2061,2112,2094,2056,2058,2115,1197
1372,1713857812853301950,2053,2022,1972,2062,2045,2052,1197
1373,1713857812863289153,2054,2050,2036,2052,2053,2033,1192
1374,1713857812873295945,2062,2098,2224,2094,2049,2056,1198
1375,1713857812883286847,2051,2018,1925,2033,2074,2062,1197
1376,1713857812893287245,2059,2052,2046,2056,2040,2056,1197
1377,1713857812903319858,2059,2052,2069,2061,2068,2054,1196
1378,1713857812913289718,2047,2052,2026,2056,2037,2024,1192
1379,1713857812923292592,2049,2033,1985,2046,2081,2052,1197
1380,1713857812933292300,2049,2034,1980,2060,2056,2038,1195
1381,1713857812943294212,2064,2101,2114,2108,2035,1985,1197
1382,1713857812953309230,2052,2030,1989,2043,2045,2047,1193
1383,1713857812963293037,2040,2041,2041,2060,2085,2019,1193
1384,1713857812973296182,2056,2020,1977,2037,2044,2078,1198
1385,1713857812983297664,2049,2066,2088,2053,2055,2052,1193
1386,1713857812993279296,2056,2041,2007,2065,2048,2063,1195
1387,1713857813003301197,2072,2090,2162,2089,2067,2029,1193
1388,1713857813013280993,2047,2029,1982,2052,2060,2120,1195
1389,1713857813023281722,2041,2034,2015,2042,2081,2057,1195
1390,1713857813033283723,2047,2013,1955,2020,2041,2034,1194
1391,1713857813043304331,2049,2097,2170,2068,2096,2066,1198
1392,1713857813053283959,2072,2048,2050,2046,2019,2035,1194
1393,1713857813063304937,2056,2058,2061,2061,2068,2038,1196
1394,1713857813073292270,2037,2035,2024,2044,2025,2041,1194
1395,1713857813083289301,2059,2061,2117,2045,2056,2046,1194
1396,1713857813093287465,2061,2056,2062,2076,2048,2062,1197
1397,1713857813103288254,2065,2065,2065,2056,2056,2049,1194
1398,1713857813113289575,2066,2072,2003,2055,2032,2046,1196
1399,1713857813123287819,2051,2060,2090,2053,2068,2046,1196
1400,1713857813133271234,2057,2045,2040,2050,2047,2058,1195
1401,1713857813143293535,2053,2053,2065,2057,2072,2069,1196
1402,1713857813153261239,2060,2046,2042,2056,2065,2064,1195
1403,1713857813163290734,2044,2050,2045,2044,2060,2030,1193
1404,1713857813173286874,2075,2094,2208,2080,2074,2080,1196
1405,1713857813183288756,2072,2101,2129,2102,2074,2054,1198
1406,1713857813193293582,2050,2039,2056,2033,2037,2053,1198
1407,1713857813203285073,2060,2077,2185,2024,2068,2054,1197
1408,1713857813213292094,2063,2076,2176,2036,2060,2060,1196
1409,1713857813223289116,2053,2036,2010,1927,2041,2052,1197
1410,1713857813233291799,2050,2046,2046,2045,2060,2069,1195
1411,1713857813243279743,2063,2071,2040,1978,2061,2047,1193
1412,1713857813253285471,2046,2042,2033,1890,2006,2032,1195
1413,1713857813263291400,2050,2060,2060,2115,2074,2041,1194
1414,1713857813273286879,2038,2029,2069,2058,2032,2041,1193
1415,1713857813283292738,2088,2117,2195,2106,2089,2068,1196
1416,1713857813293287776,2077,2043,2002,1962,2030,2059,1196
1417,1713857813303300288,2069,2072,2060,2120,2074,2056,1195
1418,1713857813313291318,2040,2044,2045,2088,2053,2056,1196
1419,1713857813323293920,2071,2061,2056,1938,2048,2047,1195
1420,1713857813333289889,2052,2052,2069,2101,2055,2061,1196
1421,1713857813343295929,2040,2030,2002,2104,2071,2049,1197
1422,1713857813353286158,2047,2020,1937,1797,2015,2045,1192
1423,1713857813363290403,2056,2042,2005,2010,2061,2050,1197
1424,1713857813373286283,2059,2058,2067,1935,2044,2058,1196
1425,1713857813383287853,2066,2072,2076,2072,2077,2064,1197
1426,1713857813393293411,2053,2048,2050,2045,2029,2041,1193
1427,1713857813403285063,2051,2049,2034,2025,2064,2052,1196
1428,1713857813413286744,2052,2029,1983,1958,2037,2054,1197
1429,1713857813423296721,2061,2074,2036,2104,2097,2050,1195
1430,1713857813433303712,2056,2038,2025,2083,2090,2051,1196
1431,1713857813443291746,2045,2042,2038,2078,2024,2019,1192
1432,1713857813453285641,2062,2048,2037,2078,2086,2042,1195
1433,1713857813463288574,2064,2052,2037,2061,2061,2044,1194
1434,1713857813473288602,2038,2016,1982,2046,2050,2024,1196
1435,1713857813483286816,2052,2054,2026,2061,2112,2048,1195
1436,1713857813493292515,2088,2122,2204,2086,2069,2054,1197
1437,1713857813503292732,2034,2034,2031,2046,2059,2080,1198
1438,1713857813513273993,2065,2045,2024,2064,2039,2057,1197
1439,1713857813523294220,2059,2073,2069,2068,2070,1976,1195
1440,1713857813533310219,2060,2029,1981,2024,2044,2057,1196
1441,1713857813543293143,2053,2049,2037,2079,2056,1932,1192
1442,1713857813553292560,2056,2059,2196,2097,2094,1937,1192
1443,1713857813563298929,2064,2064,2101,2024,1999,1836,1194
1444,1713857813573299297,2051,2014,1948,2010,2007,2124,1196
1445,1713857813583300447,2063,2082,2031,2066,2044,2092,1196
1446,1713857813593309072,2038,2005,1931,2019,2046,2153,1196
1447,1713857813603285924,2063,2079,2096,2080,2074,2064,1196
1448,1713857813613289929,2061,2065,2114,2064,2047,2076,1197
1449,1713857813623290788,2048,2049,2042,2054,2039,2040,1192
1450,1713857813633307588,2076,2052,2044,2044,2014,2047,1193
1451,1713857813643289801,2030,2033,2014,2052,2081,2015,1193
1452,1713857813653287064,2056,2060,2102,2063,2014,2056,1195
1453,1713857813663287091,2032,2069,2116,2079,2061,2066,1196
1454,1713857813673287700,2060,2013,1945,2016,2024,2070,1197
1455,1713857813683284080,2052,2092,2168,2068,2063,2040,1194
1456,1713857813693288586,2064,2046,2016,2073,2069,2036,1193
1457,1713857813703289416,2048,2057,2057,2079,2112,2051,1197
1458,1713857813713289924,2057,2027,1965,2040,2051,2057,1197
1459,1713857813723290433,2057,2100,2224,2082,2085,2032,1193
1460,1713857813733319016,2056,2034,2012,2050,2054,2043,1195
1461,1713857813743294676,2040,2054,2084,2052,2014,2033,1193
1462,1713857813753289954,2054,2028,2018,2042,2033,2069,1195
1463,1713857813763289220,2037,2054,1990,2080,2076,2013,1193
1464,1713857813773287294,2066,2041,2037,2057,2052,2032,1194
1465,1713857813783288113,2072,2060,2100,2042,2025,2060,1196
1466,1713857813793290816,2025,2046,2064,2053,2041,2032,1194
1467,1713857813803290112,2067,2072,2043,2067,2065,2051,1197
1468,1713857813813286983,2053,2010,1892,2012,2047,2121,1197
1469,1713857813823296159,2056,2068,2022,2059,2082,2054,1196
1470,1713857813833303651,2058,2024,2018,2053,2031,2000,1193
1471,1713857813843288729,2066,2083,2081,2080,2072,2034,1194
1472,1713857813853283747,2057,2068,2113,2059,2053,2063,1198
1473,1713857813863286771,2056,2050,2032,2052,2041,2022,1194
1474,1713857813873290294,2034,2046,2003,2049,2050,2058,1198
1475,1713857813883288919,2061,2100,2206,2070,2058,2034,1195
1476,1713857813893292184,2069,2088,2098,2079,2069,2082,1197
1477,1713857813903287121,2060,2046,2036,2050,2042,2040,1193
1478,1713857813913287178,2054,2021,1960,2045,2049,2048,1196
1479,1713857813923290272,2057,2056,2023,2050,2070,2046,1193
1480,1713857813933311190,2041,2019,1949,2017,2030,2057,1198
1481,1713857813943294876,2072,2079,2046,2043,2077,2093,1195
1482,1713857813953283672,2046,2028,2008,2044,2022,2032,1192
1483,1713857813963286505,2045,2053,2065,2021,2050,2046,1193
1484,1713857813973289388,2053,2048,2028,2056,2048,2061,1196
1485,1713857813983285638,2072,2071,2052,2052,2051,2020,1192
1486,1713857813993285324,2060,2049,2040,2057,2040,2050,1196
1487,1713857814003288729,2054,2050,2121,2047,2046,1997,1193
1488,1713857814013284184,2065,2077,2160,2066,2047,2064,1196
1489,1713857814023289931,2035,2041,2033,2052,2068,2092,1195
1490,1713857814033321089,2065,2056,2081,2050,2032,2026,1194
1491,1713857814043291968,2073,2119,2284,2081,2072,2053,1196
1492,1713857814053286243,2051,2034,2026,2047,2028,2051,1197
1493,1713857814063284095,2068,2129,2253,2100,2068,2077,1197
1494,1713857814073338026,2052,2071,2104,2053,2038,2060,1197
1495,1713857814083290510,2027,2037,2044,2044,2053,2016,1194
1496,1713857814093324793,2060,2057,2096,2066,2035,2018,1194
1497,1713857814103290112,2058,2033,2000,2062,2101,2056,1196
1498,1713857814113288655,2054,2064,2095,2055,2041,2055,1196
1499,1713857814123287339,2042,2038,2026,2018,2054,2017,1194
1500,1713857814133285591,2043,2030,1989,2043,2052,2064,1197
1501,1713857814143286860,2042,2039,2036,2046,2069,2059,1195
1502,1713857814153287688,2060,2053,2042,2048,2037,2046,1193
1503,1713857814163288446,2047,2034,1982,2047,2056,2071,1196
1504,1713857814173297049,2064,2040,1989,2045,2050,2046,1197
1505,1713857814183287366,2068,2092,2028,2066,2083,2117,1197
1506,1713857814193287643,2058,2024,1960,2044,2033,2065,1197
1507,1713857814203310614,2049,2050,1977,2064,2071,2024,1194
1508,1713857814213291823,2057,2072,2118,2068,2076,2037,1193
1509,1713857814223286209,2052,2040,1984,2051,2062,2066,1195
1510,1713857814233289071,2047,2041,2008,2040,2037,2040,1193
1511,1713857814243289808,2064,2050,1960,2046,2068,2060,1196
1512,1713857814253285666,2052,2036,1970,2053,2062,2096,1198
1513,1713857814263289871,2063,2081,2134,2079,2056,2037,1192
1514,1713857814273289827,2044,2033,1999,2042,2040,2047,1193
1515,1713857814283294963,2082,2050,2030,2049,2038,1978,1194
1516,1713857814293287675,2064,2066,2036,2048,2040,2050,1197
1517,1713857814303301138,2050,2037,2018,2046,2045,2028,1194
1518,1713857814313293349,2056,2100,2162,2081,2068,2100,1196
1519,1713857814323293976,2053,2065,2131,2097,2120,2034,1194
1520,1713857814333294824,2066,2059,2044,2064,2060,2045,1192
1521,1713857814343296624,2048,2051,2041,2067,2076,2128,1197
1522,1713857814353298794,2064,2046,2024,2056,2029,2037,1194
1523,1713857814363298640,2032,2045,2063,2074,2072,2045,1195
1524,1713857814373278848,2071,2082,2094,2072,2048,2046,1192
1525,1713857814383279866,2032,2053,2088,2067,2050,1974,1194
1526,1713857814393283049,2057,2051,2014,2084,2036,2061,1196
1527,1713857814403295278,2050,2036,2010,2043,2052,2041,1194
1528,1713857814413286878,2033,2040,1998,2053,2060,2073,1196
1529,1713857814423308597,2064,2064,2096,2048,2072,2064,1197
1530,1713857814433276571,2037,2000,1882,2054,2026,2010,1194
1531,1713857814443284492,2060,2041,1989,2044,2068,2058,1197
1532,1713857814453280000,2050,2040,2008,2045,2043,2044,1192
1533,1713857814463282431,2051,2030,1974,2043,2066,2051,1197
1534,1713857814473312506,2055,2066,2051,2059,2048,2064,1198
1535,1713857814483280691,2054,2061,2012,2056,2058,2049,1196
1536,1713857814493287710,2039,2027,1984,2038,2029,2054,1197
1537,1713857814503288488,2077,2069,2078,2047,2051,2049,1196
1538,1713857814513292472,2061,2036,2015,2048,2050,2061,1198
1539,1713857814523291947,2050,2052,2005,2061,2087,2088,1196
1540,1713857814533275471,2064,2067,2058,2040,2042,2098,1196
1541,1713857814543281459,2040,2028,2001,2052,2061,2039,1195
1542,1713857814553279211,2055,2026,1976,2056,2030,2040,1192
1543,1713857814563288415,2055,2060,2153,2066,2104,2065,1195
1544,1713857814573320504,2063,2034,1993,2042,2043,2054,1196
1545,1713857814583277647,2059,2043,2035,2054,2050,2048,1197
1546,1713857814593280668,2070,2062,2068,2080,2069,2076,1196
1547,1713857814603284433,2056,2080,2089,2073,2069,2064,1197
1548,1713857814613291241,2059,2044,2068,2054,2053,2044,1193
1549,1713857814623288192,2057,2058,2038,2058,2053,2067,1194
1550,1713857814633281365,2061,2088,2197,2074,2045,2024,1193
1551,1713857814643285750,2061,2053,2039,2052,2060,2008,1192
1552,1713857814653292519,2036,2056,2074,2042,2023,2056,1197
1553,1713857814663286514,2074,2120,2186,2084,2077,2077,1196
1554,1713857814673346417,2061,2056,2081,2052,2040,2044,1194
1555,1713857814683287809,2049,2049,2055,2056,2054,2041,1194
1556,1713857814693288516,2048,2033,2017,2046,2046,2085,1196
1557,1713857814703286559,2059,2091,2134,2062,2064,2050,1195
1558,1713857814713286895,2104,2150,2280,2112,2081,2108,1196
1559,1713857814723285509,2048,2051,2064,2056,2060,2056,1195
1560,1713857814733285356,2050,2053,2028,2059,2040,2036,1194
1561,1713857814743288047,2080,2152,2348,2120,2080,2045,1194
1562,1713857814753283925,2062,2043,1994,2028,2028,2053,1193
1563,1713857814763303479,2048,2053,2031,2049,2065,1962,1194
1564,1713857814773249771,2056,2052,2046,2056,2050,2053,1198
1565,1713857814783277381,2043,2046,2042,2056,2054,2043,1194
1566,1713857814793281696,2050,2053,2054,2076,2072,2076,1198
1567,1713857814803286611,2050,2033,2023,2046,2054,2044,1196
1568,1713857814813304723,2059,2048,2035,2053,2044,2048,1195
1569,1713857814823294199,2049,2054,2053,2054,2064,2048,1196
1570,1713857814833288224,2048,2046,2055,2046,2040,2056,1196
1571,1713857814843289632,2078,2126,2331,2099,2093,2104,1196
1572,1713857814853290070,2057,2014,1969,2031,2020,2037,1195
1573,1713857814863292350,2046,2045,2032,2053,2066,2050,1195
1574,1713857814873301013,2065,2056,2057,2056,2043,2053,1197
1575,1713857814883290699,2036,2013,1946,2034,2057,2048,1195
1576,1713857814893294203,2054,2013,1904,2024,2033,2056,1197
1577,1713857814903295761,2040,2046,2056,2022,2043,2096,1196
1578,1713857814913295838,2051,2063,2081,2069,2054,2065,1198
1579,1713857814923306204,2058,2053,2056,2059,2064,2046,1193
1580,1713857814933273637,2047,2026,1969,2059,2065,2041,1192
1581,1713857814943284404,2036,2042,2093,2045,2072,2053,1198
1582,1713857814953279932,2058,2044,2021,2057,2059,2022,1194
1583,1713857814963282453,2061,2060,2060,2050,2053,2037,1192
1584,1713857814973304252,2048,2038,2037,2061,2043,2061,1195
1585,1713857814983275993,2064,2104,2122,2078,2075,2064,1196
1586,1713857814993286420,2049,2034,1971,2071,2055,2053,1195
1587,1713857815003289322,2042,2036,1972,2031,2052,2041,1192
1588,1713857815013292610,2064,2073,2147,2072,2042,2044,1195
1589,1713857815023291132,2041,2041,2012,2041,2056,2031,1194
1590,1713857815033282710,2057,2044,2027,2020,2046,2046,1194
1591,1713857815043282646,2049,2081,2132,2082,2053,2062,1198
1592,1713857815053271128,2054,2033,2017,2059,2037,2072,1194
1593,1713857815063286723,1996,2045,2039,2049,2069,2096,1197
1594,1713857815073306997,2038,2047,2029,2052,2048,2060,1197
1595,1713857815083281332,2056,2054,2060,2052,2070,2058,1197
1596,1713857815093266989,2056,2047,2040,2060,2064,2065,1198
1597,1713857815103289668,2056,2050,2042,2038,2014,2053,1197
1598,1713857815113303700,2056,2052,2044,2047,2048,2040,1194
1599,1713857815123319446,2048,2045,2019,2029,2058,2031,1195
1600,1713857815133289283,2076,2088,2175,2072,2076,2073,1197
1601,1713857815143286321,2077,2086,2104,2068,2064,2095,1195
1602,1713857815153290725,2061,2044,2077,2057,2028,2088,1197
1603,1713857815163288485,2048,2050,2028,2046,2069,2102,1197
1604,1713857815173255325,2065,2074,2120,2063,2032,2061,1197
1605,1713857815183293585,2040,2032,2008,2050,2042,2029,1196
1606,1713857815193289502,2050,2038,2005,2056,2049,2064,1195
1607,1713857815203289747,2045,2044,2028,2042,2056,2038,1192
1608,1713857815213283058,2061,2052,2075,2056,2043,2069,1196
1609,1713857815223282422,2057,2072,2162,2075,2059,1988,1197
1610,1713857815233295924,2048,2037,2040,2044,2032,2030,1193
1611,1713857815243264387,2072,2112,2240,2101,2090,2064,1196
1612,1713857815253282707,2050,2040,2049,2053,2048,2052,1198
1613,1713857815263273905,2063,2059,2060,2061,2056,2045,1193
1614,1713857815273307205,2067,2039,1989,2054,2056,2062,1197
1615,1713857815283283373,2058,2088,2211,2081,2088,2057,1197
1616,1713857815293280051,2049,2025,1998,2039,2026,2022,1195
1617,1713857815303285858,2052,2050,2047,2048,2046,2052,1198
1618,1713857815313284901,2063,2067,2080,2064,2057,2051,1197
1619,1713857815323295416,2064,2074,2105,2056,2012,2040,1193
1620,1713857815333280692,2047,2035,2022,2068,2058,2068,1197
1621,1713857815343286959,2037,2044,2049,2052,2061,2040,1194
1622,1713857815353280632,2064,2054,2037,2045,2040,2051,1196
1623,1713857815363288412,2052,2052,2078,2064,2047,2048,1195
1624,1713857815373295921,2043,2012,1951,2052,2048,2048,1197
1625,1713857815383281157,2059,2070,2059,2059,2065,2094,1198
1626,1713857815393283316,2053,2052,2089,2058,2047,2047,1195
1627,1713857815403284393,2049,2048,2037,2051,2053,2044,1194
1628,1713857815413282715,2073,2098,2208,2088,2042,2047,1194
1629,1713857815423274534,2040,2032,2004,2035,2043,2069,1195
1630,1713857815433286161,2059,2063,2041,2063,2072,2052,1198
1631,1713857815443285395,2052,2057,2052,2049,2059,2050,1197
1632,1713857815453285290,2045,2071,2150,2073,2041,2049,1198
1633,1713857815463303119,2056,2042,1997,2012,2031,2037,1193
1634,1713857815473287904,2056,2037,2028,2051,2039,2040,1194
1635,1713857815483243292,2056,2060,2096,2054,2056,2049,1198
1636,1713857815493285630,2053,2041,1991,2044,2031,2036,1194
1637,1713857815503262098,2053,2088,2168,2060,2070,2038,1195
1638,1713857815513287433,2058,2040,2018,2052,2042,2010,1193
1639,1713857815523291626,2051,2052,2053,2050,2058,2044,1193
1640,1713857815533284186,2049,2017,1989,2036,2027,2048,1196
1641,1713857815543297196,2054,2085,2210,2072,2037,2060,1197
1642,1713857815553284947,2053,2040,2037,2051,2034,2061,1193
1643,1713857815563283048,2052,2058,2051,2058,2060,2047,1192
1644,1713857815573284967,2044,2018,1982,2033,2038,2056,1196
1645,1713857815583293108,2122,2130,2122,2093,2059,2038,1194
1646,1713857815593286630,2051,2020,1984,2045,2077,2109,1198
1647,1713857815603287256,2049,2037,2036,2052,2076,2085,1196
1648,1713857815613289896,2045,2092,2198,2088,2049,2065,1197
1649,1713857815623289630,2047,2037,2004,2052,2089,2046,1192
1650,1713857815633290627,2057,2051,2081,2054,2045,2057,1197
1651,1713857815643291995,2050,2024,1951,2039,2056,2038,1194
1652,1713857815653292120,2080,2064,1958,2081,2086,2070,1196
1653,1713857815663294259,2067,2068,2038,2084,2060,2039,1196
1654,1713857815673294114,2043,2036,2010,2060,2041,2035,1197
1655,1713857815683297064,2054,2042,2020,2043,2079,2060,1197
1656,1713857815693295776,2047,2033,1976,2036,2054,2077,1198
1657,1713857815703300190,2065,2078,2083,2047,2057,2072,1197
1658,1713857815713298271,2058,2040,2018,2047,2021,2050,1196
1659,1713857815723299428,2056,2104,2187,2065,2050,2128,1196
1660,1713857815733282149,2037,2033,2002,2052,2040,2067,1197
1661,1713857815743300650,2053,2044,2036,2045,2066,2052,1196
1662,1713857815753284013,2050,2030,2009,2047,2054,2069,1193
1663,1713857815763284779,2072,2039,2008,2046,2053,2079,1196
1664,1713857815773282750,2021,2004,1960,2051,2037,2050,1197
1665,1713857815783289046,2034,2038,2022,2048,2056,2048,1196
1666,1713857815793283520,2061,2056,2034,2078,2073,2046,1193
1667,1713857815803287544,2060,2034,1966,2025,2069,2100,1197
1668,1713857815813282348,2054,2050,2044,2067,2061,2094,1197
1669,1713857815823279798,2052,2048,2005,2069,2090,2067,1197
1670,1713857815833283560,2067,2039,2040,2045,2021,2045,1195
1671,1713857815843285208,2044,2042,2072,2054,2040,2040,1193
1672,1713857815853286105,2059,2064,2068,2064,2050,2042,1197
1673,1713857815863285499,2052,2055,2050,2046,2045,2050,1197
1674,1713857815873291896,2053,2030,1945,2033,2031,2061,1198
1675,1713857815883287452,2078,2086,2088,2070,2072,2066,1197
1676,1713857815893282979,2059,2068,2093,2065,2072,2068,1198
1677,1713857815903282602,2047,2042,2011,2045,2054,2053,1197
1678,1713857815913285673,2042,2064,2020,2064,2028,2040,1195
1679,1713857815923281230,2062,2061,2037,2088,2064,2056,1198
1680,1713857815933282257,2047,2016,1956,2052,2064,2055,1196
1681,1713857815943283514,2038,2044,2031,2052,2088,2076,1196
1682,1713857815953285803,2066,2064,2026,2045,2036,2016,1192
1683,1713857815963286218,2051,2064,2090,2054,2062,2081,1196
1684,1713857815973284591,2045,2026,1961,2036,2047,2050,1195
1685,1713857815983284215,2034,2044,1977,2026,2039,2026,1192
1686,1713857815993294309,2072,2068,1992,2080,2097,2061,1196
1687,1713857816003279795,2052,2041,2015,2040,2072,2073,1195
1688,1713857816013284636,2040,2064,2112,2075,2114,2032,1193
1689,1713857816023290742,2068,2047,1998,2040,2051,2057,1194
1690,1713857816033285284,2056,2034,1992,2042,2025,2009,1195
1691,1713857816043293924,2050,2054,2030,2053,2037,2056,1197
1692,1713857816053285091,2064,2080,2060,2104,2060,2040,1194
1693,1713857816063285795,2100,2174,2246,2119,2108,2078,1196
1694,1713857816073274135,2052,2036,1949,2044,2004,2020,1196
1695,1713857816083285521,2054,2060,2017,2093,2118,2059,1196
1696,1713857816093282669,2046,2042,2025,2067,2111,2056,1196
1697,1713857816103283254,2061,2074,2109,2072,2072,2056,1196
1698,1713857816113296212,2064,2038,1993,2043,2046,2046,1194
1699,1713857816123282829,2064,2097,2096,2056,2057,2050,1195
1700,1713857816133286279,2060,2041,2014,2061,2025,2040,1194
1701,1713857816143288607,2031,2069,2105,2046,2061,2052,1197
1702,1713857816153298380,2061,2053,2055,2063,2047,2068,1195
1703,1713857816163288082,2048,2023,1961,2040,2040,2050,1196
1704,1713857816173288137,2080,2102,2164,2086,2074,2059,1197
1705,1713857816183289031,2062,2035,2013,2042,2066,2052,1197
1706,1713857816193327369,2072,2078,2164,2082,2058,2047,1196
1707,1713857816203293667,2050,2042,2004,2047,2067,2052,1196
1708,1713857816213294181,2043,2027,1998,2044,2005,2025,1193
1709,1713857816223293523,2048,2053,2041,2048,2020,2056,1194
1710,1713857816233301643,2067,2067,2105,2049,2013,2044,1192
1711,1713857816243296145,2037,2032,1969,2023,2070,2060,1198
1712,1713857816253297330,2056,2049,2028,2049,2044,2064,1195
1713,1713857816263298346,2058,2058,2051,2063,2028,2050,1194
1714,1713857816273287568,2048,2028,1995,2042,2049,2063,1197
1715,1713857816283286720,2057,2058,2102,2025,2052,2056,1197
1716,1713857816293286954,2060,2059,2136,2054,2034,2065,1195
1717,1713857816303284272,2051,2037,1986,2056,2064,2062,1196
1718,1713857816313271731,2058,2040,1993,2061,2068,2053,1196
1719,1713857816323283387,2043,2069,2139,2065,2080,2082,1197
1720,1713857816333285995,2064,2051,2018,2050,2058,2077,1198
1721,1713857816343284716,2052,2052,2056,2052,2048,2040,1194
1722,1713857816353258939,2054,2043,2016,2058,2053,2056,1194
1723,1713857816363284943,2066,2064,2066,2047,2072,2073,1197
1724,1713857816373283263,2076,2120,2206,2092,2064,2070,1197
1725,1713857816383281734,2047,2040,2016,2051,2063,2046,1194
1726,1713857816393282178,2046,2038,2034,2036,2008,2047,1195
1727,1713857816403282171,2074,2049,2022,2039,2034,2046,1194
1728,1713857816413285000,2024,2034,2004,2041,2026,2004,1194
1729,1713857816423284723,2056,2051,2066,2058,2048,2046,1193
1730,1713857816433285618,2044,2042,2047,2037,2044,2047,1194
1731,1713857816443281904,2056,2050,2045,2036,2064,2038,1193
1732,1713857816453261778,2057,2038,1978,2058,2056,2065,1197
1733,1713857816463284716,2059,2052,2028,2068,2096,2056,1197
1734,1713857816473283196,2043,2040,2077,2076,2153,2080,1197
1735,1713857816483281707,2061,2070,2093,2047,2049,2058,1196
1736,1713857816493284696,2056,2045,2080,2044,2027,2036,1192
1737,1713857816503283567,2070,2128,2178,2084,2088,2063,1198
1738,1713857816513285274,2056,2048,2045,2060,2032,2085,1198
1739,1713857816523279997,2040,2072,2130,2076,2076,2081,1198
1740,1713857816533281162,2059,2112,2140,2061,2036,2056,1196
1741,1713857816543286636,2084,2133,2156,2066,2072,2060,1197
1742,1713857816553281820,2081,2069,2107,2081,2002,2031,1193
1743,1713857816563283877,2031,2041,2060,2047,2053,2048,1196
1744,1713857816573282369,2056,2088,2170,2077,2033,2118,1194
1745,1713857816583283534,2046,2066,2125,2086,2056,2064,1196
1746,1713857816593281513,2065,2050,2038,2059,2052,2064,1196
1747,1713857816603287388,2074,2083,2072,2073,2026,2033,1195
1748,1713857816613282762,2068,2120,2180,2084,2052,2069,1196
1749,1713857816623281803,2054,2107,2257,2073,2089,2067,1197
1750,1713857816633284513,2073,2089,2177,2058,2002,2056,1197
1751,1713857816643283895,2067,2051,2041,2028,2038,2077,1197
1752,1713857816653281723,2065,2044,2015,2047,2077,2020,1194
1753,1713857816663308399,2064,2051,2010,2045,2062,2049,1198
1754,1713857816673289516,2056,2032,2021,2065,2025,2047,1196
1755,1713857816683282695,2029,2013,1967,2051,2065,2052,1197
1756,1713857816693287708,2038,2008,1972,2021,2034,2104,1197
1757,1713857816703289085,2045,2040,2074,2043,2082,2047,1192
1758,1713857816713291803,2042,2066,2074,2058,2068,2059,1195
1759,1713857816723285635,2069,2050,2045,2044,2060,2018,1193
1760,1713857816733292111,2062,2082,2176,2090,2056,2045,1195
1761,1713857816743285891,2064,2100,2260,2088,2078,2090,1197
1762,1713857816753291916,2025,1990,1954,1990,1981,2012,1193
1763,1713857816763289716,2051,2029,2013,2043,2070,2060,1195
1764,1713857816773283767,2050,2094,2172,2092,2051,2043,1192
1765,1713857816783284231,2056,2034,2034,2048,2035,2048,1197
1766,1713857816793283063,2058,2052,2080,2058,2023,2037,1194
1767,1713857816803282325,2067,2079,2120,2062,2061,2030,1194
1768,1713857816813285414,2066,2056,2050,2059,2027,2017,1194
1769,1713857816823281360,2062,2047,2028,2036,2038,2044,1195
1770,1713857816833287164,2039,2027,1970,2072,2041,2034,1193
1771,1713857816843283700,2036,2038,1976,2045,2068,2053,1194
1772,1713857816853281670,2066,2086,2086,2081,2058,2045,1193
1773,1713857816863290440,2046,2040,1982,2041,2056,2052,1196
1774,1713857816873283430,2059,2056,2049,2052,2055,2069,1197
1775,1713857816883283574,2066,2058,2034,2064,2096,2064,1198
1776,1713857816893285230,2040,2033,2006,2057,2062,2062,1196
1777,1713857816903286606,2056,2041,1992,2057,2083,2024,1193
1778,1713857816913287953,2057,2042,2015,2029,2051,2066,1198
1779,1713857816923291713,2053,2066,2106,2066,2056,2058,1198
1780,1713857816933268771,2070,2047,2042,2044,2025,2032,1196
1781,1713857816943290086,2049,2034,1999,2038,2042,1995,1193
1782,1713857816953292164,2033,2018,1947,2010,2032,2022,1193
1783,1713857816963294692,2050,2094,2212,2082,2085,2115,1196
1784,1713857816973294245,2063,2040,2002,2059,2048,2041,1194
1785,1713857816983294218,2064,2069,2049,2056,2072,2059,1197
1786,1713857816993304611,2046,2045,2037,2029,2028,2045,1194
1787,1713857817003295487,2047,2066,2073,2056,2069,2060,1194
1788,1713857817013296078,2034,2018,1919,2044,2038,2050,1196
1789,1713857817023297682,2089,2039,1997,2042,2061,2047,1192
1790,1713857817033298566,2053,2037,2009,2058,2045,2055,1198
1791,1713857817043281264,2047,2035,2015,2045,2072,2039,1194
1792,1713857817053299531,2066,2076,2136,2066,2086,2135,1197
1793,1713857817063283401,2036,2043,2060,2053,2056,2056,1197
1794,1713857817073285558,2056,2024,1977,2042,2044,2046,1194
1795,1713857817083283916,2054,2056,2036,2048,2049,2054,1195
1796,1713857817093284498,2048,2038,2072,2052,2063,2040,1193
1797,1713857817103288278,2036,2056,2076,2040,2050,2045,1195
1798,1713857817113287939,2048,2029,1990,2042,2045,2064,1197
1799,1713857817123282439,2032,2036,2000,2037,2052,2033,1195
1800,1713857817133285417,2054,2047,2044,2060,2044,2056,1195
1801,1713857817143289026,2043,2051,2104,2032,2038,2068,1196
1802,1713857817153289538,2057,2051,2016,2013,2046,2074,1194
1803,1713857817163291273,2048,2032,1956,2030,2026,1994,1194
1804,1713857817173284302,2056,2044,2080,2071,2063,2063,1196
1805,1713857817183282921,2058,2081,2100,2079,2061,2050,1197
1806,1713857817193286649,2053,2044,2025,2047,2036,2044,1193
1807,1713857817203290188,2053,2069,2059,2060,2052,2044,1193
1808,1713857817213294198,2056,2041,2041,2040,2013,2066,1194
1809,1713857817223283378,2030,2028,1979,2037,2050,2068,1196
1810,1713857817233286886,2085,2122,2234,2083,2068,2053,1196
1811,1713857817243292590,2064,2057,2036,2061,2105,2084,1197
1812,1713857817253283503,2047,2025,1999,2040,2035,2045,1193
1813,1713857817263285248,2077,2156,2447,2136,2089,2078,1197
1814,1713857817273281393,2044,2049,2072,2068,2056,2048,1196
1815,1713857817283303057,2050,2030,1981,2061,2053,2033,1191
1816,1713857817293285554,2072,2076,2137,2067,2024,2015,1195
1817,1713857817303285646,2036,2024,2010,2045,2130,2052,1196
1818,1713857817313284415,2046,2028,1961,2059,2100,2030,1194
1819,1713857817323283194,2047,2025,1969,2009,2042,2047,1196
1820,1713857817333274689,2044,1990,1915,2016,2131,2040,1193
1821,1713857817343289821,2057,2042,2041,2045,2069,2064,1196
1822,1713857817353288019,2032,2030,1974,2057,2049,2047,1191
1823,1713857817363290876,2056,2050,2036,2059,2069,2072,1193
1824,1713857817373283714,2052,2042,2037,2028,1996,2060,1197
1825,1713857817383284427,2064,2056,2056,2038,2046,2073,1196
1826,1713857817393285811,2067,2070,2119,2068,2037,2057,1197
1827,1713857817403284340,2051,2040,2009,2043,2021,2040,1193
1828,1713857817413259784,2062,2072,2107,2059,2040,2048,1195
1829,1713857817423294253,2054,2064,2062,2066,2057,2043,1193
1830,1713857817433288814,2058,2056,2055,2075,2081,2104,1197
1831,1713857817443288625,2056,2090,2178,2057,2028,2072,1196
1832,1713857817453284268,2057,2046,2035,2064,2054,2064,1197
1833,1713857817463288388,2058,2057,2098,2057,2047,2046,1192
1834,1713857817473286787,2037,2030,2071,2043,2020,2030,1195
1835,1713857817483286167,2048,2024,2004,2047,2075,2057,1198
1836,1713857817493290096,2057,2035,1965,2046,2041,2059,1199
1837,1713857817503288024,2060,2060,2083,2045,2075,2084,1196
1838,1713857817513291803,2072,2076,2060,2052,2034,2050,1198
1839,1713857817523290813,2046,2042,2001,2051,2056,2052,1196
1840,1713857817533293089,2048,2025,1977,2038,2033,2062,1196
1841,1713857817543300245,2044,2030,2011,2015,2053,2056,1195
1842,1713857817553317831,2061,2039,2018,2064,2085,2054,1194
1843,1713857817563296601,2064,2092,2185,2075,2042,2040,1192
1844,1713857817573283838,2045,2037,2016,2042,2016,2038,1194
1845,1713857817583297957,2026,2041,2018,2042,2049,2073,1195
1846,1713857817593299051,2057,2032,1986,2045,2050,2056,1197
1847,1713857817603299934,2058,2057,2054,2062,2074,2052,1197
1848,1713857817613300968,2050,2060,2112,2064,2047,2058,1196
1849,1713857817623281451,2051,2060,2057,2082,2097,2062,1195
1850,1713857817633284279,2060,2044,1993,2044,2053,2060,1196
1851,1713857817643312245,2047,2072,2069,2028,2072,2078,1196
1852,1713857817653301155,2070,2081,2116,2070,2053,2070,1196
1853,1713857817663288212,2048,2046,2025,2024,2044,2054,1196
1854,1713857817673283574,2061,2049,2088,2052,2044,2050,1195
1855,1713857817683284978,2093,2154,2342,2097,2077,2069,1196
1856,1713857817693285130,2056,2055,2088,2049,2045,2064,1197
1857,1713857817703284020,2072,2104,2176,2084,2058,2050,1195
1858,1713857817713283771,2054,2036,2024,2040,2033,2105,1196
1859,1713857817723281017,2069,2058,2068,2042,2065,2067,1196
1860,1713857817733286630,2044,2059,2072,2048,2024,2044,1193
1861,1713857817743288786,2053,2046,2003,2053,2075,2060,1193
1862,1713857817753298577,2058,2040,2029,2044,2052,2041,1193
1863,1713857817763285212,2042,2012,1924,2036,2052,2037,1192
1864,1713857817773283090,2045,2045,2117,2064,2039,2024,1193
1865,1713857817783284975,2070,2060,2084,2063,2068,2072,1194
1866,1713857817793285227,2050,2033,2036,2037,2040,1976,1193
1867,1713857817803283296,2082,2152,2225,2088,2091,2081,1196
1868,1713857817813273628,2070,2045,2043,2043,2027,2061,1194
1869,1713857817823291985,2055,2042,2006,2059,2056,2052,1196
1870,1713857817833289343,2036,2043,2021,2041,2031,2068,1198
1871,1713857817843287891,2078,2080,2056,2062,2073,2062,1196
1872,1713857817853282582,2056,2070,2141,2081,2079,2100,1197
1873,1713857817863284488,2056,2046,2019,2040,2059,2059,1195
1874,1713857817873298667,2056,2029,2012,2039,2053,2069,1196
1875,1713857817883286946,2059,2071,2156,2064,2073,2066,1198
1876,1713857817893283510,2060,2047,2032,2050,2047,2050,1195
1877,1713857817903286208,2052,2048,2061,2056,2063,2065,1197
1878,1713857817913270158,2054,2046,2040,2056,2037,2057,1196
1879,1713857817923286742,2045,2028,1999,2017,2037,2050,1196
1880,1713857817933288608,2058,2034,1998,2049,2025,2042,1193
1881,1713857817943287898,2065,2096,2132,2076,2070,2046,1193
1882,1713857817953287168,2053,2044,2022,2054,2051,1998,1194
1883,1713857817963283683,2054,2048,2026,2048,2028,2034,1193
1884,1713857817973301890,2050,2050,2033,2024,2028,2060,1195
1885,1713857817983289828,2053,2047,1995,2036,2066,2028,1194
1886,1713857817993300971,2053,2043,2034,2051,2038,2058,1197
1887,1713857818003285353,2044,2042,2040,2050,2048,2048,1196
1888,1713857818013284028,2062,2056,2040,2060,2072,2069,1197
1889,1713857818023285831,2061,2048,2062,2050,2062,2046,1194
1890,1713857818033289078,2053,2023,1992,2060,2056,2049,1196
1891,1713857818043289318,2052,2034,2018,2031,2055,2056,1198
1892,1713857818053285631,2052,2066,2060,2064,2053,2057,1198
1893,1713857818063285060,2058,2056,2060,2052,2065,2047,1194
1894,1713857818073287274,2057,2049,2040,2057,2069,2073,1197
1895,1713857818083286612,2042,2029,1987,2041,2055,2065,1197
1896,1713857818093287003,2058,2049,2031,2044,2045,2046,1194
1897,1713857818103286402,2056,2065,2100,2061,2027,2057,1195
1898,1713857818113289809,2062,2069,2077,2050,2028,2101,1197
1899,1713857818123285370,2052,2053,2086,2060,2060,2062,1197
1900,1713857818133334516,2050,2057,2086,2057,2039,2040,1193
1901,1713857818143293966,2074,2046,2047,2052,2047,2054,1197
1902,1713857818153284097,2037,2020,1944,2049,2046,2044,1192
1903,1713857818163284357,2042,2024,1993,2041,2052,2054,1195
1904,1713857818173281071,2063,2075,2065,2058,2046,2056,1196
1905,1713857818183285379,2057,2061,2058,2056,2055,2047,1195
1906,1713857818193286231,2052,2033,1982,2046,2056,2052,1196
1907,1713857818203287122,2047,2048,2020,2052,2061,2054,1197
1908,1713857818213284918,2052,2032,1988,2062,2037,2059,1196
1909,1713857818223287503,2046,2028,1981,2035,2044,2047,1195
1910,1713857818233311811,2055,2024,1971,2028,2024,2044,1192
1911,1713857818243289236,2054,2061,2050,2058,2056,2070,1196
1912,1713857818253289697,2062,2050,2024,2050,2041,2063,1195
1913,1713857818263314816,2056,2056,2048,2056,2075,2068,1197
1914,1713857818273291490,2063,2043,2049,2066,2056,2036,1194
1915,1713857818283293133,2042,2043,2027,2047,2060,2053,1197
1916,1713857818293299245,2058,2061,2088,2060,2024,2042,1196
1917,1713857818303294145,2047,2003,1923,2011,2040,2045,1195
1918,1713857818313297101,2058,2046,2017,2047,2059,2081,1198
1919,1713857818323295627,2055,2058,2080,2046,2043,2008,1194
1920,1713857818333296549,2054,2032,1986,2039,2038,2056,1195
1921,1713857818343304274,2042,2058,1994,2052,2029,2065,1196
1922,1713857818353282170,2055,2053,2053,2048,2037,2045,1191
1923,1713857818363284004,2070,2091,2141,2091,2080,2066,1197
1924,1713857818373282522,2047,2040,2030,2044,2037,2068,1197
1925,1713857818383285517,2060,2060,2052,2065,2078,2053,1197
1926,1713857818393284324,2059,2052,2060,2060,2068,2046,1193
1927,1713857818403304884,2051,2045,2022,2048,2063,2053,1196
1928,1713857818413286779,2066,2053,2054,2046,2037,2052,1195
1929,1713857818423284374,2052,2056,2107,2056,2064,2058,1196
1930,1713857818433284314,2057,2050,2039,2049,2043,2046,1193
1931,1713857818443286959,2050,2053,2020,2056,2060,2045,1195
1932,1713857818453281168,2069,2072,2072,2056,2050,2052,1197
1933,1713857818463286187,2037,2045,2024,2065,2080,2028,1194
1934,1713857818473284975,2042,2033,2010,2054,2045,2040,1194
1935,1713857818483286648,2065,2062,2060,2056,2050,2047,1195
1936,1713857818493288622,2037,2024,2016,2037,2042,2050,1198
1937,1713857818503288261,2054,2068,2013,2040,2038,2052,1195
1938,1713857818513288732,2052,2045,2002,2056,2054,2068,1197
1939,1713857818523285034,2046,2046,2049,2044,2039,2044,1194
1940,1713857818533289683,2060,2052,2047,2047,2044,2100,1197
1941,1713857818543300435,2045,2084,2146,2073,2057,2069,1195
1942,1713857818553278592,2049,2044,2058,2050,2040,2030,1192
1943,1713857818563311266,2059,2049,2038,2036,2072,2078,1196
1944,1713857818573284723,2060,2056,2057,2061,2059,2060,1196
1945,1713857818583285214,2044,2040,2029,2045,2057,2047,1194
1946,1713857818593285324,2093,2147,2250,2120,2101,2056,1196
1947,1713857818603293951,2045,2042,1987,2048,2072,2045,1196
1948,1713857818613289352,2069,2078,2116,2056,2038,2060,1196
1949,1713857818623287238,2040,2054,2040,2039,2048,2072,1197
1950,1713857818633302007,2073,2098,2223,2081,2053,2082,1196
1951,1713857818643289522,2047,2038,1996,2038,2046,2065,1199
1952,1713857818653311274,2050,2046,2074,2047,2050,2061,1196
1953,1713857818663300584,2041,2046,2044,2057,2067,2067,1196
1954,1713857818673282909,2060,2052,2054,2062,2082,2060,1197
1955,1713857818683285424,2052,2045,2020,2044,2060,2057,1197
1956,1713857818693283690,2056,2056,2133,2062,2052,2065,1197
1957,1713857818703285223,2058,2061,2080,2076,2061,2050,1199
1958,1713857818713288690,2056,2041,2028,2051,2046,2052,1197
1959,1713857818723287708,2058,2072,2105,2085,2141,2058,1197
1960,1713857818733285383,2053,2063,2051,2057,2033,2036,1194
1961,1713857818743284521,2049,2053,2049,2045,2042,2031,1195
1962,1713857818753315522,2059,2038,2023,2052,2070,2066,1194
1963,1713857818763281936,2045,2057,2085,2067,2053,2049,1195
1964,1713857818773288959,2059,2055,2084,2058,2001,2048,1194
1965,1713857818783291154,2047,2057,2077,2060,2061,2045,1193
1966,1713857818793287397,2048,2020,1992,2052,2037,2056,1198
1967,1713857818803290112,2046,2050,2043,2046,1989,2041,1194
1968,1713857818813292476,2052,2028,2009,2032,2033,2050,1195
1969,1713857818823303457,2067,2061,2089,2056,2068,2071,1196
1970,1713857818833291764,2046,2062,2100,2069,2046,2062,1197
1971,1713857818843296865,2056,2039,2009,2040,2078,1972,1193
1972,1713857818853319870,2064,2047,2041,2060,2045,2053,1197
1973,1713857818863299249,2056,2070,2091,2056,2044,2056,1197
1974,1713857818873282847,2056,2080,2140,2058,2051,2069,1200
1975,1713857818883302334,2067,2078,2163,2064,2072,2053,1198
1976,1713857818893284710,2028,2006,1976,2029,2042,2025,1193
1977,1713857818903285442,2048,2038,2046,2044,2062,2076,1197
1978,1713857818913307234,2073,2057,2040,2051,2037,2065,1195
1979,1713857818923293597,2050,2029,1954,2048,2061,2037,1193
1980,1713857818933276263,2069,2068,2060,2049,2035,2056,1198
1981,1713857818943284719,2047,2032,1985,2059,2068,2046,1193
1982,1713857818953284569,2052,2002,1952,2026,2025,2020,1192
1983,1713857818963288527,2041,2052,2008,2084,2126,2064,1196
1984,1713857818973303426,2061,2056,2030,2028,2020,2029,1192
1985,1713857818983287805,2056,2057,2072,2052,2040,2038,1193
1986,1713857818993285340,2060,2074,2096,2073,2042,2058,1195
1987,1713857819003288687,2068,2094,2140,2059,2080,2045,1192
1988,1713857819013285246,2060,2073,2177,2084,2068,2064,1195
1989,1713857819023240276,2054,2062,2066,2058,2057,2056,1196
1990,1713857819033286374,2044,2047,2072,2064,2051,2074,1197
1991,1713857819043290561,2054,2057,2054,2058,2072,2054,1195
1992,1713857819053285288,2050,2049,2073,2062,2040,2035,1195
1993,1713857819063302059,2035,2038,2031,2036,2083,2045,1194
1994,1713857819073291467,2063,2050,2032,2063,2054,2066,1198
1995,1713857819083283980,2059,2072,2085,2060,2057,2050,1196
1996,1713857819093284328,2047,2035,2026,2045,2047,2061,1195
1997,1713857819103287292,2067,2057,2080,2036,2052,2061,1197
1998,1713857819113250007,2045,2042,2041,2049,2052,2065,1197
1999,1713857819123287308,2056,2051,2055,2041,2054,2049,1197
2000,1713857819133322224,2050,2041,2035,2046,2042,2046,1194
2001,1713857819143278968,2063,2072,2109,2060,2068,2058,1197
2002,1713857819153289176,2047,2032,1998,2051,2052,2061,1195
2003,1713857819163289104,2066,2056,2061,2035,2047,2063,1196
2004,1713857819173282549,2066,2105,2210,2072,2045,2069,1195
2005,1713857819183281845,2036,2026,1994,2062,2060,2047,1195
2006,1713857819193284308,2061,2038,1976,2049,2054,2071,1196
2007,1713857819203284446,2064,2084,2122,2068,2056,2054,1196
2008,1713857819213283051,2045,2044,2027,2031,1952,2100,1195
2009,1713857819223298670,2104,2073,2049,2029,2091,2112,1197
2010,1713857819233293949,2076,2105,2188,2014,2107,2090,1196
2011,1713857819243283536,2050,2062,2029,2043,1991,2074,1196
2012,1713857819253282031,2051,2032,2019,2050,2080,2093,1197
2013,1713857819263282440,2052,2042,2014,1973,2026,2025,1194
2014,1713857819273282488,2057,2049,2058,2037,2052,2065,1198
2015,1713857819283282386,2056,2053,2066,2048,2054,2018,1193
2016,1713857819293282956,2048,2051,2055,2068,2079,2061,1194
2017,1713857819303282071,2044,2027,2014,2037,2057,2030,1194
2018,1713857819313282150,2069,2118,2272,2098,2056,2062,1193
2019,1713857819323283480,2049,2036,2003,2045,2064,2062,1196
2020,1713857819333287235,2052,2046,2042,2056,2040,2044,1194
2021,1713857819343274538,2061,2038,2004,2033,2049,2069,1198
2022,1713857819353286410,2074,2092,2090,2060,2048,2054,1194
2023,1713857819363290165,2042,2047,2040,2079,2118,2042,1195
2024,1713857819373284272,2059,2056,2064,2039,2046,2032,1196
2025,1713857819383284650,2060,2066,2098,2074,2095,2052,1195
2026,1713857819393284849,2042,2055,2092,2076,2144,2060,1196
2027,1713857819403284676,2056,2045,2023,2054,2069,2061,1196
2028,1713857819413289244,2051,2017,1992,2054,2059,2045,1192
2029,1713857819423282829,2066,2092,2172,2094,2068,2068,1196
2030,1713857819433289610,2050,2028,2030,2079,2074,2045,1192
2031,1713857819443283396,2051,2058,2077,2044,2060,2035,1195
2032,1713857819453282822,2038,2029,2021,2045,2025,1992,1194
2033,1713857819463284834,2064,2052,2042,2028,2046,2052,1194
2034,1713857819473282428,2047,2036,2016,2064,2029,2044,1195
2035,1713857819483283418,2045,2042,2047,2030,2012,2064,1195
2036,1713857819493283626,2040,2028,1978,2035,1928,2057,1197
2037,1713857819503285428,2061,2047,2024,2050,2056,2064,1196
2038,1713857819513288472,2059,2056,2022,2054,2034,2010,1193
2039,1713857819523286987,2049,2044,1985,2041,2056,2060,1194
2040,1713857819533288488,2057,2038,2024,2062,2070,2056,1198
2041,1713857819543289177,2047,2058,2074,2038,2045,2026,1194
2042,1713857819553316979,2060,2059,2085,2035,2008,2061,1195
2043,1713857819563294553,2072,2056,2041,2064,2083,2068,1195
2044,1713857819573292457,2060,2065,2125,2056,2036,2056,1195
2045,1713857819583294229,2060,2082,2179,2045,2022,2046,1194
2046,1713857819593294247,2056,2064,2064,2064,1975,2064,1196
2047,1713857819603295718,2056,2060,2082,2056,2077,2056,1196
2048,1713857819613297960,2044,2033,1992,2065,2057,2072,1196
2049,1713857819623297648,2050,2029,1984,2012,2094,2043,1193
2050,1713857819633299740,2051,2048,2064,2045,1981,2039,1193
2051,1713857819643281251,2052,2060,2085,2080,2072,2044,1193
2052,1713857819653308863,2055,2026,2027,2096,2221,2069,1196
2053,1713857819663284123,2056,2040,2019,2049,2066,2041,1193
2054,1713857819673281195,2078,2081,2106,2049,2020,2048,1196
2055,1713857819683304729,2059,2077,2128,2072,2096,2084,1195
2056,1713857819693284718,2054,2049,2073,2094,2092,2020,1195
2057,1713857819703286179,2064,2068,2107,2069,2085,2064,1196
2058,1713857819713283381,2043,2045,2067,2057,2028,2070,1198
2059,1713857819723289802,2072,2074,2054,2053,2089,2057,1196
2060,1713857819733285682,2049,2046,2044,2064,2058,2057,1198
2061,1713857819743282634,2052,2051,2036,2048,2056,2052,1195
2062,1713857819753370835,2063,2037,2018,2068,2088,2086,1194
2063,1713857819763295846,2063,2068,2054,2099,2154,2080,1195
2064,1713857819773281896,2059,2051,2035,2072,2061,2048,1195
2065,1713857819783284520,2057,2050,2002,2068,2079,2081,1197
2066,1713857819793269287,2054,2030,2004,2056,2055,2070,1198
2067,1713857819803285778,2068,2075,2121,2052,2080,2066,1196
2068,1713857819813340282,2047,2039,2049,2049,2045,2088,1198
2069,1713857819823284832,2064,2089,2152,2082,2041,2046,1193
2070,1713857819833284900,2065,2036,2008,2069,2049,2042,1193
2071,1713857819843291852,2045,2037,2002,2052,2056,2036,1191
2072,1713857819853291589,2060,2027,1960,2020,2034,2014,1194
2073,1713857819863294062,2063,2075,2040,2061,2077,2044,1194
2074,1713857819873321253,2061,2096,2210,2138,2013,2032,1195
2075,1713857819883295802,2045,2035,1992,2051,2168,2065,1197
2076,1713857819893289657,2056,2074,2074,2056,1912,2028,1195
2077,1713857819903288132,2052,2045,2012,2085,2064,2056,1197
2078,1713857819913292308,2056,2040,1990,2090,2076,2068,1196
2079,1713857819923287176,1993,1969,1916,1978,1985,2054,1197
2080,1713857819933293407,2076,2080,2073,2063,2021,2051,1196
2081,1713857819943287613,2055,2061,2088,2066,2049,2049,1198
2082,1713857819953290838,2061,2056,2076,2039,1990,2064,1197
2083,1713857819963299252,2052,2058,2057,2063,2100,2091,1197
2084,1713857819973316574,2056,2058,2066,2086,2060,2076,1195
2085,1713857819983289278,2058,2057,2050,2052,2091,2081,1197
2086,1713857819993286701,2047,2048,2045,2058,2024,2039,1192
2087,1713857820003287321,2049,2056,2041,2056,2105,2064,1196
2088,1713857820013289078,2049,2013,1929,2038,2021,2039,1194
2089,1713857820023287521,2060,2089,2093,2064,2060,2069,1195
2090,1713857820033288729,2053,2062,2032,2056,1993,2057,1195
2091,1713857820043286701,2058,2047,2058,2054,2104,2046,1193
2092,1713857820053287759,2045,2028,2011,2025,1936,2037,1195
2093,1713857820063293627,2056,2088,2085,2048,2122,2032,1193
2094,1713857820073291097,2074,2056,2048,2036,1916,2055,1199
2095,1713857820083290933,2048,2060,2074,2065,2157,2042,1194
2096,1713857820093291069,2051,2040,2004,2036,1956,2046,1194
2097,1713857820103292097,2047,2040,1976,2062,2215,2060,1195
2098,1713857820113292485,2045,2033,2084,2046,1864,2005,1194
2099,1713857820123300886,2042,2036,2032,2067,2228,2043,1193
2100,1713857820133294310,2059,2033,2011,2006,1840,2042,1193
2101,1713857820143299225,2035,2047,2015,2043,2153,2048,1195
2102,1713857820153295935,2080,2089,2096,2077,1878,2056,1195
2103,1713857820163298266,2047,2061,2076,2051,2245,2021,1195
2104,1713857820173298091,2040,2020,1974,2036,1749,2038,1193
2105,1713857820183283278,2054,2050,1996,2064,2335,2050,1196
2106,1713857820193305748,2077,2085,2150,2069,1796,2072,1195
2107,1713857820203284833,2060,2091,2179,2087,2329,2065,1194
2108,1713857820213284628,2042,2031,2013,2067,1756,2011,1194
2109,1713857820223288402,2064,2095,2079,2047,2378,2064,1195
2110,1713857820233326462,2058,2052,2036,2092,1608,2044,1192
2111,1713857820243288884,2064,2095,2117,2049,2567,2060,1195
2112,1713857820253286726,2045,2029,2031,2016,1548,2056,1196
2113,1713857820263286762,2040,2023,1936,2033,2978,2068,1197
2114,1713857820273293321,2068,2087,2200,2088,8,2054,1196
2115,1713857820283285712,2056,2032,1984,2048,4092,2044,1194
2116,1713857820293283764,2064,2071,2178,2077,10,2061,1196
2117,1713857820303285163,2056,2052,2088,2049,4089,2049,1194
2118,1713857820313282503,2056,2029,2001,2073,9,2064,1195
2119,1713857820323281828,2041,2052,2085,2050,4092,2057,1197
2120,1713857820333281553,2048,2051,2028,2073,8,2072,1195
2121,1713857820343282111,2047,2054,2105,2048,4092,2041,1193
2122,1713857820353282167,2060,2062,2126,2063,9,2053,1193
2123,1713857820363298795,2040,2025,1980,2033,4092,2012,1195
2124,1713857820373282109,2052,2052,2104,2095,8,2071,1194
2125,1713857820383288457,2050,2052,2003,2041,4092,2017,1198
2126,1713857820393281189,2063,2061,2059,2045,9,2059,1194
2127,1713857820403341463,2045,2045,2072,2047,4090,2040,1196
2128,1713857820413291110,2071,2056,2030,2045,9,2052,1196
2129,1713857820423286727,2061,2118,2181,2080,4090,2064,1197
2130,1713857820433292344,2058,2037,2026,2050,8,2053,1195
2131,1713857820443283924,2062,2060,2076,2068,4092,2043,1194
2132,1713857820453289400,2037,2080,2091,2062,8,2090,1196
2133,1713857820463292071,2075,2077,2072,2097,4090,2052,1198
2134,1713857820473284232,2072,2068,2100,2060,8,2058,1196
2135,1713857820483290701,2067,2062,2059,2069,4090,2069,1198
2136,1713857820493283653,2060,2027,2031,2068,8,2096,1195
2137,1713857820503321733,2046,2051,2058,2035,4090,2033,1193
2138,1713857820513298494,2068,2067,2113,2078,6,2064,1195
2139,1713857820523295845,2047,2032,2034,2059,4090,2056,1198
2140,1713857820533289858,2057,2021,1988,2048,7,2064,1196
2141,1713857820543267040,2062,2041,2030,2075,4090,2057,1196
2142,1713857820553288317,2051,2043,2050,2048,7,2094,1191
2143,1713857820563298463,2032,2044,2019,2058,4091,2047,1193
2144,1713857820573293951,2058,2047,2042,2061,7,2064,1196
2145,1713857820583266683,2068,2095,2093,2140,4092,2058,1195
2146,1713857820593289424,2058,2034,1992,2046,7,2067,1196
2147,1713857820603282466,2047,2045,2028,2083,4089,2045,1196
2148,1713857820613283454,2046,2031,2019,2075,6,2057,1194
2149,1713857820623336354,2049,2052,2047,2052,4092,2042,1193
2150,1713857820633290590,2060,2043,2046,2052,7,2064,1195
2151,1713857820643291387,2048,2037,2036,2058,4090,2045,1193
2152,1713857820653289489,2053,2018,1981,2045,7,2046,1194
2153,1713857820663283985,2044,2101,2140,2060,4092,2061,1197
2154,1713857820673316234,2057,2029,2025,2050,7,2052,1198
2155,1713857820683290399,2056,2039,2009,2048,4089,2048,1199
2156,1713857820693282129,2057,2028,2023,2043,7,2041,1194
2157,1713857820703261164,2038,2013,1972,2060,4091,2056,1197
2158,1713857820713294475,2054,2028,2018,2048,7,2080,1195
2159,1713857820723291445,2045,2051,2064,2046,4092,2056,1195
2160,1713857820733285429,2057,2046,2061,2056,7,2008,1193
2161,1713857820743282870,2048,2038,1984,2038,4092,2036,1194
2162,1713857820753295510,2045,2005,1960,2024,7,2068,1194
2163,1713857820763293332,2050,2065,1992,2047,4090,2051,1196
2164,1713857820773304309,2069,2091,2173,2056,7,2074,1193
2165,1713857820783287242,2050,2032,1995,2048,4090,2065,1196
2166,1713857820793286958,2054,2020,1950,2048,7,2058,1194
2167,1713857820803286713,2049,2046,2030,2034,4091,2088,1195
2168,1713857820813290818,2072,2068,2106,2096,6,2030,1192
2169,1713857820823287897,2049,2066,2063,2035,4089,2029,1194
2170,1713857820833293004,2052,2039,2003,2052,8,2045,1193
2171,1713857820843292428,2066,2066,2034,2032,4091,2044,1197
2172,1713857820853291633,2052,2049,2071,2050,7,1979,1194
2173,1713857820863293011,2076,2114,2253,2092,4090,2074,1197
2174,1713857820873294220,2052,2040,2014,2042,7,2053,1194
2175,1713857820883295548,2060,2071,2118,2043,4090,2028,1194
2176,1713857820893295754,2050,2034,2012,2066,8,2036,1192
2177,1713857820903297173,2059,2080,2100,2052,4091,2042,1195
2178,1713857820913298502,2042,2041,2032,2059,7,2066,1195
2179,1713857820923298878,2051,2065,2137,2056,4091,2056,1197
2180,1713857820933298604,2058,2030,2041,2058,6,2058,1196
2181,1713857820943282408,2033,2043,2012,2031,4092,2048,1198
2182,1713857820953282925,2053,2035,2020,2029,8,2045,1189
2183,1713857820963304753,2062,2070,2026,2053,4090,2021,1193
2184,1713857820973286564,2053,2032,2005,2052,84,2019,1194
2185,1713857820983287071,2067,2102,2207,2086,4091,2045,1192
2186,1713857820993253170,2048,2032,1974,2020,216,2039,1193
2187,1713857821003315007,2052,2060,2026,2032,4091,2029,1193
2188,1713857821013290010,2048,2040,2010,2045,352,2060,1193
2189,1713857821023283291,2057,2062,2083,2046,4092,2044,1194
2190,1713857821033290118,2068,2048,2067,2068,407,2061,1193
2191,1713857821043288719,2045,2053,2054,2062,4092,2055,1197
2192,1713857821053286830,2056,2024,1990,2059,409,2054,1197
2193,1713857821063290370,2080,2122,2193,2062,4091,2073,1196
2194,1713857821073282128,2068,2065,2108,2052,485,2088,1196
2195,1713857821083287873,2056,2060,2012,2050,4091,2081,1196
2196,1713857821093281284,2057,2068,2125,2088,553,2036,1193
2197,1713857821103328821,2040,2028,1986,2052,4090,2056,1200
2198,1713857821113288395,2068,2073,2100,2065,587,2072,1195
2199,1713857821123284371,2052,2057,2080,2047,4092,2045,1194
2200,1713857821133287030,2057,2038,2048,2060,640,2057,1193
2201,1713857821143284279,2061,2081,2123,2067,4092,2044,1195
2202,1713857821153285565,2049,2020,1998,2045,646,2058,1194
2203,1713857821163288274,2058,2072,2117,2072,4092,2002,1194
2204,1713857821173280252,2055,2041,2059,2070,644,2074,1195
2205,1713857821183286388,2042,2057,2044,2046,4092,2037,1194
2206,1713857821193237105,2058,2048,2028,2060,617,2060,1196
2207,1713857821203308238,2047,2047,2032,2051,4090,2042,1194
2208,1713857821213274977,2067,2073,2103,2061,618,2077,1195
2209,1713857821223295160,2063,2073,2161,2068,4090,2074,1197
2210,1713857821233289012,2050,2029,2018,2047,600,2081,1197
2211,1713857821243285999,2046,2049,2060,2068,4092,2076,1196
2212,1713857821253286976,2057,2037,2008,2056,681,2048,1195
2213,1713857821263287230,2053,2046,2035,2054,4093,2049,1198
2214,1713857821273320559,2058,2042,2040,2063,774,2053,1197
