seq,time,data[0],data[1],data[2],data[3],data[4],data[5],data[6]
201,1713857607732734986,2056,2052,2051,2059,2042,2053,1196
202,1713857607742747032,2056,2053,2052,2053,2068,2052,1198
203,1713857607752736650,2055,2056,2057,2054,2042,2056,1194
204,1713857607762738972,2059,2068,2099,2063,2061,2052,1196
205,1713857607772748378,2053,2040,2021,2062,2044,2056,1197
206,1713857607782738257,2056,2053,2043,2058,2061,2052,1199
207,1713857607792740931,2059,2075,2069,2064,2040,2058,1197
208,1713857607802734251,2056,2065,2060,2060,2066,2051,1197
209,1713857607812737807,2059,2061,2085,2058,2031,2053,1196
210,1713857607822748839,2051,2046,2028,2051,2070,2052,1195
211,1713857607832738878,2056,2052,2077,2058,2041,2056,1197
212,1713857607842732832,2052,2052,2055,2053,2058,2053,1196
213,1713857607852742770,2061,2049,2036,2057,2060,2058,1197
214,1713857607862738399,2056,2060,2059,2046,2055,2052,1193
215,1713857607872739998,2050,2041,2061,2068,2044,2057,1196
216,1713857607882734112,2052,2038,1986,2073,2088,2060,1196
217,1713857607892740990,2065,2081,2026,2085,2108,2068,1198
218,1713857607902750155,2053,2053,2042,2056,2082,2052,1195
219,1713857607912741458,2059,2054,2052,2072,2042,2059,1195
220,1713857607922737750,2057,2057,2055,2061,2066,2051,1197
221,1713857607932743262,2055,2056,2056,2056,2045,2054,1194
222,1713857607942732951,2055,2061,2058,2057,2069,2050,1197
223,1713857607952736617,2055,2043,2020,2062,1988,2046,1194
224,1713857607962734083,2059,2059,2060,2042,2074,2055,1197
225,1713857607972739896,2060,2056,2057,2048,2047,2055,1195
226,1713857607982740994,2049,2053,2060,2046,2064,2050,1197
227,1713857607992736754,2053,2050,2047,2053,2020,2052,1197
228,1713857608002735530,2052,2058,2032,2053,2061,2054,1195
229,1713857608012734191,2057,2048,2042,2050,2031,2056,1196
230,1713857608022735211,2058,2054,2060,2066,2072,2058,1196
231,1713857608032735668,2054,2050,2064,2062,2053,2056,1197
232,1713857608042738916,2055,2068,2063,2047,2068,2053,1196
233,1713857608052736805,2059,2052,2056,2064,2018,2053,1196
234,1713857608062728895,2057,2067,2080,2064,2063,2053,1196
235,1713857608072737741,2056,2047,2054,2056,2000,2052,1195
236,1713857608082735480,2051,2052,2052,2058,2074,2056,1196
237,1713857608092745770,2053,2044,2055,2069,2043,2057,1197
238,1713857608102734850,2059,2056,2060,2094,2125,2056,1197
239,1713857608112740084,2054,2047,2045,2040,2029,2052,1197
240,1713857608122738595,2050,2056,2060,2058,2084,2052,1196
241,1713857608132738260,2055,2045,2048,2066,2044,2056,1195
242,1713857608142750699,2057,2059,2065,2050,2068,2056,1196
243,1713857608152738042,2057,2054,2038,2052,2040,2056,1197
244,1713857608162736794,2054,2049,2021,2042,2064,2050,1198
245,1713857608172748109,2056,2045,2045,2067,2046,2055,1196
246,1713857608182738442,2052,2050,2040,2072,2052,2049,1196
247,1713857608192735960,2064,2081,2071,2066,2040,2055,1198
248,1713857608202734019,2052,2047,2062,2040,2077,2052,1197
249,1713857608212740959,2057,2064,2045,2054,2066,2057,1197
250,1713857608222766723,2056,2057,2063,2086,2064,2049,1195
251,1713857608232734470,2054,2048,2052,2057,2044,2058,1194
252,1713857608242749868,2056,2052,2052,2050,2048,2051,1195
253,1713857608252762096,2057,2050,2056,2058,2021,2052,1196
254,1713857608262776802,2052,2050,2045,2063,2065,2050,1194
255,1713857608272741509,2057,2060,2046,2029,2072,2057,1195
256,1713857608282748187,2064,2064,2068,2058,2090,2053,1194
257,1713857608292746649,2057,2043,2031,2057,2056,2058,1197
258,1713857608302766241,2053,2059,2060,2050,2062,2052,1197
259,1713857608312776011,2053,2045,2041,2053,2035,2056,1198
260,1713857608322728887,2057,2064,2045,2052,2115,2059,1197
261,1713857608332740212,2061,2063,2077,2042,2036,2053,1197
262,1713857608342746499,2053,2052,2035,2040,2057,2047,1195
263,1713857608352735569,2054,2047,2054,2058,2020,2053,1196
264,1713857608362748418,2052,2045,2024,2058,2048,2048,1197
265,1713857608372739214,2065,2084,2171,2062,2080,2057,1196
266,1713857608382746374,2051,2043,2026,2053,2072,2054,1197
267,1713857608392740460,2049,2034,1957,2042,2041,2056,1197
268,1713857608402738640,2092,2179,2146,2087,2070,2059,1197
269,1713857608412744647,2051,2030,1996,2035,2047,2060,1197
270,1713857608422736706,2056,2057,2066,2053,2068,2052,1196
271,1713857608432742984,2060,2053,2064,2056,2044,2064,1195
272,1713857608442743612,2051,2047,2025,2053,2049,2045,1194
273,1713857608452738561,2052,2041,2033,2061,2058,2064,1196
274,1713857608462743865,2064,2086,2208,2070,2065,2054,1194
275,1713857608472740751,2044,2012,1982,2050,2041,2052,1195
276,1713857608482738801,2053,2057,2056,2064,2100,2059,1197
277,1713857608492750156,2053,2041,2018,2046,2045,2052,1197
278,1713857608502738753,2054,2045,1990,2028,2062,2047,1194
279,1713857608512745964,2054,2058,2035,2072,2042,2054,1196
280,1713857608522741073,2055,2053,2056,2080,2074,2054,1196
281,1713857608532737387,2059,2071,2125,2062,2040,2056,1195
282,1713857608542748521,2049,2036,2022,2058,2073,2052,1196
283,1713857608552735253,2062,2053,2052,2055,2040,2056,1198
284,1713857608562720709,2054,2061,2049,2050,2078,2054,1197
285,1713857608572770755,2052,2045,2068,2055,2041,2056,1195
286,1713857608582740359,2056,2049,2040,2052,2066,2052,1198
287,1713857608592723848,2058,2054,2044,2044,2046,2057,1196
288,1713857608602737682,2056,2062,2054,2052,2071,2064,1196
289,1713857608612706713,2058,2050,2050,2069,2043,2056,1197
290,1713857608622730390,2058,2052,2044,2079,2077,2054,1196
291,1713857608632757427,2058,2056,2048,2044,2052,2056,1196
292,1713857608642737135,2056,2064,2076,2066,2072,2056,1200
293,1713857608652692580,2060,2064,2086,2050,2043,2052,1194
294,1713857608662751015,2054,2072,2082,2081,2096,2057,1194
295,1713857608672738057,2060,2052,2053,2056,2049,2054,1195
296,1713857608682736799,2054,2053,2036,2028,2058,2049,1195
297,1713857608692736042,2066,2063,2069,2053,2021,2053,1196
298,1713857608702740063,2058,2060,2068,2061,2088,2061,1196
299,1713857608712738584,2054,2045,2050,2056,2037,2054,1196
300,1713857608722749467,2051,2044,1981,2060,2091,2069,1196
301,1713857608732738676,2060,2073,2094,2060,2036,2056,1197
302,1713857608742770221,2056,2047,2042,2037,2066,2059,1197
303,1713857608752739442,2054,2046,2059,2064,2036,2055,1199
304,1713857608762743161,2061,2079,2048,2064,2077,2054,1198
305,1713857608772736354,2060,2056,2069,2024,2057,2076,1196
306,1713857608782870958,2048,2046,2037,2047,2062,2060,1198
307,1713857608792753173,2056,2040,2018,2049,2033,2056,1194
308,1713857608802742303,2052,2064,2053,2050,2061,2048,1196
309,1713857608812738496,2056,2047,2041,2053,2014,2025,1193
310,1713857608822749971,2057,2064,2074,2074,2072,2068,1198
311,1713857608832749436,2059,2050,2047,2055,2041,2051,1196
312,1713857608842705362,2053,2045,2054,2045,2045,2056,1197
313,1713857608852732691,2057,2058,2076,2076,2044,2052,1199
314,1713857608862735366,2053,2050,2042,2047,2060,2039,1192
315,1713857608872730958,2061,2058,2030,2068,2033,2022,1192
316,1713857608882722956,2051,2057,2028,2081,2112,2035,1194
317,1713857608892736228,2052,2043,2036,2064,2047,2038,1193
318,1713857608902745636,2059,2064,2064,2054,2064,2054,1196
319,1713857608912756731,2053,2046,2047,2047,2056,2050,1194
320,1713857608922738675,2056,2064,2060,2060,2073,2068,1197
321,1713857608932746067,2058,2058,2104,2067,2043,2056,1196
322,1713857608942773817,2056,2048,2037,2056,2015,2048,1197
323,1713857608952749019,2056,2051,2056,2059,2073,2057,1195
324,1713857608962745363,2056,2060,2064,2045,1878,2004,1193
325,1713857608972751019,2056,2054,2046,2045,2081,2060,1196
326,1713857608982886987,2060,2058,2053,2080,2092,2044,1194
327,1713857608992741529,2054,2048,2052,2060,1997,2076,1197
328,1713857609002778450,2052,2054,2053,2055,2057,2048,1197
329,1713857609012726041,2056,2052,2057,2043,2024,2040,1193
330,1713857609022732716,2056,2054,2051,2059,2081,2045,1194
331,1713857609032747618,2053,2047,2046,2065,2050,2076,1197
332,1713857609042743316,2056,2056,2052,2046,2013,2061,1197
333,1713857609052735763,2054,2057,2106,2052,2031,2042,1193
334,1713857609062743241,2044,2038,2010,2042,2063,2056,1194
335,1713857609072735206,2050,2045,2017,2062,2040,2052,1198
336,1713857609082750519,2056,2062,2052,2052,2077,2052,1195
337,1713857609092741432,2056,2050,2049,2032,2036,2040,1193
338,1713857609102739557,2056,2053,2038,2040,2020,2044,1192
339,1713857609112743042,2064,2056,2062,2053,2059,2044,1191
340,1713857609122738217,2054,2060,2090,2061,2074,2069,1194
341,1713857609132743006,2057,2057,2106,2063,2029,2040,1192
342,1713857609142756643,2045,2037,1986,2047,2056,2046,1194
343,1713857609152733669,2052,2056,2026,2045,2067,2062,1196
344,1713857609162734745,2068,2064,2008,2073,2094,2067,1195
345,1713857609172734897,2045,2015,1945,2069,2063,2067,1198
346,1713857609182736024,2075,2118,2155,2082,2041,2046,1195
347,1713857609192702694,2048,2023,2029,2004,2037,2053,1198
348,1713857609202734343,2050,2037,2048,2060,2140,2104,1196
349,1713857609212744027,2058,2052,2054,2057,2028,2084,1196
350,1713857609222735501,2057,2068,2046,2060,2065,2061,1197
351,1713857609232745908,2059,2053,2045,2063,2063,2116,1196
352,1713857609242738094,2046,2037,1996,2023,2033,2032,1194
353,1713857609252738909,2060,2076,2150,2065,2045,2049,1196
354,1713857609262739042,2061,2073,2098,2063,2082,2052,1194
355,1713857609272742225,2060,2062,2060,2058,2027,2056,1195
356,1713857609282748418,2054,2054,2047,2056,2084,2123,1196
357,1713857609292742400,2050,2027,2036,2053,2025,2012,1193
358,1713857609302732178,2054,2056,2089,2068,2074,2060,1196
359,1713857609312743619,2051,2036,2017,2052,2036,2098,1197
360,1713857609322740309,2060,2074,2060,2060,2052,2046,1194
361,1713857609332741717,2045,2034,2022,2061,2049,2040,1196
362,1713857609342739161,2054,2046,2060,2050,2064,2062,1196
363,1713857609352736755,2049,2047,2046,2052,2044,2121,1195
364,1713857609362744282,2040,2030,2003,2045,2052,2045,1194
365,1713857609372734823,2056,2065,2064,2053,2036,2040,1194
366,1713857609382743796,2045,2042,2024,2073,2124,2109,1196
367,1713857609392716967,2062,2053,2041,2065,2061,2072,1196
368,1713857609402732221,2061,2065,2052,2056,2043,2049,1196
369,1713857609412741946,2052,2057,2052,2062,2037,2047,1193
370,1713857609422738727,2052,2050,2092,2052,2085,2088,1198
371,1713857609432737967,2062,2059,2070,2065,2037,2056,1197
372,1713857609442739063,2057,2060,2052,2057,2068,2128,1198
373,1713857609452736166,2056,2057,2058,2053,2031,2056,1197
374,1713857609462733729,2059,2061,2076,2052,2035,2019,1193
375,1713857609472741177,2057,2056,2063,2060,2029,2044,1193
376,1713857609482746457,2052,2029,2010,2044,2056,2057,1196
377,1713857609492735041,2050,2048,2057,2059,2036,2084,1195
378,1713857609502734049,2056,2058,2046,2056,2073,2061,1196
379,1713857609512731243,2053,2043,2040,2056,2042,2039,1193
380,1713857609522735851,2056,2048,2028,2047,2056,2084,1196
381,1713857609532749228,2056,2056,2080,2059,2028,1959,1192
382,1713857609542737170,2048,2053,2056,2013,2070,2080,1196
383,1713857609552739650,2052,2060,2038,2056,2056,2074,1198
384,1713857609562740917,2060,2078,2084,2076,2001,2016,1195
385,1713857609572735370,2063,2044,2023,2040,2026,2181,1199
386,1713857609582739587,2057,2053,2031,2074,2026,1918,1196
387,1713857609592733438,2062,2069,2107,2064,2052,1876,1193
388,1713857609602736842,2054,2060,2079,2064,2062,2054,1198
389,1713857609612708117,2068,2046,2038,2064,1967,1977,1194
390,1713857609622724906,2049,2050,2047,2047,2052,2049,1198
391,1713857609632744665,2040,2025,1965,2056,2012,2093,1197
392,1713857609642750808,2056,2056,2043,2047,2104,2145,1198
393,1713857609652763533,2050,2045,2024,2037,2014,1910,1192
394,1713857609662745555,2053,2065,2106,2039,2012,2028,1192
395,1713857609672745377,2059,2049,2062,2068,2065,2075,1197
396,1713857609682744485,2053,2065,2095,2053,2046,2001,1194
397,1713857609692751793,2051,2049,2050,2057,1998,2102,1198
398,1713857609702764708,2057,2057,2048,2062,2153,2143,1196
399,1713857609712727004,2055,2063,2033,2070,2120,2109,1196
400,1713857609722731792,2066,2063,2062,2092,2082,2038,1193
401,1713857609732746654,2050,2032,2016,2064,2060,2121,1195
402,1713857609742743727,2056,2057,2072,2042,1988,2029,1194
403,1713857609752738612,2052,2078,2158,2060,1996,2024,1194
404,1713857609762739487,2054,2055,2036,2056,2029,2021,1195
405,1713857609772736650,2053,2037,2042,2078,2100,2125,1195
406,1713857609782750960,2060,2046,2031,2053,2116,2026,1195
407,1713857609792745032,2060,2053,2069,2053,1965,2014,1193
408,1713857609802742727,2046,2052,2056,2058,2036,2034,1193
409,1713857609812745478,2072,2056,2052,2064,2087,1933,1192
410,1713857609822733149,2050,2044,2052,2033,1980,2021,1193
411,1713857609832757303,2052,2044,2047,2056,2037,2134,1196
412,1713857609842735482,2036,2031,1964,2027,2157,1691,1192
413,1713857609852739809,2057,2061,2078,2055,1993,1859,1192
414,1713857609862745650,2056,2076,2052,2062,2041,1917,1193
415,1713857609872736111,2055,2049,2042,2053,2090,2174,1195
416,1713857609882751785,2058,2057,2056,2060,2094,2044,1192
417,1713857609892748397,2053,2047,2049,2058,2043,2161,1197
418,1713857609902735115,2060,2056,2060,2072,2130,2139,1196
419,1713857609912741719,2049,2050,2072,2066,2266,1858,1194
420,1713857609922734186,2058,2072,2146,2049,2060,2165,1195
421,1713857609932741522,2060,2045,2020,2045,2037,2074,1196
422,1713857609942745900,2056,2057,2053,2063,2083,2077,1196
423,1713857609952735968,2056,2053,2047,2057,2047,2067,1197
424,1713857609962739473,2058,2061,2063,2049,2088,2121,1197
425,1713857609972736545,2051,2046,2050,2053,2056,2100,1198
426,1713857609982747645,2055,2055,2048,2050,2017,2031,1193
427,1713857609992739138,2074,2077,2097,2071,2033,2064,1198
428,1713857610002734264,2049,2056,2023,2074,2096,2057,1196
429,1713857610012750323,2052,2042,2039,2050,2045,2056,1198
430,1713857610022738365,2050,2078,2091,2060,2054,1943,1194
431,1713857610032749082,2057,2058,2070,2062,2048,2056,1197
432,1713857610042713415,2053,2053,2070,2061,2090,1992,1194
433,1713857610052721674,2049,2043,2044,2062,2069,2093,1195
434,1713857610062741461,2056,2053,2070,2052,2052,2062,1196
435,1713857610072734449,2046,2026,1985,2029,2040,2060,1196
436,1713857610082742036,2068,2093,2109,2067,2072,2056,1196
437,1713857610092742599,2065,2050,2072,2058,2026,1949,1191
438,1713857610102739993,2036,2042,2083,2032,1938,2101,1197
439,1713857610112751803,2057,2072,2039,2064,2026,2064,1197
440,1713857610122732952,2064,2060,2042,2064,2064,2100,1197
441,1713857610132778474,2040,2033,2027,2059,2056,2091,1196
442,1713857610142741463,2047,2034,1997,2042,2076,2088,1197
443,1713857610152744695,2061,2084,2146,2049,2001,1994,1194
444,1713857610162732497,2052,2037,2028,2034,2015,2065,1197
445,1713857610172735528,2052,2058,2053,2065,2037,2066,1196
446,1713857610182748101,2064,2042,2016,2050,2084,2092,1197
447,1713857610192736393,2080,2088,2113,2082,2088,2088,1196
448,1713857610202746248,2057,2048,2038,2035,2024,2064,1196
449,1713857610212731239,2050,2035,2003,2048,2027,1928,1193
450,1713857610222736168,2067,2084,2130,2062,2037,2017,1194
451,1713857610232707213,2047,2035,2048,2062,2042,2041,1195
452,1713857610242725074,2058,2056,2026,2046,2026,2082,1197
453,1713857610252736323,2080,2056,2034,2053,2053,2072,1196
454,1713857610262734899,2058,2079,2138,2067,2053,2003,1190
455,1713857610272736145,2069,2069,2060,2070,2004,1971,1194
456,1713857610282737782,2066,2081,2101,2060,2090,2132,1197
457,1713857610292733148,2037,2015,1967,2066,2193,2030,1193
458,1713857610302712712,2049,2075,2071,2040,1964,2052,1194
459,1713857610312739874,2061,2025,1992,2048,1984,1912,1196
460,1713857610322740166,2064,2064,2052,2076,2154,1734,1194
461,1713857610332746007,2060,2052,2048,2055,2054,1986,1197
462,1713857610342742577,2051,2051,2060,2049,2172,1698,1196
463,1713857610352739468,2063,2064,2064,2088,2147,2330,1197
464,1713857610362750396,2058,2105,2273,2084,2091,1946,1194
465,1713857610372770986,2052,2009,2008,2068,2077,2445,1198
466,1713857610382791776,2027,2022,1987,2022,1956,1814,1193
467,1713857610392749819,2044,2026,2012,2021,2156,1929,1195
468,1713857610402748275,2069,2095,2171,2082,2076,2180,1198
469,1713857610412759072,2036,2032,2024,2043,1978,1938,1193
470,1713857610422759084,2056,2062,2082,2052,1969,1843,1193
471,1713857610432774737,2056,2040,2013,2037,1978,1883,1192
472,1713857610442729218,2046,2068,2117,2043,2046,1976,1194
473,1713857610452743366,2056,2051,2061,2033,1884,1817,1192
474,1713857610462751726,2039,2038,2026,2068,2082,1991,1193
475,1713857610472736376,2057,2032,1976,2036,1940,2101,1197
476,1713857610482754608,2070,2069,2110,2057,2044,2064,1196
477,1713857610492743202,2012,2040,2072,1994,1676,1660,1194
478,1713857610502744668,2054,2049,2021,2050,2054,1965,1194
479,1713857610512747639,2055,2035,1980,2057,2121,2136,1195
480,1713857610522738080,2065,2104,2178,2072,2037,2064,1195
481,1713857610532748023,2039,2040,2020,2042,1970,2032,1193
482,1713857610542740190,2044,2044,2033,2059,2102,1982,1194
483,1713857610552737411,2053,2042,2032,2053,2066,2081,1198
484,1713857610562739871,2048,2052,2013,2031,1901,2017,1193
485,1713857610572736501,2063,2098,2074,2075,2084,2093,1196
486,1713857610582756018,2056,2033,2023,2052,2058,2052,1196
487,1713857610592747321,2059,2059,2143,2062,2019,2116,1196
488,1713857610602730235,2056,2047,2051,2040,2040,2015,1193
489,1713857610612744113,2063,2052,2041,2047,2037,2051,1198
490,1713857610632732999,2064,2066,2068,2058,2068,2040,1192
491,1713857610642733903,2057,2044,2042,2037,1876,1934,1192
492,1713857610652733624,2061,2088,2155,2072,2090,2031,1197
493,1713857610662744070,2069,2070,2091,2061,2045,1954,1193
494,1713857610672738273,2047,2060,2069,2073,2038,1984,1192
495,1713857610682737421,2034,2028,2000,2039,1962,1942,1192
496,1713857610692748590,2073,2077,2062,2049,2036,2062,1196
497,1713857610702741397,2045,2011,1962,2026,2020,1888,1194
498,1713857610712740145,2053,2057,2069,2047,2074,2045,1196
499,1713857610722876237,2083,2088,2157,2064,2049,1992,1193
500,1713857610732753121,2044,2040,2026,2066,2075,2036,1194
501,1713857610742716842,2068,2078,2097,2109,2173,2080,1196
502,1713857610752722663,2037,2027,2008,2036,2042,2012,1193
503,1713857610762743844,2056,2069,2059,2054,2045,2052,1195
504,1713857610772733552,2074,2046,1999,2051,2061,2078,1198
505,1713857610782738831,2088,2060,1976,2056,2079,2050,1198
506,1713857610792746799,2050,2045,2028,2052,2060,2044,1197
507,1713857610802746720,2050,2056,2058,2042,2021,2067,1195
508,1713857610812719582,2075,2101,2206,2083,2056,1958,1193
509,1713857610822734252,2056,2049,2067,2062,2050,2104,1197
510,1713857610832739471,2056,2056,2054,2064,2085,2130,1195
511,1713857610842686256,2055,2070,2069,2071,1973,1965,1194
512,1713857610852740116,2048,2028,1986,2069,2056,2028,1194
513,1713857610862726653,2029,2009,1957,2029,2030,2027,1192
514,1713857610872735303,2072,2064,2057,2064,2075,2058,1192
515,1713857610882739639,2046,2046,2052,2044,2052,2136,1197
516,1713857610892736389,2065,2073,2106,2090,2104,2131,1197
517,1713857610902738037,2061,2052,2052,2056,2047,1967,1193
518,1713857610912737506,2047,2034,1974,2040,2013,2056,1197
519,1713857610922742635,2060,2065,2116,2070,2084,2069,1195
520,1713857610932742666,2049,2056,2040,2057,2086,2068,1194
521,1713857610942737230,2057,2042,2037,2058,2076,2264,1198
522,1713857610952741064,2069,2078,2116,2092,2089,2069,1195
523,1713857610962736290,2048,2052,2100,2060,2036,2061,1196
524,1713857610972753178,2069,2062,2093,2058,2011,2086,1198
525,1713857610982738661,2042,2029,2016,2050,2038,2053,1195
526,1713857610992738422,2045,2040,2024,2046,2029,2043,1194
527,1713857611002742105,2053,2040,1992,2048,2046,2049,1196
528,1713857611012748931,2049,2052,2060,2040,2049,2056,1197
529,1713857611022735149,2064,2061,2065,2058,2053,2037,1196
530,1713857611032739367,2055,2032,2045,2056,2056,1980,1195
531,1713857611042738628,2053,2045,2052,2077,2056,2084,1197
532,1713857611052742093,2056,2058,2076,2048,2064,2061,1196
533,1713857611062732394,2058,2054,2041,2059,2060,2065,1197
534,1713857611072763360,2054,2041,2050,2049,2082,2065,1192
535,1713857611082735150,2053,2053,2058,2050,1995,2077,1195
536,1713857611092741666,2050,2056,2056,2069,2092,2061,1194
537,1713857611102756829,2054,2052,2053,2058,2044,2060,1196
538,1713857611112766885,2061,2061,2067,2056,2069,2059,1197
539,1713857611122749110,2058,2057,2058,2053,2039,2045,1192
540,1713857611132747308,2056,2055,2057,2052,2068,2052,1194
541,1713857611142744201,2056,2047,2053,2053,2043,2038,1194
542,1713857611152752462,2058,2077,2064,2067,2062,2046,1194
543,1713857611162765158,2048,2046,2045,1963,2078,2015,1192
544,1713857611172734230,2073,2064,2056,2004,2078,2039,1194
545,1713857611182742621,2052,2046,2047,1980,2033,2064,1198
546,1713857611192734006,2051,2055,2056,2074,2056,2063,1197
547,1713857611202738244,2052,2076,2056,2185,2058,2017,1194
548,1713857611212737665,1997,2028,2056,2160,2029,2064,1197
549,1713857611222743889,2075,2034,2036,1992,1978,2010,1193
550,1713857611232742367,2048,2008,2028,2038,2063,2055,1195
551,1713857611242735087,2029,2046,2015,2148,2050,2012,1194
552,1713857611252736987,2084,2063,2037,2044,1940,2001,1194
553,1713857611262735165,2056,2046,2061,2061,2072,2077,1195
554,1713857611272747659,2143,2056,2049,2060,2031,1972,1193
555,1713857611282742496,2044,2041,2042,2039,2060,2041,1193
556,1713857611292734293,2053,2052,2047,2060,2039,2044,1194
557,1713857611302741560,2060,2056,2056,2121,2134,2065,1196
558,1713857611312739366,2066,2056,2055,2061,2087,2061,1197
559,1713857611322744647,2037,2032,2046,2062,1983,2065,1196
560,1713857611332736624,2070,2057,2064,2151,2005,2040,1193
561,1713857611342739096,2057,2052,2050,2064,2007,2072,1197
562,1713857611352759487,2070,2064,2056,2088,2041,2057,1194
563,1713857611362754483,2056,2052,2058,2090,2126,2060,1196
564,1713857611372738946,2026,2050,2053,2024,2020,2055,1197
565,1713857611382736742,2008,2044,2043,2012,2005,2051,1196
566,1713857611392736034,1989,2036,2051,2090,2080,1953,1196
567,1713857611402753203,2046,2046,2054,2101,2118,2076,1197
568,1713857611412724674,2054,2057,2058,2075,2032,2036,1193
569,1713857611422721035,2065,2053,2058,2056,2085,2065,1196
570,1713857611432735095,2058,2056,2050,2056,1996,2021,1191
571,1713857611442736091,2084,2063,2066,2042,2053,2065,1196
572,1713857611452749730,2035,2047,2043,2106,2109,2033,1193
573,1713857611462737604,2030,2042,2054,2046,2026,2074,1195
574,1713857611472714381,2028,2061,2064,2096,2100,2064,1194
575,1713857611482738815,2045,2045,2052,2072,2069,2060,1196
576,1713857611492737795,1980,2056,2059,2024,2143,1976,1192
577,1713857611502751353,2019,2056,2068,2080,2045,2074,1196
578,1713857611512726354,2053,2052,2051,2057,2043,2031,1192
579,1713857611522735438,2129,2065,2052,2008,1950,2070,1196
580,1713857611532740779,2033,2040,2047,2072,2060,2057,1196
581,1713857611542739388,2138,2088,2070,2072,2040,2061,1194
582,1713857611552737796,1990,2058,2064,2011,2081,2068,1196
583,1713857611562744141,2056,2051,2056,1968,1969,1999,1193
584,1713857611572738124,2053,2062,2059,2019,2051,2053,1197
585,1713857611582739513,2098,2071,2060,2063,2076,2097,1195
586,1713857611592736185,2055,2052,2062,2097,2021,2044,1195
587,1713857611602733169,2092,2058,2056,2067,2038,2061,1198
588,1713857611612729660,2040,2044,2053,2065,2105,2060,1196
589,1713857611622745707,2050,2045,2051,2053,1983,2024,1193
590,1713857611632743713,2026,2034,2048,2053,2038,2040,1194
591,1713857611642738039,1967,2074,2081,2082,2053,2009,1194
592,1713857611652737421,2060,2053,2052,1997,2030,2043,1193
593,1713857611662760640,2062,2058,2058,2068,2156,2062,1194
594,1713857611672743156,2046,2046,2043,1997,2035,2015,1194
595,1713857611682737922,2054,2056,2050,2092,1945,2024,1194
596,1713857611692739491,2056,2053,2046,2084,2133,2036,1190
597,1713857611702740107,2059,2069,2073,2065,2056,2005,1193
598,1713857611712744094,2049,2028,1972,2072,2048,2093,1196
599,1713857611722736823,2065,2088,2123,2122,2076,2058,1195
600,1713857611732741221,2056,2047,2053,2050,2125,2096,1194
601,1713857611742738154,2059,2047,2043,2079,1977,2020,1192
602,1713857611752734587,2058,2057,2058,2054,2088,2114,1197
603,1713857611762745626,2056,2052,2052,2062,2033,2101,1195
604,1713857611772736420,2057,2060,2054,2108,2118,2074,1195
605,1713857611782740145,2043,2018,1969,2018,2095,2061,1196
606,1713857611792735584,2064,2108,2228,2072,2094,2100,1197
607,1713857611802727270,2051,2024,1956,2010,2082,2081,1195
608,1713857611812736364,2053,2053,2000,2075,1987,1983,1194
609,1713857611822744595,2045,2034,2047,2036,2006,1984,1194
610,1713857611832745049,2057,2061,2050,2006,2055,2047,1194
611,1713857611842744060,2058,2047,2061,2032,2029,2040,1193
612,1713857611852752210,2052,2056,2068,2060,2071,2113,1196
613,1713857611862769500,2056,2048,2042,2058,2100,2072,1195
614,1713857611872750300,2056,2057,2060,2046,2077,2042,1191
615,1713857611882748388,2053,2069,2132,2027,1988,2062,1197
616,1713857611892762557,2058,2062,2085,1965,2045,2042,1192
617,1713857611902748786,2059,2081,2143,2169,2066,2041,1194
618,1713857611912761882,2047,2030,1992,2045,2060,2050,1195
619,1713857611922776585,2058,2059,2109,2016,2036,2057,1195
620,1713857611932740891,2057,2072,2149,2076,2085,2042,1192
621,1713857611942752453,2052,2045,2037,2004,2024,2036,1192
622,1713857611952745614,2064,2088,2075,2126,2089,2028,1193
623,1713857611962736738,2057,2058,2033,2054,2047,2070,1196
624,1713857611972741768,2041,2014,1956,1979,2056,2042,1194
625,1713857611982738892,2091,2170,2244,2088,2066,2072,1195
626,1713857611992737331,2047,2032,1958,1990,2053,2026,1194
627,1713857612002746695,2068,2074,2070,1989,2053,2056,1195
628,1713857612012735261,2043,2024,1978,2060,2066,2046,1194
629,1713857612022739964,2052,2052,2057,2097,2045,2054,1197
630,1713857612032733250,2051,2056,2055,2059,2047,2044,1191
631,1713857612042738144,2061,2045,2033,1953,1998,2058,1196
632,1713857612052742536,2041,2040,2039,2042,2031,2016,1194
633,1713857612062737818,2093,2048,2049,2066,2043,2058,1196
634,1713857612072737495,2071,2056,2025,1938,2056,2054,1192
635,1713857612082737645,2049,2045,2056,2032,2042,2053,1197
636,1713857612092736037,2052,2056,2057,2091,2078,2053,1197
637,1713857612102745255,2052,2043,2056,1935,2042,2057,1194
638,1713857612112735692,2067,2073,2063,2040,2083,2058,1196
639,1713857612122733172,2050,2036,2024,1826,2001,2041,1195
640,1713857612132744366,2060,2060,2060,2050,2075,2053,1195
641,1713857612142740431,2056,2052,2060,2118,2034,2054,1195
642,1713857612152757213,2053,2060,2061,2100,2068,2052,1196
643,1713857612162753841,2058,2052,2050,2058,2035,2055,1193
644,1713857612172741118,2053,2047,2040,2080,2072,2050,1197
645,1713857612182743343,2061,2061,2033,2068,2040,2053,1195
646,1713857612192741946,2058,2057,2049,2025,2067,2050,1197
647,1713857612202749017,2056,2046,2052,2129,2060,2060,1196
648,1713857612212749667,2061,2058,2042,2052,2058,2048,1196
649,1713857612222745261,2064,2059,2040,2090,2053,2061,1195
650,1713857612232742570,2056,2063,2076,2105,2062,2052,1194
651,1713857612242741495,2053,2047,2052,2053,2049,2056,1196
652,1713857612252764648,2064,2068,2068,2076,2073,2052,1198
653,1713857612262742695,2072,2050,2047,2073,2035,2024,1195
654,1713857612272739623,2052,2052,2050,2055,2076,2129,1194
655,1713857612282740463,2056,2045,2053,2140,2060,2065,1198
656,1713857612292739548,2053,2059,2075,2066,2060,2044,1193
657,1713857612302750612,2066,2052,1991,2034,2032,1995,1195
658,1713857612312744681,2048,2041,2036,2104,2053,2052,1196
659,1713857612322738409,2053,2045,2030,1970,2027,2052,1198
660,1713857612332740132,2052,2052,2049,2043,2080,2077,1195
661,1713857612342737552,2052,2049,2067,2069,2041,1953,1192
662,1713857612352741292,2046,2051,2036,2062,2054,2024,1193
663,1713857612362747901,2054,2037,2024,2140,1998,2034,1193
664,1713857612372739563,2049,2061,2058,2011,2062,2042,1193
665,1713857612382742078,2037,2018,2016,2013,2024,2038,1196
666,1713857612392750092,2089,2162,2428,2103,2092,2073,1195
667,1713857612402740700,2052,2045,2072,1892,2024,2060,1197
668,1713857612412742053,2053,2048,2036,2084,2067,2043,1193
669,1713857612422739482,2065,2054,2052,2046,2049,2068,1198
670,1713857612432753686,2048,2049,2044,2108,2088,2068,1198
671,1713857612442741093,2065,2066,2105,2216,2044,2034,1195
672,1713857612452740880,2052,2057,2073,2058,2089,2061,1196
673,1713857612462741230,2061,2061,2084,2080,2049,2059,1196
674,1713857612472738850,2046,2033,1996,2024,2070,2039,1192
675,1713857612482750917,2061,2062,2093,2120,2045,2065,1198
676,1713857612492736127,2056,2060,2067,2060,2058,2054,1197
677,1713857612502745656,2052,2033,2021,2044,2036,2052,1195
678,1713857612512744380,2078,2104,2169,2060,2066,2052,1193
679,1713857612522741458,2056,2052,2079,2066,2040,2058,1197
680,1713857612532740995,2060,2056,2032,2100,2073,2046,1194
681,1713857612542742338,2052,2060,2084,2024,2017,2047,1191
682,1713857612552743931,2060,2078,2144,2057,2067,2056,1195
683,1713857612562735953,2052,2046,2036,2094,2050,2056,1196
684,1713857612572748832,2052,2068,2088,2080,2093,2056,1194
685,1713857612582737373,2042,2032,2038,2085,2068,2062,1195
686,1713857612592736147,2059,2094,2176,2145,2056,2056,1196
687,1713857612602743098,2066,2104,2155,2100,2036,2051,1196
688,1713857612612736815,2044,2032,2024,1992,2053,2038,1194
689,1713857612622751200,2052,2056,2064,2013,2049,2065,1195
690,1713857612632724321,2053,2056,2052,2069,2069,2052,1195
691,1713857612642745076,2039,2041,2073,2056,2043,2047,1194
692,1713857612652752749,2066,2104,1968,2075,2082,2041,1193
693,1713857612662762458,2032,2021,2035,2050,2048,2097,1194
694,1713857612672748471,2069,2025,1925,2016,2050,2021,1192
695,1713857612682758902,2077,2093,2174,2097,2079,2065,1194
696,1713857612692770057,2062,2052,2037,2063,2092,2079,1196
697,1713857612702783639,2056,2049,2027,2084,2027,2061,1196
698,1713857612712741832,2053,2032,1994,2108,2090,2032,1196
699,1713857612722736071,2051,2069,2100,2084,1989,2064,1196
700,1713857612732737704,2040,2056,2061,2075,2035,2057,1193
701,1713857612742737351,2060,2061,2079,2029,2104,2117,1194
702,1713857612752748325,2061,2054,2041,2019,2069,2108,1195
703,1713857612762739825,2050,2074,2153,2089,2035,2024,1193
704,1713857612772742662,2077,2061,2034,2036,2074,2004,1194
705,1713857612782771564,2062,2018,1942,2015,2050,2065,1194
706,1713857612792740261,2045,2060,2064,2061,2058,2054,1197
707,1713857612802758327,2056,2044,2072,1844,2042,2046,1193
708,1713857612812747108,2048,2045,2026,2054,2045,2036,1193
709,1713857612822739482,2060,2048,2043,2068,2048,2056,1196
710,1713857612832741747,2098,2050,1974,2056,2038,2036,1195
711,1713857612842748728,2050,2059,2064,1994,2019,2072,1196
712,1713857612852737780,2052,2042,2021,2037,2023,2041,1194
713,1713857612862719680,2048,2004,1992,2020,2022,2034,1194
714,1713857612872735489,2024,1980,1847,2032,2077,2074,1196
715,1713857612882753385,2049,2033,2004,2027,2034,2042,1192
716,1713857612892736799,2057,2047,2018,1971,2076,2047,1192
717,1713857612902741452,2033,2075,2116,2075,1973,2059,1196
718,1713857612912745694,2048,2033,1992,1962,2059,2076,1196
719,1713857612922738740,2071,2050,2008,2013,2010,2053,1195
720,1713857612932746232,2052,2040,1989,2040,2068,2059,1197
721,1713857612942736890,2062,2065,2076,2088,2028,2024,1192
722,1713857612952743529,2057,2040,1972,2040,2076,2054,1195
723,1713857612962737768,2066,2052,2040,2062,2044,2056,1196
724,1713857612972757269,2077,2146,2405,2161,2084,2111,1195
725,1713857612982738146,2085,2078,2021,2062,2067,2057,1197
726,1713857612992738746,2056,2032,1976,2069,2059,2057,1196
727,1713857613002741873,2048,2036,2012,2024,1934,1981,1194
728,1713857613012744398,2022,2021,1939,2106,2060,2042,1194
729,1713857613022745807,2056,2043,2012,2057,2033,2048,1196
730,1713857613032741698,2042,2029,1934,2108,2071,2050,1194
731,1713857613042734911,2054,2019,1970,1992,2029,2053,1196
732,1713857613052763517,2067,2037,1926,2073,2045,2093,1197
733,1713857613062748674,2043,2014,1949,2036,2015,2030,1192
734,1713857613072741877,2046,2070,2109,1989,2060,1997,1192
735,1713857613082746506,2066,2052,2081,2028,2044,2039,1192
736,1713857613092739348,2054,2048,2037,2011,2080,2045,1194
737,1713857613102738811,2069,2056,2036,2060,2045,2057,1195
738,1713857613112749439,2046,2058,1960,2056,2049,2032,1193
739,1713857613122735228,2085,2054,2075,2101,2021,2030,1193
740,1713857613132744081,2048,2035,1999,2001,2002,1990,1192
741,1713857613142736431,2036,2013,1977,2049,2046,2060,1197
742,1713857613152782051,2057,2059,2051,2039,1985,2036,1194
743,1713857613162742328,2040,2077,2042,2047,1970,2042,1193
744,1713857613172741299,2065,2057,2046,2004,2052,2069,1196
745,1713857613182745407,2052,2090,2108,2075,2050,2074,1197
746,1713857613192740797,2052,2064,2093,2101,2128,1980,1194
747,1713857613202744754,2057,2039,2010,2037,2057,2064,1194
748,1713857613212778908,2066,2100,2144,2072,2012,2030,1194
749,1713857613222736868,2061,2037,2012,2024,1990,2045,1193
750,1713857613232748951,2076,2073,2037,2069,2062,2042,1192
751,1713857613242741361,2025,2049,2092,2076,2060,2065,1195
752,1713857613252750324,2052,2040,2005,2006,2050,2024,1191
753,1713857613262736836,2061,2044,2046,2087,2104,2048,1194
754,1713857613272741114,2064,2059,2052,2018,2052,2088,1194
755,1713857613282736624,2060,2088,2156,2094,2030,2059,1194
756,1713857613292738635,2040,2010,1876,2081,2061,2037,1191
757,1713857613302746183,2060,2041,2009,2062,2045,2035,1193
758,1713857613312743399,2041,1999,1887,2041,2092,2052,1196
759,1713857613322735428,2042,2036,2034,2030,2069,2106,1197
760,1713857613332743298,2050,2038,1999,2040,2091,1997,1193
761,1713857613342747696,2026,2017,2001,2050,2045,2050,1196
762,1713857613352739695,2065,2074,2097,2055,2104,2068,1195
763,1713857613362737713,2057,2044,2050,2062,2074,2100,1197
764,1713857613372754863,2034,2024,1951,1962,2034,2041,1193
765,1713857613382741404,2057,2066,2063,2064,2046,2052,1196
766,1713857613392742682,2005,1998,1901,1980,2018,2047,1195
767,1713857613402736939,2096,2085,2052,2108,2090,2070,1197
768,1713857613412770961,2066,2056,2056,2054,2065,2033,1193
769,1713857613422764425,2058,2063,2098,2074,2049,2088,1195
770,1713857613432794646,2043,2072,2168,2099,2087,2070,1196
771,1713857613442746728,2053,2045,2025,1969,2074,2063,1196
772,1713857613452752480,2080,2065,1983,2043,2168,2036,1192
773,1713857613462750167,2039,2033,1980,2062,2096,2080,1198
774,1713857613472786328,2072,2072,2142,2094,2058,2065,1194
775,1713857613482778457,2018,2076,2096,2113,2036,2053,1197
776,1713857613492732645,2067,2056,2142,2078,2090,2092,1196
777,1713857613502749162,2066,2060,2058,2110,2015,2042,1192
778,1713857613512734390,2069,2049,2021,2048,2086,2079,1195
779,1713857613522740684,2068,2065,2040,2107,2036,2052,1195
780,1713857613532756268,2051,2045,2049,2069,2040,2038,1192
781,1713857613542740392,2070,2072,2093,2128,2106,2050,1197
782,1713857613552744569,2069,2076,2214,2104,2120,2085,1195
783,1713857613562744504,2042,2062,2080,2040,1973,2017,1194
784,1713857613572778598,2052,2092,2142,2028,2112,2142,1198
785,1713857613582748385,2032,2024,1983,2068,2034,2040,1192
786,1713857613592735107,2065,2061,2058,2034,2079,2064,1196
787,1713857613602742756,2053,2032,2000,2092,2047,2052,1195
788,1713857613612737645,2049,2040,2032,2064,2041,2036,1194
789,1713857613622752848,2052,2069,2088,2070,2005,2065,1194
790,1713857613632756042,2034,2033,2005,2001,2027,2028,1193
791,1713857613642740828,2061,2062,2088,2062,2061,2088,1196
792,1713857613652740241,2062,2108,2245,2154,2104,2112,1196
793,1713857613662749224,2056,2040,2022,2051,1969,2061,1195
794,1713857613672768410,2056,2077,2093,2038,2067,2043,1190
795,1713857613682735418,2077,2071,2089,2051,1967,2036,1193
796,1713857613692739747,2038,2049,2036,2050,2083,2045,1192
797,1713857613702736471,2037,2030,2054,2050,2027,2047,1193
798,1713857613712748123,2046,2051,2060,1954,2044,2080,1196
799,1713857613722737814,2070,2043,1995,2093,2022,2032,1194
800,1713857613732737949,2051,2072,2100,2060,2150,2088,1196
801,1713857613742738806,2053,2052,2031,2100,2098,2076,1198
802,1713857613752738199,2074,2057,2047,2069,2040,2054,1196
803,1713857613762864136,2056,2085,2178,2084,2000,2046,1195
804,1713857613772752383,2056,2056,2023,2118,2049,2016,1193
805,1713857613782737008,2049,2084,2128,2124,2120,2060,1197
806,1713857613792737484,2085,2080,2060,2083,2077,2040,1194
807,1713857613802739103,2052,2009,1948,2034,2025,2057,1196
808,1713857613812735818,2050,2025,1988,2036,2032,2078,1194
809,1713857613822734257,2062,2053,2050,2024,2005,2035,1194
810,1713857613832733178,2064,2095,2132,2073,1992,2059,1196
811,1713857613842732460,2031,2032,2050,2124,2101,2044,1192
812,1713857613852763845,2069,2043,2018,1984,2104,2072,1196
813,1713857613862752233,2086,2057,2011,2084,2042,2058,1197
814,1713857613872738583,2048,2054,2039,2033,2058,2048,1193
815,1713857613882739300,2078,2152,2304,2086,2062,2080,1196
816,1713857613892740920,2064,2040,1985,2117,2061,2046,1193
817,1713857613902747405,2053,2061,2062,2097,2074,2068,1195
818,1713857613912732813,2024,2050,2010,2040,1988,2093,1195
819,1713857613922734292,2054,2064,2138,2039,2002,2017,1193
820,1713857613932740656,2052,2048,2050,2062,2116,2028,1194
821,1713857613942738735,2042,2025,1992,2045,2098,2047,1195
822,1713857613952742000,2057,2096,2112,2058,2040,2050,1196
823,1713857613962734390,2047,2053,2092,2040,2041,2050,1196
824,1713857613972742952,2072,2081,2066,2035,2034,2020,1193
825,1713857613982747220,2078,2072,2042,2128,2074,2072,1196
826,1713857613992744366,2044,2034,2015,2047,2093,2090,1197
827,1713857614002737362,2057,2030,2000,2037,2050,2064,1197
828,1713857614012748319,2051,2053,1984,2050,2108,2047,1193
829,1713857614022736534,2024,2020,1995,1938,2032,2047,1194
830,1713857614032736105,2050,2070,2049,2032,2043,2045,1192
831,1713857614042736739,2064,2076,2099,1989,2065,2032,1193
832,1713857614052750606,2060,2027,1981,2072,2099,2092,1197
833,1713857614062736695,2065,2044,2030,2061,2015,2030,1194
834,1713857614072743499,2064,2091,2102,2089,2101,2061,1195
835,1713857614082743020,2060,2059,2048,2066,2038,2037,1192
836,1713857614092749774,2040,2038,2016,2065,2204,2057,1195
837,1713857614102741811,2062,2058,2058,2054,2072,2056,1196
838,1713857614112716825,2042,2025,1980,2003,2097,2048,1195
839,1713857614122737182,2060,2044,2047,2076,2047,2067,1194
840,1713857614132735609,2044,2045,2017,2064,2044,2075,1196
841,1713857614142743537,2046,2028,1992,2001,1931,2012,1196
842,1713857614152738223,2042,2044,2015,2025,2030,2025,1193
843,1713857614162734353,2072,2092,2174,2112,2047,2093,1195
844,1713857614172740966,2055,2053,2040,2066,2157,2045,1195
845,1713857614182747540,2056,2044,2047,2068,2106,2061,1197
846,1713857614192740601,2106,2116,2212,2047,2032,2013,1198
847,1713857614202738095,2073,2054,2080,2070,2059,2074,1197
848,1713857614212744578,2091,2064,2032,2001,2026,2017,1196
849,1713857614222762116,2088,2116,2184,2104,2075,2094,1198
850,1713857614232739025,2053,2048,2002,2048,2117,2061,1198
851,1713857614242717560,2044,2080,2140,2069,1989,2065,1198
852,1713857614252738148,2042,2049,2036,2045,2065,2072,1196
853,1713857614262744080,2045,2064,2174,2062,2068,2084,1195
854,1713857614272747703,2056,2034,1966,2036,2060,2039,1191
855,1713857614282758490,2040,2030,1965,2057,2061,2056,1195
856,1713857614292770240,2093,2107,2108,2074,2072,2087,1195
857,1713857614303702342,2030,2059,2132,2075,2040,2072,1195
858,1713857614312715452,2042,2082,2120,2105,2112,2088,1195
859,1713857614322732368,2065,2046,2029,2042,1987,2021,1192
860,1713857614332721406,2086,2080,2031,2080,2126,2070,1197
861,1713857614342740268,2056,2062,2212,2047,2134,2084,1197
862,1713857614352741434,2089,2121,2262,2096,2062,2042,1194
863,1713857614362734284,2078,2053,2070,2100,2164,2057,1197
864,1713857614372741730,2075,2074,2109,2017,2082,2090,1198
865,1713857614382736637,2056,2029,2043,1987,1947,2004,1193
866,1713857614392734995,2068,2061,2072,2078,2115,2061,1194
867,1713857614402733582,2039,2008,1953,2032,1986,2066,1195
868,1713857614412736293,2047,2000,1924,1866,1957,2030,1192
869,1713857614422733909,2060,2043,2052,2092,2020,2072,1198
870,1713857614432747022,2038,2046,1995,2024,2056,2086,1195
871,1713857614442732910,2080,2114,2194,2105,2074,2102,1196
872,1713857614452731288,2060,2069,2116,2062,2053,2044,1194
873,1713857614462736126,2060,2044,2037,2056,2002,2057,1195
874,1713857614472747414,2065,2091,2159,2101,2137,2056,1193
875,1713857614482732459,2060,2046,2053,2021,1904,1997,1192
876,1713857614492732893,2052,2090,2152,2050,2084,2064,1195
877,1713857614502733217,2066,2066,2100,2040,2042,2052,1196
878,1713857614512731414,2074,2082,2146,2043,2060,2035,1193
879,1713857614522739000,2080,2065,2040,2092,2031,2083,1196
880,1713857614532735783,2047,2050,2054,2027,2017,2030,1192
881,1713857614542736678,2033,2060,2140,2106,2008,2052,1197
882,1713857614552738225,2066,2067,2090,2065,2056,2049,1196
883,1713857614562738830,2043,2049,2060,2044,2012,2078,1195
884,1713857614572752666,2051,2057,2053,2010,2073,1992,1193
885,1713857614582736618,2052,2056,2040,2048,2027,2044,1195
886,1713857614592743281,2086,2063,2047,2089,2020,2020,1196
887,1713857614602732580,2062,2038,2007,2056,2005,2056,1196
888,1713857614612739083,2048,2036,1965,2026,2064,2026,1191
889,1713857614622743660,2061,2088,2116,2078,2081,2060,1194
890,1713857614632743814,2038,2056,2017,2068,2038,1988,1194
891,1713857614642735359,2030,2047,2028,2072,2049,2056,1196
892,1713857614652741321,2056,2048,1982,2050,2036,2063,1195
893,1713857614662745306,2061,2036,1964,2056,2042,2061,1194
894,1713857614672740504,2045,2069,2037,1946,1988,2057,1194
895,1713857614682747377,2048,2019,1952,2014,2030,2069,1196
896,1713857614692744451,2045,2070,2117,2000,2050,2063,1196
897,1713857614702731131,2026,2044,2092,2056,2077,2078,1195
898,1713857614712738557,2069,2074,2076,2062,2101,2037,1193
899,1713857614722734678,2041,2034,2075,2057,2006,2037,1193
900,1713857614732739125,2029,2032,1982,2020,2049,2049,1197
901,1713857614742753663,2049,2082,2180,2102,2073,2064,1197
902,1713857614752738457,2053,2020,1990,2021,1953,2063,1192
903,1713857614762735802,2049,2030,1999,2052,2032,2079,1195
904,1713857614772736857,2081,2070,2044,2056,2054,2044,1193
905,1713857614782741615,2052,2045,2037,2024,2027,2064,1197
906,1713857614792744156,2061,2108,2205,2078,2101,2065,1196
907,1713857614802750689,2069,2066,2146,2031,2012,2045,1194
908,1713857614812744702,2094,2112,2097,2080,2120,2070,1195
909,1713857614822739970,2041,2013,1996,2019,2006,2047,1195
910,1713857614832742330,2067,2081,2001,2052,2076,2040,1194
911,1713857614842749927,2056,2047,1981,2090,2082,2080,1197
912,1713857614852747171,2085,2068,2060,2040,1976,2022,1194
913,1713857614862735045,2072,2089,2197,2101,2077,2081,1196
914,1713857614872739752,2032,2056,2040,2058,2058,2069,1194
915,1713857614882739504,2052,2036,2003,2033,2025,2068,1194
916,1713857614892731682,2068,2040,1988,2064,2090,2056,1197
917,1713857614902740523,2060,2088,2180,2066,1980,2067,1197
918,1713857614912732399,2056,2037,2045,2017,2069,2057,1195
919,1713857614922738812,2062,2037,2020,2036,2015,2077,1196
920,1713857614932743169,2069,2051,2033,2059,2136,2080,1196
921,1713857614942740573,2054,2050,2088,2055,2034,1973,1194
922,1713857614952739683,2044,2057,2040,2089,2114,2075,1196
923,1713857614962695997,2057,2053,2024,2083,2009,2044,1192
924,1713857614972684272,2054,2054,2064,2059,2092,2042,1195
925,1713857614982727181,2043,2030,2023,2054,2026,2044,1196
926,1713857614992755383,2084,2075,2156,2070,2109,2057,1196
927,1713857615002742966,2024,2066,2163,2056,2029,2072,1195
928,1713857615012735229,2064,2057,2050,1992,2070,2069,1197
929,1713857615022767853,2064,2032,1989,2028,2037,2062,1197
930,1713857615032739646,2084,2077,2014,2072,2119,2061,1196
931,1713857615042750593,2042,2015,1992,2039,2065,2061,1194
932,1713857615052763505,2033,2039,2013,2036,2077,2078,1196
933,1713857615062744147,2049,2024,1979,2040,2033,2033,1193
934,1713857615072743847,2071,2097,2128,2069,2072,2046,1194
935,1713857615082742555,2061,2054,2052,2064,2056,2050,1198
936,1713857615092756832,2048,2049,2025,2068,2162,2041,1193
937,1713857615102750906,2055,2058,2037,2095,2065,2096,1194
938,1713857615112761060,2048,2043,2026,2070,2067,2021,1193
939,1713857615122772638,2069,2073,2137,2074,2073,2075,1196
940,1713857615132736707,2034,2016,1978,2040,2114,2090,1197
941,1713857615142745406,2049,2032,1997,2029,2020,2044,1192
942,1713857615152739831,2055,2047,2026,1998,2076,2053,1195
943,1713857615162734215,2044,2045,2037,2032,2027,2043,1194
944,1713857615172737377,2069,2085,2118,2056,2051,2033,1195
945,1713857615182732634,2104,2065,2069,2032,2000,2058,1196
946,1713857615192748405,2050,2051,2060,2076,2117,2134,1197
947,1713857615202749711,2068,2109,2134,2068,2050,2062,1194
948,1713857615212736673,2055,2048,2038,2043,2064,2021,1192
949,1713857615222733585,2042,2012,1953,2038,2088,2059,1197
950,1713857615232734370,2044,2021,1946,2055,2065,1927,1189
951,1713857615242746680,2090,2065,2024,2084,2067,2062,1195
952,1713857615252735406,2081,2105,2128,2054,2044,2053,1197
953,1713857615262730603,2029,2040,2042,2066,2028,2047,1192
954,1713857615272733504,2081,2065,2073,2019,2046,2027,1192
955,1713857615282732012,2059,2053,2064,2053,2021,1980,1192
956,1713857615292738775,2052,2054,2041,2058,2066,2023,1194
957,1713857615302732237,2056,2043,2032,2050,2074,2038,1192
958,1713857615312735438,2056,2105,2264,2053,2077,2058,1193
959,1713857615322694141,2059,2044,2011,2053,2049,2055,1196
960,1713857615332737679,2059,2045,2006,2034,2059,2037,1192
961,1713857615342747743,2036,2014,1974,2039,2008,2066,1198
962,1713857615352738175,2052,2049,2041,2064,2090,2036,1194
963,1713857615362732369,2062,2053,2049,2060,2035,2064,1197
964,1713857615372738650,2047,2046,2030,2047,2105,2050,1200
965,1713857615382733707,2059,2042,2036,2036,2032,2047,1194
966,1713857615392764194,2097,2192,2401,2121,2122,2072,1198
967,1713857615402734373,2047,2028,2021,2055,2054,2064,1197
968,1713857615412731546,2053,2044,2031,2080,2075,2050,1196
969,1713857615422735852,2037,2041,2036,2024,2029,2112,1200
970,1713857615432737388,2061,2066,2029,2024,2073,2030,1192
971,1713857615442734822,2056,2056,2079,2070,2022,2086,1197
972,1713857615452743642,2063,2047,2041,2032,2049,2036,1194
973,1713857615462739270,2061,2061,2083,2049,2050,2058,1198
974,1713857615472736554,2046,2042,2044,2060,2065,2053,1195
975,1713857615482734870,2072,2084,2158,2069,2030,2047,1196
976,1713857615492756480,2065,2059,2075,2040,2060,2040,1194
977,1713857615502733098,2026,2032,2017,2068,2058,1974,1194
978,1713857615512731004,2037,2042,2034,2036,2063,2029,1192
979,1713857615522736152,2040,2061,2117,2059,2020,2054,1197
980,1713857615532744952,2069,2124,2168,2088,2089,2044,1194
981,1713857615542732946,2052,2036,2027,2045,2037,2058,1196
982,1713857615552732938,2066,2048,2017,2038,2068,2050,1194
983,1713857615562738597,2062,2100,2216,2080,2046,2075,1195
984,1713857615572739242,2058,2030,1941,2030,2033,2037,1194
985,1713857615582742564,2052,2024,1992,2024,2037,2080,1196
986,1713857615592760843,2050,2039,2036,2020,1857,1977,1194
987,1713857615602739498,2056,2048,2056,2044,1987,2045,1193
988,1713857615612746622,2061,2042,2046,2061,2056,2052,1197
989,1713857615622741408,2046,2046,2060,2056,2018,2045,1193
990,1713857615632748131,2056,2053,2032,2045,2064,2040,1192
991,1713857615642734711,2060,2084,2157,2079,2028,2045,1194
992,1713857615652739298,2031,2022,1954,2019,2033,2049,1196
993,1713857615662737444,2024,2024,2083,2036,2007,2030,1194
994,1713857615672742110,2056,2049,2058,2047,2081,2034,1192
995,1713857615682734689,2044,2029,1944,2039,2016,2013,1192
996,1713857615692770724,2021,2036,2016,2037,2029,2005,1193
997,1713857615702734101,2063,2041,2041,2056,2056,2056,1196
998,1713857615712732278,2066,2049,2049,2026,2062,2041,1194
999,1713857615722737536,2029,2017,2023,2048,2052,2073,1196
1000,1713857615732747529,2054,2065,2059,2053,2064,2061,1196
1001,1713857615742751824,2064,2108,2213,2083,2018,2071,1196
1002,1713857615752734613,2076,2052,1992,2045,2070,2058,1197
1003,1713857615762737654,2035,2045,2017,2069,2101,2045,1193
1004,1713857615772737877,2074,2061,2062,2054,2122,2060,1197
1005,1713857615782746415,2060,2065,2126,2073,2017,2056,1196
1006,1713857615792771124,2052,2057,2036,2040,2070,2050,1196
1007,1713857615802733730,2052,2034,2030,2055,2043,2053,1194
1008,1713857615812744796,2061,2052,2021,2071,2080,2047,1192
1009,1713857615822739331,2036,2081,2146,2088,2043,2056,1194
1010,1713857615832749726,2048,2064,2152,2075,2069,2073,1195
1011,1713857615842744461,2051,2058,2080,2035,2032,2060,1194
1012,1713857615852734662,2047,2041,2036,2037,2061,2048,1195
1013,1713857615862736741,2046,2053,2069,2060,2021,2064,1196
1014,1713857615872734476,2062,2084,2118,2051,2064,2045,1192
1015,1713857615882743135,2058,2040,2026,2028,1973,2048,1196
1016,1713857615892773071,2037,2069,2192,2083,2034,2045,1192
1017,1713857615902777246,2068,2056,2034,2072,2058,2038,1194
1018,1713857615912742739,2043,2026,2015,2046,2017,2018,1194
1019,1713857615922747537,2065,2072,2134,2086,2064,2129,1197
1020,1713857615932772918,2064,2068,2056,2035,2024,2024,1193
1021,1713857615942757040,2070,2044,2010,2069,2039,2049,1195
1022,1713857615952753060,2023,2040,2023,2045,2073,2040,1193
1023,1713857615962766905,2060,2044,2052,2048,2050,2053,1198
1024,1713857615972734667,2060,2096,2128,2049,2048,2046,1195
1025,1713857615982742373,2056,2040,2034,2030,2058,2009,1193
1026,1713857615992814941,2054,2061,2045,2043,2067,2047,1194
1027,1713857616002735635,2076,2048,2064,2056,2032,2046,1193
1028,1713857616012735248,2053,2073,2120,2071,2084,2080,1197
1029,1713857616022740085,2060,2033,2016,2051,2016,2020,1193
1030,1713857616032755806,2047,2056,2061,2064,2064,2064,1197
1031,1713857616042743842,2059,2056,2013,2005,2000,2045,1193
1032,1713857616052737795,2058,2064,2050,2060,2066,2054,1197
1033,1713857616062736724,2057,2050,2057,2040,2033,2053,1197
1034,1713857616072736667,2055,2062,2058,2035,2058,2047,1190
1035,1713857616082741624,2046,2048,2053,2053,2036,2053,1195
1036,1713857616092739128,2065,2040,2025,2060,2106,2049,1197
1037,1713857616102740555,2033,2064,2029,2058,2006,2069,1197
1038,1713857616112735161,2053,2050,2056,2033,2058,2032,1193
1039,1713857616122744853,2050,2041,2042,2054,2044,2065,1197
1040,1713857616132756070,2047,2064,2098,2058,2061,2045,1193
1041,1713857616142740063,2045,2045,2048,2051,2033,2055,1197
1042,1713857616152749143,2080,2118,2240,2076,2081,2052,1194
1043,1713857616162738101,2053,2062,2076,2072,2037,2078,1194
1044,1713857616172738435,2077,2052,1969,2042,2062,2034,1195
1045,1713857616182741005,2029,2018,2015,2058,2040,2105,1196
1046,1713857616192735651,2058,2059,2041,2064,2071,2043,1193
1047,1713857616202742384,2064,2061,2033,2074,2040,2052,1196
1048,1713857616212733589,2057,2049,2042,2048,2059,2044,1192
1049,1713857616222735868,2058,2068,2124,2100,2106,2067,1196
1050,1713857616232753626,2055,2063,2057,2064,2071,2047,1194
1051,1713857616242739384,2056,2054,2065,2065,2037,2053,1196
1052,1713857616252735614,2058,2058,2054,2066,2069,2051,1197
1053,1713857616262732677,2056,2046,2032,2053,2042,2056,1195
1054,1713857616272733212,2052,2059,2056,2073,2078,2052,1193
1055,1713857616282737497,2040,2072,2077,2006,2030,2058,1195
1056,1713857616292731892,2046,2041,2038,1960,2045,2042,1194
1057,1713857616302735516,2067,2058,2057,2112,2069,2080,1197
1058,1713857616312731245,1941,2008,2028,2020,2045,2068,1196
1059,1713857616322737867,2099,2038,2024,2057,2025,2084,1195
1060,1713857616332747841,2148,2101,2077,2128,2065,2048,1197
1061,1713857616342734000,2048,2048,2042,1945,2040,2050,1196
1062,1713857616352739630,2067,2060,2056,2032,2057,2048,1196
1063,1713857616362734557,2109,2056,2029,2128,2064,2070,1197
1064,1713857616372734529,2077,2077,2064,2071,2068,2054,1197
1065,1713857616382736357,2039,2048,2065,2045,2036,2078,1195
1066,1713857616392731223,2036,2046,2050,1885,2048,2061,1196
1067,1713857616402734375,2064,2045,2019,1982,2024,2045,1192
1068,1713857616412733646,2052,2045,2016,1921,2057,2045,1196
1069,1713857616422733016,2057,2056,2055,2060,2030,2059,1196
1070,1713857616432747061,2034,2056,2056,2084,2070,2067,1197
1071,1713857616442731586,2043,2042,2043,2106,2044,2057,1198
1072,1713857616452735601,2136,2088,2059,2066,2076,2046,1193
1073,1713857616462733536,2037,2037,2064,2050,2033,2061,1198
1074,1713857616472736096,2047,2052,2057,2131,2054,2031,1192
1075,1713857616482736610,2044,2051,2050,2045,2052,2093,1195
1076,1713857616492733102,2059,2062,2059,2058,2059,2058,1196
1077,1713857616502737127,2064,2054,2044,2133,2083,2072,1197
1078,1713857616512731953,2043,2040,2030,2021,2049,2046,1192
1079,1713857616522730190,2031,2045,2109,2046,2056,2059,1198
1080,1713857616532744486,2098,2076,2053,2036,2056,2027,1193
1081,1713857616542706180,2046,2035,2024,2013,2027,2046,1194
1082,1713857616552735573,2042,2039,2047,2057,2072,2050,1194
1083,1713857616562732908,2030,2052,2061,2011,2032,2059,1195
1084,1713857616572721475,2044,2058,2054,2057,2084,2053,1195
1085,1713857616582752322,2072,2051,2048,2108,2058,2067,1197
1086,1713857616592747008,2053,2056,2049,2032,2071,2056,1196
1087,1713857616602736809,2117,2064,2032,2048,2047,2056,1196
1088,1713857616612739229,2116,2088,2070,1980,2068,2048,1195
1089,1713857616622732660,2059,2054,2064,2077,2056,2057,1199
1090,1713857616632745392,2040,2050,2059,2091,2081,1982,1197
1091,1713857616642732826,2054,2056,2060,2042,2062,2064,1197
1092,1713857616652737643,2045,2067,2094,2094,2048,2050,1196
1093,1713857616662732549,2060,2047,2052,2056,2025,2032,1195
1094,1713857616672734618,2050,2042,1988,2027,2050,2058,1196
1095,1713857616682732755,2062,2072,2124,2074,2020,2033,1192
1096,1713857616692745657,2056,2074,2064,2088,2073,2072,1196
1097,1713857616702733501,2056,2043,2026,2068,2030,2080,1197
1098,1713857616712735359,2042,2021,1989,2000,2031,1993,1194
1099,1713857616722735954,2060,2066,2088,2079,2060,2078,1196
1100,1713857616732746780,2057,2113,2258,2056,2062,2035,1195
1101,1713857616742771468,2061,2061,2107,2020,2063,2075,1198
1102,1713857616752742501,2045,2040,2022,2037,2040,2005,1193
1103,1713857616762754931,2041,2061,2041,2073,2029,2030,1193
1104,1713857616772763199,2052,2049,2034,2050,2104,2045,1195
1105,1713857616782743110,2061,2060,2051,2062,1977,2010,1194
1106,1713857616792744697,2054,2034,2001,1937,2060,2080,1195
1107,1713857616802743295,2056,2056,2085,2102,2051,2046,1195
1108,1713857616812743748,2054,2050,1974,1996,2069,2052,1198
1109,1713857616822751475,2062,2084,2101,2060,2044,2061,1195
1110,1713857616832761247,2029,2061,2106,2149,2072,2058,1196
1111,1713857616842781352,2038,2051,2044,2030,2041,2062,1197
1112,1713857616852742634,2096,2068,2056,2017,2048,2046,1193
1113,1713857616862733830,2047,2041,2049,1984,2029,2065,1195
1114,1713857616872739529,2045,2050,2056,2085,2089,2056,1196
1115,1713857616882732139,2062,2054,2051,2136,2050,2056,1197
1116,1713857616892745924,2049,2046,2038,2070,2056,1976,1193
1117,1713857616902735704,2075,2045,2049,2138,2028,2085,1196
1118,1713857616912738395,2066,2053,2055,2142,2085,2072,1195
1119,1713857616922735769,2047,2040,2050,2057,2046,2049,1194
1120,1713857616932763748,2044,2044,2043,1982,2065,2032,1195
1121,1713857616942743468,2121,2069,2052,2144,2036,2057,1195
1122,1713857616952746369,2044,2064,2072,1935,2062,2057,1197
1123,1713857616962737053,2060,2040,2063,1993,2042,2052,1196
1124,1713857616972737987,2048,2041,2030,2106,2061,2051,1197
1125,1713857616982733877,2052,2037,2016,2138,2060,2056,1197
1126,1713857616992740761,2048,2048,2031,1981,2047,2050,1197
1127,1713857617002730559,2059,2049,2078,2052,2037,2050,1196
1128,1713857617012732548,2039,2028,1988,2043,2046,2047,1193
1129,1713857617022732351,2008,2004,1958,2012,2012,2031,1194
1130,1713857617032752797,2043,2021,1992,2072,2098,2051,1195
1131,1713857617042733631,2064,2072,2088,2123,2056,2062,1198
1132,1713857617052738278,2050,2044,2022,2047,2068,2053,1198
1133,1713857617062733256,2067,2070,2118,2113,2035,2058,1197
1134,1713857617072735497,2047,2042,2007,2097,2061,2042,1192
1135,1713857617082734908,2051,2044,2059,2032,2035,2057,1197
1136,1713857617092737569,2050,2046,2053,2097,2068,2048,1196
1137,1713857617102748937,2050,2046,2052,2056,2025,2054,1196
1138,1713857617112733252,2058,2061,2058,1941,2071,2054,1196
1139,1713857617122735292,2064,2052,2054,2072,2034,2045,1194
1140,1713857617132746058,2052,2052,2045,2085,2091,2063,1195
1141,1713857617142742782,2052,2042,2024,2048,2004,2037,1194
1142,1713857617152733366,2052,2080,2223,2100,2155,2082,1196
1143,1713857617162730841,2052,2041,2041,2026,2010,2002,1193
1144,1713857617172735519,2059,2072,2036,2036,2040,2032,1196
1145,1713857617182730547,2054,2043,2006,2016,2053,2080,1195
1146,1713857617192732085,2059,2063,2056,2064,2065,2045,1193
1147,1713857617202744125,2065,2068,2090,2088,2064,2056,1197
1148,1713857617212732493,2048,2038,2016,2030,2050,2060,1195
1149,1713857617222735595,2050,2045,2050,2127,2044,2076,1193
1150,1713857617232744676,2058,2056,2051,2076,2023,2019,1195
1151,1713857617242741981,2090,2151,2292,2081,2053,2066,1197
1152,1713857617252753389,2044,2031,2021,2049,2034,2032,1193
1153,1713857617262735488,2072,2059,2089,2075,2061,2030,1194
1154,1713857617272744549,2055,2069,2076,2094,2089,2071,1194
1155,1713857617282741502,2058,2054,2050,2060,2050,2057,1195
1156,1713857617292744655,2056,2041,2010,2035,2053,2037,1193
1157,1713857617302741018,2093,2163,2443,2086,2036,2070,1195
1158,1713857617312753680,2053,2040,1974,2057,2069,2061,1194
1159,1713857617322743492,2049,2032,2014,2085,2029,2059,1198
1160,1713857617332745933,2051,2046,2040,2070,2079,2090,1195
1161,1713857617342740970,2053,2033,2012,2055,2031,2045,1193
1162,1713857617352755056,2055,2045,2040,2041,2076,2071,1196
1163,1713857617362733534,2055,2046,2065,2065,2047,2073,1196
1164,1713857617372733106,2062,2064,2053,2061,2062,1986,1196
1165,1713857617382745156,2070,2097,2160,2081,2060,2093,1195
1166,1713857617392735319,2049,2036,2004,2125,2066,2047,1193
1167,1713857617402736476,2050,2036,2032,2040,2033,2049,1195
1168,1713857617412731925,2067,2096,2190,2065,2055,2036,1196
1169,1713857617422736272,2050,2040,2038,2056,2051,2100,1198
1170,1713857617432745804,2065,2030,1946,2032,2066,2068,1197
1171,1713857617442731845,2037,2036,2030,2045,2045,2041,1193
1172,1713857617452743072,2051,2063,2008,2060,2046,2044,1194
1173,1713857617462731771,2056,2044,2009,2085,2050,2066,1196
1174,1713857617472733058,2059,2058,2022,2081,2085,2156,1196
1175,1713857617482731537,2057,2036,2083,2031,2044,2062,1195
1176,1713857617492732262,2070,2064,2010,2088,2059,2054,1196
1177,1713857617502734171,2056,2040,1990,2014,2037,2046,1193
1178,1713857617512743202,2051,2038,1959,2053,2053,2061,1196
1179,1713857617522707977,2058,2026,1961,2044,1976,2076,1196
1180,1713857617532755175,2047,2069,2084,2077,2036,2060,1194
1181,1713857617542735257,2047,2020,1919,2036,2016,2046,1193
1182,1713857617552744379,2062,2047,2033,2064,2094,2057,1194
1183,1713857617562736458,2044,2034,2066,2064,2042,2072,1197
1184,1713857617572731355,2048,2037,2014,1953,2052,2047,1195
1185,1713857617582731248,2061,2078,2112,2088,2027,2027,1194
1186,1713857617592734019,2042,2024,1960,2033,2050,2022,1193
1187,1713857617602735407,2050,2033,1996,2040,2040,2050,1200
1188,1713857617612745441,2056,2062,2020,2100,2099,2034,1195
1189,1713857617622735254,2054,2037,2003,2056,2058,2052,1196
1190,1713857617632749851,2053,2046,2057,2039,2056,2058,1197
1191,1713857617642741489,2047,2024,1985,2073,2056,2094,1197
1192,1713857617652749948,2058,2068,2096,2057,2084,2088,1197
1193,1713857617662761226,2056,2036,2017,2045,2008,2053,1197
1194,1713857617682744782,2090,2215,2611,2138,2081,2100,1195
1195,1713857617692741184,2055,2034,2004,2048,2011,2033,1193
1196,1713857617702741217,2056,2033,1981,2074,2062,2040,1192
1197,1713857617712703786,2050,2046,2021,2076,2043,2014,1193
1198,1713857617722756300,2043,2013,1919,2026,2061,2052,1196
1199,1713857617732771720,2056,2072,2112,2033,2032,2056,1196
1200,1713857617742734370,2067,2073,2102,2051,2021,2026,1193
1201,1713857617752736509,2064,2072,2109,2070,2094,2098,1195
1202,1713857617762747385,2052,2054,2021,2015,2069,2068,1194
1203,1713857617772737689,2072,2089,2146,2087,2042,2058,1195
1204,1713857617782732827,2047,2048,2052,2045,2069,2043,1192
1205,1713857617792739511,2057,2034,2040,2047,2049,2042,1192
1206,1713857617802732071,2050,2025,1944,2000,2098,2034,1196
1207,1713857617812741715,2044,2042,2066,2052,2056,2069,1197
1208,1713857617822742842,2059,2030,1976,2020,2035,2025,1195
1209,1713857617832740217,2019,2011,2004,2031,1984,2008,1196
1210,1713857617842732626,2060,2054,2044,2040,2085,2077,1195
1211,1713857617852735639,2044,2034,2048,2040,2025,2064,1195
1212,1713857617862737959,2058,2059,2057,2089,2082,2064,1196
1213,1713857617872749869,2061,2057,2121,2057,2066,2105,1196
1214,1713857617882731506,2035,2029,2029,2000,2061,2054,1194
1215,1713857617892735351,2041,2047,2046,2056,2030,2069,1195
1216,1713857617902730469,2070,2099,2128,2088,2077,2057,1194
1217,1713857617912744816,2043,2064,2106,2077,2060,2084,1197
1218,1713857617922741459,2066,2078,2178,2074,2083,2058,1197
1219,1713857617932733739,2062,2030,1989,2070,2031,2045,1194
1220,1713857617942737434,2072,2057,2028,2037,2068,2047,1194
1221,1713857617952733595,2061,2104,2250,2102,2072,2107,1198
1222,1713857617962732394,2053,2058,2040,2041,2012,2032,1195
1223,1713857617972757364,2058,2078,2122,2082,2042,2056,1197
1224,1713857617982733073,2043,2014,1924,2061,2121,2011,1194
1225,1713857617992737681,2065,2058,2042,2077,2048,2052,1196
1226,1713857618002752991,2058,2064,2094,2066,2037,2039,1193
1227,1713857618012768185,2056,2048,2065,2068,2040,2043,1193
1228,1713857618022734247,2046,2053,2035,2067,2050,2052,1197
1229,1713857618032744503,2045,2020,1951,2049,2053,2091,1196
1230,1713857618042732651,2056,2081,2040,2099,2101,2064,1196
1231,1713857618052741031,2048,2020,1972,2037,2016,2041,1193
1232,1713857618062749491,2049,2043,1963,2072,2030,2050,1196
1233,1713857618072754160,2052,2045,2025,2071,2067,2067,1198
1234,1713857618082733270,2051,2042,2039,2044,2070,2022,1192
1235,1713857618092733325,2060,2043,2016,2059,2033,2049,1194
1236,1713857618102738476,2028,2025,1991,2050,2043,2008,1193
1237,1713857618112732873,2061,2073,2200,2072,2061,2041,1193
1238,1713857618122728564,2053,2058,2082,2052,2074,2056,1195
1239,1713857618132750445,2076,2113,2222,2087,2050,2064,1194
1240,1713857618142753268,2056,2049,2017,2061,2032,2041,1192
1241,1713857618152732278,2050,2042,2022,2053,2024,2055,1196
1242,1713857618162738141,2068,2046,2010,2018,2069,1988,1193
1243,1713857618172757524,2064,2060,2098,2056,2037,2109,1194
1244,1713857618182754960,2050,2046,1986,2021,1994,2015,1193
1245,1713857618192735175,2068,2076,2053,2061,2031,2053,1196
1246,1713857618202734648,2032,2026,1999,2041,2056,2080,1196
1247,1713857618212734582,2056,2049,2028,2104,2092,2082,1196
1248,1713857618222734616,2056,2053,2034,2105,2089,2042,1195
1249,1713857618232731421,2054,2056,2075,2025,2038,2060,1197
1250,1713857618242739761,2066,2104,2104,2067,2032,2088,1196
1251,1713857618252742574,2052,2052,2144,2072,2069,2125,1196
1252,1713857618262733551,2040,2035,1998,2025,2065,2071,1195
1253,1713857618272741830,2046,2016,1985,2054,2038,2049,1195
1254,1713857618282731564,2049,2059,2035,2067,2088,2062,1194
1255,1713857618292748479,2057,2042,2023,2078,2047,2041,1193
1256,1713857618302744682,2058,2070,2129,2069,2109,2050,1196
1257,1713857618312730976,2053,2071,2136,2081,2055,2099,1195
1258,1713857618322738592,2068,2052,2046,2081,2078,2055,1196
1259,1713857618332724414,2083,2134,2313,2116,2046,2049,1197
1260,1713857618342745051,2042,2031,2019,2043,2038,2034,1193
1261,1713857618352745908,2049,2060,2073,2052,2052,2077,1196
1262,1713857618362735059,2057,2030,1984,2025,2060,2091,1197
1263,1713857618372751123,2042,2056,2062,2030,2057,2091,1197
1264,1713857618382739602,2040,2038,2004,2049,2071,2052,1196
1265,1713857618392740098,2060,2064,2126,2076,2086,2093,1196
1266,1713857618402737204,2054,2072,2148,2057,2066,2110,1198
1267,1713857618412733707,2061,2053,2011,2063,2034,2044,1194
1268,1713857618422739490,2072,2088,2106,2056,2076,2044,1195
1269,1713857618432719262,2043,2025,1978,2025,2036,2088,1195
1270,1713857618442736680,2052,2046,2027,2048,2055,2036,1194
1271,1713857618452738400,2056,2055,2055,2053,2029,2056,1196
1272,1713857618462783430,2044,2057,2101,2086,2096,2064,1196
1273,1713857618472735329,2051,2031,1976,2076,2034,2057,1196
1274,1713857618482730940,2071,2062,2055,2061,2073,2098,1195
1275,1713857618492737655,2047,2042,2057,2061,2024,2037,1192
1276,1713857618502744761,2056,2056,1981,2056,2068,2022,1193
1277,1713857618512751094,2053,2028,2000,2042,2054,2078,1195
1278,1713857618522736364,2028,2038,2037,2049,2052,2039,1193
1279,1713857618532739056,2062,2066,2035,2065,2037,2050,1195
1280,1713857618542763234,2062,2105,2254,2078,2090,2022,1195
1281,1713857618552775245,2042,2033,1985,2040,2034,2041,1193
1282,1713857618562758719,2053,2056,2128,2045,2056,2064,1196
1283,1713857618572753999,2063,2043,2052,2078,2050,2060,1197
1284,1713857618582763753,2040,2019,1904,2038,2072,2043,1195
1285,1713857618592777701,2044,2033,2047,2050,2040,2072,1197
1286,1713857618602751405,2061,2063,2082,2060,2065,2042,1194
1287,1713857618612757137,2046,2028,1997,2049,2039,2008,1194
1288,1713857618622742907,2049,2085,2143,2078,2088,2053,1197
1289,1713857618632748469,2065,2016,1953,2025,2025,2056,1197
1290,1713857618642759598,2049,2063,2074,2026,2021,2032,1194
1291,1713857618652780324,2057,2053,2009,2001,2045,2056,1197
1292,1713857618662791393,2056,2060,2072,2072,2069,2044,1193
1293,1713857618672749429,2051,2040,2037,2052,2072,2047,1192
1294,1713857618682733667,2050,2037,1966,2004,2039,2049,1195
1295,1713857618692732316,2046,2037,2054,2033,1975,2056,1199
1296,1713857618702731840,2068,2056,2092,2051,2036,2009,1192
1297,1713857618712739518,2058,2068,2077,2066,2060,2105,1196
1298,1713857618722734767,2059,2042,2021,2042,2078,2043,1194
1299,1713857618732707840,2048,2069,2067,2108,2069,2050,1195
1300,1713857618742741807,2049,2036,2020,2020,2055,2018,1193
1301,1713857618752747369,2072,2090,2169,2052,2076,2104,1196
1302,1713857618762735116,2048,2040,2008,2072,2088,2046,1193
1303,1713857618772745733,2062,2077,2202,2100,2076,2069,1196
1304,1713857618782734132,2054,2034,1999,2046,2128,2063,1198
1305,1713857618792737476,2040,2022,1954,2033,2009,2048,1197
1306,1713857618802734994,2057,2057,2064,2059,2070,2029,1195
1307,1713857618812737003,2049,2094,2144,2065,2052,2068,1197
1308,1713857618822746597,2051,2038,2004,2047,2070,2045,1196
1309,1713857618832738938,2061,2046,2042,2070,2044,2051,1197
1310,1713857618842737177,2060,2080,2076,2077,2067,2051,1198
1311,1713857618852737513,2061,2052,2025,2047,2011,2068,1198
1312,1713857618862737968,2054,2056,2062,2089,2105,2064,1197
1313,1713857618872746559,2080,2082,2093,2083,2053,2041,1192
1314,1713857618882743895,2037,2046,2004,2044,2061,2069,1192
1315,1713857618892737741,2046,2036,2001,2054,2052,2039,1190
1316,1713857618902732029,2050,2037,1978,2031,2065,2057,1196
1317,1713857618912738081,2064,2060,2085,2069,2000,2041,1193
1318,1713857618922737604,2058,2064,2101,2052,2069,2052,1196
1319,1713857618932746525,2068,2062,2057,2056,2036,2058,1197
1320,1713857618942732839,2030,2029,2011,2045,2047,2002,1194
1321,1713857618952739493,2059,2048,2030,2037,2035,2049,1197
1322,1713857618962734683,2054,2086,2205,2076,2077,2043,1195
1323,1713857618972742772,2058,2032,1988,2053,2026,2051,1195
1324,1713857618982735454,2058,2050,2070,2043,2062,2049,1196
1325,1713857618992747255,2043,2007,1893,2024,2037,2053,1195
1326,1713857619002738251,2041,2045,2009,2067,2088,2002,1194
1327,1713857619012736895,2040,2044,2028,2079,2072,2058,1196
1328,1713857619022739670,2064,2064,2093,2072,2065,2044,1193
1329,1713857619032742343,2056,2047,2012,2046,2038,2057,1196
1330,1713857619042736440,2053,2032,1932,2023,2067,2069,1196
1331,1713857619052742705,2046,2059,2136,2066,2070,2058,1196
1332,1713857619062755860,2054,2065,2068,2065,2148,2063,1196
1333,1713857619072737350,2061,2069,2095,2048,2041,2060,1196
1334,1713857619082728769,2052,2043,2013,2056,2010,2019,1192
1335,1713857619092742998,2056,2052,2052,2080,2070,1981,1194
1336,1713857619102753064,2056,2045,2001,2067,2065,2056,1195
1337,1713857619112743792,2064,2032,1977,2062,2052,2080,1196
1338,1713857619122739995,2065,2068,2080,2072,2097,2053,1195
1339,1713857619132740382,2046,2056,2053,2067,2077,2069,1193
1340,1713857619142740960,2047,2037,2036,1998,2030,2044,1193
1341,1713857619152752981,2072,2100,2226,2084,2028,2059,1196
1342,1713857619162736336,2048,2024,1960,2068,2120,2058,1196
1343,1713857619172745560,2056,2032,1981,2037,2040,2078,1197
1344,1713857619182734823,2057,2049,2046,2069,2057,2052,1198
1345,1713857619192739112,2064,2052,2056,2060,2058,2062,1195
1346,1713857619202736881,2040,2040,1973,2037,2064,2047,1196
1347,1713857619212750858,2038,2015,1920,2038,2018,2056,1199
1348,1713857619222738055,2051,2041,1975,2036,2074,2056,1197
1349,1713857619232742434,2058,2044,2038,2047,2080,2050,1196
1350,1713857619242735990,2052,2048,2041,2052,2056,2043,1192
1351,1713857619252746978,2054,2044,2058,2066,2043,2060,1195
1352,1713857619262733062,2057,2054,2042,2054,2068,2049,1196
1353,1713857619272742767,2052,2033,2020,2071,2045,2050,1195
1354,1713857619282731188,2064,2102,2236,2077,2083,2056,1195
1355,1713857619292743700,2049,2038,2019,2085,2041,2054,1196
1356,1713857619302739503,2056,2054,2036,2059,2066,2050,1196
1357,1713857619312739108,2059,2038,2018,2057,2036,2048,1195
1358,1713857619322750428,2054,2045,2021,2040,2052,2046,1195
1359,1713857619332744284,2048,2022,1970,2017,2037,2057,1197
1360,1713857619342737289,2056,2054,2046,2046,2075,2053,1196
1361,1713857619352744306,2068,2069,2089,2058,2052,2054,1196
1362,1713857619362742958,2050,2036,1979,2025,2053,2056,1196
1363,1713857619372754177,2056,2037,2032,1992,2022,2038,1194
1364,1713857619382732918,2042,2076,2173,2056,2072,2074,1195
1365,1713857619392744528,2056,2038,2032,2049,2028,2058,1197
1366,1713857619402738807,2052,2057,2065,2056,2045,2044,1193
1367,1713857619412746025,2056,2032,2005,2025,2050,2052,1196
1368,1713857619422737313,2054,2046,2020,2081,2125,2051,1196
1369,1713857619432750137,2050,2020,1968,2040,2037,2050,1196
1370,1713857619442736352,2044,2038,2011,2039,2047,2046,1192
1371,1713857619452748434,2054,2050,2085,2064,2054,2075,1195
1372,1713857619462733474,2059,2080,2118,2070,2061,2058,1195
1373,1713857619472755205,2058,2042,2021,2050,2041,2056,1196
1374,1713857619482763666,2053,2056,2105,2064,2046,2052,1194
1375,1713857619492736941,2060,2056,2034,2045,2043,2067,1197
1376,1713857619502751220,2064,2081,2105,2054,2079,2034,1191
1377,1713857619512757734,2058,2044,1998,2050,2064,2058,1196
1378,1713857619522769917,2057,2058,2080,2053,2014,2037,1194
1379,1713857619532745579,2052,2052,2078,2065,2031,2030,1194
1380,1713857619542742376,2051,2052,2061,2031,2025,2040,1194
1381,1713857619552750465,2051,2042,2015,2062,2006,2060,1195
1382,1713857619562739879,2048,2054,2048,2065,2027,2030,1193
1383,1713857619572756966,2058,2035,1984,2042,2045,2066,1196
1384,1713857619582755768,2065,2073,2002,2053,2021,2040,1193
1385,1713857619592767989,2052,2044,2025,2061,2093,2074,1197
1386,1713857619602777684,2051,2041,2039,2052,2058,2041,1195
1387,1713857619612739064,2057,2064,2109,2086,2038,2049,1196
1388,1713857619622737956,2052,2044,2038,2083,2066,2040,1195
1389,1713857619632742595,2050,2020,1968,2057,2037,2048,1197
1390,1713857619642741768,2053,2056,2066,2033,2035,2038,1194
1391,1713857619652751784,2060,2057,2052,2043,1997,2049,1197
1392,1713857619662733264,2056,2049,2032,2065,2100,2060,1196
1393,1713857619672744695,2059,2047,2019,2061,2068,2068,1198
1394,1713857619682731018,2066,2097,2109,2076,2084,2059,1195
1395,1713857619692747162,2062,2064,2104,2071,2045,2060,1197
1396,1713857619702738733,2057,2057,2053,2052,2085,2056,1195
1397,1713857619712738368,2034,2042,2036,2066,2033,2036,1194
1398,1713857619722735815,2060,2068,2078,2020,2123,2053,1196
1399,1713857619732745088,2058,2058,2045,2029,1998,2056,1197
1400,1713857619742734653,2070,2095,2099,2056,2072,2056,1198
1401,1713857619752744247,2052,2041,1972,2067,2038,2050,1198
1402,1713857619762731735,2053,2046,2020,2052,2068,2066,1195
1403,1713857619772741008,2055,2049,2047,2085,2040,2056,1194
1404,1713857619782733351,2045,2054,2029,2051,2043,2045,1196
1405,1713857619792741882,2052,2029,1981,2028,2036,2068,1197
1406,1713857619802742620,2050,2047,2030,2052,2060,2047,1196
1407,1713857619812741632,2054,2124,2288,2104,2044,2056,1198
1408,1713857619822734416,2054,2055,2002,2056,2109,2059,1194
1409,1713857619832735214,2054,2056,2067,2056,2032,2049,1197
1410,1713857619842737768,2064,2040,1982,2064,2076,2050,1199
1411,1713857619852741313,2046,2017,1976,2055,2063,2096,1198
1412,1713857619862741590,2056,2056,2050,2040,2096,2044,1195
1413,1713857619872753100,2080,2043,2009,2065,2044,2061,1196
1414,1713857619882734410,2034,2036,2000,2037,2036,2058,1194
1415,1713857619892738226,2056,2046,2058,2053,2041,2050,1197
1416,1713857619902735223,2065,2077,2115,2071,2060,2046,1194
1417,1713857619912746462,2048,2034,2027,2042,2051,2068,1196
1418,1713857619922733720,2050,2056,2081,2077,2088,2056,1195
1419,1713857619932737156,2080,2043,1988,2056,2028,2057,1196
1420,1713857619942742737,2045,2053,2078,2045,2060,2071,1197
1421,1713857619952742773,2057,2046,1990,2053,2045,2060,1196
1422,1713857619962735176,2050,2049,2056,2049,2068,2044,1194
1423,1713857619972748813,2059,2061,2104,2072,2041,2057,1195
1424,1713857619982728667,2049,2034,1977,2050,2076,2062,1197
1425,1713857619992739094,2060,2048,2074,2056,2040,2056,1196
1426,1713857620002737766,2057,2061,2084,2012,2066,2050,1198
1427,1713857620012737763,2059,2045,2035,2070,2051,2065,1193
1428,1713857620022748973,2049,2045,2012,2066,2091,2055,1198
1429,1713857620032735208,2063,2069,2065,2088,2038,2079,1197
1430,1713857620042747410,2052,2042,2019,2070,2096,2042,1195
1431,1713857620052739714,2056,2041,2008,2046,2033,2052,1195
1432,1713857620062741596,2053,2056,2061,2056,2064,2051,1198
1433,1713857620072748923,2057,2063,2133,2064,2072,2065,1195
1434,1713857620082741999,2054,2064,2104,2065,2077,2051,1193
1435,1713857620092734694,2059,2051,2074,2053,2052,2048,1198
1436,1713857620102741100,2047,2039,1996,2063,2065,2053,1194
1437,1713857620112739210,2051,2036,1976,2050,2037,2049,1198
1438,1713857620122734653,2049,2047,2041,2047,2076,2054,1194
1439,1713857620132780004,2049,2031,2012,2056,2037,2049,1197
1440,1713857620142743131,2037,2032,1996,2036,2060,2050,1196
1441,1713857620152740800,2066,2060,2077,2053,2029,2056,1197
1442,1713857620162734929,2050,2050,2052,2028,2011,2036,1193
1443,1713857620172739078,2072,2063,2096,2074,1987,2054,1196
1444,1713857620182736165,2066,2094,2074,2065,2073,2077,1198
1445,1713857620192744276,2079,2081,2133,2074,2056,2054,1198
1446,1713857620202731985,2048,2052,2019,2060,2059,2036,1194
1447,1713857620212736535,2070,2078,2116,2066,2034,2068,1196
1448,1713857620222733663,2029,2098,2258,2101,2060,2041,1192
1449,1713857620232750529,2065,2078,2099,2080,2056,2058,1197
1450,1713857620242741107,2065,2080,2129,2062,2074,2047,1193
1451,1713857620252733923,2066,2076,2072,2061,2053,2044,1195
1452,1713857620262736005,2056,2058,2084,2064,2076,2053,1197
1453,1713857620272739221,2068,2054,2030,2071,2085,2072,1198
1454,1713857620282733510,2047,2053,2002,2080,2140,2062,1194
1455,1713857620292734640,2062,2049,2035,2056,2065,2052,1194
1456,1713857620302735378,2052,2089,2178,2078,2107,2068,1195
1457,1713857620312746046,2047,2041,2088,2049,2041,2062,1194
1458,1713857620322739553,2060,2056,2064,2060,2069,2047,1192
1459,1713857620332745377,2066,2045,2061,2045,2044,2065,1196
1460,1713857620342729757,2042,2058,2105,2047,2086,2025,1193
1461,1713857620352735480,2058,2050,2076,2077,2040,2048,1198
1462,1713857620362730903,2056,2059,1998,2062,2082,2027,1193
1463,1713857620372738010,2050,2046,2044,2043,2015,2053,1197
1464,1713857620382734165,2044,2036,2015,2037,2025,2044,1195
1465,1713857620392742105,2056,2044,2027,2076,2101,2064,1197
1466,1713857620402741820,2051,2053,2064,2064,2078,2056,1197
1467,1713857620412736682,2049,2023,1956,2046,2032,2052,1196
1468,1713857620422722977,2065,2068,2057,2070,2093,2060,1194
1469,1713857620432760385,2050,2040,2020,2047,2068,2060,1197
1470,1713857620442716761,2041,2034,1989,2066,2105,2045,1195
1471,1713857620452742022,2072,2028,1922,2054,2050,2052,1195
1472,1713857620462744907,2040,2025,1956,2044,2110,2052,1197
1473,1713857620472747441,2056,2052,2042,2047,2032,2054,1196
1474,1713857620482759924,2059,2094,2193,2056,2051,2064,1196
1475,1713857620492768567,2052,2037,2001,2046,2045,2059,1196
1476,1713857620502746187,2047,2047,2004,2035,2018,2038,1192
1477,1713857620512754347,2057,2059,2050,2041,2028,2053,1195
1478,1713857620522746380,2041,2025,1921,2042,2143,2056,1196
1479,1713857620532774309,2060,2053,2038,2064,2032,2072,1195
1480,1713857620542790192,2050,2048,2020,2043,2056,2047,1194
1481,1713857620552760280,2046,2040,2029,2049,2037,2045,1194
1482,1713857620562770556,2081,2083,2053,2086,2060,2062,1195
1483,1713857620572777303,2045,2027,1972,2041,2034,2064,1195
1484,1713857620582746117,2050,2037,1981,2045,2040,2031,1195
1485,1713857620592738430,2059,2053,2102,2059,2030,2061,1197
1486,1713857620602739189,2054,2075,2145,2060,2092,2066,1197
1487,1713857620612737359,2064,2068,2131,2066,2056,2072,1197
1488,1713857620622732401,2056,2056,2076,2050,2064,2037,1193
1489,1713857620632735036,2052,2055,2051,2068,2067,2068,1197
1490,1713857620642739354,2053,2046,2020,2039,2036,2046,1192
1491,1713857620652751828,2069,2066,2044,2065,2053,2059,1197
1492,1713857620662733249,2040,2024,1947,2038,2065,2054,1197
1493,1713857620672738340,2051,2032,1969,2052,2056,2054,1198
1494,1713857620682733843,2045,2026,1981,2058,2059,2050,1194
1495,1713857620692742244,2050,2040,2009,2047,2071,2058,1196
1496,1713857620702728420,2053,2062,2057,2056,2101,2049,1197
1497,1713857620712691587,2051,2024,1972,2032,2035,2044,1195
1498,1713857620722729756,2038,2091,2182,2070,2080,2059,1195
1499,1713857620732736292,2058,2040,2016,2050,2049,2052,1197
1500,1713857620742734904,2064,2069,2060,2057,2028,2042,1194
1501,1713857620752742303,2056,2064,2160,2077,2056,2054,1197
1502,1713857620762728598,2045,2029,1995,2011,2033,2045,1195
1503,1713857620772737420,2050,2041,2045,2060,2030,2047,1194
1504,1713857620782731981,2059,2068,2032,2061,2065,2059,1197
1505,1713857620792736772,2040,2028,2000,2047,2044,2053,1198
1506,1713857620802739275,2056,2074,2104,2057,2056,2062,1197
1507,1713857620812735721,2055,2034,2056,2058,2040,2052,1198
1508,1713857620822732297,2070,2136,2131,2068,2088,2058,1199
1509,1713857620832735453,2053,2060,2109,2075,2025,2096,1198
1510,1713857620842737986,2046,2034,2008,2014,1991,2025,1192
1511,1713857620852739427,2058,2050,2043,2053,2036,2049,1197
1512,1713857620862733395,2042,2053,2056,2098,2112,2038,1192
1513,1713857620872745097,2067,2084,2089,2069,2058,2083,1196
1514,1713857620882732074,2048,2042,2016,2043,2076,2064,1194
1515,1713857620892734588,2052,2045,2045,2061,2026,2040,1189
1516,1713857620902745366,2066,2072,2067,2064,2124,2066,1194
1517,1713857620912731581,2045,2047,2042,2068,2052,2049,1195
1518,1713857620922774425,2041,2030,1992,2034,2052,2041,1194
1519,1713857620932736027,2061,2053,2102,2087,2036,2053,1197
1520,1713857620942732292,2050,2036,1972,2042,2037,2052,1198
1521,1713857620952760974,2054,2051,2056,2056,2035,2053,1196
1522,1713857620962737510,2061,2050,2062,2022,2016,2040,1193
1523,1713857620972729814,2052,2055,2058,2068,2088,2070,1196
1524,1713857620982742298,2047,2042,2014,2047,2060,2049,1196
1525,1713857620992736466,2056,2049,2047,2066,2053,2056,1194
1526,1713857621002734839,2061,2039,1990,2036,2081,2038,1193
1527,1713857621012735216,2088,2158,2364,2112,2089,2115,1199
1528,1713857621022732495,2058,2041,2000,2041,2064,2042,1195
1529,1713857621032744095,2056,2051,2046,2059,2045,2056,1197
1530,1713857621042734855,2059,2052,2047,2046,2067,2052,1198
1531,1713857621052742323,2060,2068,2064,2046,2033,2045,1192
1532,1713857621062727094,2052,2062,2041,2045,2064,2056,1196
1533,1713857621072726088,2035,2022,1985,2041,2042,2052,1195
1534,1713857621082734760,2064,2069,2060,2062,2066,2052,1195
1535,1713857621092740764,2056,2040,2013,2045,2028,2052,1197
1536,1713857621102753388,2067,2088,2182,2066,2064,2053,1195
1537,1713857621112736394,2041,2045,2032,2062,2035,2050,1195
1538,1713857621122736401,2059,2072,2117,2050,2069,2056,1195
1539,1713857621132734592,2051,2070,2082,2043,2052,2051,1196
1540,1713857621142738058,2065,2056,2029,2050,2090,2046,1193
1541,1713857621152737693,2046,2048,2058,2060,2074,2059,1198
1542,1713857621162738923,2076,2069,2085,2081,2100,2062,1196
1543,1713857621172732912,2088,2158,2349,2082,2050,2053,1199
1544,1713857621182732588,2057,2119,2249,2075,2066,2064,1196
1545,1713857621192741651,2050,2033,2020,2047,2035,2052,1198
1546,1713857621202743743,2065,2078,2132,2075,2069,2057,1198
1547,1713857621212746829,2068,2069,2105,2064,2044,2057,1196
1548,1713857621222738119,2045,2025,1973,2040,2064,2047,1193
1549,1713857621232737012,2059,2065,2082,2067,2036,2053,1195
1550,1713857621242738483,2055,2062,2090,2053,2048,2050,1195
1551,1713857621252736865,2058,2056,2069,2053,2048,2061,1195
1552,1713857621262750501,2061,2053,2015,2038,2081,2049,1197
1553,1713857621272742284,2065,2091,2188,2094,2062,2074,1197
1554,1713857621282733845,2063,2110,2217,2076,2021,2047,1192
1555,1713857621292738285,2052,2048,2061,2062,2052,2056,1194
1556,1713857621302724370,2054,2047,2024,2052,2058,2051,1197
1557,1713857621312736582,2049,2033,2017,2040,2036,2051,1194
1558,1713857621322739527,2051,2047,2026,2038,2074,2048,1197
1559,1713857621332747537,2054,2040,2015,2054,2047,2056,1198
1560,1713857621342737414,2058,2068,2084,2066,2068,2052,1200
1561,1713857621352776546,2070,2095,2137,2096,2068,2074,1196
1562,1713857621362734539,2058,2074,2120,2035,2040,2052,1196
1563,1713857621372741957,2059,2047,2037,2049,2035,2049,1197
1564,1713857621382735784,2053,2052,2050,2034,2041,2045,1195
1565,1713857621392734848,2079,2112,2136,2076,2084,2059,1196
1566,1713857621402727152,2053,2075,2192,2052,2108,2064,1197
1567,1713857621412727289,2069,2074,2081,2061,2056,2062,1196
1568,1713857621422736573,2056,2046,2010,2053,2070,2050,1197
1569,1713857621432735085,2056,2080,2149,2080,2049,2052,1197
1570,1713857621442746314,2043,2032,1980,2049,2036,2047,1196
1571,1713857621452759599,2060,2056,2080,2069,2061,2058,1198
1572,1713857621462747279,2064,2063,2028,2064,2074,2056,1197
1573,1713857621472756413,2052,2047,2040,2058,2128,2058,1196
1574,1713857621482766850,2064,2065,2129,2073,2057,2051,1193
1575,1713857621492778661,2060,2045,2026,2051,2032,2059,1195
1576,1713857621502743434,2048,2036,2033,2062,2037,2044,1193
1577,1713857621512758244,2058,2050,2051,2073,2064,2058,1196
1578,1713857621522744419,2047,2042,2072,2038,2066,2049,1195
1579,1713857621532752680,2062,2085,2191,2082,2045,2059,1197
1580,1713857621542764701,2053,2071,2042,2054,2058,2051,1196
1581,1713857621552775299,2057,2044,2056,2021,2056,2047,1192
1582,1713857621562785897,2070,2100,2147,2062,2076,2056,1197
1583,1713857621572738213,2050,2036,2053,2053,2046,2053,1196
1584,1713857621582697470,2060,2058,2102,2064,2032,2050,1196
1585,1713857621592732690,2074,2107,2233,2080,2060,2070,1196
1586,1713857621602745012,2071,2106,2185,2077,2076,2054,1199
1587,1713857621612751477,2046,2034,2021,2044,2019,2051,1196
1588,1713857621622743019,2050,2053,2051,2051,2065,2059,1197
1589,1713857621632735463,2054,2030,1994,2046,2045,2056,1196
1590,1713857621642738779,2041,2025,1992,2050,2061,2053,1196
1591,1713857621652739358,2052,2051,2096,2066,2064,2065,1197
1592,1713857621662741089,2051,2044,1985,2049,2065,2048,1195
1593,1713857621672764033,2092,2109,2176,2093,2088,2071,1196
1594,1713857621682734933,2034,2005,1930,2042,2044,2073,1196
1595,1713857621692738430,2049,2024,1986,2014,2009,2056,1196
1596,1713857621702747834,2052,2043,2018,2024,2067,2050,1196
1597,1713857621712745363,2048,2024,1930,2036,2051,2043,1194
1598,1713857621722743936,2064,2058,1964,2052,2041,2072,1197
1599,1713857621732735467,2045,2030,1994,2047,2058,2058,1194
1600,1713857621742742495,2047,2047,2033,2058,2081,2058,1198
1601,1713857621752740605,2038,2036,2032,2079,2076,2062,1197
1602,1713857621762737522,2044,2024,1948,2039,2063,2060,1196
1603,1713857621772775320,2040,2016,1928,2037,2030,2051,1195
1604,1713857621782734857,2046,2080,2059,2068,2046,2056,1195
1605,1713857621792746147,2064,2056,2040,2088,2070,2060,1196
1606,1713857621802737418,2054,2041,2016,2052,2060,2047,1193
1607,1713857621812733623,2052,2034,1987,2068,2092,2047,1191
1608,1713857621822741974,2053,2040,1974,2042,2088,2045,1192
1609,1713857621832745621,2058,2044,2050,2062,2057,2056,1195
1610,1713857621842752076,2053,2069,2046,2058,2048,2035,1194
1611,1713857621852738352,2064,2076,2071,2064,2000,2061,1195
1612,1713857621862733886,2062,2100,2204,2083,2053,2052,1194
1613,1713857621872764161,2056,2063,2093,2070,2075,2064,1197
1614,1713857621882740057,2064,2077,2156,2061,2081,2053,1194
1615,1713857621892739682,2060,2061,2084,2070,2052,2036,1195
1616,1713857621902741283,2049,2082,2124,2052,2059,2066,1196
1617,1713857621912733787,2057,2050,2064,2057,2041,2052,1196
1618,1713857621922735589,2052,2054,2074,2056,2050,2053,1198
1619,1713857621932728725,2046,2029,2036,2046,1999,2052,1194
1620,1713857621942742502,2057,2058,2031,2051,2072,2052,1196
1621,1713857621952754092,2056,2034,2032,2066,2039,2052,1196
1622,1713857621962689489,2041,2037,2000,2067,2108,2053,1197
1623,1713857621972774927,2062,2056,2083,2055,2040,2058,1197
1624,1713857621982734956,2064,2100,2153,2079,2065,2062,1197
1625,1713857621992740990,2060,2038,2003,2058,2064,2053,1197
1626,1713857622002737766,2043,2047,2032,2049,2096,2045,1193
1627,1713857622012738609,2069,2052,1964,2053,2061,2064,1197
1628,1713857622022748062,2035,2025,1948,2066,2084,2048,1197
1629,1713857622032738830,2041,2021,1992,2035,2038,2044,1196
1630,1713857622042740049,2058,2061,2046,2034,2095,2054,1197
1631,1713857622052737779,2056,2046,2027,2044,2047,2056,1194
1632,1713857622062735979,2044,2060,2068,2081,2100,2057,1196
1633,1713857622072746073,2060,2074,2079,2069,2056,2059,1196
1634,1713857622082781412,2054,2048,2037,2026,1992,2041,1193
1635,1713857622092736367,2065,2071,2092,2064,2045,2056,1196
1636,1713857622102731147,2054,2068,2060,2060,2070,2053,1197
1637,1713857622112740369,2048,2041,2008,2069,2088,2048,1195
1638,1713857622122752299,2051,2043,2020,2050,2058,2047,1195
1639,1713857622132737552,2079,2084,2075,2065,2045,2060,1197
1640,1713857622142746965,2045,2032,1980,2054,2071,2047,1192
1641,1713857622152740712,2050,2040,2003,2042,2025,2058,1196
1642,1713857622162732664,2047,2042,2042,2076,2075,2053,1194
1643,1713857622172744474,2050,2046,2013,2043,2001,2049,1197
1644,1713857622182737209,2072,2093,2146,2058,2067,2061,1199
1645,1713857622192748838,2057,2060,2072,2053,2034,2052,1198
1646,1713857622202733689,2052,2037,2019,2041,2052,2044,1196
1647,1713857622212741387,2068,2104,2193,2074,2056,2064,1196
1648,1713857622222739718,2056,2045,2072,2056,2052,2038,1195
1649,1713857622232737196,2052,2052,2050,2052,2052,2064,1198
1650,1713857622242743209,2066,2066,2068,2056,2071,2056,1196
1651,1713857622252736244,2057,2056,2033,2063,2080,2064,1196
1652,1713857622262748496,2052,2058,2118,2063,2077,2043,1193
1653,1713857622272740639,2059,2040,2008,2056,2043,2053,1196
1654,1713857622282739060,2052,2053,2048,2069,2117,2056,1196
1655,1713857622292747229,2069,2101,2172,2076,2004,2057,1196
1656,1713857622302728400,2062,2077,2094,2070,2049,2041,1194
1657,1713857622312732989,2060,2058,2060,2072,2053,2066,1197
1658,1713857622322743956,2053,2050,2033,2040,2052,2039,1194
1659,1713857622332744964,2061,2077,2146,2066,2041,2061,1196
1660,1713857622342742894,2054,2050,2032,2048,2065,2047,1194
1661,1713857622352743180,2071,2078,2138,2086,2053,2061,1196
1662,1713857622362736657,2064,2084,2144,2046,2057,2044,1194
1663,1713857622372723634,2045,2043,2080,2045,2041,2052,1197
1664,1713857622382749796,2063,2073,2076,2054,2068,2044,1193
1665,1713857622392739823,2050,2048,2065,2059,2043,2060,1197
1666,1713857622402731013,2048,2048,2036,2056,2051,2042,1195
1667,1713857622412727618,2057,2062,2102,2056,2012,2058,1195
1668,1713857622422740220,2060,2066,2018,2069,2088,2052,1198
1669,1713857622432730397,2061,2065,2060,2037,2026,2050,1198
1670,1713857622442733331,2051,2050,2061,2053,2066,2052,1196
1671,1713857622452758971,2057,2052,2057,2056,2034,2051,1195
1672,1713857622462764222,2061,2060,2105,2062,2064,2052,1196
1673,1713857622472769644,2056,2048,2030,2048,2030,2057,1196
1674,1713857622482740364,2057,2068,2098,2065,2077,2058,1194
1675,1713857622492750559,2051,2028,2010,2046,2011,2042,1192
1676,1713857622502765488,2050,2054,2034,2056,2074,2054,1196
1677,1713857622512767911,2058,2061,2116,2054,2084,2056,1196
1678,1713857622522746364,2073,2079,2075,2049,2053,2051,1195
1679,1713857622532747452,2060,2052,2072,2064,2039,2057,1195
1680,1713857622542750336,2053,2072,2077,2077,2075,2056,1199
1681,1713857622552745899,2050,2065,2100,2070,2045,2057,1196
1682,1713857622562745734,2057,2048,2045,2051,2061,2054,1195
1683,1713857622572756490,2042,2038,2035,2050,2036,2052,1194
1684,1713857622582764971,2056,2053,2051,2066,2069,2047,1192
1685,1713857622592774213,2056,2047,2044,2060,2134,2073,1198
1686,1713857622602737121,2054,2053,2016,2037,2047,2056,1198
1687,1713857622612742712,2060,2054,2088,2075,2054,2055,1196
1688,1713857622622734604,2044,2023,1966,2033,2041,2053,1195
1689,1713857622632739665,2051,2056,2073,2062,2047,2060,1197
1690,1713857622642736682,2061,2061,2026,2058,2072,2061,1197
1691,1713857622652735996,2068,2062,2083,2066,2040,2059,1197
1692,1713857622662743313,2045,2044,2019,2064,2112,2056,1196
1693,1713857622672734963,2053,2070,2102,2056,2040,2057,1197
1694,1713857622682733826,2062,2052,2018,2056,2056,2042,1191
1695,1713857622692743379,2055,2047,2040,2034,2014,2051,1195
1696,1713857622702742944,2055,2053,2024,2053,2061,2046,1193
1697,1713857622712731505,2051,2047,2057,2049,2034,2056,1197
1698,1713857622722736696,2045,2029,1963,2020,2044,2044,1193
1699,1713857622732751445,2058,2046,2024,2044,2059,2053,1195
1700,1713857622742756906,2052,2056,2047,2061,2065,2056,1197
1701,1713857622752736863,2053,2044,2028,2052,2009,2052,1196
1702,1713857622762739456,2066,2058,2011,2060,2062,2048,1195
1703,1713857622772743263,2063,2084,2222,2083,2060,2064,1197
1704,1713857622782745074,2066,2084,2148,2066,2056,2044,1194
1705,1713857622792743745,2053,2044,2028,2049,2040,2053,1194
1706,1713857622802730763,2058,2056,2043,2057,2064,2051,1198
1707,1713857622812736235,2054,2051,2059,2046,2025,2049,1196
1708,1713857622822749730,2059,2061,2073,2047,2079,2058,1195
1709,1713857622832749324,2056,2046,2074,2050,2030,2056,1196
1710,1713857622842741707,2049,2074,2139,2072,2021,2030,1194
1711,1713857622852750980,2045,2030,2018,2042,2081,2072,1195
1712,1713857622862734257,2067,2084,2124,2068,2059,2050,1197
1713,1713857622872748584,2049,2035,1986,2022,2028,2048,1197
1714,1713857622882734047,2044,2031,1972,2040,2053,2060,1193
1715,1713857622892736058,2040,2010,1928,2028,2021,2042,1192
1716,1713857622902748821,2056,2068,2072,2052,2070,2060,1196
1717,1713857622912736922,2046,2002,1907,2015,2016,2033,1192
1718,1713857622922746345,2065,2078,2092,2052,2054,2083,1196
1719,1713857622932722280,2056,2063,2139,2048,2049,2084,1195
1720,1713857622942742605,2057,2061,2032,2053,2090,2063,1194
1721,1713857622952740524,2049,2056,2051,2050,2039,2049,1195
1722,1713857622962735936,2051,2043,1978,2048,2068,2060,1194
1723,1713857622972748429,2062,2014,1944,2025,2036,2048,1195
1724,1713857622982736499,2048,2051,2047,2047,2061,2044,1197
1725,1713857622992738311,2035,2020,1985,2050,2053,2053,1200
1726,1713857623002737373,2070,2069,2095,2059,2053,2061,1198
1727,1713857623012736676,2042,2027,2011,2055,2057,2060,1194
1728,1713857623022747631,2059,2065,2069,2048,2048,2045,1195
1729,1713857623032735329,2050,2047,2062,2074,2064,2057,1195
1730,1713857623042744438,2065,2074,2123,2054,2064,2050,1195
1731,1713857623052743840,2056,2052,2064,2072,2049,2064,1196
1732,1713857623062743071,2064,2049,2000,2042,2079,2046,1192
1733,1713857623072739314,2034,2018,2051,2036,2021,2046,1194
1734,1713857623082736439,2047,2026,1963,2038,2044,2050,1195
1735,1713857623092746763,2062,2054,2025,2051,2042,2072,1195
1736,1713857623102736466,2038,2019,1946,2053,2059,2042,1192
1737,1713857623112738135,2060,2032,1988,2024,2038,2053,1195
1738,1713857623122736262,2025,2030,2009,2038,2045,2040,1193
1739,1713857623132736758,2056,2050,2046,2035,2023,2043,1194
1740,1713857623142750199,2073,2095,2149,2078,2074,2075,1197
1741,1713857623152741057,2061,2048,2071,2050,2050,2066,1196
1742,1713857623162736446,2069,2075,2129,2063,2085,2036,1192
1743,1713857623172738115,2027,2051,2088,2058,2064,2079,1197
1744,1713857623182735982,2068,2051,1999,2050,2088,2058,1197
1745,1713857623192740890,2058,2041,1997,2045,2044,2064,1196
1746,1713857623202738887,2048,2040,2025,2050,2048,2036,1193
1747,1713857623212746042,2060,2048,2025,2050,2031,2044,1194
1748,1713857623222737130,2060,2049,2037,2024,2058,2058,1195
1749,1713857623232762556,2050,2050,2041,2051,2041,2052,1196
1750,1713857623242742863,2050,2043,2026,2055,2064,2044,1192
1751,1713857623252739195,2069,2085,2137,2073,2057,2064,1198
1752,1713857623262744865,2059,2052,1993,2045,2048,2037,1193
1753,1713857623272734027,2062,2065,2078,2056,2048,2058,1197
1754,1713857623282735235,2052,2048,2044,2068,2072,2053,1193
1755,1713857623292734425,2062,2067,2079,2058,2038,2052,1196
1756,1713857623302735402,2028,2013,1945,2032,2044,2028,1195
1757,1713857623312739657,2070,2073,2116,2064,2056,2063,1198
1758,1713857623322733885,2062,2078,2133,2057,2058,2045,1193
1759,1713857623332745290,2062,2042,2025,2044,2031,2051,1196
1760,1713857623342757911,2057,2104,2211,2078,2069,2052,1197
1761,1713857623352741616,2083,2098,2216,2091,2051,2051,1196
1762,1713857623362735784,2057,2066,2093,2066,2088,2056,1195
1763,1713857623372739347,2062,2057,2089,2079,2073,2051,1196
1764,1713857623382742700,2057,2054,2045,2056,2057,2048,1195
1765,1713857623392735874,2043,2056,2090,2042,2010,2040,1194
1766,1713857623402739588,2062,2068,2044,2059,2096,2057,1196
1767,1713857623412739200,2068,2066,2018,2061,2088,2069,1195
1768,1713857623422739525,2046,2020,1950,2037,2036,2038,1193
1769,1713857623432742136,2050,2036,2000,2064,2062,2048,1196
1770,1713857623442734638,2064,2076,2107,2058,2047,2062,1197
1771,1713857623452739847,2042,2025,1977,2047,2033,2040,1193
1772,1713857623462735326,2050,2041,1998,2056,2060,2036,1192
1773,1713857623472735360,2065,2071,2086,2070,2022,2039,1192
1774,1713857623482733307,2050,2049,2024,2051,2056,2050,1195
1775,1713857623492766036,2062,2042,2031,2052,2032,2040,1192
1776,1713857623502733374,2049,2065,2120,2069,2082,2075,1194
1777,1713857623512728986,2055,2035,2037,2044,2040,2057,1195
1778,1713857623522723523,2048,2041,2008,2068,2060,2037,1192
1779,1713857623532738239,2057,2042,2020,2060,2054,2067,1194
1780,1713857623542763304,2058,2076,2022,2066,2067,2046,1192
1781,1713857623552748646,2052,2047,2045,2067,2048,2056,1196
1782,1713857623562763191,2060,2046,1992,2038,2047,2052,1195
1783,1713857623572743869,2032,2019,1994,2042,2033,2053,1196
1784,1713857623582742348,2061,2057,2024,2057,2074,2045,1193
1785,1713857623592775196,2056,2049,2056,2053,2042,2052,1197
1786,1713857623602746006,2072,2060,2062,2057,2098,2073,1197
1787,1713857623612747172,2041,2052,2089,2092,2036,2063,1196
1788,1713857623622750746,2041,2036,2040,2043,2040,2045,1192
1789,1713857623632758111,2061,2050,2044,2058,2041,2046,1194
1790,1713857623642768605,2053,2040,2011,2034,2060,2049,1196
1791,1713857623652734880,2068,2105,2153,2048,2047,2068,1194
1792,1713857623662738254,2048,2039,2004,2049,2074,2050,1196
1793,1713857623672739470,2046,2027,1980,2024,1970,2042,1192
1794,1713857623682735864,2050,2043,2045,2033,2059,2047,1192
1795,1713857623692761310,2069,2071,2113,2072,2047,2068,1196
1796,1713857623702733624,2049,2054,2072,2064,2066,2032,1193
1797,1713857623712736877,2055,2037,1992,2057,2043,2047,1195
1798,1713857623722736239,2072,2094,2200,2099,2053,2054,1197
1799,1713857623732732762,2045,2031,1957,2065,2058,2049,1195
1800,1713857623742740016,2067,2048,1951,2028,2048,2053,1195
1801,1713857623752742647,2036,2040,2069,2052,1999,2045,1194
1802,1713857623762735550,2042,2038,1988,2109,2146,2068,1195
1803,1713857623772742012,2066,2060,2065,2046,2066,2042,1194
1804,1713857623782739147,2040,2048,2007,2101,2052,2020,1194
1805,1713857623792778554,2056,2038,1998,2092,2010,2015,1194
1806,1713857623802726307,2052,2055,2065,2025,2056,2064,1198
1807,1713857623812737122,2052,2044,2068,2041,2042,2049,1197
1808,1713857623822748448,2069,2072,2064,2060,2068,2056,1196
1809,1713857623832734722,2034,2045,2065,2061,2044,2056,1197
1810,1713857623842748044,2051,2036,1985,2036,2068,2049,1198
1811,1713857623852734789,2050,2053,2063,2057,2035,2054,1196
1812,1713857623862736648,2058,2055,2024,2058,2018,2029,1194
1813,1713857623872745106,2053,2052,2077,2068,2049,2050,1197
1814,1713857623882737798,2056,2052,2030,2072,2081,2061,1194
1815,1713857623892852894,2057,2045,2022,2052,2038,2049,1196
1816,1713857623902736410,2053,2052,2057,2068,2064,2047,1193
1817,1713857623912732413,2064,2065,2084,2096,2044,2062,1194
1818,1713857623922738253,2046,2047,2008,2082,2078,2056,1197
1819,1713857623932739691,2055,2043,2045,2053,2042,2063,1196
1820,1713857623942748530,2056,2064,2062,2064,2049,2041,1194
1821,1713857623952738905,2062,2040,2019,2047,2069,2079,1197
1822,1713857623962736111,2083,2142,2328,2093,2064,2093,1198
1823,1713857623972737488,2044,2037,2021,2064,2088,2072,1196
1824,1713857623982736118,2064,2072,2100,2065,2061,2049,1195
1825,1713857623992758335,2059,2051,2053,2050,2039,2056,1198
1826,1713857624002732137,2035,2013,1924,2030,2036,2040,1194
1827,1713857624012726291,2071,2050,2061,2064,2077,2063,1198
1828,1713857624022732107,2047,2056,2061,2041,2083,2056,1197
1829,1713857624032734323,2064,2059,2060,2056,2056,2041,1194
1830,1713857624042734443,2056,2059,2057,2059,2053,2046,1192
1831,1713857624052729539,2049,2035,2017,2042,2055,2055,1196
1832,1713857624062742747,2062,2077,2091,2039,2072,2066,1196
1833,1713857624072740590,2061,2080,2191,2038,2018,2020,1194
1834,1713857624082738805,2051,2052,2037,2050,2080,2080,1196
1835,1713857624092752434,2050,2047,2037,2064,2053,2050,1193
1836,1713857624102735867,2066,2081,2081,2088,2085,2053,1195
1837,1713857624112741572,2061,2052,2042,2063,2052,2052,1196
1838,1713857624122741672,2054,2052,2053,2032,2044,2045,1193
1839,1713857624132741763,2072,2089,2172,2088,2054,2061,1195
1840,1713857624142726448,2050,2053,2013,2043,2054,2050,1197
1841,1713857624152738012,2051,2047,2049,2020,2034,2051,1194
1842,1713857624162735344,2061,2065,2064,2045,2086,2062,1196
1843,1713857624172735875,2056,2072,2129,2057,2045,2072,1195
1844,1713857624182737811,2042,2050,2044,2040,2042,2038,1194
1845,1713857624192764957,2064,2047,2027,2051,2038,2056,1197
1846,1713857624202740598,2054,2058,2057,2080,2082,2065,1198
1847,1713857624212736606,2056,2059,2056,2064,2004,2051,1195
1848,1713857624222729727,2053,2056,2046,2062,2057,2047,1193
1849,1713857624232733567,2065,2080,2094,2046,2044,2056,1195
1850,1713857624242743004,2051,2050,2040,2054,2053,2045,1192
1851,1713857624252738572,2057,2060,2052,2043,2052,2047,1194
1852,1713857624262731651,2039,2039,2023,2053,2088,2063,1195
1853,1713857624272741249,2057,2045,2014,2064,2040,2044,1193
1854,1713857624282730427,2043,2048,2031,2056,2064,2060,1195
1855,1713857624292769640,2051,2041,2031,2077,2052,2059,1197
1856,1713857624302738510,2049,2050,2034,2047,2058,2024,1192
1857,1713857624312741890,2058,2051,2044,2044,2049,2060,1197
1858,1713857624322736755,2050,2045,2046,2044,2040,2042,1192
1859,1713857624332735992,2046,2053,2010,2069,2076,2056,1195
1860,1713857624342740466,2051,2036,1997,2047,2042,2029,1195
1861,1713857624352737226,2052,2046,2032,2031,2048,2061,1195
1862,1713857624362741007,2060,2054,2047,2053,2068,2050,1197
1863,1713857624372735450,2030,2010,1929,2056,2032,2053,1194
1864,1713857624382735480,2045,2028,1985,2054,2059,2067,1199
1865,1713857624392756280,2061,2069,2088,2050,2062,2047,1193
1866,1713857624402735901,2055,2050,2048,2053,2062,2044,1194
1867,1713857624412735631,2053,2045,2031,2056,2026,2056,1195
1868,1713857624422734607,2060,2065,2090,2072,2069,2047,1195
1869,1713857624432738759,2047,2040,2037,2070,2047,2064,1196
1870,1713857624442748517,2070,2069,2090,2064,2078,2066,1197
1871,1713857624452735749,2064,2068,2124,2072,2090,2064,1196
1872,1713857624462736933,2032,2014,1957,2031,2062,2045,1193
1873,1713857624472736391,2062,2066,2143,2045,2039,2050,1195
1874,1713857624482736692,2044,2047,2032,2052,2050,2060,1194
1875,1713857624492768733,2065,2052,2044,2053,2036,2053,1196
1876,1713857624502735038,2049,2064,2096,2050,2056,2055,1193
1877,1713857624512736902,2054,2046,2052,2035,2003,2061,1194
1878,1713857624522733663,2052,2064,2073,2034,2047,2047,1194
1879,1713857624532736762,2052,2028,2000,2048,2052,2065,1194
1880,1713857624542733893,2046,2048,2025,2056,2085,2046,1193
1881,1713857624552736471,2052,2043,2015,2053,2017,2061,1196
1882,1713857624562743861,2064,2060,2056,2057,2074,2048,1197
1883,1713857624572776836,2064,2067,2112,2097,2078,2062,1196
1884,1713857624582742467,2050,2077,2092,2074,2064,2057,1196
1885,1713857624592761912,2060,2031,2002,2058,2024,2040,1194
1886,1713857624602761822,2054,2063,2084,2036,2051,2053,1198
1887,1713857624612739809,2049,2036,1995,2047,2042,2054,1200
1888,1713857624622738054,2040,2029,1996,2070,2071,2058,1198
1889,1713857624632748333,2056,2038,2014,2064,2033,2056,1193
1890,1713857624642769934,2065,2058,2059,2065,2060,2057,1197
1891,1713857624652765552,2041,2033,2004,2068,2056,2054,1197
1892,1713857624662759935,2052,2038,2012,2081,2068,2054,1196
1893,1713857624672744441,2058,2047,2034,2045,2037,2050,1197
1894,1713857624682742976,2064,2092,2171,2062,2096,2061,1193
1895,1713857624692762192,2046,2042,2050,2056,2056,2047,1193
1896,1713857624702745985,2053,2052,2015,2068,2057,2048,1197
1897,1713857624712749295,2057,2054,2044,2071,2057,2058,1195
1898,1713857624722758601,2048,2049,2041,2049,2050,2036,1192
1899,1713857624732767847,2059,2056,2082,2052,2043,2064,1194
1900,1713857624742733529,2062,2054,2073,2054,2072,2056,1195
1901,1713857624752726990,2056,2042,2046,2041,2040,2050,1196
1902,1713857624762741712,2053,2058,2097,2057,2069,2053,1196
1903,1713857624772742012,2062,2057,2029,2063,2040,2058,1195
1904,1713857624782736807,2053,2056,2059,2047,2056,2045,1194
1905,1713857624792770453,2058,2051,2034,2050,2032,2057,1197
1906,1713857624802732595,2062,2075,2114,2077,2045,2044,1193
1907,1713857624812744248,2058,2051,2050,2056,2026,2056,1197
1908,1713857624822755580,2061,2057,2040,2056,2038,2052,1197
1909,1713857624832734841,2056,2064,2104,2052,2015,2049,1197
1910,1713857624842736816,2060,2084,2148,2090,2114,2068,1196
1911,1713857624852740576,2057,2049,2044,2046,2040,2049,1195
1912,1713857624862737769,2046,2043,2038,2032,2056,2040,1193
1913,1713857624872755178,2045,2029,1987,2038,2041,2048,1198
1914,1713857624882735382,2049,2056,2055,2063,2078,2050,1194
1915,1713857624892765748,2060,2056,2047,2046,2009,2050,1195
1916,1713857624902738740,2051,2041,2008,2031,2057,2034,1193
1917,1713857624912719435,2070,2088,2132,2058,2051,2059,1196
1918,1713857624922741067,2054,2073,2141,2042,2069,2058,1195
1919,1713857624932739392,2056,2053,2052,2050,2027,2054,1196
1920,1713857624942750724,2058,2058,2077,2066,2062,2046,1195
1921,1713857624952741067,2054,2060,2044,2090,2077,2056,1195
1922,1713857624962735551,2053,2049,2033,2041,2047,2054,1194
1923,1713857624972737787,2056,2053,2055,2052,2049,2064,1195
1924,1713857624982737345,2071,2068,2068,2052,2065,2056,1197
1925,1713857624992766598,2058,2096,2184,2106,2065,2083,1197
1926,1713857625002735003,2061,2082,2150,2059,2059,2050,1196
1927,1713857625012734666,2064,2060,2107,2082,2063,2056,1198
1928,1713857625022737699,2042,2040,1968,2047,2044,2047,1194
1929,1713857625032736560,2047,2024,1971,2064,2053,2058,1196
1930,1713857625042737036,2052,2048,2044,2045,2056,2041,1194
1931,1713857625052738234,2057,2057,2060,2052,2044,2060,1195
1932,1713857625062743674,2046,2052,2044,2066,2072,2044,1194
1933,1713857625072723922,2066,2088,2170,2068,2012,2056,1198
1934,1713857625082740413,2055,2054,2046,2051,2086,2058,1194
1935,1713857625092738041,2057,2046,2045,2047,2041,2051,1195
1936,1713857625102737314,2056,2070,2072,2066,2068,2045,1195
1937,1713857625112740377,2052,2034,2010,2066,2047,2051,1197
1938,1713857625122737112,2061,2063,2047,2056,2053,2050,1196
1939,1713857625132736645,2057,2049,2029,2052,2050,2060,1195
1940,1713857625142733781,2047,2051,2080,2084,2081,2049,1196
1941,1713857625152737837,2056,2052,2110,2056,2038,2056,1196
1942,1713857625162732627,2040,2032,1968,2048,2066,2056,1197
1943,1713857625172733443,2060,2045,2049,2066,2046,2056,1195
1944,1713857625182735273,2054,2054,2043,2057,2078,2056,1196
1945,1713857625192745236,2057,2056,2083,2076,2018,2050,1196
1946,1713857625202735122,2052,2057,2054,2056,2060,2045,1194
1947,1713857625212734966,2058,2046,2027,2067,2048,2057,1197
1948,1713857625222735732,2037,2046,2040,2050,2059,2049,1196
1949,1713857625232733872,2064,2072,2129,2073,2056,2068,1198
1950,1713857625242694404,2052,2037,1998,2046,2060,2042,1195
1951,1713857625252733379,2052,2044,2046,2021,2045,2064,1195
1952,1713857625262732982,2047,2033,1957,2028,2061,2049,1195
1953,1713857625272746505,2058,2051,2052,2077,2045,2052,1196
1954,1713857625282739419,2053,2062,2029,2060,2060,2040,1192
1955,1713857625292738411,2054,2050,2020,2034,2044,2062,1196
1956,1713857625302736701,2055,2060,2040,2058,2072,2057,1196
1957,1713857625312738069,2060,2060,2041,2049,2034,2052,1195
1958,1713857625322746788,2050,2046,2031,2052,2069,2044,1194
1959,1713857625332736392,2056,2049,2047,2078,2009,2060,1193
1960,1713857625342736828,2056,2042,2028,2055,2076,2039,1193
1961,1713857625352737013,2046,2048,2057,2053,2047,2056,1193
1962,1713857625362737269,2051,2056,2070,2038,2082,2049,1195
1963,1713857625372744353,2056,2072,2146,2072,2047,2060,1195
1964,1713857625382734760,2066,2055,2002,2056,2038,2046,1194
1965,1713857625392744513,2064,2030,1974,2031,2037,2059,1198
1966,1713857625402734207,2046,2056,2041,2072,2056,2064,1196
1967,1713857625412737742,2052,2036,1960,2070,2052,2016,1193
1968,1713857625422738368,2048,2018,1992,2032,2047,2043,1193
1969,1713857625432736116,2045,2017,1982,2068,2032,2035,1195
1970,1713857625442740673,2056,2030,1915,2050,2060,2048,1197
1971,1713857625452732675,2053,2057,2081,2045,2053,2019,1192
1972,1713857625462738627,2046,2062,2120,2061,2089,2042,1194
1973,1713857625472741710,2045,2040,2012,2050,2027,2061,1197
1974,1713857625482735597,2044,2053,2061,2052,2050,2040,1193
1975,1713857625492741418,2057,2072,2113,2084,2069,2086,1198
1976,1713857625502745153,2053,2073,2097,2060,2086,2053,1196
1977,1713857625512723817,2056,2043,2020,2052,2044,2045,1194
1978,1713857625522737891,2044,2029,1981,2044,2072,2048,1195
1979,1713857625532736332,2039,2032,1993,2020,2009,1994,1195
1980,1713857625542729065,2074,2049,2001,2068,2079,2024,1192
1981,1713857625552741986,2046,2036,2029,2052,2041,2059,1195
1982,1713857625562737087,2056,2064,2093,2050,2062,2040,1196
1983,1713857625572741513,2061,2039,2001,2027,2036,2064,1196
1984,1713857625582734027,2044,2028,1968,2041,2068,2043,1197
1985,1713857625592742796,2046,2047,2074,2045,2053,2074,1197
1986,1713857625602735971,2074,2078,2100,2083,2064,2065,1196
1987,1713857625612742303,2040,2043,2028,2037,1901,2028,1193
1988,1713857625622740453,2038,2040,2026,2069,2076,2072,1196
1989,1713857625632743927,2040,2041,2034,2076,2088,2038,1193
1990,1713857625642735939,2056,2045,2024,2057,2042,1991,1194
1991,1713857625652738059,2049,2054,2072,2045,2034,2044,1194
1992,1713857625662742085,2045,2036,2037,2042,2035,2030,1193
1993,1713857625672693803,2061,2050,2064,2056,2046,2058,1196
1994,1713857625682739125,2036,2051,2066,2046,2064,2044,1194
1995,1713857625692747915,2061,2056,2040,2078,2066,2098,1196
1996,1713857625702742885,2056,2056,2071,2053,2080,2040,1192
1997,1713857625712752286,2053,2053,2065,2073,2061,2037,1193
1998,1713857625722744488,2058,2072,2070,2056,2065,2056,1197
1999,1713857625732772773,2066,2086,2105,2077,2066,2061,1195
2000,1713857625742741760,2076,2161,2362,2088,2074,2068,1198
2001,1713857625752744723,2064,2053,2036,2052,2053,2065,1197
2002,1713857625762755498,2054,2049,2029,2044,2041,1989,1192
2003,1713857625772762031,2050,2053,2064,2069,2034,2050,1196
2004,1713857625782768524,2063,2060,2067,2050,2068,2060,1197
2005,1713857625792780722,2049,2029,2019,2047,2037,2042,1193
2006,1713857625802744374,2038,2011,1941,2034,2054,2056,1198
2007,1713857625812779338,2054,2047,2021,2070,2038,2047,1194
2008,1713857625822746358,2058,2063,2054,2054,2049,2044,1192
2009,1713857625832746493,2072,2099,2176,2091,2074,2079,1196
2010,1713857625842754049,2054,2032,1986,2049,2088,2078,1196
2011,1713857625852763059,2060,2055,2038,2036,2056,2052,1196
2012,1713857625862771979,2047,2039,1992,2050,2064,2045,1193
2013,1713857625872739020,2060,2074,2082,2060,2053,2064,1195
2014,1713857625882741852,2047,2060,2073,2064,2056,2057,1197
2015,1713857625892742007,2067,2058,2077,2056,2047,2056,1195
2016,1713857625902735754,2047,2049,2068,2049,2045,2036,1193
2017,1713857625912735759,2064,2104,2213,2094,2061,2080,1196
2018,1713857625922738551,2050,2046,2039,2066,2075,2059,1197
2019,1713857625932740691,2056,2038,2010,2049,2122,2090,1196
2020,1713857625942741217,2072,2095,2162,2065,2059,2033,1193
2021,1713857625952736970,2040,2051,2112,2068,2004,2041,1194
2022,1713857625962759517,2059,2056,2064,2046,2046,2052,1195
2023,1713857625972738483,2051,2050,2034,2058,2040,2049,1196
2024,1713857625982736271,2053,2072,2116,2106,2080,2078,1198
2025,1713857625992745862,2068,2052,2052,2053,2036,2086,1196
2026,1713857626002733792,2042,2040,2046,2045,2052,2049,1198
2027,1713857626012713366,2048,2047,2063,2044,2044,2070,1198
2028,1713857626022740319,2058,2059,2061,2058,2100,2068,1196
2029,1713857626032745761,2058,2066,2109,2060,2034,2047,1194
2030,1713857626042744385,2061,2056,1970,2060,2070,2058,1196
2031,1713857626052739037,2064,2071,2066,2088,2056,2060,1197
2032,1713857626062737048,2072,2078,2156,2050,2047,2047,1193
2033,1713857626072741197,2048,2043,2040,2062,2040,2078,1198
2034,1713857626082738125,2046,2041,1999,2043,2064,2079,1197
2035,1713857626092759241,2059,2052,2062,2069,2060,2085,1196
2036,1713857626102732062,2064,2070,2050,2059,2068,2057,1196
2037,1713857626112737565,2057,2044,1996,2057,2040,2036,1193
2038,1713857626122739056,2054,2042,1993,2044,2066,2056,1198
2039,1713857626132740858,2066,2065,2107,2070,2056,2070,1196
2040,1713857626142742449,2062,2080,2101,2064,2073,2045,1194
2041,1713857626152750559,2069,2050,2073,2088,2096,2082,1197
2042,1713857626162738633,2046,2044,2044,2068,2064,2057,1197
2043,1713857626172762587,2053,2040,2001,2059,2040,2052,1197
2044,1713857626192750908,2050,2044,2023,2049,2084,2049,1196
2045,1713857626202735863,2053,2042,2024,2045,2047,2050,1197
2046,1713857626212742910,2062,2088,2127,2050,2056,2038,1195
2047,1713857626222745625,2052,2045,2063,2048,2034,2052,1196
2048,1713857626232739084,2050,2042,2022,2045,2060,2059,1197
2049,1713857626242741236,2055,2032,1976,2046,2045,2052,1199
2050,1713857626252735407,2049,2079,2162,2058,2069,2081,1196
2051,1713857626262737490,2061,2053,2034,2030,2039,2055,1196
2052,1713857626272740385,2056,2065,2065,2056,2058,2052,1197
2053,1713857626282738357,2065,2062,2082,2047,2065,2057,1194
2054,1713857626292750357,2047,2064,2097,2056,2096,2054,1194
2055,1713857626302734369,2050,2057,2083,2059,2024,2047,1193
2056,1713857626312742659,2053,2033,1992,2060,2053,2047,1194
2057,1713857626322736950,2056,2048,2074,2052,2045,2065,1196
2058,1713857626332739164,2038,2037,2020,2044,2055,2045,1194
2059,1713857626342735992,2056,2033,2006,2048,2052,2056,1198
2060,1713857626352747501,2049,2056,2106,2045,2053,2058,1196
2061,1713857626362753575,2056,2042,2029,2048,2044,2052,1196
2062,1713857626372747886,2056,2052,2029,2061,2053,2043,1194
2063,1713857626382735709,2050,2057,2085,2042,2035,2053,1197
2064,1713857626392739547,2064,2041,2013,2037,2057,2049,1197
2065,1713857626402741309,2044,2024,1990,2033,2045,2056,1195
2066,1713857626412749930,2064,2058,2053,2054,2076,2050,1196
2067,1713857626422742105,2062,2065,2148,2058,2067,2064,1196
2068,1713857626432758157,2039,2054,2088,2039,2060,2037,1194
2069,1713857626442739813,2068,2067,2092,2076,2026,2056,1199
2070,1713857626452734154,2062,2069,2088,2060,2052,2048,1196
2071,1713857626462771135,2047,2042,2036,2058,2050,2054,1197
2072,1713857626472744237,2061,2047,2009,2043,2076,2045,1195
2073,1713857626482743000,2052,2036,2024,2062,2066,2059,1196
2074,1713857626492752052,2051,2041,2034,2036,2052,2039,1192
2075,1713857626502745491,2049,2057,2062,2050,2042,2042,1195
2076,1713857626512759678,2044,2036,1998,2034,2056,2053,1196
2077,1713857626522739218,2056,2065,2093,2056,2041,2056,1193
2078,1713857626532738844,2045,2032,1950,2044,2052,2047,1194
2079,1713857626542748598,2057,2036,2026,2054,2050,2068,1196
2080,1713857626552736681,2049,2042,2015,2041,2044,2052,1198
2081,1713857626562736728,2065,2068,2106,2061,2057,2053,1196
2082,1713857626572734238,2048,2053,2028,2056,2104,2064,1198
2083,1713857626582736693,2047,2024,1985,2052,2098,2064,1196
2084,1713857626592735827,2056,2072,2077,2076,2065,2064,1196
2085,1713857626602735483,2066,2058,2032,2069,2066,2056,1196
2086,1713857626612746792,2047,2043,2020,2074,2076,2052,1197
2087,1713857626622729239,2057,2056,2053,2081,2071,2067,1198
2088,1713857626632738131,2064,2052,2054,2068,2058,2058,1196
2089,1713857626642745840,2057,2047,2048,2061,2053,2056,1197
2090,1713857626652735027,2046,2033,2011,2017,2032,2045,1194
2091,1713857626662751851,2066,2040,2008,2028,2027,2046,1194
2092,1713857626672742261,2056,2065,2076,2069,2056,2058,1196
2093,1713857626682738297,2052,2053,2053,2059,2053,2056,1196
2094,1713857626692736018,2056,2066,2112,2058,2054,2035,1193
2095,1713857626702737339,2040,2044,2027,2051,2064,2072,1196
2096,1713857626712741999,2066,2077,2140,2077,2096,2064,1195
2097,1713857626722739679,2060,2040,2031,2036,2036,2048,1195
2098,1713857626732740147,2064,2076,2072,2053,2068,2064,1197
2099,1713857626742742822,2052,2040,2050,2054,2029,2044,1194
2100,1713857626752750200,2046,2044,2033,2050,2046,2051,1196
2101,1713857626762768669,2055,2038,2036,2055,2042,2051,1197
2102,1713857626772739534,2062,2082,2083,2087,2084,2064,1198
2103,1713857626782737094,2058,2046,2033,2068,2078,2060,1196
2104,1713857626792743679,2032,2062,2148,2066,2070,2056,1197
2105,1713857626802745542,2048,2054,2029,2060,2044,2056,1197
2106,1713857626812718433,2062,2061,2044,2052,2060,2042,1195
2107,1713857626822728919,2051,2041,2044,2045,2060,2064,1198
2108,1713857626832731434,2066,2074,2104,2059,2049,2042,1196
2109,1713857626842756541,2046,2048,2070,2061,2046,2078,1199
2110,1713857626852733142,2069,2053,2046,2056,2071,2062,1197
2111,1713857626862770313,2044,2044,2047,2037,2050,2050,1197
2112,1713857626872738431,2050,2036,2017,2046,2050,2045,1195
2113,1713857626882730867,2084,2093,2160,2076,2056,2067,1196
2114,1713857626892758772,2045,2038,2010,2046,2056,2043,1191
2115,1713857626902733799,2053,2044,2017,2063,2070,2059,1195
2116,1713857626912800945,2076,2072,2119,2064,2070,2056,1197
2117,1713857626922706957,2037,2033,2025,2061,2070,2056,1198
2118,1713857626932737992,2062,2058,2083,2048,2053,2046,1194
2119,1713857626942751156,2053,2050,2059,2053,2044,2056,1194
2120,1713857626952746811,2056,2066,2081,2056,2057,2046,1196
2121,1713857626962771608,2049,2044,2036,2053,2051,2060,1197
2122,1713857626972747296,2058,2064,2089,2050,2060,2057,1196
2123,1713857626982744365,2069,2073,2078,2073,2061,2068,1196
2124,1713857626992744733,2060,2049,2018,2064,2055,2064,1195
2125,1713857627002752191,2056,2059,2018,2050,2066,2066,1196
2126,1713857627012765136,2053,2051,2030,2050,2047,2047,1195
2127,1713857627022770057,2065,2068,2173,2061,2040,2066,1196
2128,1713857627032778779,2058,2073,2184,2092,2068,2048,1196
2129,1713857627042736057,2040,2037,2009,2064,2077,2058,1195
2130,1713857627052736395,2060,2059,2047,2048,2040,2050,1197
2131,1713857627062747694,2046,2044,2023,2045,2046,2070,1195
2132,1713857627072734695,2063,2051,2054,2053,2060,2062,1197
2133,1713857627082738623,2056,2066,2129,2030,2044,2052,1195
2134,1713857627092738661,2050,2048,2014,2056,2045,2044,1192
2135,1713857627102744915,2054,2034,1989,2061,2059,2045,1194
2136,1713857627112717727,2044,2083,2160,2077,2072,2053,1196
2137,1713857627122743437,2057,2033,1993,2041,2044,2050,1196
2138,1713857627132740896,2049,2050,2030,2047,2057,2047,1192
2139,1713857627142772683,2056,2052,2027,2056,2044,2057,1196
2140,1713857627152734414,2043,2047,2080,2073,2066,2040,1192
2141,1713857627162738562,2060,2052,1987,2058,2051,2057,1197
2142,1713857627172736845,2045,2035,2042,2044,2062,2053,1196
2143,1713857627182737103,2041,2044,2037,2056,2060,2056,1197
2144,1713857627192741332,2056,2039,2046,2049,2080,2056,1197
2145,1713857627202748599,2052,2036,1986,2034,2026,2051,1197
2146,1713857627212758394,2052,2052,1994,2022,2026,2042,1195
2147,1713857627222735136,2053,2055,1998,2066,2028,2045,1193
2148,1713857627232742675,2050,2077,2089,2054,2065,2050,1196
2149,1713857627242734148,2056,2042,2027,2043,2046,2064,1197
2150,1713857627252740032,2036,2031,1982,2038,2053,2045,1194
2151,1713857627262734373,2056,2038,1997,2037,2028,2046,1193
2152,1713857627272738372,2046,2028,1950,2043,2060,2056,1197
2153,1713857627282854854,2054,2045,2017,2049,2042,2052,1198
2154,1713857627292741375,2050,2033,1997,2058,2059,2047,1193
2155,1713857627302739648,2057,2089,2128,2089,2077,2064,1196
2156,1713857627312738211,2054,2054,2081,2059,2083,2060,1196
2157,1713857627322731660,2056,2052,2053,2068,2066,2060,1197
2158,1713857627332750219,2053,2048,2032,2064,2051,2052,1194
2159,1713857627342745142,2050,2047,2028,2047,2029,2047,1194
2160,1713857627352737007,2049,2048,2047,2064,2050,2044,1193
2161,1713857627362739511,2060,2047,2027,2054,2045,2052,1197
2162,1713857627372734254,2061,2075,2133,2056,2062,2049,1197
2163,1713857627382736126,2069,2049,2083,2076,2037,2058,1196
2164,1713857627392738199,2028,2073,2147,2067,2053,2064,1197
2165,1713857627402751885,2052,2040,2028,2046,2029,2047,1193
2166,1713857627412743338,2056,2064,2092,2056,2059,2052,1198
2167,1713857627422736156,2059,2054,2048,2058,2030,2056,1195
2168,1713857627432745690,2048,2045,2008,2029,2056,2048,1197
2169,1713857627442751603,2049,2064,2020,2072,2042,2066,1196
2170,1713857627452737852,2052,2053,2077,2045,2059,2047,1192
2171,1713857627462744970,2054,2053,2071,2063,2048,2058,1198
2172,1713857627472746461,2052,2050,2044,2056,2052,2049,1196
2173,1713857627482751493,2051,2044,2027,2043,2028,2040,1193
2174,1713857627492735415,2056,2053,2056,2048,2054,2048,1196
2175,1713857627502737909,2049,2031,1990,2049,2045,2056,1195
2176,1713857627512739331,2058,2074,2047,2085,2090,2060,1195
2177,1713857627522735076,2068,2073,2112,2065,2063,2074,1196
2178,1713857627532736979,2043,2043,2005,2056,2066,2043,1192
2179,1713857627542762447,2072,2058,2097,2063,2057,2051,1196
2180,1713857627552748987,2072,2100,2156,2069,2069,2056,1197
2181,1713857627562739658,2052,2062,2092,2058,2058,2061,1196
2182,1713857627572734481,2073,2049,2044,2042,2062,2046,1193
2183,1713857627582739021,2045,2039,2002,2063,2066,2053,1197
2184,1713857627592741866,2058,2047,2049,2048,2043,2063,1197
2185,1713857627602744420,2069,2054,2043,2056,2042,2064,1197
2186,1713857627612751016,2049,2050,1997,2061,2054,2040,1196
2187,1713857627622737376,2061,2062,2074,2069,2056,2058,1198
2188,1713857627632739840,2052,2053,2037,2040,2054,2053,1195
2189,1713857627642738454,2062,2036,2027,2039,2053,2044,1195
2190,1713857627652734661,2050,2054,2084,2069,2081,2059,1196
2191,1713857627662738508,2051,2047,2036,2052,2043,2052,1196
2192,1713857627672746328,2069,2074,2028,2061,2077,2068,1195
2193,1713857627682872757,2052,2027,1988,2041,2039,2057,1198
2194,1713857627692735823,2070,2096,2131,2074,2053,2078,1196
2195,1713857627702737866,2051,2044,1997,2061,2053,2051,1197
2196,1713857627712741644,2073,2063,2015,2052,2036,2046,1194
2197,1713857627722737921,2036,2051,2086,2063,2037,2054,1197
2198,1713857627732745108,2049,2042,2056,2050,2031,2056,1196
2199,1713857627742746990,2060,2046,2045,2081,2067,2052,1195
2200,1713857627752734924,2064,2077,2168,2074,2061,2047,1192
2201,1713857627762717132,2045,2053,2042,2054,2066,2057,1195
2202,1713857627772735761,2066,2062,2049,2060,2080,2047,1194
2203,1713857627782740762,2069,2068,2070,2095,2041,2026,1193
2204,1713857627792736668,2057,2064,2097,2044,2072,2068,1195
2205,1713857627802733277,2042,2030,1986,2029,2043,2069,1196
2206,1713857627812745708,2059,2068,2054,2058,2052,2060,1197
2207,1713857627822749296,2048,2069,2099,2073,2100,2073,1197
2208,1713857627832723321,2080,2077,2125,2077,2061,2073,1195
2209,1713857627842731090,2047,2043,2009,2051,2042,2057,1196
2210,1713857627852734276,2070,2130,2252,2111,2070,2056,1197
2211,1713857627862744351,2063,2069,2081,2041,2047,2061,1196
2212,1713857627872743035,2055,2065,2065,2066,2055,2048,1197
