seq,time,data[0],data[1],data[2],data[3],data[4],data[5],data[6]
201,1713859582919025322,2075,2092,2053,2058,2070,2117,1197
202,1713859582929024403,2044,2043,2046,2056,2056,2060,1194
203,1713859582939029341,2058,2044,2057,2048,2049,2057,1195
204,1713859582949020071,2088,2125,2130,2098,2077,2097,1195
205,1713859582959020854,2037,2002,1923,2037,2035,2039,1192
206,1713859582969019003,2047,2049,1999,2040,2019,2026,1192
207,1713859582979020408,2058,2059,2072,2064,2033,2067,1193
208,1713859582989021361,2052,2046,2026,2058,2056,2056,1194
209,1713859582999018660,2046,2040,2030,2050,2044,1982,1192
210,1713859583009030391,2041,2045,2061,2032,2021,2046,1194
211,1713859583019025451,2048,2030,1937,2054,2057,2045,1193
212,1713859583029019369,2102,2212,2505,2128,2082,2136,1196
213,1713859583039022429,2038,2029,1984,2041,2035,2032,1193
214,1713859583049017669,2050,2030,1958,2044,2042,1997,1192
215,1713859583059018677,2049,2036,1992,2041,2047,2042,1193
216,1713859583069026063,2040,2029,1986,2040,2042,2033,1194
217,1713859583079020871,2061,2047,2039,2056,2034,2051,1196
218,1713859583089015500,2010,1996,1990,2017,2021,1993,1194
219,1713859583099024819,2084,2115,2140,2070,2052,1972,1192
220,1713859583109016024,2056,2089,2102,2065,2071,2077,1196
221,1713859583119021227,2036,2008,1925,2027,2012,2036,1193
222,1713859583129016717,2065,2075,2047,2048,1998,2061,1193
223,1713859583139020989,2054,2050,2032,2061,2076,2015,1192
224,1713859583149028035,2075,2054,2044,2047,2056,2042,1192
225,1713859583159022413,2032,2046,2057,2055,2062,2058,1195
226,1713859583169017592,2048,2056,2080,2060,2059,2044,1192
227,1713859583179021413,2038,2030,1984,2044,2041,2053,1195
228,1713859583189020679,2070,2088,2058,2057,2016,2037,1192
229,1713859583199019233,2055,2049,2052,2041,2004,2006,1193
230,1713859583209016606,2049,2047,2035,2064,2089,2058,1194
231,1713859583219019085,2053,2049,2039,2062,2076,2096,1194
232,1713859583229017429,2040,2038,2036,2043,2065,2040,1194
233,1713859583239015473,2061,2049,2048,2032,2048,2065,1195
234,1713859583249029397,2057,2041,2049,2042,2034,2012,1190
235,1713859583259022614,2042,2024,1958,2006,2053,2027,1193
236,1713859583269025604,2065,2068,2033,2057,2046,2051,1196
237,1713859583279021665,2077,2075,2056,2072,2048,2059,1194
238,1713859583289017255,2060,2049,2040,2048,2081,2132,1198
239,1713859583299021567,2068,2091,2201,2085,2056,2049,1195
240,1713859583309015806,2056,2045,2044,2052,2039,2047,1194
241,1713859583319027257,2057,2049,2068,2056,2056,2045,1192
242,1713859583329014977,2045,2042,2021,2056,2078,2028,1190
243,1713859583339016054,2027,2008,2005,2028,2044,2020,1193
244,1713859583349017432,2034,2016,1978,2033,2022,2029,1193
245,1713859583359027381,2050,2052,2078,2061,2046,2052,1194
246,1713859583369023312,2044,2039,2044,2040,1992,2035,1193
247,1713859583379019674,2056,2060,2052,2054,2032,2118,1196
248,1713859583389024757,2071,2135,2367,2097,2079,2106,1197
249,1713859583399023231,2041,2033,2009,2029,2035,2005,1193
250,1713859583409038698,2072,2082,2069,2074,2077,2084,1197
251,1713859583419019719,2058,2054,2068,2044,2017,2005,1193
252,1713859583429009580,2051,2056,2046,2050,2052,2072,1197
253,1713859583439020091,2033,2044,2104,2052,2046,1972,1194
254,1713859583449019686,2048,2072,2112,2064,2033,2030,1193
255,1713859583459024849,2036,2027,2002,2060,2100,2052,1197
256,1713859583469009285,2053,2033,2012,2049,2073,2100,1195
257,1713859583479077071,2056,2066,2113,2059,2049,2038,1194
258,1713859583489064901,2053,2042,2016,2040,2046,2040,1190
259,1713859583499060121,2064,2072,2088,2047,2056,2077,1196
260,1713859583509055321,2058,2056,2013,2067,2046,2028,1192
261,1713859583519048207,2050,2025,2049,2037,2051,2037,1193
262,1713859583529043337,2068,2062,1964,2069,2037,2058,1194
263,1713859583539039037,2052,2032,2004,2044,2050,2020,1192
264,1713859583549032475,2078,2076,2056,2071,2092,2066,1195
265,1713859583559029197,2039,2050,2077,2053,2068,2032,1192
266,1713859583569028492,2061,2060,2062,2062,2044,2045,1191
267,1713859583579028648,2060,2060,2078,2059,2071,2050,1196
268,1713859583589025801,2056,2037,1969,2050,2056,1981,1192
269,1713859583599071216,2044,2034,2075,2037,2046,2036,1192
270,1713859583609052588,2059,2056,2078,2034,2073,2057,1197
271,1713859583619047087,2058,2077,2158,2061,2014,2064,1197
272,1713859583629041676,2047,2037,2066,2049,2037,2041,1193
273,1713859583639048331,2053,2044,2037,2059,1988,1973,1193
274,1713859583649029792,2065,2091,2154,2072,2073,2076,1196
275,1713859583659020597,2074,2073,2037,2052,2057,2064,1196
276,1713859583669016718,2080,2112,2145,2061,2041,2053,1197
277,1713859583679014491,2046,2021,1904,2024,2017,2106,1195
278,1713859583689040611,2030,2029,1968,2040,2028,2029,1192
279,1713859583699035600,2068,2125,2265,2069,2008,2044,1192
280,1713859583709033424,2066,2060,2087,2037,2058,2022,1193
281,1713859583719027402,2026,2033,2034,2050,2050,2072,1196
282,1713859583729040716,2047,2021,1978,2062,2090,2069,1194
283,1713859583739030088,2066,2049,2031,2051,2046,2021,1190
284,1713859583749015325,2050,2040,2016,2059,2034,2076,1196
285,1713859583759019887,2075,2068,2086,2071,2107,2072,1197
286,1713859583769014616,2069,2054,2033,2053,2066,2040,1193
287,1713859583779016474,2047,2040,2065,2041,2088,1829,1191
288,1713859583789023599,2048,2036,2012,2058,2064,2056,1197
289,1713859583799017468,2089,2084,2076,2042,2002,2069,1194
290,1713859583809015792,2074,2052,2028,2053,2059,2018,1193
291,1713859583819018011,2054,2061,2072,2056,2062,2040,1193
292,1713859583829018388,2036,1997,1887,2037,1992,2003,1195
293,1713859583839020066,2101,2108,2072,2074,2090,2048,1195
294,1713859583849032529,2056,2056,2077,2060,2064,2049,1196
295,1713859583859026487,2049,2039,2004,2041,2043,2053,1194
296,1713859583869018762,2080,2114,2189,2101,2069,2069,1196
297,1713859583879016325,2082,2072,2058,2048,2033,2024,1193
298,1713859583889014999,2102,2109,2059,2081,2072,2087,1196
299,1713859583899015096,2090,2116,2089,2083,2051,2131,1193
300,1713859583909014832,2021,2022,2033,2031,2028,2028,1194
301,1713859583919015359,2077,2074,2092,2076,2042,2032,1194
302,1713859583929016126,2039,2035,2029,2065,2086,2061,1193
303,1713859583939018595,2064,2057,2065,2056,2022,2050,1195
304,1713859583949013504,2070,2141,2277,2081,2023,2139,1196
305,1713859583959025135,2047,2031,2011,2036,2063,2076,1195
306,1713859583969019254,2046,2057,2058,2059,2047,2021,1193
307,1713859583979016917,2052,2055,2000,2073,2081,2096,1195
308,1713859583989024533,2032,2055,2106,2065,2087,2017,1192
309,1713859583999013124,2059,2061,2008,2046,2013,2008,1194
310,1713859584009024917,2038,2040,1984,2044,2061,2020,1194
311,1713859584019017406,2082,2054,2023,2063,2044,2041,1192
312,1713859584029015171,2066,2061,2073,2056,2047,2038,1194
313,1713859584039014948,2076,2071,2074,2049,2019,2028,1194
314,1713859584049029947,2065,2052,2028,2057,2040,2046,1194
315,1713859584059012471,2037,2027,2038,2043,2041,2132,1195
316,1713859584069018758,2038,2006,1942,2020,2033,2057,1195
317,1713859584079021199,2045,2038,1940,2051,2070,2045,1194
318,1713859584089038800,2034,2016,1985,2045,2057,2060,1197
319,1713859584099020574,2096,2110,2140,2072,2065,2046,1194
320,1713859584109015044,2035,2044,2070,2045,2075,2046,1194
321,1713859584119021642,2054,2026,1997,2066,2058,1985,1194
322,1713859584129016873,2049,2004,1943,2042,2054,2050,1194
323,1713859584139016771,2024,2024,2036,2031,2027,2047,1194
324,1713859584149017370,2041,2044,2015,2056,2060,2050,1194
325,1713859584159017027,2056,2060,2001,2051,2037,2056,1198
326,1713859584169023574,2069,2097,2188,2068,2033,2036,1193
327,1713859584179015502,2060,2098,2165,2072,2042,1978,1191
328,1713859584189013197,2048,2047,2031,2042,2096,2034,1193
329,1713859584199024260,2048,2056,2075,2077,2085,2077,1196
330,1713859584209017989,2054,2047,2029,2056,2027,2022,1192
331,1713859584219015965,2070,2083,2051,2083,2073,2042,1192
332,1713859584229020849,2040,2024,1979,2060,2089,2042,1192
333,1713859584239035507,2056,2060,2031,2050,2056,2056,1197
334,1713859584249021977,2055,2044,2046,2046,2040,2046,1196
335,1713859584259023407,2043,2038,2012,2046,2054,2041,1194
336,1713859584269017958,2062,2054,2076,2084,2054,2088,1195
337,1713859584279016093,2042,2028,2001,2049,2050,2038,1193
338,1713859584289015280,2090,2120,2275,2086,2068,2059,1193
339,1713859584299017881,2057,2049,2022,2049,2034,2034,1192
340,1713859584309017810,2065,2060,2080,2066,2082,2076,1196
341,1713859584319015695,2054,2058,2092,2092,2128,2057,1196
342,1713859584329026086,2050,2037,2033,2062,2062,2061,1194
343,1713859584339019946,2066,2098,2236,2068,2035,2064,1195
344,1713859584349015028,2053,2037,2024,2053,2048,2047,1193
345,1713859584359020754,2044,2045,2053,2056,2044,2037,1194
346,1713859584369012460,2056,2052,2087,2067,2072,2043,1193
347,1713859584379018276,2065,2061,2068,2073,2072,2086,1194
348,1713859584389017373,2032,1992,1898,2033,2047,1998,1191
349,1713859584399017912,2030,2006,1884,2032,2037,2061,1197
350,1713859584409013084,2048,2034,2031,2046,2047,2047,1194
351,1713859584419014203,2064,2047,2042,2050,2052,2039,1192
352,1713859584429027249,2046,2047,2091,2055,2042,2044,1193
353,1713859584439021890,2045,2037,2020,2042,2045,2037,1195
354,1713859584449017572,2069,2112,2074,2075,2061,2011,1195
355,1713859584459018381,2060,2044,2054,2064,2042,1982,1191
356,1713859584469020982,2052,2047,2033,2046,2060,2050,1197
357,1713859584479004018,2059,2056,2108,2051,2053,2058,1196
358,1713859584489040675,2046,2036,2005,2056,2072,2046,1192
359,1713859584499017062,2050,2015,1912,2043,2062,2040,1193
360,1713859584509111425,2032,2010,1949,2037,2070,2061,1193
361,1713859584519018880,2046,2025,1978,2032,2015,2036,1193
362,1713859584529018017,2073,2089,2180,2045,2071,2042,1192
363,1713859584539018295,2048,2040,2058,2045,2040,2052,1196
364,1713859584549014559,2041,2029,1984,2047,2047,2087,1197
365,1713859584559016559,2098,2136,2234,2105,2086,2068,1194
366,1713859584569024828,2053,2029,1981,2055,2047,2050,1195
367,1713859584579019489,2037,2010,1992,2050,2062,2065,1196
368,1713859584589019987,2056,2038,2020,2051,2056,2035,1194
369,1713859584599022980,2078,2074,2044,2065,2069,2073,1195
370,1713859584609018902,2042,2024,1974,2040,2036,2034,1193
371,1713859584619018630,2048,2069,2090,2072,2113,2085,1195
372,1713859584629027670,2043,2020,1972,2041,2065,2030,1193
373,1713859584639017855,2066,2070,2042,2068,2074,2077,1196
374,1713859584649020517,2055,2050,2111,2056,2058,2098,1197
375,1713859584659014867,2049,2046,1989,2073,2066,2035,1191
376,1713859584669027202,2052,2091,2112,2066,2044,2066,1195
377,1713859584679020501,2057,2078,2096,2072,2068,2050,1196
378,1713859584689023603,2045,2038,2012,2063,2057,2062,1196
379,1713859584699021118,2055,2036,2014,2053,2051,2076,1196
380,1713859584709015298,2079,2128,2256,2106,2053,2061,1195
381,1713859584719018371,2056,2046,2014,2047,2046,2056,1197
382,1713859584729014633,2046,2028,2034,2043,2035,2013,1190
383,1713859584739024925,2056,2048,2021,2048,2052,2078,1196
384,1713859584749017433,2067,2079,2156,2078,2074,2061,1193
385,1713859584759016199,2078,2112,2184,2080,2072,2072,1196
386,1713859584769017349,2046,2022,2041,2062,2069,2066,1193
387,1713859584779015204,2050,2036,1993,2037,2035,2045,1189
388,1713859584789014001,2072,2072,2044,2069,2051,2040,1194
389,1713859584799015371,2058,2053,2044,2049,2046,2069,1197
390,1713859584809024901,2100,2176,2310,2104,2084,2074,1196
391,1713859584819024649,2044,2032,1992,2066,2057,2036,1193
392,1713859584829018148,2048,2037,2012,2043,2054,2054,1198
393,1713859584839017175,2072,2105,2182,2072,2027,2050,1197
394,1713859584849017073,2040,2019,2014,2052,2073,2084,1195
395,1713859584859016600,2049,2033,2012,2026,2030,2036,1193
396,1713859584869016829,2042,2033,1972,2037,2050,2028,1193
397,1713859584879020682,2041,2029,1976,2047,2097,2050,1196
398,1713859584889016485,2041,2034,2044,2042,2040,2045,1192
399,1713859584899029790,2031,2024,2008,2040,2049,2046,1193
400,1713859584909024932,2057,2054,2020,2044,2061,2036,1193
401,1713859584919020444,2056,2034,2030,2033,2019,2035,1192
402,1713859584929015355,2048,2030,2032,2039,2072,2063,1194
403,1713859584939016545,2052,2054,2077,2070,2078,2057,1196
404,1713859584949017284,2050,2033,2042,2040,2056,2043,1192
405,1713859584959021248,2064,2084,2157,2047,2040,2038,1194
406,1713859584969018101,2034,2008,1914,2022,2028,2106,1198
407,1713859584979018680,2066,2084,2097,2066,2070,2056,1198
408,1713859584989019710,2042,2042,2045,2077,2040,2046,1193
409,1713859584999019498,2050,2036,2005,2033,2029,2046,1195
410,1713859585009018644,2066,2064,2056,2038,2034,2034,1192
411,1713859585019018853,2029,2022,1968,2038,2030,2030,1193
412,1713859585029017739,2055,2021,1998,2022,2040,2033,1193
413,1713859585039031285,2064,2059,2011,2067,2088,1999,1193
414,1713859585049024585,2054,2040,1900,2048,2053,2048,1194
415,1713859585059016491,2060,2064,2089,2053,2048,2050,1195
416,1713859585069014567,2050,2034,1972,2036,2036,2036,1193
417,1713859585079017969,2037,2028,1981,2043,2054,2044,1192
418,1713859585089022193,2057,2053,2041,2057,2048,2072,1196
419,1713859585099058399,2066,2072,2086,2060,2054,2050,1195
420,1713859585109051438,2068,2087,2076,2078,2084,2027,1192
421,1713859585119044306,2038,2008,1965,2040,2028,2056,1193
422,1713859585129036464,2049,2030,2033,2057,2072,2056,1197
423,1713859585139029963,2045,2034,1997,2049,2048,2034,1194
424,1713859585149028279,2041,2031,1980,2042,2036,2032,1192
425,1713859585159027596,2049,2050,2047,2051,2046,2068,1195
426,1713859585169029517,2044,2044,2068,2065,2052,2036,1192
427,1713859585179024989,2046,2057,2101,2057,2046,1968,1192
428,1713859585189026559,2074,2120,2186,2080,2101,2094,1196
429,1713859585199028208,2049,2045,2079,2057,2053,2026,1192
430,1713859585209031482,2066,2065,2083,2080,2037,2078,1197
431,1713859585219051847,2056,2056,2042,2026,2028,2045,1192
432,1713859585229045646,2049,2027,1977,2018,2058,2052,1196
433,1713859585239039005,2084,2099,2112,2083,2070,2058,1196
434,1713859585249036961,2040,2022,1981,2041,2024,2024,1192
435,1713859585259028127,2060,2076,2133,2056,2035,2056,1196
436,1713859585269020725,2031,2035,2044,2048,2059,2070,1196
437,1713859585279025989,2060,2068,2108,2046,2041,2032,1193
438,1713859585289023274,2052,2045,2050,2043,2040,2061,1196
439,1713859585299019978,2069,2069,2158,2068,2084,2058,1197
440,1713859585309020026,2090,2145,2258,2105,2072,2090,1196
441,1713859585319021055,2048,2059,2049,2054,2053,2057,1193
442,1713859585329024158,2051,2035,2019,2033,2052,2057,1196
443,1713859585339015995,2055,2052,2020,2050,2003,2024,1193
444,1713859585349017114,2044,2035,1998,2047,2037,2080,1196
445,1713859585359016781,2060,2082,2156,2082,2068,2057,1195
446,1713859585369017751,2052,2038,2022,2074,2084,2057,1194
447,1713859585379028433,2056,2037,2032,2055,2070,2049,1195
448,1713859585389024526,2045,2062,2105,2050,2049,2053,1195
449,1713859585399017885,2077,2121,2183,2077,2092,2096,1197
450,1713859585409021548,2038,2026,2012,2048,2034,2037,1193
451,1713859585419023809,2056,2044,1996,2066,2085,2093,1196
452,1713859585429021383,2052,2047,2032,2064,2078,2030,1196
453,1713859585439019619,2072,2100,2133,2074,2062,2056,1197
454,1713859585449018216,2035,2006,1944,2047,2059,2066,1196
455,1713859585459017052,2036,2018,1967,2048,2042,2079,1194
456,1713859585469017320,2044,2037,2041,2040,2065,2034,1192
457,1713859585479016857,2054,2046,2072,2065,2061,2118,1196
458,1713859585489019099,2065,2083,2132,2057,2058,2101,1194
459,1713859585499020418,2040,2040,2036,2041,2037,2040,1191
460,1713859585509018263,2061,2065,2094,2054,2042,2049,1196
461,1713859585519035504,2057,2065,2103,2057,2049,2064,1194
462,1713859585529024468,2039,2056,2018,2082,2031,2074,1196
463,1713859585539018107,2040,2032,2010,2040,2004,2021,1191
464,1713859585549020759,2034,2040,2004,2042,2020,2029,1192
465,1713859585559016050,2054,2047,2041,2045,2006,2034,1192
466,1713859585569020214,2036,2017,1958,2056,2037,2047,1190
467,1713859585579019792,2044,2045,2047,2049,2065,2042,1194
468,1713859585589019379,2059,2056,2070,2073,2044,2067,1194
469,1713859585599021539,2057,2039,2000,2056,2037,2066,1196
470,1713859585609030029,2044,2033,1976,2027,2004,2051,1196
471,1713859585619031289,2090,2136,2234,2084,2078,2060,1194
472,1713859585629033640,2047,2053,2062,2064,2071,2056,1199
473,1713859585639021431,2075,2086,2108,2081,2082,2061,1196
474,1713859585649020838,2066,2070,2104,2062,2052,2054,1196
475,1713859585659023000,2043,2043,2024,2053,2082,2057,1196
476,1713859585669020624,2025,2035,2090,2044,2040,1983,1193
477,1713859585679021063,2058,2079,2180,2086,2079,2045,1192
478,1713859585689022292,2042,2033,1993,2020,2036,2070,1195
479,1713859585699019307,2059,2060,2128,2088,2046,2066,1195
480,1713859585709017162,2054,2032,2000,2024,1973,2024,1193
481,1713859585719022416,2057,2091,2171,2105,2122,2065,1192
482,1713859585729017498,2045,2041,2056,2070,2036,2052,1196
483,1713859585739018438,2048,2044,2017,2068,2020,2078,1197
484,1713859585749017674,2058,2026,1993,2031,2032,2039,1192
485,1713859585759027385,2060,2053,2048,2064,2081,2039,1192
486,1713859585769020143,2045,2036,1991,2053,2047,2045,1194
487,1713859585779021944,2049,2025,1999,2088,2095,2009,1193
488,1713859585789014562,2082,2114,2244,2108,2045,2063,1196
489,1713859585799021509,2047,2046,2104,2068,2085,2050,1194
490,1713859585809015949,2032,2032,2064,2028,2020,2053,1194
491,1713859585819021446,2046,2044,2091,2046,2068,2102,1195
492,1713859585829016657,2068,2079,2084,2080,2091,2070,1196
493,1713859585839015643,2067,2081,2100,2046,2045,2082,1195
494,1713859585849016292,2069,2061,1989,2105,2124,2104,1196
495,1713859585859027996,2053,2073,2148,2099,2086,2052,1193
496,1713859585869022817,2042,2029,2070,2061,2036,2082,1197
497,1713859585879019440,2043,2040,2058,2042,2052,1950,1193
498,1713859585889017135,2032,2026,2045,2056,2056,2047,1194
499,1713859585899020729,2068,2053,2052,2061,2066,2071,1195
500,1713859585909017562,2084,2130,2243,2070,2077,2052,1197
501,1713859585919019272,2060,2057,2201,2071,2059,2056,1196
502,1713859585929019400,2097,2155,2284,2113,2125,2104,1197
503,1713859585939014873,2044,2035,2121,2057,2056,2050,1194
504,1713859585949019236,2047,2030,2019,2027,2054,1960,1190
505,1713859585959020606,2048,2066,2121,2080,2128,2098,1194
506,1713859585969017279,2066,2064,2064,2037,2005,2057,1195
507,1713859585979018409,2062,2056,2044,2042,2021,2044,1192
508,1713859585989031875,2070,2096,2160,2095,2034,2064,1195
509,1713859585999027817,2039,1992,1970,2032,2047,2052,1194
510,1713859586009021956,2053,2018,1946,2084,2063,2060,1194
511,1713859586019020051,2090,2121,2262,2078,2063,2061,1195
512,1713859586029019345,2049,2042,2037,2066,2060,2069,1196
513,1713859586039020924,2028,2033,2069,2101,2090,2047,1193
514,1713859586049018577,2067,2060,2044,2066,2119,2074,1195
515,1713859586059020715,2052,2034,2014,2043,2051,2052,1194
516,1713859586069019290,2036,1981,1904,2032,2052,2046,1193
517,1713859586079023562,2066,2053,1996,2053,2065,2064,1197
518,1713859586089033050,2087,2068,2137,2077,2097,2002,1192
519,1713859586099027109,2068,2067,2236,2082,2098,2124,1197
520,1713859586109022208,2062,2084,2121,2056,2047,2029,1192
521,1713859586119024837,2062,2075,2105,2068,2060,2057,1193
522,1713859586129019737,2031,2020,1941,2050,2058,2033,1192
523,1713859586139018711,2060,2048,2015,2036,2028,2038,1192
524,1713859586149017605,2066,2061,2021,2077,2066,2076,1194
525,1713859586159015449,2056,2044,2005,2056,2065,2045,1193
526,1713859586169018008,2071,2080,2062,2084,2075,2076,1195
527,1713859586179020408,2071,2085,2179,2076,2041,2042,1192
528,1713859586189022307,2067,2056,1971,2068,2050,2045,1191
529,1713859586199016835,2045,2017,1964,2029,2033,2040,1194
530,1713859586209016841,2058,2054,2078,2059,2036,2084,1196
531,1713859586219026590,2042,2030,1992,2047,2059,2053,1197
532,1713859586229017253,2045,2029,1996,2045,2047,2074,1197
533,1713859586239027103,2053,2062,2129,2056,2040,1968,1192
534,1713859586249028791,2041,2055,2046,2033,2026,2058,1193
535,1713859586259019465,2044,2052,2075,2044,2057,2066,1194
536,1713859586269023867,2037,2052,2003,2044,2069,2049,1193
537,1713859586279018165,2052,2056,2048,2056,2086,2064,1196
538,1713859586289016740,2063,2088,2065,2060,2051,2044,1193
539,1713859586299019129,2058,2064,2072,2056,2056,2064,1195
540,1713859586309018113,2056,2041,2040,2058,2049,2026,1193
541,1713859586319013894,2066,2057,2076,2057,2072,2064,1195
542,1713859586329013189,2042,2044,2053,2055,2047,2053,1195
543,1713859586339028095,2067,2051,2027,2040,2042,2066,1195
544,1713859586349022183,2042,2025,1985,2050,2040,2026,1192
545,1713859586359017092,2056,2056,2033,2072,2052,1982,1194
546,1713859586369017919,2043,2038,1990,2048,2024,2057,1195
547,1713859586379016664,2052,2063,2070,2049,2041,2040,1192
548,1713859586389018322,2045,2053,2033,2074,2084,2038,1191
549,1713859586399017056,2040,2035,2017,2043,2044,2060,1195
550,1713859586409008962,2037,2045,2066,2053,2062,2066,1195
551,1713859586419021374,2050,2043,2047,2064,2072,2043,1194
552,1713859586429019689,2042,2037,1999,2042,2043,2045,1196
553,1713859586439021677,2046,2026,1975,2067,2070,2070,1195
554,1713859586449020771,2046,2047,2049,2066,2056,2052,1195
555,1713859586459023141,2049,2054,2062,2058,2053,2069,1197
556,1713859586469042563,2043,2028,1993,2049,2078,2062,1196
557,1713859586479025025,2050,2042,2012,2041,2044,2041,1193
558,1713859586489024311,2113,2164,2318,2099,2077,2124,1194
559,1713859586499019801,2026,2022,2011,2048,2051,2028,1193
560,1713859586509019696,2056,2042,2029,2030,2027,2049,1197
561,1713859586519022877,2077,2076,2073,2060,2056,2072,1194
562,1713859586529024335,2044,2030,1998,2024,2045,2046,1193
563,1713859586539019064,2060,2043,2010,2048,2053,2059,1196
564,1713859586549020652,2076,2094,2124,2072,2064,2062,1194
565,1713859586559039183,2031,2046,2034,2056,2064,2010,1190
566,1713859586569033231,2044,2028,2016,2053,2061,2044,1192
567,1713859586579030293,2060,2078,2081,2058,2066,2052,1195
568,1713859586589023089,2056,2059,2037,2070,2060,2046,1192
569,1713859586599020302,2058,2069,2074,2047,2034,2049,1195
570,1713859586609019837,2106,2152,2216,2104,2090,2132,1196
571,1713859586619027223,2044,2027,2004,2042,2039,2046,1194
572,1713859586629020781,2044,2011,1981,2031,2050,2036,1192
573,1713859586639017843,2038,2024,2018,2042,2032,2040,1192
574,1713859586648998203,2055,2043,2029,2050,2044,2055,1196
575,1713859586659018526,2035,2010,1952,2024,2034,2034,1192
576,1713859586668983795,2073,2123,2282,2058,2044,2027,1193
577,1713859586679023185,2050,2039,2024,2030,2026,2044,1193
578,1713859586689026725,2038,2040,2027,1999,2003,2060,1196
579,1713859586699071280,2038,2081,2224,2105,2097,2099,1196
580,1713859586709062265,2046,2046,2036,2039,2018,2042,1193
581,1713859586719062051,2072,2058,2108,2045,2053,2088,1193
582,1713859586729048228,2063,2051,2072,2048,2031,2041,1191
583,1713859586739045601,2043,2038,2006,2054,2068,2075,1196
584,1713859586749036725,2063,2046,2014,2074,2064,2028,1189
585,1713859586759032155,2070,2090,2100,2072,2079,2085,1193
586,1713859586769037508,2036,2036,1998,2044,2042,2060,1195
587,1713859586779024106,2054,2037,1989,2074,2072,2044,1192
588,1713859586789036769,2072,2059,1961,2058,2040,2046,1191
589,1713859586799044916,2064,2074,2127,2046,2056,2047,1193
590,1713859586809035339,2045,2033,2014,2038,2036,2074,1196
591,1713859586819034184,2064,2090,2130,2076,1998,2066,1195
592,1713859586829027942,2056,2040,2030,2053,2057,2062,1196
593,1713859586839086866,2067,2050,2028,2046,2026,2043,1194
594,1713859586849047270,2076,2076,2089,2068,2071,2066,1197
595,1713859586859043310,2049,2061,2112,2052,2025,2068,1196
596,1713859586869193016,2060,2049,1989,2054,2047,2049,1196
597,1713859586879026620,2036,2025,2040,2032,2024,2031,1194
598,1713859586889020668,2050,2053,2064,2051,2030,2056,1196
599,1713859586899012683,2050,2036,2015,2049,2076,2060,1195
600,1713859586909016975,2053,2056,2047,2060,2033,2048,1193
601,1713859586919036117,2056,2059,2133,2051,2052,2052,1196
602,1713859586929016036,2046,2041,2005,2068,2050,2037,1194
603,1713859586939030762,2053,2044,2015,2048,2052,2046,1192
604,1713859586949028505,2049,2043,2009,2061,2066,2049,1195
605,1713859586959022583,2058,2072,2118,2087,2085,2094,1195
606,1713859586969018183,2052,2041,2017,2046,2014,2044,1193
607,1713859586979010028,2054,2043,2012,2048,2031,2039,1193
608,1713859586989021480,2057,2054,2049,2059,2058,2058,1195
609,1713859586999023769,2066,2039,2093,2045,2069,2045,1192
610,1713859587009029351,2056,2027,1989,2053,2084,2040,1193
611,1713859587019024857,2036,2028,1972,2045,2056,2060,1194
612,1713859587029020964,2046,2033,2052,2051,2047,2051,1196
613,1713859587039020225,2048,2051,2101,2060,2049,2048,1197
614,1713859587049031934,2050,2041,2004,2040,2037,2044,1192
615,1713859587059027009,2050,2041,2064,2040,2038,2040,1195
616,1713859587069176963,2049,2059,2083,2056,2057,2093,1196
617,1713859587079014187,2058,2045,2033,2047,2064,2077,1195
618,1713859587089015902,2072,2084,2114,2089,2089,2077,1195
619,1713859587099035340,2042,2030,2021,2060,2072,2045,1194
620,1713859587109028974,2065,2080,2053,2061,2066,2083,1198
621,1713859587119036717,2046,2037,2026,2042,2036,2052,1196
622,1713859587129026645,2061,2060,2094,2047,2033,2036,1192
623,1713859587139017336,2113,2152,2284,2104,2083,2096,1197
624,1713859587149016807,2060,2043,2020,2061,2057,2050,1195
625,1713859587159016088,2051,2021,1969,2029,2027,2027,1194
626,1713859587169185708,2056,2052,2113,2052,2051,2040,1193
627,1713859587179012568,2046,2032,2010,2057,2060,2045,1192
628,1713859587189020822,2078,2117,2072,2098,2088,2097,1196
629,1713859587199026351,2049,2030,2010,2051,2048,2053,1194
630,1713859587209029398,2056,2049,2046,2040,2044,2054,1197
631,1713859587219012197,2046,2053,2113,2039,2058,2061,1195
632,1713859587229014532,2041,2023,2005,2033,2033,2037,1192
633,1713859587239020232,2046,2034,2022,2050,2056,2047,1196
634,1713859587249016450,2056,2047,2030,2059,2080,2088,1195
635,1713859587259032403,2060,2056,2116,2054,2038,2012,1192
636,1713859587269180174,2060,2052,2048,2056,2059,2052,1196
637,1713859587279016887,2044,2046,2144,2048,2036,2092,1196
638,1713859587289031829,2042,2031,2009,2025,2049,2035,1193
639,1713859587299032033,2056,2056,2036,2073,2072,2057,1196
640,1713859587309033517,2044,2037,2061,2056,2072,2078,1195
641,1713859587319023265,2053,2025,1943,2030,2045,2045,1193
642,1713859587329019993,2056,2064,2116,2054,2044,2043,1193
643,1713859587339019916,2052,2032,2036,2050,2056,2065,1197
644,1713859587349017815,2032,2021,2011,2024,2060,2032,1193
645,1713859587359019210,2050,2056,2059,2051,2036,2034,1193
646,1713859587369017690,2045,2032,2034,2045,2026,2039,1194
647,1713859587379019715,2054,2041,2106,2078,2056,2064,1194
648,1713859587389019587,2056,2035,1992,2058,2053,2041,1193
649,1713859587399018869,2061,2072,2092,2061,2055,2044,1192
650,1713859587409015676,2049,2048,2058,2040,2037,2042,1192
651,1713859587419024080,2052,2054,2068,2054,2047,2074,1197
652,1713859587429017344,2059,2045,2052,2056,2082,2060,1195
653,1713859587439027680,2054,2041,2024,2052,2056,2054,1197
654,1713859587449021504,2062,2092,2088,2047,2063,2075,1197
655,1713859587459019764,2053,2044,2017,2043,2059,2064,1196
656,1713859587469017624,2054,2038,2000,2042,2065,2054,1194
657,1713859587479018307,2042,2035,2044,2021,1980,2042,1194
658,1713859587489021313,2080,2089,2080,2060,2037,2049,1196
659,1713859587499019233,2057,2036,1998,2052,2047,2066,1197
660,1713859587509015009,2072,2070,2041,2082,2112,2085,1195
661,1713859587519020759,2052,2056,2074,2072,2066,2058,1193
662,1713859587529015214,2050,2047,2033,2043,2040,2047,1193
663,1713859587539030487,2047,2038,2069,2032,2038,2050,1194
664,1713859587549022909,2076,2088,2079,2088,2074,2086,1192
665,1713859587559017855,2044,2027,2012,2032,2028,2046,1192
666,1713859587569020381,2038,2037,2015,2060,2057,2048,1197
667,1713859587579018250,2061,2050,2052,2052,2064,2063,1194
668,1713859587589021798,2034,2040,2078,2044,2032,2061,1194
669,1713859587599020118,2041,2040,2045,2059,2057,2047,1193
670,1713859587609018467,2066,2080,2106,2068,2040,2059,1194
671,1713859587619020543,2072,2079,2121,2080,2091,2074,1197
672,1713859587629021056,2032,2024,1995,2031,2040,2052,1200
673,1713859587639038431,2040,2038,2031,2036,2033,2021,1192
674,1713859587649019198,2054,2046,2019,2038,2040,2032,1194
675,1713859587659018520,2053,2036,1977,2062,2056,2047,1192
676,1713859587669017761,2053,2080,2210,2073,2054,2046,1192
677,1713859587679027587,2057,2045,2020,2045,2046,2057,1196
678,1713859587689020470,2073,2089,2110,2063,2047,2050,1194
679,1713859587699017267,2092,2110,2116,2083,2096,2068,1194
680,1713859587709017089,2056,2044,2022,2054,2058,2044,1192
681,1713859587719024612,2084,2064,2041,2060,2072,2061,1193
682,1713859587729020969,2061,2056,2041,2043,2034,2012,1192
683,1713859587739020401,2043,2052,2056,2060,2056,2052,1195
684,1713859587749017129,2052,2050,2051,2052,2039,2042,1192
685,1713859587759022068,2053,2058,2095,2040,2055,2072,1196
686,1713859587769016363,2041,2014,1966,2037,2041,2049,1196
687,1713859587779029974,2053,2044,2045,2041,2046,2030,1193
688,1713859587789024689,2092,2124,2230,2086,2097,2115,1193
689,1713859587799023549,2047,2045,2043,2052,2068,2050,1195
690,1713859587809020378,2058,2033,2013,2039,2031,2032,1193
691,1713859587819024616,2090,2111,2208,2085,2085,2082,1197
692,1713859587829038767,2047,2029,2001,2040,2016,2044,1196
693,1713859587839021316,2050,2050,2052,2056,2051,2061,1196
694,1713859587849018154,2043,2027,2004,2037,2031,2047,1193
695,1713859587859019989,2054,2058,2030,2044,2020,2035,1194
696,1713859587869016877,2047,2039,2019,2055,2061,2070,1196
697,1713859587879021786,2060,2034,1944,2038,2053,2035,1194
698,1713859587889018715,2085,2085,1997,2068,2064,2048,1197
699,1713859587899029571,2053,2040,2031,2040,2042,2034,1194
700,1713859587909020672,2040,2036,2035,2044,2041,2040,1193
701,1713859587919029045,2062,2064,2014,2060,2068,2069,1194
702,1713859587929024081,2045,2041,2070,2047,2044,2045,1192
703,1713859587939016754,2056,2045,2024,2047,2061,2045,1194
704,1713859587949020601,2074,2082,2072,2076,2073,2068,1195
705,1713859587959018701,2052,2039,2018,2040,2050,2061,1195
706,1713859587969020395,2042,2059,2120,2076,2109,2109,1194
707,1713859587979017464,2046,2033,2020,2037,2054,2050,1195
708,1713859587989019409,2064,2067,2069,2064,2028,2057,1194
709,1713859587999022996,2058,2060,2075,2047,2040,2045,1191
710,1713859588009016638,2044,2038,2029,2041,2038,2075,1194
711,1713859588019036201,2053,2048,2021,2057,2066,2056,1195
712,1713859588029023882,2052,2047,2026,2052,2042,2047,1194
713,1713859588039018732,2070,2090,2163,2074,2080,2060,1194
714,1713859588049016466,2046,2040,2026,2052,2059,2048,1196
715,1713859588059018346,2069,2061,2076,2072,2075,2076,1197
716,1713859588069018412,2045,2039,2020,2045,2045,2052,1194
717,1713859588079022875,2046,2030,2023,2034,2016,2047,1194
718,1713859588089021120,2049,2047,2020,2057,2043,2037,1193
719,1713859588099022900,2060,2060,2091,2046,2046,2064,1197
720,1713859588109020574,2063,2112,2185,2095,2063,2074,1196
721,1713859588119019589,2050,2040,2005,2049,2042,2051,1194
722,1713859588129018765,2044,2040,2044,2051,2050,2052,1196
723,1713859588139018742,2056,2052,2054,2064,2062,2076,1196
724,1713859588149015916,2046,2044,2016,2045,2032,2030,1194
725,1713859588159028640,2032,2029,2014,2047,2036,2056,1195
726,1713859588169024551,2081,2130,2278,2084,2090,2080,1196
727,1713859588179021534,2040,2032,2060,2046,2032,2052,1196
728,1713859588189018668,2047,2045,2028,2030,2045,2050,1196
729,1713859588199021659,2059,2064,2110,2049,2046,2089,1195
730,1713859588209024409,2040,2041,1986,2055,2052,2062,1196
731,1713859588219015224,2056,2052,2089,2073,2017,2045,1195
732,1713859588229021079,2053,2056,2080,2063,2052,2029,1196
733,1713859588239021787,2056,2037,2024,2052,2047,2041,1193
734,1713859588249018289,2046,2036,2025,2047,2058,2082,1196
735,1713859588259030192,2052,2060,2080,2061,2060,2047,1194
736,1713859588269189313,2077,2128,2218,2076,2066,2055,1196
737,1713859588279017850,2075,2078,1989,2086,2088,2069,1197
738,1713859588289020540,2037,2022,1975,2044,2069,2047,1192
739,1713859588299017494,2082,2088,2164,2054,2033,2072,1196
740,1713859588309016719,2041,2029,1987,2041,2043,2056,1196
741,1713859588319017177,2047,2041,2035,2064,2059,2041,1192
742,1713859588329009203,2052,2056,2040,2068,2074,2098,1196
743,1713859588339019495,2061,2074,2066,2075,2039,2042,1193
744,1713859588349019592,2054,2032,1971,2060,2057,2064,1195
745,1713859588359053634,2058,2069,2088,2072,2112,2059,1193
746,1713859588369048454,2056,2071,2081,2044,2041,2021,1193
747,1713859588379042203,2068,2087,2136,2058,2044,2053,1195
748,1713859588389033579,2061,2066,2123,2040,2042,2068,1195
749,1713859588399039393,2024,2032,1968,2053,2058,2065,1197
750,1713859588409033973,2047,2041,2021,2066,2061,2053,1195
751,1713859588419028933,2039,2039,2045,2050,2058,2066,1197
752,1713859588429027739,2050,2046,2058,2045,2024,2068,1194
753,1713859588438965942,2042,2029,1973,2048,2068,2053,1195
754,1713859588449026911,2060,2067,2045,2053,2039,2052,1197
755,1713859588459026548,2030,2031,2027,2036,2052,2041,1194
756,1713859588469027967,2062,2054,2011,2056,2046,2054,1195
757,1713859588479044516,2040,2034,1980,2052,2060,2061,1198
758,1713859588489043091,2065,2059,2079,2063,2038,2050,1196
759,1713859588499037771,2069,2089,2134,2063,2040,2032,1193
760,1713859588509032511,2053,2043,2034,2036,2047,2054,1197
761,1713859588519030926,2057,2046,2042,2057,2052,2061,1192
762,1713859588529021360,2047,2038,2065,2064,2071,2041,1193
763,1713859588539053300,2033,2018,1968,2046,2050,2036,1193
764,1713859588549017920,2057,2052,1985,2066,2047,2056,1197
765,1713859588559018147,2053,2040,2037,2073,2076,2047,1194
766,1713859588568996495,2032,2001,1947,2042,2045,2013,1193
767,1713859588579020064,2056,2036,1960,2037,2056,2046,1195
768,1713859588589016216,2052,2037,2018,2062,2035,2052,1196
769,1713859588599022511,2045,2032,2008,2056,2080,2061,1195
770,1713859588609025672,2058,2062,2052,2085,2072,2054,1194
771,1713859588619004771,2056,2060,2089,2072,2082,2064,1196
772,1713859588629018687,2044,2023,1990,2046,2061,2058,1198
773,1713859588639028377,2062,2070,1985,2061,2066,2077,1196
774,1713859588649026372,2052,2041,2069,2039,2034,2061,1196
775,1713859588659021873,2050,2072,2097,2056,2022,2020,1194
776,1713859588669016292,2048,2049,2022,2052,2046,2066,1195
777,1713859588679015278,2041,2040,2028,2080,2053,2047,1194
778,1713859588689030666,2069,2089,2168,2061,2032,2053,1197
779,1713859588699015502,2056,2052,2070,2056,2078,2050,1196
780,1713859588709017802,2053,2036,1996,2042,2079,2060,1195
781,1713859588719019692,2045,2029,1989,2024,2017,2033,1192
782,1713859588729014151,2029,2018,1954,2042,2033,2020,1193
783,1713859588739034396,2081,2108,2072,2097,2078,2049,1197
784,1713859588749027934,2052,2049,2045,2046,2026,2043,1194
785,1713859588759022474,2051,2060,2056,2061,2030,2049,1196
786,1713859588768986833,2046,2037,2044,2045,2042,2075,1197
787,1713859588779020305,2048,2047,2064,2044,2041,2033,1193
788,1713859588789017058,2040,2004,1956,2025,2037,2023,1194
789,1713859588799019578,2075,2068,2064,2082,2078,2060,1196
790,1713859588809015460,2046,2040,2011,2073,2064,2052,1195
791,1713859588819001027,2047,2058,2053,2049,2033,2048,1195
792,1713859588829017446,2062,2064,2126,2082,2084,2065,1197
793,1713859588839015110,2037,2038,2044,2059,2062,2049,1195
794,1713859588849013756,2072,2088,2111,2081,2072,2055,1195
795,1713859588859016225,2072,2076,2112,2058,2060,2036,1194
796,1713859588869013780,2054,2038,2044,2054,2049,2042,1192
797,1713859588879032201,2059,2052,2029,2056,2069,2067,1196
798,1713859588889026771,2061,2068,2064,2061,2054,2044,1193
799,1713859588899021651,2063,2080,2149,2088,2075,2080,1196
800,1713859588909014778,2054,2050,2032,2044,2049,2052,1195
801,1713859588919023708,2045,2035,2024,2028,2046,2046,1191
802,1713859588929016815,2075,2106,2170,2076,2047,2042,1194
803,1713859588939018635,2054,2044,2032,2044,2032,2033,1192
804,1713859588949015207,2057,2080,2153,2104,2078,2053,1196
805,1713859588959017368,2057,2055,2074,2071,2058,2048,1196
806,1713859588969021249,2057,2043,2028,2068,2052,2056,1195
807,1713859588979014698,2060,2065,2064,2070,2033,2046,1193
808,1713859588989029154,2046,2040,2001,2016,2021,2047,1191
809,1713859588999022903,2114,2178,2305,2114,2089,2118,1196
810,1713859589009018251,2052,2053,2046,2059,2001,2052,1197
811,1713859589019016478,2040,2042,2065,2064,2056,2026,1194
812,1713859589029016599,2084,2096,2125,2062,2072,2068,1197
813,1713859589039018181,2055,2060,2083,2053,2052,2052,1198
814,1713859589049015267,2049,2043,2036,2045,2043,2046,1192
815,1713859589059015217,2054,2051,2028,2051,2040,2046,1192
816,1713859589069015088,2060,2061,2042,2060,2078,2048,1195
817,1713859589079017180,2059,2062,2139,2046,2053,2036,1192
818,1713859589088986890,2052,2042,2023,2042,2037,2055,1196
819,1713859589099020345,2041,2036,2004,2015,2041,2036,1196
820,1713859589109018422,2061,2028,1940,2032,2030,2090,1196
821,1713859589119019054,2056,2030,1975,2018,2036,2042,1191
822,1713859589129029428,2056,2056,2080,2052,2054,2056,1195
823,1713859589139023830,2050,2042,2029,2032,2037,2038,1193
824,1713859589149018263,2088,2112,2137,2070,2040,2062,1196
825,1713859589159016570,2050,2044,2030,2050,2054,2052,1197
826,1713859589169015579,2056,2050,2038,2060,2052,2057,1196
827,1713859589179030109,2048,2053,2079,2064,2056,2034,1192
828,1713859589189018714,2061,2070,2020,2086,2076,2082,1195
829,1713859589199019996,2048,2019,1977,2043,2052,2044,1191
830,1713859589209029028,2053,2049,2052,2059,2053,2046,1194
831,1713859589219045360,2044,1995,1893,2027,2030,2058,1195
832,1713859589229029108,2072,2086,2095,2068,2073,2070,1196
833,1713859589239026295,2042,2030,2020,2041,2048,2044,1193
834,1713859589249024022,2047,2045,2037,2045,2049,2045,1192
835,1713859589259021839,2065,2076,2080,2072,2065,2058,1195
836,1713859589269018996,2072,2079,2120,2061,2054,2066,1195
837,1713859589279017323,2035,2022,2002,2040,2066,2045,1194
838,1713859589289017303,2047,2024,1989,2028,2062,2072,1196
839,1713859589299015982,2061,2059,2027,2054,2056,2051,1196
840,1713859589309015602,2067,2080,2072,2065,2060,2046,1194
841,1713859589319015201,2064,2068,2069,2052,2050,2065,1195
842,1713859589329015542,2056,2060,2100,2056,2040,2054,1195
843,1713859589339014961,2049,2028,1992,2042,2040,2034,1193
844,1713859589349018376,2066,2076,2060,2072,2050,2044,1193
845,1713859589359023473,2056,2032,2002,2052,2032,2032,1193
846,1713859589369035590,2064,2036,1992,2021,2026,2045,1193
847,1713859589379021972,2051,2059,2060,2058,2064,2024,1194
848,1713859589389022843,2050,2048,2060,2072,2060,2050,1195
849,1713859589399018967,2064,2073,2152,2079,2064,2082,1196
850,1713859589409029031,2060,2051,2040,2052,2060,2068,1196
851,1713859589419021962,2058,2077,2093,2066,2048,2064,1196
852,1713859589429013872,2052,2052,2042,2049,2039,2052,1196
853,1713859589439024075,2059,2052,2037,2052,2038,2052,1196
854,1713859589449020551,2057,2080,2161,2080,2064,2049,1197
855,1713859589459019749,2041,2037,2044,2049,2063,2036,1195
856,1713859589469035561,2040,2044,2042,2026,2038,2049,1196
857,1713859589479026930,2057,2046,1983,2061,2057,2076,1194
858,1713859589489025258,2060,2062,2061,2069,2075,2040,1192
859,1713859589499017327,2044,2041,2028,2070,2090,2072,1196
860,1713859589509027210,2056,2055,2045,2055,2057,2049,1194
861,1713859589519025748,2052,2047,2026,2037,2048,2050,1192
862,1713859589529019400,2053,2021,1926,2010,2019,2040,1191
863,1713859589539019811,2047,2020,1979,2036,2051,2058,1195
864,1713859589549019481,2056,2028,1988,2039,2054,2080,1197
865,1713859589559016006,2052,2047,2025,2047,2041,2042,1193
866,1713859589569021534,2052,2054,2056,2046,2052,2057,1193
867,1713859589579035613,2056,2043,2033,2035,2088,2083,1195
868,1713859589589017429,2086,2114,2217,2084,2078,2088,1197
869,1713859589599020563,2057,2040,2017,2074,2050,2052,1196
870,1713859589609034903,2061,2056,2050,2064,2050,2045,1193
871,1713859589619028714,2051,2036,2012,2064,2066,2059,1197
872,1713859589629022006,2064,2102,2222,2093,2051,2071,1196
873,1713859589639021115,2061,2066,2128,2063,2067,2060,1196
874,1713859589649018061,2052,2044,2073,2050,2051,2062,1196
875,1713859589659019603,2046,2052,2082,2054,2044,2044,1192
876,1713859589669020044,2054,2056,2047,2033,2025,2053,1199
877,1713859589679018632,2042,2036,1996,2052,2051,2045,1194
878,1713859589689020154,2056,2057,2049,2042,2072,2062,1197
879,1713859589699021296,2062,2045,2027,2043,2087,2038,1193
880,1713859589709035145,2042,2026,1979,2034,2045,2057,1196
881,1713859589719030168,2046,2035,2024,2038,2044,2052,1196
882,1713859589729023239,2053,2051,1994,2049,2026,2037,1196
883,1713859589739021537,2047,2060,2098,2079,2073,2048,1193
884,1713859589748993499,2052,2043,2034,2042,2044,2067,1197
885,1713859589759022879,2056,2065,2106,2053,2015,2042,1192
886,1713859589769022960,2064,2072,2071,2077,2102,2069,1196
887,1713859589779019315,2037,2025,1966,2045,2048,2028,1196
888,1713859589789017212,2045,2033,2013,2037,2049,2044,1193
889,1713859589799023040,2064,2060,2063,2038,2056,2038,1194
890,1713859589809022389,2069,2061,2042,2073,2077,2050,1196
891,1713859589819029299,2051,2044,2014,2030,2016,2036,1193
892,1713859589829021428,2082,2116,2160,2083,2052,2061,1197
893,1713859589839038551,2058,2057,2069,2053,2046,2022,1196
894,1713859589849015741,2068,2092,2146,2060,2037,2040,1193
895,1713859589859011926,2052,2052,2044,2050,2031,2042,1192
896,1713859589869026235,2052,2033,1956,2069,2062,2060,1194
897,1713859589879019036,2060,2056,2005,2054,2050,2053,1195
898,1713859589889017144,2049,2053,2056,2047,2040,2050,1196
899,1713859589899020518,2059,2069,2132,2062,2050,2056,1198
900,1713859589909024013,2044,2053,2044,2050,2053,2068,1194
901,1713859589919027287,2042,2028,2012,2060,2065,2044,1192
902,1713859589929020098,2063,2074,2077,2075,2046,2050,1198
903,1713859589939018266,2048,2048,2043,2049,2044,2053,1196
904,1713859589949019888,2058,2058,2041,2050,2052,2041,1193
905,1713859589959030462,2042,2050,2079,2085,2058,2042,1194
906,1713859589969026046,2074,2065,2113,2050,2041,2045,1192
907,1713859589979021300,2060,2057,2047,2066,2073,2048,1195
908,1713859589989016324,2054,2043,2033,2050,2059,2078,1196
909,1713859589999056628,2046,2072,2074,2079,2047,2044,1192
910,1713859590009049575,2042,2035,2067,2067,2073,2040,1192
911,1713859590019046082,2053,2056,2048,2058,2060,2068,1196
912,1713859590029036351,2055,2047,2033,2050,2051,2048,1197
913,1713859590039031085,2080,2072,2037,2061,2076,2097,1197
914,1713859590049028544,2045,2037,2009,2047,2043,2032,1192
915,1713859590059028075,2049,2030,1999,2040,2028,2072,1195
916,1713859590069028908,2056,2057,2043,2060,2034,2049,1197
917,1713859590079030232,2013,2026,1982,2049,2037,2043,1194
918,1713859590089030634,2037,2012,1962,2056,2042,2100,1197
919,1713859590099121468,2052,2050,2049,2072,2078,2067,1195
920,1713859590109080755,2065,2056,2022,2064,2053,2048,1195
921,1713859590119056074,2062,2070,2095,2056,2078,2034,1192
922,1713859590129052331,2054,2062,2040,2075,2059,2053,1196
923,1713859590139046295,2057,2045,1986,2057,2069,2059,1195
924,1713859590149041319,2049,2025,2018,2047,2044,2048,1195
925,1713859590159036475,2067,2064,2038,2066,2070,2058,1197
926,1713859590169030359,2054,2051,2029,2068,2055,2038,1193
927,1713859590179024362,2064,2065,2074,2062,2047,2070,1194
928,1713859590189019237,2058,2066,2115,2069,2064,2050,1194
929,1713859590199031386,2046,2036,1982,2034,2021,2038,1192
930,1713859590209055620,2064,2069,2112,2053,2062,2060,1193
931,1713859590219034824,2064,2036,2042,2053,2050,2053,1196
932,1713859590229028087,2032,2021,2012,2051,1999,2049,1198
933,1713859590239020839,2074,2089,2121,2080,2042,2049,1196
934,1713859590249017676,2046,2043,2046,2051,2062,2065,1197
935,1713859590259017558,2076,2076,2037,2057,2038,2044,1194
936,1713859590269031218,2087,2107,2102,2067,2054,2044,1194
937,1713859590279011944,2050,2056,2038,2042,2037,2038,1194
938,1713859590289019305,2068,2059,2061,2069,2069,2056,1194
939,1713859590299021781,2049,2029,2013,2034,2012,2049,1197
940,1713859590309033088,2056,2073,2073,2067,2088,2078,1198
941,1713859590319031157,2056,2049,2037,2050,2075,2064,1194
942,1713859590329018242,2056,2066,2060,2050,2040,2020,1193
943,1713859590338976928,2057,2052,2061,2044,2056,2062,1194
944,1713859590349029160,2056,2036,2036,2071,2043,2035,1193
945,1713859590359024025,2056,2036,2062,2046,2034,2029,1194
946,1713859590369019971,2033,2043,2042,2024,2033,2054,1197
947,1713859590379018091,2052,2072,2099,2048,2037,2046,1194
948,1713859590389017331,2064,2060,2038,2072,2066,2062,1196
949,1713859590399021268,2057,2048,2057,2071,2048,2049,1195
950,1713859590409020639,2040,2020,1931,2046,2067,2084,1196
951,1713859590419025358,2071,2073,2008,2080,2094,2066,1196
952,1713859590429020483,2042,2031,2001,2050,2049,2037,1196
953,1713859590439017160,2036,2020,1964,2062,2072,2042,1195
954,1713859590449029339,2017,2030,2034,2058,2068,2037,1193
955,1713859590459026737,2060,2035,1977,2043,2045,2046,1193
956,1713859590469020140,2046,2043,2047,2046,2052,2041,1193
957,1713859590479020232,2057,2073,2025,2073,2053,2028,1192
958,1713859590489017771,2040,2036,1968,2033,2025,2030,1194
959,1713859590499019996,2058,2032,1986,2021,2043,2050,1194
960,1713859590509019997,2056,2045,2017,2080,2060,2052,1197
961,1713859590519026878,2056,2040,2029,2051,2062,2052,1194
962,1713859590529022004,2059,2057,2105,2062,2069,2057,1196
963,1713859590539020954,2042,2035,2042,2056,2061,2062,1196
964,1713859590549018833,2061,2053,2038,2038,2049,2060,1197
965,1713859590559018304,2102,2160,2377,2106,2117,2080,1195
966,1713859590569020749,2045,2035,2043,2060,2075,2046,1193
967,1713859590579025788,2048,2041,2019,2044,2039,2052,1197
968,1713859590589031057,2054,2040,1987,2058,2059,2069,1196
969,1713859590598979549,2053,2036,1996,2060,2069,2045,1195
970,1713859590609020446,2072,2109,2136,2075,2075,2072,1197
971,1713859590619025806,2057,2036,2006,2033,2062,2045,1193
972,1713859590629015143,2045,2047,2024,2054,2064,2036,1194
973,1713859590639019421,2072,2061,2045,2065,2076,2077,1196
974,1713859590649019102,2038,2032,2011,2022,2030,2038,1193
975,1713859590659018573,2056,2056,2062,2065,2070,2047,1193
976,1713859590669023581,2069,2077,2056,2080,2064,2066,1196
977,1713859590679018637,2057,2041,2037,2002,2006,2056,1197
978,1713859590689011489,2051,2041,2014,2031,2041,2031,1194
979,1713859590699037596,2059,2076,2120,2065,2068,2047,1192
980,1713859590709047501,2052,2052,2056,2062,2052,2048,1198
981,1713859590719031561,2048,2042,2029,2044,2053,2046,1193
982,1713859590729012188,2065,2062,2101,2052,2045,2040,1193
983,1713859590739020099,2064,2098,2149,2062,2048,2064,1195
984,1713859590749019541,2056,2057,2069,2054,2055,2066,1195
985,1713859590759022046,2053,2041,2013,2049,2021,2050,1194
986,1713859590769020406,2051,2049,2034,2041,2047,2072,1193
987,1713859590779018425,2046,2024,1995,2044,2056,2048,1194
988,1713859590789018357,2042,2038,1993,2049,2045,2056,1196
989,1713859590799023135,2052,2040,2036,2021,2027,2040,1193
990,1713859590809024248,2052,2051,2081,2078,2088,2060,1195
991,1713859590819020655,2057,2049,2044,2047,2064,2026,1192
992,1713859590829032593,2050,2044,2001,2052,2046,2045,1195
993,1713859590839028560,2072,2049,2008,2055,2054,2047,1195
994,1713859590849017246,2057,2061,1986,2050,2016,2037,1194
995,1713859590859021223,2045,2037,2028,2069,2060,2039,1193
996,1713859590869031830,2068,2070,2064,2075,2056,2049,1195
997,1713859590879021757,2060,2053,2028,2089,2097,2061,1197
998,1713859590889020438,2053,2054,2099,2058,2065,2074,1196
999,1713859590899020570,2053,2026,1992,2052,2073,2049,1196
1000,1713859590909002577,2044,2038,2020,2044,2057,2049,1197
1001,1713859590919042293,2072,2122,2230,2100,2088,2061,1192
1002,1713859590929011984,2048,2039,2005,2050,2040,2036,1193
1003,1713859590939028608,2044,2045,2032,2056,2049,2084,1198
1004,1713859590949024564,2064,2033,2010,2040,2036,2063,1194
1005,1713859590959019169,2040,2037,2029,2037,2037,2037,1194
1006,1713859590969035032,2043,2042,2006,2072,2081,2052,1195
1007,1713859590979018592,2052,2064,2119,2057,2085,2046,1194
1008,1713859590989019565,2031,2025,2038,2028,2050,2030,1192
1009,1713859590999023722,2072,2084,2091,2072,2062,2066,1194
1010,1713859591009025083,2056,2045,2029,2059,2053,2053,1196
1011,1713859591019022862,2052,2058,2056,2052,2051,2040,1195
1012,1713859591029019980,2049,2036,2012,2035,2047,2050,1197
1013,1713859591039019572,2047,2045,2080,2029,2035,2037,1193
1014,1713859591049020916,2057,2059,2050,2043,2040,2040,1194
1015,1713859591059018204,2060,2080,2120,2087,2058,2057,1197
1016,1713859591069023283,2060,2079,2084,2076,2053,2119,1197
1017,1713859591079031196,2053,2047,2029,2032,2044,2028,1194
1018,1713859591089026112,2047,2032,2017,2066,2068,2078,1197
1019,1713859591099020616,2072,2078,2141,2064,2053,2093,1197
1020,1713859591109024784,2041,2030,1976,2032,2052,2030,1193
1021,1713859591119021962,2052,2045,2047,2024,2025,2061,1194
1022,1713859591129023367,2066,2052,2035,2045,2048,2052,1194
1023,1713859591139021396,2093,2104,2163,2082,2085,2069,1196
1024,1713859591149023491,2061,2043,2049,2048,2053,2026,1193
1025,1713859591159020189,2050,2034,1968,2056,2047,2037,1195
1026,1713859591169020782,2085,2100,2114,2069,2045,2053,1195
1027,1713859591179033010,2049,2043,2056,2023,2034,2042,1192
1028,1713859591189027545,2061,2040,2019,2040,2041,2050,1196
1029,1713859591199022761,2071,2063,2062,2046,2035,2060,1196
1030,1713859591209024385,2052,2050,2052,2081,2097,2052,1197
1031,1713859591219022995,2048,2034,2003,2050,2047,2042,1195
1032,1713859591229022306,2054,2048,2016,2038,2057,2059,1197
1033,1713859591239022549,2046,2029,2007,2039,2036,2028,1193
1034,1713859591249019808,2056,2059,2140,2064,2072,2047,1194
1035,1713859591259020210,2066,2056,2046,2054,2056,2054,1196
1036,1713859591269021654,2065,2068,2057,2050,2038,2045,1191
1037,1713859591279019724,2060,2072,2077,2108,2145,2066,1196
1038,1713859591289001532,2064,2066,2054,2057,2064,2045,1193
1039,1713859591299020599,2052,2054,2080,2052,2058,2049,1196
1040,1713859591309022704,2045,2026,1980,2040,2045,2040,1192
1041,1713859591319035995,2050,2047,2044,2063,2064,2049,1194
1042,1713859591329028306,2040,2044,2015,2044,2044,2032,1193
1043,1713859591339024043,2084,2125,2245,2051,2053,2045,1194
1044,1713859591349022623,2050,2041,2036,2057,2046,2038,1193
1045,1713859591359019331,2072,2073,2108,2090,2067,2086,1197
1046,1713859591368995741,2045,2036,1994,2053,2043,2040,1191
1047,1713859591379021378,2056,2038,1992,2052,2064,2053,1196
1048,1713859591389019097,2053,2045,2040,2040,2041,2047,1193
1049,1713859591399022013,2092,2113,2121,2075,2102,2109,1198
1050,1713859591409022015,2059,2064,2070,2057,2029,2052,1195
1051,1713859591419018773,2054,2049,2049,2022,2015,2045,1195
1052,1713859591429029669,2057,2058,2066,2089,2077,2058,1196
1053,1713859591439025176,2064,2064,2125,2069,2068,2060,1194
1054,1713859591449021353,2052,2051,2042,2042,2034,2056,1196
1055,1713859591459018341,2056,2047,2049,2036,1906,2028,1194
1056,1713859591469023160,2036,2038,2061,2066,2084,2044,1193
1057,1713859591479019257,2061,2065,2128,2058,2100,2063,1197
1058,1713859591488998821,2044,2033,2001,2051,2117,2033,1194
1059,1713859591499022916,2059,2036,1961,2063,2073,2070,1197
1060,1713859591509023810,2061,2058,2024,2011,2035,2056,1197
1061,1713859591519017063,2045,2049,2061,2056,2083,2072,1193
1062,1713859591529019428,2056,2046,1986,2056,2052,2066,1193
1063,1713859591539022113,2064,2057,2088,2070,2042,2043,1192
1064,1713859591549026943,2042,2032,1992,2046,2042,2020,1192
1065,1713859591559018884,2047,2033,2015,2045,2063,2049,1195
1066,1713859591569029670,2042,2039,1979,2024,2022,2045,1193
1067,1713859591579031235,2040,2029,2025,2052,2073,2069,1195
1068,1713859591589020753,2068,2085,2136,2062,2056,2060,1192
1069,1713859591599010641,2044,2030,2006,2050,2057,2043,1192
1070,1713859591609020777,2050,2046,2030,2070,2088,2034,1192
1071,1713859591619015712,2043,2043,2031,2065,2060,2056,1196
1072,1713859591629021322,2060,2084,2113,2060,2058,2068,1198
1073,1713859591639020894,2053,2036,1991,2033,2002,2038,1193
1074,1713859591649057194,2043,2044,2066,2055,2043,2038,1193
1075,1713859591659051489,2056,2060,2072,2045,2031,2049,1198
1076,1713859591669045914,2057,2065,2051,2029,2064,2088,1195
1077,1713859591679038456,2077,2071,2022,2073,2044,2090,1197
1078,1713859591689033191,2049,2045,2037,2052,2051,2046,1193
1079,1713859591699032943,2049,2046,2048,2058,2056,2038,1193
1080,1713859591709031814,2067,2088,2141,2064,2043,2057,1196
1081,1713859591719029833,2048,2036,2020,2036,2040,2034,1192
1082,1713859591729033470,2058,2053,2009,2065,2060,2052,1196
1083,1713859591739029297,2047,2047,2052,2053,2072,2052,1195
1084,1713859591749029890,2027,1993,1880,2026,2056,2036,1192
1085,1713859591759029211,2032,1987,1869,2030,2026,2021,1191
1086,1713859591769055208,2050,2041,2005,2052,2073,2045,1192
1087,1713859591779049332,2052,2047,2040,2053,2049,2053,1194
1088,1713859591789043747,2030,2030,2021,2060,2104,2079,1197
1089,1713859591799036199,2057,2067,2128,2050,2025,2030,1192
1090,1713859591809032095,2052,2041,2034,2050,2045,2033,1190
1091,1713859591819024277,2092,2148,2311,2088,2072,2092,1197
1092,1713859591829023108,2058,2059,2054,2050,2024,2057,1197
1093,1713859591839053220,2050,2047,2068,2052,2036,2046,1192
1094,1713859591849047565,2052,2057,2067,2060,2037,2038,1194
1095,1713859591859031375,2053,2063,2120,2062,2071,2047,1192
1096,1713859591869020363,2042,2046,2067,2052,2005,2052,1195
1097,1713859591879023689,2056,2048,2033,2059,2060,2063,1195
1098,1713859591889022440,2050,2057,2092,2049,2043,2045,1192
1099,1713859591899017746,2059,2064,2030,2066,2057,2041,1194
1100,1713859591909017718,2033,2039,2003,2066,2052,2056,1195
1101,1713859591919030367,2058,2052,2060,2051,2109,2064,1193
1102,1713859591929024851,2073,2076,2052,2088,2073,2099,1193
1103,1713859591939019857,2048,2037,2024,2046,2038,2040,1191
1104,1713859591949022503,2056,2054,2052,2054,2088,2052,1197
1105,1713859591959014995,2074,2096,2148,2084,2066,2061,1194
1106,1713859591969020004,2070,2100,2133,2061,2037,2063,1197
1107,1713859591979020667,2049,2041,2032,2040,2045,2040,1194
1108,1713859591989025375,2060,2033,2041,2043,2041,2022,1195
1109,1713859591999026068,2042,2030,2011,2078,2067,2052,1196
1110,1713859592009028029,2064,2079,2112,2079,2069,2054,1196
1111,1713859592019029874,2057,2052,2043,2067,2068,2052,1195
1112,1713859592029019240,2060,2054,2062,2062,2057,2064,1195
1113,1713859592039018931,2056,2066,2104,2068,2079,2072,1196
1114,1713859592049031179,2050,2047,2041,2049,2044,2045,1193
1115,1713859592059031701,2041,2034,2027,2047,2042,2034,1193
1116,1713859592069033114,2060,2064,2078,2055,2085,2094,1196
1117,1713859592079017834,2050,2048,2049,2060,2049,2044,1192
1118,1713859592089009495,2050,2043,2110,2043,2036,2022,1193
1119,1713859592099023835,2066,2052,1984,2041,2062,2071,1194
1120,1713859592109032318,2046,2040,2039,2047,2045,2037,1193
1121,1713859592119028905,2030,2024,2001,2037,2033,2045,1193
1122,1713859592129016419,2058,2060,2050,2052,2049,2050,1195
1123,1713859592139021627,2049,2041,2030,2049,2074,2051,1193
1124,1713859592149019626,2048,2045,2066,2043,2042,2052,1194
1125,1713859592159034317,2056,2067,2098,2072,2071,2068,1195
1126,1713859592169031313,2057,2047,2041,2065,2073,2056,1194
1127,1713859592179024395,2041,2036,2024,2044,2056,2048,1194
1128,1713859592189016566,2082,2090,2020,2097,2092,2087,1194
1129,1713859592199024699,2047,2044,2042,2062,2047,2030,1190
1130,1713859592209031780,2063,2047,2034,2060,2068,2094,1195
1131,1713859592219023590,2049,2033,1972,2056,2088,2046,1192
1132,1713859592229019976,2050,2040,2002,2029,2035,2048,1195
1133,1713859592238994302,2052,2068,2024,2065,2050,2044,1192
1134,1713859592249022362,2060,2040,2016,2036,2044,2052,1194
1135,1713859592259021211,2050,2040,2030,2052,2056,2048,1192
1136,1713859592269022485,2079,2136,2272,2085,2059,2100,1195
1137,1713859592279024609,2041,2027,2005,2041,2047,2040,1191
1138,1713859592289021075,2051,2050,2047,2056,2049,2046,1191
1139,1713859592299036697,2057,2060,2058,2040,2034,2012,1190
1140,1713859592309032633,2072,2088,2119,2092,2101,2078,1197
1141,1713859592319027297,2050,2040,2048,2055,2061,2061,1193
1142,1713859592329025495,2055,2040,2008,2065,2048,2049,1194
1143,1713859592339023173,2065,2077,2082,2047,2037,2048,1196
1144,1713859592349021653,2042,2014,1997,2042,2062,2028,1192
1145,1713859592359022435,2053,2045,2046,2043,1997,2040,1193
1146,1713859592369021465,2053,2057,2026,2072,2050,2054,1196
1147,1713859592379024861,2041,2024,1984,2044,2064,2045,1193
1148,1713859592389024071,2055,2034,2003,2061,2046,2044,1189
1149,1713859592399019045,2066,2066,2132,2048,2024,2064,1196
1150,1713859592409033727,2058,2058,2078,2085,2069,2064,1193
1151,1713859592419028220,2049,2047,2056,2050,2066,2057,1195
1152,1713859592429023415,2073,2079,2117,2076,2081,2070,1197
1153,1713859592439021484,2057,2057,2020,2073,2056,2052,1196
1154,1713859592449020544,2057,2057,2046,2059,2053,2043,1192
1155,1713859592459022397,2050,2046,2013,2047,2036,2030,1193
1156,1713859592469023610,2062,2059,2036,2067,2069,2050,1196
1157,1713859592479023451,2041,2036,2030,2044,2057,2043,1192
1158,1713859592489020158,2049,2042,1989,2073,2037,2042,1192
1159,1713859592499020399,2072,2088,2154,2046,2037,2069,1196
1160,1713859592509020511,2046,2037,2015,2041,2042,2042,1193
1161,1713859592519021844,2070,2085,2126,2058,2083,2082,1194
1162,1713859592529022907,2053,2047,2030,2061,2058,2058,1194
1163,1713859592539021496,2044,2027,2026,2041,2049,2016,1192
1164,1713859592549034835,2111,2157,2236,2096,2066,2061,1194
1165,1713859592559029379,2047,2035,2014,2050,2038,2043,1192
1166,1713859592569025835,2056,2053,2050,2069,2057,2052,1195
1167,1713859592579023644,2056,2050,2059,2056,2052,2045,1193
1168,1713859592589025717,2132,2221,2426,2136,2121,2154,1195
1169,1713859592599024026,2052,2059,2073,2054,2034,2045,1193
1170,1713859592609028394,2057,2045,2047,2060,2063,2056,1195
1171,1713859592619022517,2056,2046,2034,2052,2053,2054,1197
1172,1713859592629023790,2054,2057,2052,2056,2049,2054,1196
1173,1713859592639022970,2040,2017,1961,2064,2052,2035,1192
1174,1713859592649070686,2056,2056,2038,2092,2108,2101,1196
1175,1713859592659032045,2069,2090,2105,2060,2049,2025,1192
1176,1713859592669026939,2054,2046,2040,2053,2039,2057,1194
1177,1713859592679027791,2041,2022,1990,2040,2044,2043,1193
1178,1713859592689022135,2040,2028,2000,2069,2108,2051,1196
1179,1713859592699022797,2052,2052,2047,2043,2041,2052,1194
1180,1713859592709024080,2058,2053,2047,2054,2056,2051,1194
1181,1713859592719024091,2050,2047,2036,2054,2053,2049,1192
1182,1713859592729024103,2050,2059,2054,2048,2020,2016,1191
1183,1713859592739021010,2072,2046,1997,2048,2085,2088,1197
1184,1713859592749024045,2064,2061,2075,2065,2045,2050,1194
1185,1713859592759024326,2102,2169,2273,2109,2089,2085,1194
1186,1713859592769024268,2046,2026,1989,2036,2033,2058,1194
1187,1713859592779026011,2056,2052,2030,2092,2114,2062,1193
1188,1713859592789024701,2053,2050,2055,2053,2047,2041,1192
1189,1713859592799032993,2056,2049,2066,2069,2057,2061,1194
1190,1713859592809004846,2078,2101,2114,2088,2084,2076,1194
1191,1713859592819026927,2038,2024,2011,2043,2052,2030,1193
1192,1713859592829027109,2061,2069,2144,2071,2053,2024,1193
1193,1713859592839022804,2047,2047,2060,2051,2047,2053,1197
1194,1713859592849022144,2049,2040,2025,2073,2089,2037,1193
1195,1713859592859023047,2052,2062,2111,2052,2049,2068,1194
1196,1713859592869022047,2055,2048,2039,2056,2052,2052,1195
1197,1713859592879022609,2064,2056,2055,2058,2061,2064,1196
1198,1713859592889039323,2054,2054,2046,2052,2046,2046,1190
1199,1713859592899034417,2054,2049,2047,2056,2048,2050,1195
1200,1713859592909029131,2058,2051,2080,2033,2033,2062,1197
1201,1713859592919026759,2045,2042,2094,2053,2037,2055,1198
1202,1713859592929026590,2035,2033,2008,2063,2046,2043,1192
1203,1713859592939019953,2056,2050,2038,2036,2041,2050,1196
1204,1713859592949023099,2072,2085,2107,2068,2065,2072,1193
1205,1713859592959024532,2037,2026,1997,2034,2038,2003,1193
1206,1713859592969026826,2051,2070,2146,2066,2059,2067,1197
1207,1713859592979029020,2040,2033,2000,2069,2089,2062,1195
1208,1713859592989018607,2049,2047,2051,2059,2052,2050,1194
1209,1713859592999030094,2041,2021,1980,2033,2072,2076,1196
1210,1713859593009020217,2064,2085,2149,2042,2029,2038,1194
1211,1713859593019025954,2046,2034,2028,2051,2056,2046,1193
1212,1713859593029020095,2062,2086,2125,2068,2065,2069,1197
1213,1713859593039022478,2030,2028,2034,2052,2053,2075,1195
1214,1713859593049031980,2066,2081,2060,2077,2047,2041,1194
1215,1713859593059025559,2058,2060,2021,2057,2053,2053,1196
1216,1713859593069019951,2056,2051,2050,2058,2051,2053,1193
1217,1713859593079021492,2057,2052,2057,2060,2049,2064,1194
1218,1713859593089021351,2046,2008,1949,2008,2014,2036,1192
1219,1713859593099022693,2047,2026,2013,2050,2026,2039,1193
1220,1713859593109022551,2055,2042,2004,2043,2046,2055,1196
1221,1713859593119020147,2056,2051,2048,2054,2056,2049,1195
1222,1713859593129019435,2044,2044,2043,2052,2047,2043,1193
1223,1713859593139016951,2053,2050,2060,2053,2050,2047,1194
1224,1713859593149031550,2056,2047,2047,2053,2050,2051,1195
1225,1713859593159026812,2045,2040,2040,2056,2056,2052,1196
1226,1713859593169021184,2045,2069,2126,2056,2028,2032,1193
1227,1713859593179019961,2056,2047,2015,2058,2062,2033,1192
1228,1713859593189023095,2040,2027,2022,2045,2047,2043,1192
1229,1713859593199027460,2052,2054,2024,2073,2075,2074,1196
1230,1713859593209020278,2046,2048,2046,2047,2049,2047,1193
1231,1713859593219020548,2047,2044,2024,2065,2052,2046,1191
1232,1713859593229018364,2072,2090,2144,2074,2085,2054,1197
1233,1713859593239018474,2040,2036,2020,2053,2055,2051,1195
1234,1713859593249025232,2053,2045,2030,2043,2040,2028,1192
1235,1713859593259028054,2041,2032,2000,2032,2057,2072,1196
1236,1713859593269022977,2054,2038,1972,2049,2075,2061,1196
1237,1713859593279023417,2068,2084,2117,2090,2058,2056,1195
1238,1713859593289032569,2045,2040,2014,2052,2045,2031,1195
1239,1713859593299026339,2062,2053,2011,2046,2040,2028,1193
1240,1713859593309061235,2072,2058,2060,2060,2052,2048,1195
1241,1713859593319063958,2056,2053,2074,2062,2052,2051,1194
1242,1713859593329049658,2059,2088,2120,2068,2066,2042,1193
1243,1713859593339044560,2059,2064,2091,2069,2047,2044,1192
1244,1713859593349039492,2062,2064,2112,2073,2061,2056,1195
1245,1713859593359030799,2053,2052,2056,2045,2049,2036,1194
1246,1713859593369027714,2060,2041,1974,2047,2064,2066,1195
1247,1713859593379029045,2089,2133,2236,2118,2102,2062,1196
1248,1713859593389037907,2047,2045,2023,2033,2024,2038,1195
1249,1713859593399009867,2056,2048,2042,2062,2045,2037,1192
1250,1713859593409030324,2059,2052,2074,2043,2084,2092,1193
1251,1713859593419029923,2062,2066,2028,2042,2045,2050,1196
1252,1713859593429029351,2052,2037,2008,2044,2047,2073,1200
1253,1713859593439055796,2045,2039,2067,2050,2053,2024,1193
1254,1713859593449073398,2088,2116,2154,2066,2057,2116,1197
1255,1713859593459043687,2064,2076,2075,2041,2035,2056,1194
1256,1713859593469040022,2052,2044,2044,2054,2046,2050,1196
1257,1713859593479030608,2034,2023,2011,2037,2040,2053,1196
1258,1713859593489024930,2076,2075,2095,2049,2037,2035,1192
1259,1713859593499023056,2050,2045,2091,2031,2024,2047,1192
1260,1713859593509018529,2057,2046,2019,2056,2048,2033,1193
1261,1713859593519023215,2060,2058,2054,2063,2060,2065,1195
1262,1713859593529039416,2064,2062,2025,2050,2042,2057,1196
1263,1713859593539030513,2054,2054,2128,2056,2041,2031,1192
1264,1713859593549026526,2042,2042,2051,2045,2021,1992,1193
1265,1713859593559020277,2046,2018,1969,2074,2101,2058,1193
1266,1713859593569020817,2053,2053,2037,2045,2060,2054,1198
1267,1713859593579018903,2064,2049,2056,2052,2068,2076,1198
1268,1713859593589016710,2048,2043,2047,2037,2049,2040,1196
1269,1713859593599021755,2044,2033,2007,2049,2062,2049,1195
1270,1713859593609021093,2060,2059,2010,2072,2071,2072,1197
1271,1713859593619018489,2051,2072,2169,2079,2124,2091,1197
1272,1713859593629017958,2045,2027,1998,2068,2042,2015,1193
1273,1713859593639032777,2079,2098,2152,2062,2004,2078,1194
1274,1713859593649027558,2049,2045,2031,2029,2038,2023,1192
1275,1713859593659022971,2054,2050,2041,2044,2044,2046,1192
1276,1713859593669020728,2081,2090,2152,2042,2050,2067,1196
1277,1713859593679020697,2032,2009,1979,2051,2072,2049,1197
1278,1713859593689020966,2054,2048,2027,2056,2059,2045,1193
1279,1713859593699023208,2040,2033,2025,2046,2048,2043,1193
1280,1713859593709020834,2052,2062,2028,2059,2046,2035,1193
1281,1713859593719024718,2056,2047,2041,2056,2086,2080,1193
1282,1713859593729026971,2053,2056,2076,2077,2050,2070,1196
1283,1713859593739021992,2056,2056,2073,2046,2041,2040,1193
1284,1713859593749027389,2044,2031,2038,2051,2064,2065,1196
1285,1713859593759019908,2048,2038,2036,2047,2077,2057,1196
1286,1713859593769017144,2045,2037,2016,2040,2047,2061,1197
1287,1713859593779020578,2044,2052,2073,2052,2056,2042,1193
1288,1713859593789029678,2058,2060,2080,2037,2067,2048,1196
1289,1713859593799027665,2046,2027,1988,2083,2062,2041,1192
1290,1713859593809019783,2045,2034,2006,2058,2074,2059,1194
1291,1713859593819027393,2057,2057,2066,2057,2047,2032,1193
1292,1713859593829021955,2065,2051,1968,2044,2031,2060,1197
1293,1713859593839022954,2044,2031,1996,2040,2047,2031,1193
1294,1713859593849026579,2054,2046,2051,2056,2072,2056,1196
1295,1713859593859021501,2057,2054,2080,2058,2080,2063,1195
1296,1713859593869015883,2057,2044,2026,2052,2056,2046,1194
1297,1713859593879021159,2075,2082,2160,2082,2072,2056,1197
1298,1713859593889030650,2044,2033,2013,2064,2074,2056,1194
1299,1713859593899025713,2045,2061,2079,2064,2049,2066,1197
1300,1713859593909020395,2042,2042,2039,2046,2040,2047,1190
1301,1713859593919026633,2049,2051,2039,2053,2044,2045,1192
1302,1713859593929024209,2036,2049,2058,2050,2092,2095,1196
1303,1713859593939021543,2057,2049,2000,2058,2008,2032,1194
1304,1713859593949019500,2053,2058,2104,2047,2045,2045,1193
1305,1713859593959019569,2050,2046,2063,2052,2058,2036,1194
1306,1713859593969020981,2057,2054,2034,2056,2042,2056,1195
1307,1713859593979023072,2050,2041,1997,2058,2053,2056,1195
1308,1713859593989020808,2064,2060,2093,2062,2059,2076,1196
1309,1713859593999020967,2053,2044,2026,2050,2048,2071,1197
1310,1713859594009021092,2052,2037,2007,2037,2037,2043,1194
1311,1713859594019030601,2058,2074,2095,2032,2045,2082,1193
1312,1713859594029013684,2054,2042,1977,2056,2064,2061,1196
1313,1713859594039028510,2051,2030,1989,2043,2045,2049,1198
1314,1713859594049040542,2044,2032,2021,2037,2056,2095,1197
1315,1713859594059021693,2056,2056,2073,2093,2058,2047,1194
1316,1713859594069020026,2062,2050,2024,2048,2018,2046,1194
1317,1713859594079017999,2068,2053,2042,2057,2058,2041,1195
1318,1713859594089016573,2060,2065,2067,2073,2075,2058,1198
1319,1713859594099019543,2053,2042,2046,2067,2054,2049,1197
1320,1713859594109028601,2050,2073,2164,2073,2052,2065,1196
1321,1713859594119021357,2060,2036,2006,2049,2059,2037,1190
1322,1713859594129012140,2045,2024,1990,2043,2047,2053,1196
1323,1713859594139030511,2052,2066,2078,2066,2069,2058,1198
1324,1713859594149025390,2064,2052,2033,2068,2034,2061,1196
1325,1713859594159048187,2066,2058,2069,2060,2043,2040,1194
1326,1713859594169021255,2050,2052,2027,2076,2077,2053,1196
1327,1713859594179021031,2050,2061,2112,2058,2030,2042,1192
1328,1713859594189024392,2065,2067,2088,2068,2056,2085,1195
1329,1713859594199023887,2041,2024,1990,2036,2047,2040,1193
1330,1713859594209026497,2055,2054,2043,2082,2081,2048,1193
1331,1713859594219022416,2056,2041,2009,2061,2041,2056,1197
1332,1713859594229019999,2056,2066,2125,2054,2040,2040,1195
1333,1713859594239022028,2049,2028,2029,2051,2064,2052,1196
1334,1713859594249023176,2072,2073,2087,2042,2064,2072,1196
1335,1713859594259016712,2038,2031,2016,2046,2029,2047,1194
1336,1713859594269023767,2051,2037,2034,2047,2047,2062,1196
1337,1713859594279028159,2048,2040,2008,2032,2074,2029,1192
1338,1713859594289025402,2060,2057,2030,2062,2050,2060,1195
1339,1713859594299019670,2067,2042,2007,2056,2030,2045,1194
1340,1713859594309027616,2043,2025,1960,2052,2072,2084,1195
1341,1713859594319025439,2058,2050,1996,2052,2057,2059,1193
1342,1713859594329015211,2055,2043,2040,2053,2051,2013,1191
1343,1713859594339019934,2069,2090,2146,2073,2081,2114,1192
1344,1713859594349019428,2053,2059,2056,2048,2041,2036,1191
1345,1713859594359021787,2041,2040,2032,2012,2022,2049,1198
1346,1713859594369018449,2045,2030,2051,2051,2056,2068,1197
1347,1713859594379018165,2073,2084,2121,2070,2069,2068,1196
1348,1713859594389028134,2064,2072,2105,2061,2047,2045,1193
1349,1713859594399027859,2060,2051,2028,2046,2033,2048,1195
1350,1713859594409029387,2064,2056,1994,2045,2046,2066,1194
1351,1713859594419045325,2035,2023,2008,2072,2066,2036,1193
1352,1713859594429013808,2068,2052,1981,2053,2064,2037,1193
1353,1713859594439021895,2025,2006,1976,2043,2078,2026,1194
1354,1713859594449019927,2037,2015,1994,2014,2025,2046,1193
1355,1713859594459024039,2064,2060,2074,2060,2018,2036,1194
1356,1713859594469019519,2050,2040,2034,2050,2038,2051,1197
1357,1713859594479018694,2073,2092,2197,2073,2077,2081,1194
1358,1713859594489020952,2057,2051,2013,2057,2062,2075,1194
1359,1713859594499021138,2059,2051,2078,2056,2050,2085,1196
1360,1713859594509038618,2045,2043,2054,2053,2047,2036,1193
1361,1713859594519024675,2061,2046,2056,2052,2047,2046,1190
1362,1713859594529013695,2050,2042,2042,2053,2036,2046,1192
1363,1713859594539026589,2065,2075,2058,2072,2057,2061,1196
1364,1713859594549020306,2053,2067,2139,2068,2046,2043,1195
1365,1713859594559018580,2047,2032,1982,2041,2058,2085,1195
1366,1713859594569023803,2057,2084,2166,2059,2067,2074,1195
1367,1713859594579011702,2061,2084,2173,2068,2048,2051,1195
1368,1713859594589027039,2054,2045,2027,2036,2006,2036,1191
1369,1713859594599022979,2065,2052,2048,2056,2069,2079,1196
1370,1713859594609029975,2089,2128,2181,2080,2070,2046,1192
1371,1713859594619041376,2070,2090,2116,2079,2070,2089,1195
1372,1713859594629013193,2052,2045,2029,2021,2033,2029,1194
1373,1713859594639027418,2080,2116,2094,2082,2090,2070,1195
1374,1713859594649024200,2060,2073,2037,2036,2076,2052,1193
1375,1713859594659020711,2047,2034,1999,2063,2059,2049,1197
1376,1713859594669042146,2067,2084,2046,2062,2049,2060,1195
1377,1713859594678990331,2051,2052,2063,2044,2004,2046,1196
1378,1713859594689032455,2040,2024,1979,2041,2029,2043,1192
1379,1713859594699021696,2049,2041,2054,2066,2072,2056,1196
1380,1713859594709025217,2043,2032,2045,2040,2050,2047,1192
1381,1713859594719023319,2071,2105,2098,2072,2056,2075,1195
1382,1713859594729017838,2057,2053,2030,2060,2045,2049,1195
1383,1713859594739019897,2056,2043,2054,2047,2088,2038,1193
1384,1713859594749020343,2085,2092,2190,2073,2072,2061,1197
1385,1713859594759017935,2040,2031,2000,2014,2031,2058,1195
1386,1713859594769018532,2058,2053,2081,2044,2028,2056,1197
1387,1713859594779032677,2047,2032,2043,2030,2000,2041,1192
1388,1713859594789025404,2065,2073,2143,2064,2041,2046,1194
1389,1713859594799021704,2060,2072,2082,2085,2085,2062,1196
1390,1713859594809017334,2042,2030,2001,2040,2105,2011,1194
1391,1713859594819021185,2050,2053,2056,2053,2029,2035,1193
1392,1713859594829022122,2056,2034,1996,2052,2099,2085,1197
1393,1713859594839019254,2056,2053,2082,2052,2038,2053,1195
1394,1713859594849018769,2073,2100,2058,2068,2060,2069,1194
1395,1713859594859019115,2056,2038,1986,2052,2033,2038,1193
1396,1713859594869021735,2049,2038,2004,2049,2045,2081,1195
1397,1713859594879033056,2048,2042,2080,2052,2060,2038,1192
1398,1713859594889028216,2040,2017,1981,2010,2033,2025,1193
1399,1713859594899023575,2065,2065,2061,2072,2066,2075,1197
1400,1713859594909021077,2052,2045,2018,2019,2049,2052,1196
1401,1713859594919019431,2056,2054,2014,2071,2026,2042,1191
1402,1713859594929019227,2066,2078,2090,2064,2072,2065,1196
1403,1713859594939018180,2056,2055,2074,2054,2086,2051,1197
1404,1713859594949020700,2071,2072,2059,2060,2054,2061,1196
1405,1713859594959022829,2053,2044,2072,2085,2039,2052,1196
1406,1713859594969018008,2062,2056,2006,2072,2058,2044,1194
1407,1713859594979061363,2046,2041,2048,2052,2047,2050,1195
1408,1713859594989055510,2052,2054,2072,2052,2052,2062,1196
1409,1713859594999051831,2048,2040,2014,2043,2047,2036,1194
1410,1713859595009043778,2051,2055,2056,2065,2074,2057,1197
1411,1713859595019036330,2047,2042,2061,2034,2060,2056,1197
1412,1713859595029030163,2045,2033,2010,2052,2062,2028,1196
1413,1713859595039033279,2061,2064,2101,2063,2066,2072,1196
1414,1713859595049030306,2049,2047,2089,2036,2056,2082,1194
1415,1713859595059029196,2056,2041,2005,2037,2046,2054,1197
1416,1713859595069022709,2049,2052,2040,2061,2072,2090,1197
1417,1713859595079029190,2049,2067,2093,2047,2066,2059,1195
1418,1713859595089029671,2054,2054,2049,2021,2041,2033,1193
1419,1713859595099034850,2055,2058,2106,2064,2074,2050,1196
1420,1713859595109057743,2044,2044,2037,2038,2007,2008,1191
1421,1713859595119046279,2033,2036,2046,2068,2078,2089,1195
1422,1713859595129040692,2060,2047,2013,2062,2054,2052,1195
1423,1713859595139036779,2045,2039,2056,2041,2045,2041,1194
1424,1713859595149028779,2069,2080,2125,2068,2067,2068,1194
1425,1713859595159024405,2056,2058,2085,2057,2043,2053,1197
1426,1713859595169021823,2056,2054,2058,2041,2040,2058,1196
1427,1713859595179045276,2048,2046,2028,2040,2037,2027,1194
1428,1713859595189050485,2059,2051,2017,2040,2042,2068,1196
1429,1713859595199040352,2062,2061,2068,2052,2063,2057,1196
1430,1713859595209024142,2060,2069,2143,2056,2026,2030,1191
1431,1713859595219022211,2075,2076,2088,2069,2053,2034,1194
1432,1713859595229021031,2052,2049,2022,2056,2040,2040,1196
1433,1713859595239020602,2046,2044,1989,2040,2058,2028,1193
1434,1713859595249023217,2058,2057,2045,2064,2052,2036,1192
1435,1713859595259021216,2053,2045,2041,2056,2024,2033,1193
1436,1713859595269033424,2045,2032,2014,2037,2042,2048,1196
1437,1713859595279027598,2050,2053,2072,2052,2044,2049,1196
1438,1713859595289026017,2036,2049,2060,2047,2028,2048,1197
1439,1713859595299021883,2036,2038,2004,2046,2058,2052,1195
1440,1713859595309026571,2066,2083,2081,2046,2068,2030,1195
1441,1713859595319020955,2065,2073,2026,2041,2052,2076,1192
1442,1713859595329020937,2054,2059,2021,2050,2040,2039,1192
1443,1713859595339025344,2070,2068,1990,2064,2061,2067,1196
1444,1713859595348987394,2050,2050,1993,2043,2024,2052,1195
1445,1713859595359018217,2054,2052,2039,2040,2037,2052,1197
1446,1713859595369019851,2053,2054,2062,2036,2062,2050,1197
1447,1713859595379032770,2078,2101,2250,2061,2074,2070,1199
1448,1713859595389027615,2048,2044,2041,2040,2053,2066,1195
1449,1713859595399022229,2058,2052,2054,2051,2040,2049,1196
1450,1713859595409057589,2060,2058,2066,2034,2046,2068,1195
1451,1713859595419030804,2044,2028,1974,2048,2051,2049,1196
1452,1713859595429019419,2057,2074,2061,2064,2073,2041,1196
1453,1713859595439019081,2056,2065,2129,2052,2050,2061,1196
1454,1713859595449028185,2068,2086,2160,2077,2070,2045,1194
1455,1713859595459022719,2046,2029,2048,2060,2041,2044,1195
1456,1713859595469022070,2048,2052,2069,2066,2057,2060,1197
1457,1713859595479015753,2061,2061,2072,2064,2062,2038,1194
1458,1713859595489020150,2056,2048,2049,2052,2057,2058,1194
1459,1713859595499022585,2044,2039,2021,2070,2072,2057,1196
1460,1713859595509023778,2054,2056,2053,2052,2024,2048,1196
1461,1713859595519022318,2077,2077,2131,2076,2061,2064,1196
1462,1713859595529029679,2061,2072,2099,2047,2060,2060,1196
1463,1713859595539027378,2056,2061,2062,2049,2049,2046,1193
1464,1713859595549023554,2056,2057,2052,2043,2076,2091,1196
1465,1713859595559020010,2064,2088,2235,2053,2049,2080,1197
1466,1713859595569040630,2052,2036,2010,2080,2048,2060,1196
1467,1713859595579029607,2038,2029,2032,2047,2024,2035,1193
1468,1713859595589024692,2056,2054,2076,2057,2061,2025,1193
1469,1713859595599031062,2058,2054,2043,2066,2053,2029,1191
1470,1713859595609018686,2040,2034,2003,2041,2025,2052,1195
1471,1713859595619043131,2046,2036,2001,2047,2050,2053,1197
1472,1713859595629013703,2050,2048,2046,2073,2054,2045,1196
1473,1713859595639026682,2047,2041,2056,2082,2091,2040,1195
1474,1713859595649022828,2085,2090,2131,2061,2062,2089,1196
1475,1713859595659022119,2060,2059,2067,2044,1998,2047,1192
1476,1713859595669021559,2040,2053,2020,2059,2060,2049,1195
1477,1713859595679019298,2061,2045,2081,2053,2032,2040,1194
1478,1713859595689019630,2070,2070,2088,2072,2026,2060,1196
1479,1713859595699019181,2049,2044,2021,2044,2055,2047,1194
1480,1713859595709019784,2054,2051,2059,2042,2035,2026,1192
1481,1713859595719023720,2070,2072,2135,2063,2041,2044,1192
1482,1713859595729012276,2052,2048,2035,2050,2049,2045,1193
1483,1713859595739026116,2066,2076,2110,2065,2064,2025,1193
1484,1713859595749021412,2041,2026,1968,2052,2053,2061,1195
1485,1713859595759023025,2049,2043,1996,2051,2047,2049,1196
1486,1713859595769035003,2035,2020,1961,2036,2056,2100,1197
1487,1713859595779029828,2051,2061,2039,2061,2056,2067,1196
1488,1713859595789023330,2056,2048,2040,2060,2068,2057,1195
1489,1713859595799030411,2053,2054,2069,2051,2064,2047,1192
1490,1713859595809020379,2057,2050,1996,2051,2067,2050,1197
1491,1713859595819026639,2043,2035,2037,2047,2049,2026,1194
1492,1713859595829019682,2058,2068,2130,2064,2058,2077,1198
1493,1713859595839027003,2049,2083,2148,2068,2054,2070,1197
1494,1713859595849022188,2044,2029,2015,2050,2080,2043,1193
1495,1713859595859014309,2052,2056,2056,2057,2027,2022,1192
1496,1713859595869018606,2053,2051,2046,2050,2007,2033,1192
1497,1713859595879031685,2084,2095,2172,2090,2068,2051,1195
1498,1713859595889027021,2048,2052,2030,2051,2088,2073,1194
1499,1713859595899029235,2040,2021,2029,2040,2046,2056,1195
1500,1713859595909024120,2063,2081,2051,2043,2005,2027,1194
1501,1713859595919026264,2046,2043,2015,2042,2005,2022,1192
1502,1713859595929021730,2054,2045,2029,2072,2068,2030,1192
1503,1713859595939031564,2056,2056,2037,2054,2065,2022,1193
1504,1713859595949025829,2050,2059,2083,2064,2057,2039,1194
1505,1713859595959023607,2058,2042,2018,2057,2078,2065,1195
1506,1713859595969018171,2060,2068,2133,2053,2079,1918,1192
1507,1713859595979021817,2049,2034,2006,2023,1996,2020,1194
1508,1713859595989018264,2053,2044,2067,2062,2034,2033,1192
1509,1713859595999039184,2055,2071,2094,2048,2030,2029,1192
1510,1713859596009025508,2054,2059,2064,2049,2063,2056,1196
1511,1713859596019067671,2037,2022,1969,2034,2040,2068,1197
1512,1713859596029031098,2073,2106,2166,2056,2022,2034,1197
1513,1713859596039023343,2056,2067,2102,2076,2106,2072,1197
1514,1713859596049022529,2058,2044,1999,2059,2074,2091,1197
1515,1713859596059020341,2062,2061,2111,2045,2068,2047,1197
1516,1713859596069025746,2065,2080,2090,2054,2058,2043,1195
1517,1713859596079022337,2062,2059,2072,2080,2104,2022,1193
1518,1713859596089020901,2053,2065,2105,2056,1981,2037,1192
1519,1713859596099022029,2056,2045,2030,2056,2053,2060,1197
1520,1713859596109020854,2056,2057,2068,2056,2038,2106,1195
1521,1713859596119020028,2045,2049,2049,2100,2122,2072,1196
1522,1713859596129031471,2052,2029,2000,2041,2053,2037,1193
1523,1713859596139029253,2062,2076,2024,2073,2100,2060,1196
1524,1713859596149020448,2051,2046,2016,2061,1985,2080,1194
1525,1713859596159020774,2060,2063,2029,2051,2056,2042,1193
1526,1713859596169018488,2062,2050,2033,2029,2062,2062,1197
1527,1713859596179020787,2069,2081,2089,2078,2052,2058,1197
1528,1713859596189026051,2054,2038,2049,2050,2036,2050,1194
1529,1713859596199021190,2048,2047,2085,2038,2032,2097,1196
1530,1713859596209024151,2068,2073,2128,2069,2062,2045,1193
1531,1713859596219020482,2049,2037,2009,2041,2084,2070,1197
1532,1713859596229020278,2060,2060,2072,2060,2068,2066,1196
1533,1713859596239019563,2050,2038,2032,2049,2056,2024,1193
1534,1713859596249019880,2062,2064,2059,2037,2025,2049,1196
1535,1713859596259019645,2044,2037,2017,2034,2034,2044,1193
1536,1713859596269032890,2061,2047,2061,2071,2067,2064,1197
1537,1713859596279027328,2040,2030,2034,2048,2050,2101,1197
1538,1713859596289022689,2044,2033,2030,2046,2058,2073,1197
1539,1713859596299022414,2080,2088,2066,2078,2072,2047,1193
1540,1713859596309019858,2059,2056,2076,2053,2024,2026,1192
1541,1713859596319024079,2052,2047,2036,2060,2060,2060,1196
1542,1713859596329027681,2052,2056,2035,2055,2116,2133,1196
1543,1713859596339022329,2059,2057,2038,2047,2062,2064,1193
1544,1713859596349021955,2063,2029,1972,2044,2072,2050,1195
1545,1713859596359019828,2062,2089,2177,2075,2105,2154,1197
1546,1713859596369015079,2031,2041,2041,2062,2058,2077,1196
1547,1713859596379030075,2045,2049,2056,2054,2068,2061,1198
1548,1713859596389024834,2056,2053,2060,2046,2036,2024,1194
1549,1713859596399020144,2063,2078,2185,2080,2085,2112,1196
1550,1713859596409032998,2041,2046,2030,2040,2011,1997,1191
1551,1713859596419023180,2063,2063,2118,2068,2062,2052,1197
1552,1713859596429023578,2056,2045,1981,2052,2056,2043,1195
1553,1713859596439021050,2050,2046,2032,2037,2047,2045,1193
1554,1713859596449021237,2057,2036,1997,2046,2049,2005,1196
1555,1713859596459025709,2042,2022,1992,2041,2063,2117,1196
1556,1713859596469018366,2047,2067,2080,2064,2085,2100,1194
1557,1713859596479019873,2041,2036,2046,2044,2058,2031,1194
1558,1713859596489020551,2051,2045,2089,2056,2076,2060,1196
1559,1713859596499022369,2048,2047,2084,2041,2012,2027,1195
1560,1713859596509027032,2061,2054,2030,2063,2056,1980,1194
1561,1713859596519034548,2021,2017,2062,2040,2045,2081,1196
1562,1713859596529028577,2064,2051,2072,2064,2100,2084,1197
1563,1713859596539023966,2050,2033,2028,2044,2080,2052,1197
1564,1713859596549021350,2068,2062,2047,2062,2073,2069,1197
1565,1713859596559021556,2043,2024,2005,2040,2036,2032,1192
1566,1713859596569021112,2059,2069,2092,2056,2101,1979,1194
1567,1713859596579021017,2040,2036,2028,2050,2078,2092,1195
1568,1713859596589025370,2065,2060,2048,2059,2036,2033,1193
1569,1713859596599028670,2055,2043,2021,2055,2084,2077,1196
1570,1713859596609060821,2070,2088,2148,2101,2118,2092,1196
1571,1713859596619035823,2055,2054,2069,2053,2054,2053,1196
1572,1713859596629030322,2058,2056,2101,2053,2060,2073,1197
1573,1713859596639025191,2041,2035,2045,2068,2088,2044,1193
1574,1713859596649023595,2056,2047,2053,2068,2072,2063,1195
1575,1713859596659062614,2058,2065,2088,2047,2032,2056,1194
1576,1713859596669060778,2056,2070,2118,2054,2054,2046,1194
1577,1713859596679051922,2053,2045,2025,2049,2053,2049,1194
1578,1713859596689046341,2059,2055,2045,2049,2045,2030,1192
1579,1713859596699037315,2042,2037,2060,2055,2050,2017,1192
1580,1713859596709034468,2048,2049,2077,2053,2049,2000,1193
1581,1713859596719031559,2038,2028,2012,2071,2052,2028,1192
1582,1713859596729030895,2053,2060,2091,2048,2053,2052,1196
1583,1713859596739031542,2075,2046,2068,2050,2063,2042,1196
1584,1713859596749029756,2041,2038,2011,2030,2032,2031,1193
1585,1713859596759029982,2052,2044,2053,2065,2074,2047,1193
1586,1713859596769085925,2056,2052,2060,2051,2048,1965,1193
1587,1713859596779080664,2054,2052,2055,2055,2044,2050,1193
1588,1713859596789075994,2132,2216,2444,2161,2141,2148,1194
1589,1713859596799071644,2050,2048,2062,2062,2052,2042,1192
1590,1713859596809100310,2041,2043,2076,2046,2064,2056,1196
1591,1713859596819014949,2054,2034,2028,2050,2059,2063,1196
1592,1713859596829036726,2052,2053,2102,2065,2072,1969,1194
1593,1713859596839050470,2041,2037,2031,2038,2037,2042,1193
1594,1713859596849045280,2038,2041,2057,2046,2061,2062,1196
1595,1713859596859040249,2069,2056,1993,2058,2072,2073,1196
1596,1713859596869017194,2060,2056,1999,2068,2065,2053,1196
1597,1713859596879040782,2071,2086,2044,2065,2037,1976,1190
1598,1713859596889035582,2050,2041,1996,2046,2033,2044,1193
1599,1713859596899020006,2057,2049,2030,2062,2072,2074,1198
1600,1713859596909020123,2052,2047,1966,2050,2030,2028,1192
1601,1713859596919020179,2049,2044,2052,2074,2072,2088,1194
1602,1713859596929019795,2060,2060,2062,2035,2058,2080,1196
1603,1713859596939025649,2056,2056,2072,2052,2055,2069,1197
1604,1713859596949021230,2060,2056,2031,2063,2052,2037,1192
1605,1713859596959020344,2059,2062,2085,2065,2057,2072,1196
1606,1713859596969020010,2073,2074,2117,2056,2032,2049,1196
1607,1713859596979019345,2056,2052,2045,2052,2058,2056,1196
1608,1713859596989022717,2044,2037,2054,2021,2018,2017,1192
1609,1713859596999022402,2049,2053,2057,2051,2053,2045,1192
1610,1713859597009021908,2055,2048,2021,2038,2066,2080,1195
1611,1713859597019038861,2056,2080,2160,2075,2056,2060,1196
1612,1713859597029031241,2062,2062,2081,2048,2043,2068,1197
1613,1713859597039024262,2044,2027,1970,2046,2053,2039,1193
1614,1713859597049023360,2053,2059,2045,2044,2041,2036,1192
1615,1713859597059024682,2065,2065,2108,2075,2072,2090,1195
1616,1713859597069020186,2052,2051,2016,2048,2057,2094,1194
1617,1713859597079026895,2055,2056,2076,2056,2045,2054,1196
1618,1713859597089024432,2063,2075,2084,2055,2040,2021,1192
1619,1713859597099024192,2037,2033,1970,2056,2050,2049,1194
1620,1713859597109022269,2050,2046,2016,2044,2055,2044,1193
1621,1713859597119035938,2050,2045,2044,2050,2052,2045,1192
1622,1713859597129031031,2056,2046,2039,2047,2068,2040,1194
1623,1713859597139025623,2047,2049,2040,2056,2065,2056,1197
1624,1713859597149021479,2068,2074,2100,2064,2088,2078,1195
1625,1713859597159026155,2061,2076,2146,2026,2039,2026,1192
1626,1713859597169019876,2042,2041,2028,2024,2041,2062,1196
1627,1713859597179023682,2085,2080,2081,2065,2047,2068,1196
1628,1713859597189017974,2075,2076,2010,2045,2043,2053,1196
1629,1713859597199020978,2049,2049,2097,2043,2036,2041,1194
1630,1713859597209018385,2039,2032,2015,2056,2064,2044,1192
1631,1713859597219022850,2064,2047,2014,2069,2065,2044,1193
1632,1713859597229012977,2049,2037,1993,2036,2057,2105,1198
1633,1713859597239022731,2047,2039,2052,2052,2030,2051,1195
1634,1713859597249019856,2062,2066,2041,2045,2019,2033,1191
1635,1713859597258990767,2049,2031,2013,2028,2022,2078,1196
1636,1713859597269031613,2079,2080,2121,2072,2037,2124,1195
1637,1713859597279033815,2040,2036,2028,2031,2049,2044,1192
1638,1713859597289021910,2054,2057,2061,2062,2065,2054,1195
1639,1713859597299020768,2065,2059,2028,2056,2052,2056,1197
1640,1713859597309017794,2050,2032,2026,2043,2038,1962,1191
1641,1713859597319028719,2055,2052,2088,2056,2052,2047,1192
1642,1713859597329020438,2044,2032,1996,2041,2055,2018,1192
1643,1713859597339026566,2056,2065,2141,2079,2096,2125,1195
1644,1713859597349020598,2058,2085,2108,2089,2094,2077,1193
1645,1713859597359022401,2058,2062,2112,2053,2045,2059,1195
1646,1713859597369035118,2071,2076,2106,2067,2057,2073,1196
1647,1713859597379030893,2047,2064,2079,2080,2085,2052,1195
1648,1713859597389024784,2051,2049,2056,2057,2080,2060,1195
1649,1713859597399023483,2049,2040,2019,2064,2037,2030,1193
1650,1713859597409023473,2050,2037,2054,2048,2031,2009,1193
1651,1713859597419027137,2044,2017,1981,2048,2029,2048,1196
1652,1713859597429022661,2052,2056,2053,2065,2093,2072,1197
1653,1713859597439025555,2060,2079,2137,2068,2036,2088,1197
1654,1713859597449022942,2050,2045,2034,2060,2065,2064,1196
1655,1713859597459020278,2047,2040,2032,2049,2060,2076,1195
1656,1713859597469017895,2040,2015,1934,2040,2090,2049,1194
1657,1713859597479022311,2058,2073,2078,2041,2060,2048,1196
1658,1713859597489020269,2050,2047,2032,2056,2062,2047,1193
1659,1713859597499022421,2061,2058,2090,2055,2017,2012,1192
1660,1713859597509019708,2068,2073,2104,2088,2088,2122,1197
1661,1713859597519036090,2061,2053,2042,2057,2044,2043,1191
1662,1713859597529028530,2051,2045,2021,2064,2068,2027,1191
1663,1713859597539022621,2052,2035,2004,2034,2027,2036,1193
1664,1713859597549020980,2061,2044,2026,2062,2059,2054,1194
1665,1713859597559027248,2041,2031,2033,2076,2052,2037,1195
1666,1713859597569020078,2058,2047,2077,2049,2026,2048,1194
1667,1713859597579022522,2067,2079,2105,2067,2068,2056,1195
1668,1713859597589050470,2052,2045,2031,2057,2045,2036,1193
1669,1713859597599023684,2068,2083,2105,2045,2024,2074,1194
1670,1713859597609020940,2067,2068,2089,2048,2046,2073,1195
1671,1713859597619036581,2051,2045,1996,2035,2036,2054,1194
1672,1713859597629030663,2059,2056,2045,2054,2042,2035,1194
1673,1713859597639029121,2041,2062,2088,2073,2050,2062,1195
1674,1713859597649024144,2050,2039,1996,2045,2065,2067,1195
1675,1713859597659024766,2056,2052,2044,2045,2021,1968,1192
1676,1713859597669026688,2053,2037,2031,2050,2055,2050,1195
1677,1713859597679021891,2056,2056,2012,2062,2077,2113,1196
1678,1713859597689021622,2056,2040,2010,2054,2058,2060,1194
1679,1713859597699018587,2073,2056,2031,2064,2060,2081,1196
1680,1713859597709016254,2068,2080,2089,2053,2062,2056,1197
1681,1713859597719016434,2047,2038,2019,2064,2047,2044,1191
1682,1713859597729019699,2075,2083,2001,2068,2079,2089,1195
1683,1713859597739017355,2064,2077,2149,2066,2056,2037,1193
1684,1713859597749021592,2053,2044,2058,2057,2061,2061,1195
1685,1713859597759018688,2042,2049,2015,2045,2048,2036,1192
1686,1713859597769016505,2059,2044,2011,2053,2098,2102,1194
1687,1713859597779026178,2052,2068,2104,2047,2032,2053,1194
1688,1713859597789023614,2061,2059,2048,2038,2040,2050,1195
1689,1713859597799018748,2043,2035,1991,2042,2049,2050,1197
1690,1713859597809020631,2053,2048,2016,2064,2055,2056,1194
1691,1713859597819021932,2052,2047,2067,2051,2036,2069,1194
1692,1713859597829019238,2056,2069,2132,2061,2027,2031,1193
1693,1713859597839022263,2036,2020,1969,2059,2084,2068,1194
1694,1713859597849021482,2074,2095,2093,2065,2063,1986,1195
1695,1713859597859018588,2050,2045,2060,2043,2072,2049,1196
1696,1713859597869034220,2051,2039,1992,2069,2060,2038,1192
1697,1713859597879029503,2044,2031,1990,2055,2075,2046,1194
1698,1713859597889023555,2056,2041,2011,2052,2026,2033,1193
1699,1713859597899018458,2058,2048,2052,2050,2058,2073,1196
1700,1713859597909023805,2060,2048,2035,2052,2056,2081,1194
1701,1713859597919029513,2075,2080,2033,2066,2062,1984,1192
1702,1713859597929020050,2100,2145,2290,2090,2064,2058,1194
1703,1713859597939024656,2077,2110,2257,2105,2104,2096,1194
1704,1713859597949018869,2056,2049,2033,2066,2101,2050,1196
1705,1713859597959028863,2060,2060,2065,2053,2050,2053,1195
1706,1713859597969018839,2057,2068,2089,2065,2072,2076,1195
1707,1713859597979020622,2044,2034,2071,2016,2036,2050,1194
1708,1713859597989016506,2058,2061,2016,2043,2050,2035,1193
1709,1713859597999021623,2037,2036,2038,2038,2052,2052,1194
1710,1713859598009025838,2034,2027,2017,2034,2058,2035,1193
1711,1713859598019037938,2060,2045,2033,2053,2032,2031,1192
1712,1713859598029027557,2043,2040,1994,2077,2065,2000,1193
1713,1713859598039022913,2068,2057,2058,2060,2053,2048,1196
1714,1713859598049019902,2058,2048,2045,2040,2052,2065,1197
1715,1713859598059022429,2049,2046,2049,2057,2040,2053,1195
1716,1713859598069018867,2043,2066,2075,2052,2023,2115,1197
1717,1713859598079026811,2059,2045,2029,2052,2074,2052,1195
1718,1713859598089013105,2058,2064,2057,2048,2059,2056,1196
1719,1713859598099017535,2070,2061,2066,2057,2060,2061,1195
1720,1713859598109037204,2050,2050,2056,2061,2037,2037,1193
1721,1713859598119033912,2050,2058,2063,2052,2048,2034,1190
1722,1713859598129047844,2053,2050,2069,2056,2060,2047,1193
1723,1713859598139023014,2049,2059,2097,2052,2042,2040,1193
1724,1713859598149019191,2064,2088,2123,2063,2046,2069,1195
1725,1713859598158993730,2047,2057,2072,2065,2067,2047,1192
1726,1713859598169019918,2056,2056,2045,2071,2060,2082,1196
1727,1713859598179035222,2068,2050,2057,2072,2057,2041,1193
1728,1713859598189016640,2061,2081,2128,2064,2085,2070,1195
1729,1713859598199017584,2057,2061,2094,2063,2069,2056,1193
1730,1713859598209024637,2043,2030,2038,2041,2064,2044,1193
1731,1713859598219026943,2064,2096,2160,2072,2073,2046,1193
1732,1713859598229015881,2045,2042,2032,2032,2072,2043,1193
1733,1713859598239020500,2058,2057,2065,2059,2069,2069,1195
1734,1713859598249018210,2051,2056,2024,2050,2082,2062,1196
1735,1713859598259017041,2038,2048,2044,2052,2058,2044,1193
1736,1713859598269018746,2062,2064,1976,2054,2049,2056,1196
1737,1713859598279025419,2047,2035,2015,2051,2048,2035,1194
1738,1713859598289016199,2056,2057,2084,2058,2065,2044,1194
1739,1713859598299023101,2064,2086,2176,2068,2064,2077,1195
1740,1713859598309023745,2052,2045,2036,2069,2077,2043,1193
1741,1713859598319026022,2045,2049,2014,2050,2035,2044,1193
1742,1713859598329012586,2060,2068,2058,2036,2036,2063,1195
1743,1713859598339021812,2043,2026,1987,2058,2061,2061,1193
1744,1713859598349058284,2054,2044,2016,2048,2056,2064,1193
1745,1713859598359051028,2043,2029,2024,2036,2032,2062,1193
1746,1713859598369042699,2065,2076,2076,2060,2070,2052,1193
1747,1713859598379037835,2063,2077,2091,2081,2107,2049,1195
1748,1713859598389033253,2055,2043,2067,2040,2032,2045,1193
1749,1713859598399031793,2048,2045,2032,2062,2053,2069,1195
1750,1713859598409029983,2047,2074,2098,2052,2004,2072,1196
1751,1713859598419012373,2047,2044,2000,2068,2058,2057,1196
1752,1713859598429030891,2064,2060,2056,2075,2072,2064,1199
1753,1713859598439030543,2057,2048,2044,2039,2025,2040,1192
1754,1713859598449027142,2048,2037,1994,2024,2042,2065,1195
1755,1713859598459031190,2060,2075,2069,2071,2072,2053,1195
1756,1713859598469055647,2044,2043,2046,2056,2047,2040,1194
1757,1713859598479049982,2056,2056,2053,2059,2053,2046,1192
1758,1713859598489043056,2056,2056,1999,2042,2072,2036,1193
1759,1713859598499040105,2052,2052,2038,2057,2048,2070,1196
1760,1713859598509037805,2045,2052,2098,2044,2027,2054,1197
1761,1713859598519034953,2088,2100,2184,2068,2016,2064,1194
1762,1713859598529060331,2057,2046,2012,2040,2068,2025,1192
1763,1713859598539020309,2040,2034,2049,2060,2024,2046,1192
1764,1713859598549016667,2064,2051,2030,2056,2038,2024,1193
1765,1713859598559019074,2058,2073,2107,2064,2056,2041,1192
1766,1713859598569020949,2037,2045,2038,2047,2067,2052,1195
1767,1713859598579019350,2060,2082,2162,2042,2058,2089,1195
1768,1713859598589017050,2069,2080,2113,2042,2008,2060,1196
1769,1713859598599021459,2037,2036,2065,2041,2064,2021,1193
1770,1713859598609020150,2064,2081,2109,2084,2060,2066,1196
1771,1713859598619038418,2045,2025,1999,2068,2082,2057,1198
1772,1713859598629029930,2075,2069,2073,2068,2065,2054,1196
1773,1713859598639023433,2044,2034,2054,2055,2052,2072,1196
1774,1713859598649018560,2075,2120,2241,2072,2077,2052,1194
1775,1713859598659028026,2034,2033,2042,2049,2056,2096,1197
1776,1713859598669019307,2076,2093,2104,2050,2052,2072,1197
1777,1713859598679016737,2037,2024,1978,2033,2046,2042,1192
1778,1713859598689018351,2053,2033,2024,2053,2058,2072,1196
1779,1713859598699019937,2056,2084,2260,2062,2084,2076,1196
1780,1713859598709026969,2059,2043,2013,2056,2049,2073,1196
1781,1713859598719024529,2060,2045,2032,2046,2057,2065,1194
1782,1713859598729024192,2058,2040,1994,2057,2028,2036,1192
1783,1713859598739024015,2042,2028,1983,2046,2030,2036,1191
1784,1713859598749020693,2060,2056,2080,2050,2040,2040,1191
1785,1713859598759025863,2057,2074,2098,2082,2050,2060,1197
1786,1713859598769031484,2052,2040,2037,2044,2048,2037,1193
1787,1713859598779024507,2053,2053,1986,2082,2103,2112,1194
1788,1713859598789018712,2055,2060,2076,2056,2046,2052,1195
1789,1713859598799016702,2068,2081,2103,2059,2021,2045,1194
1790,1713859598809022563,2048,2045,2018,2047,2042,2046,1193
1791,1713859598819015206,2056,2045,2028,2048,2040,2028,1194
1792,1713859598829021077,2044,2024,2016,2048,2076,2056,1197
1793,1713859598839023133,2068,2101,2161,2069,2034,2078,1195
1794,1713859598849022395,2049,2045,2032,2036,2053,2049,1194
1795,1713859598859022789,2059,2069,2133,2062,2044,2043,1192
1796,1713859598869034638,2064,2064,2051,2054,2049,2011,1192
1797,1713859598879030265,2049,2045,2056,2076,2052,2056,1195
1798,1713859598889024890,2058,2053,2050,2058,2073,2064,1194
1799,1713859598899020037,2069,2088,2056,2074,2060,2040,1196
1800,1713859598909023054,2042,2043,2043,2041,2058,2035,1192
1801,1713859598919021775,2058,2056,2057,2072,2024,2036,1190
1802,1713859598929018634,2072,2102,2114,2075,2037,2050,1195
1803,1713859598939018647,2058,2059,2113,2065,2057,2047,1193
1804,1713859598949020482,2053,2051,2046,2038,2046,2026,1193
1805,1713859598959022998,2058,2071,2052,2067,2021,2046,1193
1806,1713859598969024163,2072,2071,2137,2064,2050,2070,1197
1807,1713859598979039327,2048,2037,2019,2052,2054,2051,1197
1808,1713859598989022747,2056,2054,2039,2068,2081,2061,1195
1809,1713859598999022801,2059,2073,2105,2062,2049,2053,1195
1810,1713859599009023048,2065,2050,2036,2047,2079,2107,1196
1811,1713859599019020308,2051,2047,2024,2052,2054,2041,1195
1812,1713859599029028304,2047,2040,2042,2056,2068,2069,1196
1813,1713859599039021471,2049,2056,2090,2052,2054,2036,1196
1814,1713859599049021716,2081,2122,2232,2088,2081,2057,1197
1815,1713859599059016684,2052,2045,2052,2064,2016,2042,1194
1816,1713859599069016049,2048,2041,2045,2065,2058,2112,1197
1817,1713859599079020780,2041,2012,1950,2069,2045,2043,1194
1818,1713859599089019613,2052,2038,2004,2040,2033,2067,1196
1819,1713859599099018367,2058,2061,2134,2054,2042,2040,1193
1820,1713859599109018883,2040,2044,2081,2053,2078,2052,1196
1821,1713859599119018177,2041,2027,2029,2037,2061,2070,1194
1822,1713859599129031360,2087,2140,2277,2097,2106,2063,1196
1823,1713859599139025277,2041,2019,1994,2032,2013,2036,1192
1824,1713859599149020896,2060,2064,2055,2056,2054,2059,1197
1825,1713859599159017577,2064,2046,2017,2047,2042,2049,1196
1826,1713859599169019825,2047,2052,2043,2043,2050,2062,1194
1827,1713859599179023825,2048,2052,2040,2040,2040,2061,1197
1828,1713859599189018173,2056,2041,2018,2044,2084,2107,1196
1829,1713859599199021002,2067,2070,2112,2075,2076,2064,1195
1830,1713859599209023730,2056,2035,2020,2040,2082,2080,1196
1831,1713859599219015925,2064,2066,2090,2066,2047,2050,1195
1832,1713859599229022319,2060,2050,2056,2052,2070,2076,1195
1833,1713859599239017597,2069,2104,2232,2062,2048,2052,1196
1834,1713859599249021278,2045,2037,2046,2058,2058,2043,1192
1835,1713859599259019761,2048,2043,2042,2063,2010,2068,1196
1836,1713859599269020497,2057,2047,2036,2058,2069,2058,1195
1837,1713859599279026861,2068,2096,2125,2080,2072,2061,1196
1838,1713859599289026616,2049,2040,2020,2044,2064,2053,1195
1839,1713859599299019201,2062,2064,2058,2064,2043,2047,1192
1840,1713859599309019866,2078,2086,2084,2049,2083,2061,1195
1841,1713859599319019752,2060,2053,2023,2058,2043,2060,1193
1842,1713859599329018365,2058,2059,2061,2076,2068,2077,1197
1843,1713859599339016557,2052,2059,2098,2061,2036,2046,1193
1844,1713859599349018825,2053,2037,2021,2050,2054,2065,1195
1845,1713859599359019582,2035,2033,2036,2041,2034,2072,1196
1846,1713859599369016292,2048,2026,2028,2040,2036,2038,1192
1847,1713859599379031548,2053,2057,2056,2049,2032,2046,1194
1848,1713859599389026456,2057,2062,2058,2057,2053,2052,1195
1849,1713859599399026702,2052,2047,2044,2051,2036,2017,1192
1850,1713859599409021910,2052,2069,2120,2048,2034,2037,1192
1851,1713859599419021995,2076,2065,2015,2044,2032,2038,1195
1852,1713859599429020369,2048,2034,2057,2049,2046,2047,1194
1853,1713859599439023048,2053,2060,2052,2057,2060,2053,1195
1854,1713859599449019748,2055,2056,2060,2055,2056,2053,1196
1855,1713859599459014426,2029,2024,2048,2052,2027,2003,1193
1856,1713859599469019538,2064,2016,1944,2067,2067,2087,1194
1857,1713859599479028085,2051,2062,2133,2071,2027,2010,1193
1858,1713859599489019528,2050,2052,2056,2068,2074,2058,1195
1859,1713859599499016940,2048,2028,2002,2030,2018,2023,1193
1860,1713859599509020750,2053,2033,2004,2042,2020,2072,1196
1861,1713859599519024070,2045,2029,1984,2039,2020,2037,1190
1862,1713859599529029252,2046,2027,1982,2060,2060,2028,1193
1863,1713859599539024311,2066,2066,2124,2061,2064,2096,1193
1864,1713859599549017086,2042,2019,1988,2044,2069,2049,1197
1865,1713859599559020145,2045,2043,2061,2048,2057,2061,1194
1866,1713859599569018417,2086,2133,2226,2088,2080,2073,1195
1867,1713859599579013106,2044,2034,2022,2050,2049,2043,1194
1868,1713859599589017537,2056,2057,2060,2061,2068,2078,1195
1869,1713859599599024411,2055,2045,2046,2048,2036,2049,1197
1870,1713859599609018348,2050,2044,2022,2053,2076,2029,1196
1871,1713859599619019445,2041,2027,2028,2050,2060,2050,1196
1872,1713859599629015384,2080,2092,2126,2064,2056,2085,1197
1873,1713859599639029679,2040,2023,2001,2049,2085,2040,1194
1874,1713859599649020281,2061,2056,2052,2057,2057,2095,1195
1875,1713859599659023090,2052,2036,2023,2061,2072,2044,1192
1876,1713859599669018339,2072,2070,2071,2069,2064,2056,1196
1877,1713859599679021628,2038,2030,2045,2045,2050,2036,1194
1878,1713859599689017298,2079,2094,2122,2072,2060,2067,1194
1879,1713859599699016892,2049,2040,2028,2060,2080,2072,1198
1880,1713859599709019310,2075,2086,2045,2057,2085,2053,1195
1881,1713859599719017143,2049,2059,2068,2056,2073,2091,1193
1882,1713859599729016857,2055,2056,2004,2048,2040,2041,1192
1883,1713859599739016592,2041,2031,2034,2050,2020,2068,1195
1884,1713859599749016768,2068,2067,2097,2045,2029,2070,1195
1885,1713859599759018425,2050,2040,2029,2052,2060,2034,1195
1886,1713859599769025109,2047,2040,2046,2037,2064,2033,1192
1887,1713859599779003354,2057,2043,2013,2050,2030,2027,1191
1888,1713859599789023648,2039,2025,2013,2030,2016,2056,1195
1889,1713859599799033606,2064,2065,2120,2043,2052,2057,1195
1890,1713859599809019602,2066,2044,1980,2037,2066,2040,1193
1891,1713859599819002724,2046,2050,2095,2033,2030,2058,1197
1892,1713859599829021806,2055,2054,2028,2066,2056,2054,1197
1893,1713859599839020609,2065,2080,2039,2060,2060,2080,1196
1894,1713859599849019983,2054,2060,2090,2068,2064,2090,1196
1895,1713859599859019508,2045,2050,2064,2061,2057,2040,1196
1896,1713859599869037878,2059,2064,2050,2068,2045,2056,1196
1897,1713859599879033186,2040,2044,2047,2052,2056,2048,1194
1898,1713859599889027744,2066,2057,2076,2031,2031,2069,1194
1899,1713859599899022623,2028,2013,1936,2040,2044,2040,1193
1900,1713859599909018442,2057,2060,2017,2053,2048,2064,1196
1901,1713859599919022622,2061,2056,2064,2064,2041,2072,1194
1902,1713859599929020776,2045,2041,2009,2052,2038,2032,1194
1903,1713859599939022212,2024,1989,1918,2036,2029,2024,1192
1904,1713859599949020405,2071,2067,2150,2052,2067,2076,1197
1905,1713859599959017055,2056,2052,2035,2058,2052,2058,1195
1906,1713859599969016220,2040,2000,1933,2040,2056,2068,1197
1907,1713859599979019429,2039,2028,2014,2053,2021,2044,1192
1908,1713859599989015959,2064,2056,2078,2059,2076,2064,1197
1909,1713859599999019029,2034,2028,2001,2066,2074,2049,1196
1910,1713859600009016304,2062,2065,2030,2061,2061,2048,1194
1911,1713859600019018833,2085,2139,2199,2088,2072,2070,1196
1912,1713859600029061208,2059,2065,2045,2057,2052,2054,1194
1913,1713859600039057049,2047,2050,2071,2045,2044,2048,1196
1914,1713859600049051458,2060,2055,2049,2060,2056,2054,1196
1915,1713859600059045165,2052,2041,2040,2059,2061,1988,1192
1916,1713859600069037020,2064,2080,2172,2037,2038,2048,1194
1917,1713859600079034023,2057,2064,2114,2073,2057,2054,1196
1918,1713859600089026940,2049,2042,2044,2045,2053,2047,1194
1919,1713859600099026997,2028,2029,2047,2055,2022,2034,1195
1920,1713859600109027033,2064,2031,1956,2015,1988,2039,1192
1921,1713859600119026039,2035,2007,1932,2002,2030,2081,1195
1922,1713859600129033134,2056,2047,2043,2049,2050,2050,1194
1923,1713859600139029637,2054,2053,2058,2060,2054,2049,1196
1924,1713859600149026468,2058,2057,2058,2054,2056,2051,1196
1925,1713859600159029129,2034,2021,2027,2053,2076,2043,1193
1926,1713859600169053979,2141,2252,2566,2170,2172,2105,1195
1927,1713859600179048638,2012,2012,2022,2027,2007,2062,1196
1928,1713859600189038791,2053,2049,2043,2054,2052,2036,1193
1929,1713859600199033540,2053,2055,2058,2064,2042,2045,1191
1930,1713859600209046325,2026,1992,1857,2021,2054,2036,1194
1931,1713859600219018242,2059,2030,1850,2008,2013,2100,1198
1932,1713859600229015005,2044,2032,2024,2046,2069,2058,1198
1933,1713859600239046524,2054,2057,2064,2064,2058,2053,1196
1934,1713859600249016550,2056,2056,2058,2056,2058,2052,1195
1935,1713859600259035252,2028,2045,2053,2057,2040,2033,1193
1936,1713859600269013809,2102,2171,2228,2178,2148,2143,1195
1937,1713859600279028425,2054,2042,1965,2044,2025,2010,1192
1938,1713859600289022473,2048,2039,2045,2044,2054,2045,1192
1939,1713859600299042157,2079,2110,2283,2109,2088,2068,1195
1940,1713859600309017910,2037,2012,1952,2030,2040,2053,1195
1941,1713859600319019940,2041,2029,1995,2058,2056,2047,1193
1942,1713859600329007098,2056,2056,2050,2049,2056,2059,1197
1943,1713859600339021035,2071,2084,2114,2076,2051,2042,1192
1944,1713859600349015984,2045,2047,2048,1999,2016,2081,1196
1945,1713859600359021017,2056,2052,2053,2040,2033,2020,1194
1946,1713859600369017359,2049,2038,2074,2035,2045,2040,1192
1947,1713859600379018447,2046,2035,2015,2034,2041,2047,1193
1948,1713859600389029548,2057,2029,2003,2043,2058,2072,1195
1949,1713859600399024608,2052,2055,2054,2042,2020,2049,1195
1950,1713859600409023443,2045,2041,2024,2047,2060,2064,1197
1951,1713859600419018652,2059,2061,2104,2072,2062,2064,1199
1952,1713859600429017598,2048,2044,2059,2042,2062,2066,1197
1953,1713859600439013789,2056,2093,2147,2081,2065,2070,1198
1954,1713859600449016810,2043,2034,2003,2061,2065,2042,1194
1955,1713859600459019009,2056,2050,2030,2041,2021,2042,1193
1956,1713859600469016953,2061,2036,2020,2049,2056,2075,1197
1957,1713859600479020694,2058,2060,2013,2054,2044,2041,1193
1958,1713859600489017246,2052,2047,2033,2024,2044,2056,1195
1959,1713859600499017834,2055,2040,2032,2056,2080,2047,1193
1960,1713859600509014706,2061,2055,2104,2057,2081,2052,1195
1961,1713859600519016986,2044,2052,2060,2052,2019,2041,1192
1962,1713859600529015570,2053,2047,2037,2054,2061,2053,1195
1963,1713859600539029275,2050,2031,2009,2035,2034,2051,1192
1964,1713859600549022452,2064,2080,2124,2047,2054,2064,1196
1965,1713859600559021858,2046,2028,1980,2046,2076,2057,1193
1966,1713859600569015245,2046,2032,2014,2048,2077,2048,1193
1967,1713859600579018096,2069,2076,2097,2088,2041,2050,1196
1968,1713859600589018623,2049,2074,2104,2077,2048,2072,1195
1969,1713859600599021243,2041,2026,2028,2048,2045,2043,1193
1970,1713859600609018816,2065,2068,2156,2072,2095,2124,1196
1971,1713859600619020435,2052,2026,2026,2044,2067,2047,1193
1972,1713859600629018068,2040,2008,1908,2041,2046,2056,1198
1973,1713859600639031112,2049,2057,2045,2045,2054,2068,1196
1974,1713859600649026723,2072,2101,2173,2078,2067,2053,1196
1975,1713859600659024086,2060,2061,1988,2073,2029,2068,1198
1976,1713859600669019457,2056,2058,2130,2061,2048,2050,1197
1977,1713859600679018722,2037,2025,2004,2028,2021,2012,1194
1978,1713859600689038966,2022,2034,2045,2018,2011,2044,1193
1979,1713859600699017213,2056,2064,2128,2040,2037,2050,1197
1980,1713859600709015807,2061,2056,2034,2084,2091,2081,1196
1981,1713859600719020070,2066,2077,2105,2063,2054,2078,1193
1982,1713859600729029499,2052,2037,2010,2040,2000,2046,1192
1983,1713859600739027062,2054,2052,1968,2059,2046,2050,1197
1984,1713859600749020810,2066,2061,2079,2056,2064,2053,1195
1985,1713859600759021618,2038,2024,2013,2057,2072,2028,1192
1986,1713859600769019010,2056,2047,2013,2077,2048,2044,1195
1987,1713859600779015863,2064,2082,2156,2065,2045,2026,1196
1988,1713859600789035185,2049,2029,1978,2049,2064,2024,1192
1989,1713859600799020562,2115,2218,2324,2120,2088,2084,1197
1990,1713859600809016082,2041,2029,2014,2015,2044,2034,1192
1991,1713859600819019153,2053,2050,2045,2058,2038,2060,1197
1992,1713859600829024327,2043,2030,1988,2038,2049,2044,1194
1993,1713859600839018284,2078,2110,2157,2097,2081,2104,1196
1994,1713859600849035655,2044,2047,2130,2038,2045,2023,1196
1995,1713859600859018448,2047,2044,2082,2056,2052,2052,1197
1996,1713859600869020948,2062,2056,2059,2056,2060,2056,1197
1997,1713859600879017059,2045,2050,2061,2052,2036,2046,1193
1998,1713859600889029924,2027,2002,1946,2013,1972,2088,1197
1999,1713859600899025343,2072,2065,2060,2108,2059,2050,1198
2000,1713859600909020954,2050,2045,2028,2041,2053,2048,1197
2001,1713859600919018507,2056,2060,2047,2063,2060,2060,1195
2002,1713859600929021828,2042,2020,1943,2032,2040,2024,1193
2003,1713859600939021544,2046,2070,2122,2072,2126,2075,1195
2004,1713859600949150156,2049,2036,2012,2041,2060,2059,1198
2005,1713859600959016731,2053,2049,2041,2056,2056,2056,1195
2006,1713859600969018960,2056,2061,2065,2047,2053,2054,1196
2007,1713859600978987043,2053,2052,2058,2036,2034,2052,1197
2008,1713859600989021226,2021,2022,1980,2029,2009,1989,1193
2009,1713859600999035622,2029,2013,1941,2032,2028,2017,1194
2010,1713859601009018389,2046,2023,1993,2039,2018,2040,1192
2011,1713859601019041608,2052,2040,2002,2062,2056,2050,1195
2012,1713859601029018143,2057,2052,2050,2037,2044,2047,1195
2013,1713859601039028554,2038,2006,1936,2026,2061,2050,1196
2014,1713859601049032877,2045,2041,2039,2049,2057,2053,1195
2015,1713859601059014880,2052,2052,2052,2017,2014,2049,1196
2016,1713859601069018963,2052,2046,2041,2039,2024,2064,1194
2017,1713859601079019370,2039,2024,1981,2040,2045,2042,1194
2018,1713859601089043390,2110,2165,2268,2090,2070,2080,1197
2019,1713859601099023721,2049,2033,2016,2049,2038,2037,1192
2020,1713859601109024759,2044,2019,1984,2024,2024,2042,1193
2021,1713859601119015253,2064,2060,2140,2072,2080,2101,1194
2022,1713859601129018215,2038,2044,2112,2045,2052,2060,1196
2023,1713859601139049765,2077,2084,2125,2097,2104,2090,1194
2024,1713859601149026440,2035,2039,2034,2028,2061,2053,1194
2025,1713859601159023944,2054,2055,2025,2046,2038,2066,1197
2026,1713859601169017402,2053,2043,2023,2035,2036,2068,1196
2027,1713859601179020223,2060,2052,2002,2046,2046,2048,1193
2028,1713859601189048058,2051,2043,2044,2044,2047,2037,1195
2029,1713859601199015521,2058,2061,1991,2053,2044,2044,1193
2030,1713859601209018122,2068,2070,2113,2070,2066,2050,1193
2031,1713859601219019531,2046,2056,2066,2064,2067,2084,1195
2032,1713859601229017776,2076,2077,2068,2059,2033,2039,1194
2033,1713859601239028507,2054,2053,2096,2054,2041,2044,1194
2034,1713859601249014075,2050,2045,2044,2052,2062,2073,1199
2035,1713859601259020981,2037,2009,1980,2055,2081,2033,1192
2036,1713859601269016402,2082,2100,2214,2068,2058,2049,1196
2037,1713859601279015989,2048,2037,2040,2040,2034,2021,1193
2038,1713859601289031858,2068,2076,2135,2061,2037,2046,1194
2039,1713859601299019558,2036,2013,1947,2033,1981,2017,1193
2040,1713859601309020837,2052,2039,2019,2037,2054,2044,1192
2041,1713859601319017439,2056,2054,2051,2050,2052,2050,1195
2042,1713859601329027951,2052,2054,2057,2050,2059,2035,1192
2043,1713859601339025325,2080,2133,2223,2096,2076,2094,1199
2044,1713859601349014247,2048,2015,1976,2038,2058,2044,1193
2045,1713859601359017318,2042,2031,2016,2053,2046,2052,1197
2046,1713859601369021831,2059,2057,2051,2049,2053,2050,1195
2047,1713859601379045300,2049,2046,2037,2064,2109,2078,1195
2048,1713859601389035254,2092,2121,2215,2096,2059,2084,1196
2049,1713859601399028592,2046,2016,1965,2027,2025,2033,1195
2050,1713859601409023622,2052,2044,2041,2038,2044,2044,1193
2051,1713859601419020004,2050,2043,2045,2044,2041,2050,1196
2052,1713859601429035703,2072,2105,2132,2082,2089,2092,1195
2053,1713859601439014892,2046,2034,2000,2066,2068,2073,1196
2054,1713859601449018915,2056,2053,2050,2055,2056,2045,1193
2055,1713859601459024008,2037,2024,1998,2050,2040,2039,1193
2056,1713859601469018989,2081,2120,2188,2068,2032,2064,1196
2057,1713859601479038272,2050,2047,2070,2058,2029,2048,1194
2058,1713859601489011904,2061,2063,2027,2056,2056,2045,1194
2059,1713859601499025669,2046,2048,2076,2047,2040,2040,1194
2060,1713859601509022833,2061,2054,2077,2050,2058,2065,1195
2061,1713859601519023380,2060,2065,2089,2060,2034,2052,1193
2062,1713859601529039650,2057,2057,2060,2048,2064,2038,1192
2063,1713859601539025568,2069,2109,2319,2090,2061,2070,1195
2064,1713859601549025085,2056,2049,2072,2056,2041,2036,1193
2065,1713859601559021977,2050,2043,2018,2067,2082,2057,1196
2066,1713859601569036715,2060,2060,2124,2052,2037,2036,1195
2067,1713859601579018917,2054,2046,2014,2057,2038,2021,1193
2068,1713859601589019005,2053,2042,2024,2051,2058,2031,1191
2069,1713859601599022126,2055,2067,2078,2032,2014,2037,1194
2070,1713859601609014853,2052,2039,2017,2028,2050,2052,1197
2071,1713859601619047996,2049,2054,2052,2053,2008,2016,1195
2072,1713859601629016369,2070,2096,2136,2053,2077,2074,1198
2073,1713859601639009197,2051,2045,2064,2064,2067,2028,1196
2074,1713859601649028910,2044,2036,1978,2035,2064,2066,1196
2075,1713859601659042587,2062,2035,2002,2042,2047,2091,1196
2076,1713859601669019652,2042,2044,2036,2045,2036,2040,1194
2077,1713859601679018698,2065,2042,2036,2043,2013,2036,1193
2078,1713859601689018315,2132,2184,2298,2100,2111,2075,1196
2079,1713859601699025863,2046,2032,2017,2063,2045,2043,1194
2080,1713859601709078591,2048,2060,2083,2070,2060,2073,1195
2081,1713859601719013440,2060,2059,2075,2063,2057,2060,1195
2082,1713859601729017092,2054,2050,2044,2047,2050,2074,1195
2083,1713859601739052468,2047,2047,2045,2049,2014,1987,1192
2084,1713859601749047587,2071,2104,2146,2069,2062,2104,1198
2085,1713859601759040686,2070,2088,2292,2084,2076,2085,1195
2086,1713859601769034664,2058,2057,2036,2053,2066,2054,1195
2087,1713859601779030777,2043,2029,2027,2068,2074,2042,1192
2088,1713859601789027348,2061,2064,2096,2063,2044,2056,1194
2089,1713859601799059770,2048,2045,2057,2065,2072,2060,1196
2090,1713859601809032229,2042,2040,2032,2073,2066,2051,1195
2091,1713859601819026650,2055,2058,2020,2071,2032,2051,1197
2092,1713859601829031242,2077,2095,2186,2109,2109,2022,1194
2093,1713859601838998726,2055,2054,2011,2071,2025,2040,1194
2094,1713859601849028643,2064,2067,2115,2075,2076,2074,1196
2095,1713859601859070367,2056,2044,2032,2019,2041,2102,1196
2096,1713859601869047934,2057,2065,2037,2055,2052,2067,1196
2097,1713859601879041873,2051,2036,1981,2047,2041,2040,1195
2098,1713859601889034790,2082,2103,2116,2068,2036,2042,1196
2099,1713859601899030601,2041,2039,2044,2072,2051,2055,1196
2100,1713859601909026794,2056,2050,2047,2049,2055,2040,1194
2101,1713859601919027892,2045,2041,2047,2024,2056,2043,1189
2102,1713859601929018246,2072,2068,2053,2060,2064,2040,1193
2103,1713859601939019966,2061,2047,2034,2065,2051,2120,1196
2104,1713859601949017179,2056,2056,2078,2042,2061,2058,1194
2105,1713859601959020180,2043,2036,2030,2050,2042,2064,1195
2106,1713859601969040966,2051,2052,2065,2013,2058,2096,1196
2107,1713859601979014997,2046,2041,2042,1973,2008,2059,1196
2108,1713859601989016937,2068,2088,2116,2085,2077,2070,1194
2109,1713859601999026848,2050,2045,2070,2060,2032,2051,1195
2110,1713859602009018207,2053,2040,2003,2051,2059,2037,1193
2111,1713859602019026596,2032,2032,2056,2045,2022,2094,1196
2112,1713859602029012404,2052,2038,1997,2033,2021,2042,1193
2113,1713859602039018259,2052,2047,2039,2070,2066,2063,1195
2114,1713859602049026497,2054,2047,2050,2041,2018,2020,1193
2115,1713859602059032863,2070,2052,2100,2076,2033,2046,1195
2116,1713859602069042974,2051,2049,2034,2041,2043,2051,1196
2117,1713859602079020210,2056,2046,2047,2068,2062,2053,1196
2118,1713859602089020207,2056,2056,2089,2044,2074,2039,1193
2119,1713859602099022247,2046,2033,2074,2041,2040,2064,1198
2120,1713859602109015364,2056,2043,2064,2058,2033,1945,1193
2121,1713859602119020920,2057,2056,2049,2094,2052,2058,1193
2122,1713859602129019494,2049,2044,2025,2062,2065,2057,1197
2123,1713859602139020263,2071,2068,2104,2084,2078,2184,1197
2124,1713859602149014973,2046,2032,1989,2053,2072,2034,1195
2125,1713859602159028329,2052,2045,2006,2061,2073,2053,1194
2126,1713859602169024780,2045,2045,2046,2030,2061,2025,1193
2127,1713859602179020502,2096,2116,2100,2070,2060,2128,1197
2128,1713859602189015682,2061,2053,2016,2036,2064,2043,1193
2129,1713859602199008830,2037,2032,2004,1979,2024,2034,1193
2130,1713859602209031939,2072,2074,2073,2057,2054,2068,1196
2131,1713859602219032256,2053,2054,2057,2064,2075,2064,1196
2132,1713859602229020097,2047,2044,2039,2050,2049,2032,1196
2133,1713859602239028285,2044,2043,2048,2052,2027,2041,1192
2134,1713859602249024007,2063,2064,2066,2066,2072,2070,1197
2135,1713859602259025356,2051,2052,2052,2050,2047,2034,1194
2136,1713859602269036938,2053,2048,2052,2052,2068,2068,1196
2137,1713859602279018370,2061,2072,2057,2071,2051,2072,1194
2138,1713859602289018187,2037,2015,1948,1969,2025,2047,1193
2139,1713859602299032324,2046,2041,2044,2066,2085,2042,1194
2140,1713859602309026533,2069,2077,2053,2057,2060,2062,1196
2141,1713859602319019701,2040,2031,2024,2032,2019,2066,1193
2142,1713859602329017274,2057,2061,2027,2064,2061,2044,1192
2143,1713859602339024551,2060,2086,2113,2075,2061,2088,1196
2144,1713859602349019362,2050,2040,2015,2057,2064,2043,1194
2145,1713859602359020670,2051,2048,2041,1952,2061,2087,1196
2146,1713859602369033335,2054,2058,2012,2030,2044,2119,1193
2147,1713859602379030959,2063,2068,2127,2056,2067,2046,1192
2148,1713859602389019110,2050,2035,1994,2052,2057,2099,1196
2149,1713859602399053654,2046,2036,2012,2045,2028,2046,1192
2150,1713859602409027426,2051,2049,2024,2030,2047,2032,1195
2151,1713859602419038458,2056,2040,2056,2072,2057,2047,1195
2152,1713859602429017125,2064,2048,1991,2041,2072,2065,1197
2153,1713859602439026306,2047,2036,2024,2043,2049,2050,1196
2154,1713859602449016970,2047,2068,2124,2066,2095,2056,1193
2155,1713859602459020873,2053,2037,2052,2064,2038,2059,1195
2156,1713859602469034979,2050,2040,2056,2047,2041,2085,1197
2157,1713859602479013868,2058,2061,2123,2070,2048,2074,1198
2158,1713859602489015416,2057,2050,2050,2058,2054,2089,1196
2159,1713859602499027880,2051,2040,2033,2043,2031,2083,1194
2160,1713859602509018144,2057,2060,2102,2085,2089,2064,1193
2161,1713859602519030959,2055,2074,2177,2072,2070,2064,1194
2162,1713859602529013042,2049,2044,2012,2040,2068,2055,1194
2163,1713859602539022021,2046,2033,2010,2049,2036,2056,1197
2164,1713859602549017332,2047,2052,2089,2038,2041,2040,1190
2165,1713859602559026141,2065,2045,1997,2046,2039,2018,1193
2166,1713859602569032597,2046,2032,1992,2025,2036,2032,1192
2167,1713859602579021138,2044,2036,2014,2065,2060,2044,1194
2168,1713859602589019142,2067,2064,2043,2046,2044,2052,1197
2169,1713859602599022975,2044,2057,2129,2058,2068,2042,1192
2170,1713859602609017675,2052,2048,2066,2048,2044,2041,1194
2171,1713859602619031441,2052,2056,2078,2067,2048,2082,1196
2172,1713859602629012262,2062,2060,2114,2066,2080,2098,1197
2173,1713859602639017677,2050,2048,2040,2028,2049,2040,1193
2174,1713859602649012106,2069,2067,2107,2061,2054,2044,1192
2175,1713859602659027414,2046,2041,2068,2043,2040,2049,1197
2176,1713859602669012030,2051,2045,2016,2100,2089,2048,1193
2177,1713859602679021460,2065,2081,2072,2074,2012,2061,1196
2178,1713859602689016551,2050,2025,1980,2045,2071,2056,1194
2179,1713859602699023367,2049,2046,2044,1957,2020,2064,1194
2180,1713859602709022203,2059,2050,2041,2058,2068,1997,1193
2181,1713859602719021529,2040,2040,2026,2073,2088,2092,1194
2182,1713859602729020165,2057,2049,2042,2042,2045,2058,1196
2183,1713859602739023526,2044,2036,2017,2052,2060,2064,1197
2184,1713859602749019297,2090,2122,2078,2090,2074,2080,1195
2185,1713859602759022119,2048,2027,1990,2058,2041,2056,1193
2186,1713859602769021785,2048,2045,2038,2060,2052,2044,1193
2187,1713859602779024126,2060,2044,1994,2050,2028,2056,1197
2188,1713859602789018855,2042,2032,2033,2058,2051,2066,1196
2189,1713859602799020856,2056,2036,2007,2025,1982,2016,1191
2190,1713859602809034291,2064,2045,2036,2050,2057,2013,1193
2191,1713859602819022872,2057,2062,2065,2042,2004,2022,1194
2192,1713859602829022843,2056,2047,2072,2050,2071,2054,1196
2193,1713859602839021336,2060,2069,2100,2092,2085,1972,1195
2194,1713859602849019638,2074,2100,2187,2072,2053,2043,1194
2195,1713859602859018371,2085,2121,2208,2092,2088,2076,1196
2196,1713859602869021049,2038,2025,1998,2047,2047,2057,1196
2197,1713859602879021675,2049,2026,2028,2029,2013,2038,1195
2198,1713859602889017453,2045,2039,2026,2057,2072,2050,1197
2199,1713859602899021103,2042,2040,2016,2083,2089,2088,1197
2200,1713859602909021869,2068,2105,2245,2081,2093,2083,1198
2201,1713859602919020552,2060,2053,1988,2088,2032,2033,1193
2202,1713859602929019806,2079,2111,2110,2100,2091,2041,1195
2203,1713859602939030727,2064,2026,1958,2045,1979,2072,1197
2204,1713859602949027306,2051,2047,2043,2064,2072,2033,1194
2205,1713859602959022664,2047,2051,2056,2061,2093,2133,1194
2206,1713859602969028227,2052,2048,2054,2065,2065,2052,1196
2207,1713859602979013731,2047,2051,2052,2052,2044,2038,1193
2208,1713859602989034326,2050,2056,2052,2056,2061,2041,1194
2209,1713859602999023504,2052,2054,2036,2056,2040,2053,1194
2210,1713859603009021609,2079,2095,2047,2068,2082,2123,1195
2211,1713859603019022417,2072,2089,1984,2057,2026,2069,1197
2212,1713859603029031785,2048,2044,2013,2053,2060,2051,1197
