202.0,1.7110037287608136e+18,0.47127937336814624,0.4178082191780822,0.3335135135135135,0.5020787478601125,0.6450549450549451,0.43902439024390244,1198.0
203.0,1.711003728770813e+18,0.47389033942558745,0.4189497716894977,0.3589189189189189,0.5015896307165566,0.6384615384615384,0.44911690496215306,1197.0
204.0,1.711003728780818e+18,0.46344647519582244,0.408675799086758,0.3308108108108108,0.4839814135485449,0.6076923076923076,0.4415475189234651,1196.0
205.0,1.7110037287908137e+18,0.48172323759791125,0.4189497716894977,0.3362162162162162,0.47957935925654194,0.5758241758241758,0.4348191757779647,1199.0
206.0,1.7110037288008148e+18,0.4804177545691906,0.4257990867579909,0.3589189189189189,0.5086818292981169,0.6318681318681318,0.44575273338940286,1197.0
207.0,1.711003728810815e+18,0.4804177545691906,0.4189497716894977,0.34864864864864864,0.49816581071166544,0.6131868131868132,0.4381833473507149,1195.0
208.0,1.7110037288208154e+18,0.4699738903394256,0.4063926940639269,0.32432432432432434,0.49327463927610665,0.5802197802197803,0.42977291841883936,1194.0
209.0,1.7110037288308152e+18,0.47780678851174935,0.4052511415525114,0.33405405405405403,0.4991440449987772,0.6032967032967033,0.432296047098402,1193.0
210.0,1.7110037288408166e+18,0.46344647519582244,0.4029680365296804,0.32054054054054054,0.5008559550012228,0.6285714285714286,0.43902439024390244,1199.0
211.0,1.7110037288508165e+18,0.4765013054830287,0.4132420091324201,0.3254054054054054,0.4988994864269993,0.5747252747252747,0.4449116904962153,1196.0
212.0,1.7110037288608174e+18,0.47389033942558745,0.4075342465753425,0.32216216216216215,0.4988994864269993,0.589010989010989,0.4381833473507149,1195.0
213.0,1.7110037288708178e+18,0.47389033942558745,0.4006849315068493,0.32432432432432434,0.5020787478601125,0.6285714285714286,0.4415475189234651,1195.0
214.0,1.7110037288808187e+18,0.4765013054830287,0.4200913242009132,0.3324324324324324,0.5025678650036683,0.6516483516483517,0.43566021867115223,1193.0
215.0,1.7110037288908198e+18,0.4869451697127937,0.4360730593607306,0.3572972972972973,0.5067253607238934,0.6934065934065934,0.45164003364171573,1197.0
216.0,1.7110037289008187e+18,0.47389033942558745,0.4178082191780822,0.3302702702702703,0.5013450721447786,0.6318681318681318,0.4415475189234651,1197.0
217.0,1.7110037289108193e+18,0.4804177545691906,0.4417808219178082,0.36,0.5047688921496698,0.6263736263736264,0.4449116904962153,1195.0
218.0,1.7110037289208023e+18,0.46866840731070497,0.3904109589041096,0.31891891891891894,0.499877720714111,0.6241758241758242,0.43650126156433977,1196.0
219.0,1.7110037289308047e+18,0.4660574412532637,0.4075342465753425,0.33297297297297296,0.5020787478601125,0.6329670329670329,0.4339781328847771,1193.0
220.0,1.7110037289408218e+18,0.46866840731070497,0.4212328767123288,0.312972972972973,0.49767669356810956,0.6065934065934065,0.43313708999158956,1193.0
221.0,1.7110037289508024e+18,0.5,0.4771689497716895,0.3864864864864865,0.5084372707263389,0.656043956043956,0.46173254835996635,1196.0
222.0,1.7110037289608215e+18,0.4765013054830287,0.4121004566210046,0.3237837837837838,0.5008559550012228,0.6274725274725275,0.4381833473507149,1196.0
223.0,1.7110037289708047e+18,0.4699738903394256,0.4132420091324201,0.3372972972972973,0.5015896307165566,0.6296703296703297,0.43986543313709,1196.0
224.0,1.7110037289808056e+18,0.4699738903394256,0.4315068493150685,0.3589189189189189,0.49327463927610665,0.5901098901098901,0.43313708999158956,1193.0
225.0,1.7110037289908273e+18,0.4765013054830287,0.4315068493150685,0.33297297297297296,0.5020787478601125,0.6131868131868132,0.43650126156433977,1197.0
226.0,1.7110037290008067e+18,0.4765013054830287,0.4052511415525114,0.3210810810810811,0.49767669356810956,0.6065934065934065,0.43986543313709,1196.0
227.0,1.7110037290108326e+18,0.4804177545691906,0.4178082191780822,0.33783783783783783,0.5025678650036683,0.6384615384615384,0.4432296047098402,1198.0
228.0,1.7110037290208064e+18,0.47127937336814624,0.4052511415525114,0.312972972972973,0.5059916850085595,0.6681318681318681,0.4440706476030278,1196.0
229.0,1.7110037290308319e+18,0.47780678851174935,0.4269406392694064,0.34540540540540543,0.5008559550012228,0.6450549450549451,0.43986543313709,1196.0
230.0,1.7110037290408297e+18,0.47389033942558745,0.4337899543378995,0.3356756756756757,0.5086818292981169,0.5483516483516484,0.4339781328847771,1193.0
231.0,1.7110037290508037e+18,0.46344647519582244,0.3984018264840183,0.32432432432432434,0.5011005135730008,0.6472527472527473,0.4482758620689655,1195.0
232.0,1.711003729060802e+18,0.4660574412532637,0.4360730593607306,0.3286486486486486,0.49938860357055515,0.6230769230769231,0.43650126156433977,1195.0
233.0,1.711003729070802e+18,0.5078328981723238,0.4851598173515982,0.42,0.5067253607238934,0.6120879120879121,0.43902439024390244,1197.0
234.0,1.7110037290808028e+18,0.4660574412532637,0.4041095890410959,0.3291891891891892,0.5023233064318905,0.6373626373626373,0.4432296047098402,1194.0
235.0,1.7110037290908106e+18,0.4804177545691906,0.4212328767123288,0.34054054054054056,0.5025678650036683,0.6274725274725275,0.4432296047098402,1199.0
236.0,1.7110037291008276e+18,0.48172323759791125,0.4257990867579909,0.35027027027027025,0.5025678650036683,0.621978021978022,0.44911690496215306,1193.0
237.0,1.7110037291108e+18,0.47780678851174935,0.4178082191780822,0.3308108108108108,0.5025678650036683,0.6274725274725275,0.43902439024390244,1196.0
238.0,1.7110037291208056e+18,0.4699738903394256,0.4052511415525114,0.31189189189189187,0.4996331621423331,0.6142857142857143,0.4339781328847771,1196.0
239.0,1.7110037291308058e+18,0.4934725848563969,0.4383561643835616,0.33945945945945943,0.5106382978723404,0.6747252747252748,0.4440706476030278,1195.0
240.0,1.7110037291408064e+18,0.46475195822454307,0.3995433789954338,0.3210810810810811,0.5003668378576669,0.6274725274725275,0.4381833473507149,1194.0
241.0,1.7110037291508293e+18,0.47127937336814624,0.4098173515981735,0.3308108108108108,0.5028124235754463,0.6505494505494506,0.44238856181665265,1195.0
242.0,1.7110037291608054e+18,0.4765013054830287,0.4132420091324201,0.3172972972972973,0.5089263878698949,0.610989010989011,0.44575273338940286,1197.0
243.0,1.711003729170805e+18,0.47780678851174935,0.4257990867579909,0.3518918918918919,0.5059916850085595,0.6373626373626373,0.43902439024390244,1197.0
244.0,1.7110037291808049e+18,0.47127937336814624,0.3995433789954338,0.3216216216216216,0.5006113964294449,0.6098901098901099,0.4432296047098402,1196.0
245.0,1.7110037291908365e+18,0.4830287206266319,0.45662100456621,0.34540540540540543,0.5015896307165566,0.6230769230769231,0.44575273338940286,1198.0
246.0,1.7110037292008015e+18,0.4765013054830287,0.4235159817351598,0.34702702702702704,0.499877720714111,0.6153846153846154,0.4381833473507149,1196.0
247.0,1.7110037292108073e+18,0.4765013054830287,0.4132420091324201,0.34054054054054056,0.5055025678650037,0.667032967032967,0.44575273338940286,1196.0
248.0,1.711003729220802e+18,0.4765013054830287,0.4235159817351598,0.3481081081081081,0.5015896307165566,0.6032967032967033,0.4381833473507149,1196.0
249.0,1.7110037292308e+18,0.48825065274151436,0.4520547945205479,0.3567567567567568,0.5057471264367817,0.6285714285714286,0.4465937762825904,1196.0
250.0,1.7110037292408187e+18,0.4699738903394256,0.4075342465753425,0.3216216216216216,0.49938860357055515,0.6241758241758242,0.44575273338940286,1196.0
251.0,1.7110037292508006e+18,0.47127937336814624,0.3812785388127854,0.3291891891891892,0.4966984592809978,0.6,0.4381833473507149,1196.0
252.0,1.711003729260795e+18,0.4765013054830287,0.4029680365296804,0.3302702702702703,0.5006113964294449,0.6230769230769231,0.44070647603027757,1195.0
253.0,1.7110037292707945e+18,0.4725848563968668,0.4098173515981735,0.33297297297297296,0.5035460992907801,0.6461538461538462,0.4415475189234651,1194.0
254.0,1.7110037292807939e+18,0.4765013054830287,0.4143835616438356,0.3254054054054054,0.4944974321349963,0.5923076923076923,0.432296047098402,1192.0
255.0,1.711003729290817e+18,0.4830287206266319,0.4337899543378995,0.34594594594594597,0.5018341892883346,0.6186813186813187,0.4415475189234651,1197.0
256.0,1.7110037293008154e+18,0.48825065274151436,0.4600456621004566,0.41405405405405404,0.5047688921496698,0.6351648351648351,0.43902439024390244,1195.0
257.0,1.711003729310812e+18,0.48172323759791125,0.4315068493150685,0.30648648648648646,0.5028124235754463,0.6241758241758242,0.43986543313709,1195.0
258.0,1.7110037293208174e+18,0.46866840731070497,0.4132420091324201,0.327027027027027,0.4930300807043287,0.6098901098901099,0.43986543313709,1196.0
259.0,1.7110037293308047e+18,0.47911227154047,0.4075342465753425,0.3286486486486486,0.4988994864269993,0.6131868131868132,0.43566021867115223,1196.0
260.0,1.711003729340841e+18,0.4804177545691906,0.4257990867579909,0.34162162162162163,0.49938860357055515,0.6175824175824176,0.4507989907485282,1195.0
261.0,1.7110037293508093e+18,0.47127937336814624,0.410958904109589,0.34540540540540543,0.5003668378576669,0.6241758241758242,0.4432296047098402,1195.0
262.0,1.7110037293608061e+18,0.47911227154047,0.4189497716894977,0.33783783783783783,0.5015896307165566,0.6274725274725275,0.4381833473507149,1195.0
263.0,1.7110037293708058e+18,0.489556135770235,0.4691780821917808,0.3864864864864865,0.5096600635852286,0.6384615384615384,0.43902439024390244,1195.0
264.0,1.7110037293808026e+18,0.4699738903394256,0.4029680365296804,0.33135135135135135,0.5035460992907801,0.6153846153846154,0.4381833473507149,1197.0
265.0,1.7110037293908285e+18,0.4765013054830287,0.4052511415525114,0.3362162162162162,0.5006113964294449,0.610989010989011,0.4373423044575273,1200.0
266.0,1.7110037294007872e+18,0.47127937336814624,0.4132420091324201,0.3237837837837838,0.5001222792858889,0.6593406593406593,0.4381833473507149,1198.0
267.0,1.7110037294108252e+18,0.47389033942558745,0.4155251141552511,0.33837837837837836,0.5023233064318905,0.6274725274725275,0.4381833473507149,1198.0
268.0,1.7110037294208067e+18,0.47780678851174935,0.4132420091324201,0.33135135135135135,0.4986549278552213,0.5967032967032967,0.43313708999158956,1194.0
269.0,1.711003729430807e+18,0.47911227154047,0.4155251141552511,0.33297297297297296,0.499877720714111,0.6208791208791209,0.43902439024390244,1197.0
270.0,1.711003729440828e+18,0.47127937336814624,0.3961187214611872,0.3281081081081081,0.5008559550012228,0.6175824175824176,0.4381833473507149,1194.0
271.0,1.7110037294507958e+18,0.4765013054830287,0.4132420091324201,0.33837837837837836,0.5020787478601125,0.6252747252747253,0.4415475189234651,1196.0
272.0,1.711003729460789e+18,0.4725848563968668,0.4098173515981735,0.32972972972972975,0.5047688921496698,0.6780219780219781,0.4415475189234651,1199.0
273.0,1.7110037294707894e+18,0.4830287206266319,0.4178082191780822,0.33675675675675676,0.4966984592809978,0.6142857142857143,0.4415475189234651,1194.0
274.0,1.7110037294807885e+18,0.47389033942558745,0.4143835616438356,0.3324324324324324,0.4966984592809978,0.6153846153846154,0.43566021867115223,1194.0
275.0,1.711003729490788e+18,0.4804177545691906,0.3995433789954338,0.3335135135135135,0.5001222792858889,0.6274725274725275,0.4465937762825904,1196.0
276.0,1.7110037295007864e+18,0.45822454308093996,0.3938356164383562,0.33135135135135135,0.4969430178527757,0.5934065934065934,0.4449116904962153,1198.0
277.0,1.7110037295107945e+18,0.47911227154047,0.4132420091324201,0.33837837837837836,0.5025678650036683,0.6450549450549451,0.4465937762825904,1196.0
278.0,1.7110037295207967e+18,0.4765013054830287,0.4178082191780822,0.33675675675675676,0.5001222792858889,0.6329670329670329,0.4415475189234651,1197.0
279.0,1.7110037295307942e+18,0.4765013054830287,0.4121004566210046,0.33675675675675676,0.5079481535827831,0.6538461538461539,0.4465937762825904,1195.0
280.0,1.711003729540796e+18,0.4765013054830287,0.4178082191780822,0.3308108108108108,0.5001222792858889,0.6318681318681318,0.4432296047098402,1196.0
281.0,1.7110037295507912e+18,0.4725848563968668,0.4143835616438356,0.33837837837837836,0.5023233064318905,0.621978021978022,0.4381833473507149,1196.0
282.0,1.711003729560788e+18,0.47389033942558745,0.408675799086758,0.33405405405405403,0.5008559550012228,0.6230769230769231,0.4415475189234651,1196.0
283.0,1.711003729570792e+18,0.4765013054830287,0.4121004566210046,0.33837837837837836,0.5015896307165566,0.6274725274725275,0.4415475189234651,1198.0
284.0,1.711003729580792e+18,0.47780678851174935,0.4178082191780822,0.33513513513513515,0.5008559550012228,0.643956043956044,0.4280908326324643,1196.0
285.0,1.711003729590805e+18,0.4804177545691906,0.4178082191780822,0.3372972972972973,0.4986549278552213,0.6285714285714286,0.447434819175778,1198.0
286.0,1.7110037296007846e+18,0.47127937336814624,0.4155251141552511,0.33405405405405403,0.5023233064318905,0.6142857142857143,0.4381833473507149,1196.0
287.0,1.7110037296107922e+18,0.4804177545691906,0.4178082191780822,0.3372972972972973,0.5025678650036683,0.6241758241758242,0.43566021867115223,1198.0
288.0,1.7110037296207962e+18,0.4725848563968668,0.4155251141552511,0.33297297297297296,0.5059916850085595,0.6461538461538462,0.43566021867115223,1196.0
289.0,1.7110037296307968e+18,0.4725848563968668,0.4132420091324201,0.3372972972972973,0.5035460992907801,0.6329670329670329,0.4432296047098402,1197.0
290.0,1.7110037296408205e+18,0.47127937336814624,0.4189497716894977,0.33297297297297296,0.49205184641721694,0.6120879120879121,0.43313708999158956,1193.0
291.0,1.7110037296507988e+18,0.4765013054830287,0.4178082191780822,0.3362162162162162,0.5035460992907801,0.6626373626373626,0.43313708999158956,1196.0
292.0,1.7110037296607946e+18,0.46736292428198434,0.4121004566210046,0.33297297297297296,0.4996331621423331,0.6285714285714286,0.4482758620689655,1198.0
293.0,1.711003729670792e+18,0.47780678851174935,0.4178082191780822,0.33837837837837836,0.504524333577892,0.6307692307692307,0.43986543313709,1196.0
294.0,1.711003729680793e+18,0.46736292428198434,0.410958904109589,0.3345945945945946,0.5018341892883346,0.6384615384615384,0.4415475189234651,1194.0
295.0,1.7110037296907932e+18,0.47780678851174935,0.4189497716894977,0.3362162162162162,0.5052580092932257,0.6098901098901099,0.4280908326324643,1194.0
296.0,1.7110037297007887e+18,0.47127937336814624,0.4166666666666667,0.33945945945945943,0.5018341892883346,0.6252747252747253,0.43650126156433977,1196.0
297.0,1.7110037297108196e+18,0.4751958224543081,0.4132420091324201,0.3254054054054054,0.5001222792858889,0.6164835164835165,0.4482758620689655,1197.0
298.0,1.7110037297207944e+18,0.4765013054830287,0.4166666666666667,0.3345945945945946,0.5006113964294449,0.6054945054945055,0.4415475189234651,1197.0
299.0,1.711003729730794e+18,0.4765013054830287,0.4178082191780822,0.33837837837837836,0.504279775006114,0.6285714285714286,0.43902439024390244,1196.0
300.0,1.7110037297407995e+18,0.4765013054830287,0.4155251141552511,0.33135135135135135,0.5006113964294449,0.6098901098901099,0.4314550042052145,1194.0
301.0,1.7110037297508001e+18,0.4725848563968668,0.4189497716894977,0.34,0.5094155050134507,0.6406593406593407,0.4827586206896552,1196.0
302.0,1.7110037297607916e+18,0.4725848563968668,0.4155251141552511,0.33405405405405403,0.49620934213744194,0.6010989010989011,0.43986543313709,1197.0
303.0,1.711003729770799e+18,0.4804177545691906,0.4200913242009132,0.33837837837837836,0.5023233064318905,0.6208791208791209,0.4381833473507149,1196.0
304.0,1.711003729780798e+18,0.4765013054830287,0.4143835616438356,0.32432432432432434,0.5018341892883346,0.6021978021978022,0.4289318755256518,1193.0
305.0,1.7110037297907978e+18,0.46344647519582244,0.408675799086758,0.3248648648648649,0.5006113964294449,0.6538461538461539,0.4348191757779647,1195.0
306.0,1.7110037298008049e+18,0.4725848563968668,0.4006849315068493,0.31891891891891894,0.5001222792858889,0.6230769230769231,0.4381833473507149,1197.0
307.0,1.7110037298107976e+18,0.49477806788511747,0.4805936073059361,0.3362162162162162,0.5011005135730008,0.6362637362637362,0.4432296047098402,1194.0
308.0,1.7110037298207987e+18,0.4765013054830287,0.4041095890410959,0.3237837837837838,0.49498654927855223,0.621978021978022,0.4415475189234651,1195.0
309.0,1.7110037298307986e+18,0.47911227154047,0.4143835616438356,0.34,0.5020787478601125,0.6362637362637362,0.4415475189234651,1194.0
310.0,1.711003729840804e+18,0.4765013054830287,0.4223744292237443,0.33513513513513515,0.49620934213744194,0.5945054945054945,0.43313708999158956,1194.0
311.0,1.7110037298507983e+18,0.4869451697127937,0.4223744292237443,0.33837837837837836,0.5011005135730008,0.6131868131868132,0.44238856181665265,1197.0
312.0,1.7110037298607726e+18,0.47127937336814624,0.4178082191780822,0.33513513513513515,0.4996331621423331,0.6153846153846154,0.43566021867115223,1197.0
313.0,1.7110037298708073e+18,0.47911227154047,0.4189497716894977,0.34,0.5025678650036683,0.6252747252747253,0.43902439024390244,1197.0
314.0,1.7110037298808056e+18,0.4765013054830287,0.4178082191780822,0.3362162162162162,0.5018341892883346,0.6230769230769231,0.4373423044575273,1195.0
315.0,1.7110037298908055e+18,0.4765013054830287,0.4178082191780822,0.3372972972972973,0.499877720714111,0.6186813186813187,0.43902439024390244,1196.0
316.0,1.7110037299008033e+18,0.48172323759791125,0.4155251141552511,0.33297297297297296,0.5037906578625581,0.634065934065934,0.447434819175778,1196.0
317.0,1.7110037299108088e+18,0.45822454308093996,0.4178082191780822,0.34486486486486484,0.5035460992907801,0.6285714285714286,0.45164003364171573,1195.0
318.0,1.711003729920803e+18,0.47127937336814624,0.4178082191780822,0.3345945945945946,0.5015896307165566,0.6263736263736264,0.4575273338940286,1197.0
319.0,1.7110037299308037e+18,0.48172323759791125,0.4052511415525114,0.3362162162162162,0.5001222792858889,0.6153846153846154,0.4314550042052145,1193.0
320.0,1.7110037299408174e+18,0.4725848563968668,0.4200913242009132,0.33783783783783783,0.4991440449987772,0.6098901098901099,0.44238856181665265,1197.0
321.0,1.7110037299508132e+18,0.47780678851174935,0.4178082191780822,0.3345945945945946,0.4991440449987772,0.6175824175824176,0.43902439024390244,1196.0
322.0,1.711003729960802e+18,0.4751958224543081,0.4223744292237443,0.34540540540540543,0.5077035950110051,0.6736263736263737,0.45248107653490327,1196.0
323.0,1.7110037299707914e+18,0.4765013054830287,0.4121004566210046,0.34054054054054056,0.5064808021521154,0.6384615384615384,0.4440706476030278,1196.0
324.0,1.7110037299808123e+18,0.46736292428198434,0.3812785388127854,0.3264864864864865,0.4986549278552213,0.6142857142857143,0.43986543313709,1197.0
325.0,1.7110037299907894e+18,0.4804177545691906,0.4200913242009132,0.35783783783783785,0.49767669356810956,0.6230769230769231,0.4381833473507149,1196.0
326.0,1.711003730000824e+18,0.4765013054830287,0.4132420091324201,0.3362162162162162,0.5020787478601125,0.6153846153846154,0.4280908326324643,1194.0
327.0,1.7110037300107924e+18,0.4830287206266319,0.4178082191780822,0.3362162162162162,0.5006113964294449,0.5945054945054945,0.4272497897392767,1196.0
328.0,1.7110037300208123e+18,0.47127937336814624,0.4189497716894977,0.3362162162162162,0.4996331621423331,0.6131868131868132,0.4348191757779647,1198.0
329.0,1.7110037300307988e+18,0.4765013054830287,0.4166666666666667,0.3356756756756757,0.5035460992907801,0.6274725274725275,0.4112699747687132,1194.0
330.0,1.7110037300408177e+18,0.4751958224543081,0.4143835616438356,0.33405405405405403,0.5033015407190022,0.6230769230769231,0.4432296047098402,1196.0
331.0,1.7110037300507894e+18,0.47780678851174935,0.4178082191780822,0.33513513513513515,0.5047688921496698,0.6274725274725275,0.44238856181665265,1197.0
332.0,1.711003730060793e+18,0.4765013054830287,0.4200913242009132,0.33513513513513515,0.499877720714111,0.6175824175824176,0.39781328847771236,1194.0
333.0,1.7110037300707907e+18,0.4765013054830287,0.4178082191780822,0.33945945945945943,0.5057471264367817,0.6274725274725275,0.4465937762825904,1197.0
334.0,1.7110037300807936e+18,0.46475195822454307,0.3778538812785388,0.32594594594594595,0.4942528735632184,0.6098901098901099,0.407905803195963,1194.0
335.0,1.7110037300907948e+18,0.47780678851174935,0.4075342465753425,0.34054054054054056,0.5055025678650037,0.689010989010989,0.45248107653490327,1194.0
336.0,1.7110037301007926e+18,0.4765013054830287,0.4132420091324201,0.33405405405405403,0.5033015407190022,0.6186813186813187,0.43902439024390244,1196.0
337.0,1.7110037301107958e+18,0.4725848563968668,0.410958904109589,0.3318918918918919,0.49938860357055515,0.6428571428571429,0.4533221194280908,1197.0
338.0,1.7110037301207964e+18,0.48433420365535246,0.4463470319634703,0.4064864864864865,0.5059916850085595,0.6362637362637362,0.45164003364171573,1196.0
339.0,1.7110037301308e+18,0.47780678851174935,0.4143835616438356,0.33405405405405403,0.5015896307165566,0.6285714285714286,0.44238856181665265,1197.0
340.0,1.7110037301408044e+18,0.4725848563968668,0.410958904109589,0.3248648648648649,0.5015896307165566,0.6208791208791209,0.4415475189234651,1195.0
341.0,1.7110037301508163e+18,0.47127937336814624,0.4063926940639269,0.33135135135135135,0.5006113964294449,0.6274725274725275,0.4415475189234651,1195.0
342.0,1.7110037301607956e+18,0.4765013054830287,0.4166666666666667,0.34486486486486484,0.5025678650036683,0.6296703296703297,0.43902439024390244,1197.0
343.0,1.7110037301707963e+18,0.4765013054830287,0.4121004566210046,0.3345945945945946,0.5013450721447786,0.6373626373626373,0.43902439024390244,1197.0
344.0,1.7110037301807946e+18,0.47127937336814624,0.4166666666666667,0.3318918918918919,0.499877720714111,0.6175824175824176,0.4415475189234651,1197.0
345.0,1.7110037301907948e+18,0.4751958224543081,0.408675799086758,0.3362162162162162,0.4979212521398875,0.6153846153846154,0.43986543313709,1197.0
346.0,1.7110037302007982e+18,0.46736292428198434,0.4075342465753425,0.33135135135135135,0.5006113964294449,0.6164835164835165,0.4381833473507149,1198.0
347.0,1.7110037302107912e+18,0.47780678851174935,0.410958904109589,0.33513513513513515,0.5015896307165566,0.6329670329670329,0.43902439024390244,1198.0
348.0,1.7110037302207992e+18,0.47127937336814624,0.410958904109589,0.34378378378378377,0.5035460992907801,0.6186813186813187,0.43902439024390244,1195.0
349.0,1.7110037302307932e+18,0.4765013054830287,0.4041095890410959,0.3248648648648649,0.5174859378821227,0.7186813186813187,0.45500420521446594,1195.0
350.0,1.711003730240798e+18,0.4804177545691906,0.430365296803653,0.33297297297297296,0.5035460992907801,0.6142857142857143,0.4432296047098402,1194.0
351.0,1.7110037302507942e+18,0.47127937336814624,0.4178082191780822,0.3389189189189189,0.5020787478601125,0.6362637362637362,0.4449116904962153,1197.0
352.0,1.7110037302607967e+18,0.4751958224543081,0.3949771689497717,0.32756756756756755,0.5064808021521154,0.6296703296703297,0.43902439024390244,1197.0
353.0,1.7110037302708027e+18,0.46475195822454307,0.4052511415525114,0.3372972972972973,0.5111274150158963,0.6901098901098901,0.44238856181665265,1196.0
354.0,1.7110037302807923e+18,0.47389033942558745,0.410958904109589,0.33405405405405403,0.4984103692834434,0.6395604395604395,0.43650126156433977,1197.0
355.0,1.7110037302907935e+18,0.47911227154047,0.410958904109589,0.3232432432432432,0.5008559550012228,0.6230769230769231,0.43902439024390244,1197.0
356.0,1.7110037303008049e+18,0.47911227154047,0.4223744292237443,0.3362162162162162,0.5035460992907801,0.6428571428571429,0.4381833473507149,1195.0
357.0,1.7110037303107945e+18,0.4765013054830287,0.4075342465753425,0.33405405405405403,0.4969430178527757,0.6021978021978022,0.44238856181665265,1197.0
358.0,1.7110037303207939e+18,0.47127937336814624,0.410958904109589,0.33297297297297296,0.5020787478601125,0.6384615384615384,0.43986543313709,1196.0
359.0,1.7110037303307907e+18,0.47780678851174935,0.4178082191780822,0.33837837837837836,0.499877720714111,0.6208791208791209,0.4381833473507149,1197.0
360.0,1.7110037303408215e+18,0.47127937336814624,0.4075342465753425,0.3237837837837838,0.499877720714111,0.6186813186813187,0.4415475189234651,1197.0
361.0,1.7110037303508078e+18,0.48825065274151436,0.4474885844748858,0.38324324324324327,0.5094155050134507,0.6373626373626373,0.44575273338940286,1197.0
362.0,1.7110037303607944e+18,0.4699738903394256,0.408675799086758,0.3281081081081081,0.5116165321594522,0.621978021978022,0.4432296047098402,1199.0
363.0,1.7110037303707884e+18,0.46866840731070497,0.384703196347032,0.32972972972972975,0.5079481535827831,0.656043956043956,0.4415475189234651,1199.0
364.0,1.711003730380788e+18,0.4699738903394256,0.4063926940639269,0.3345945945945946,0.5015896307165566,0.621978021978022,0.44070647603027757,1198.0
365.0,1.7110037303907886e+18,0.47911227154047,0.4200913242009132,0.3362162162162162,0.4988994864269993,0.6120879120879121,0.43902439024390244,1196.0
366.0,1.7110037304007826e+18,0.4699738903394256,0.410958904109589,0.3248648648648649,0.4996331621423331,0.6274725274725275,0.4373423044575273,1196.0
367.0,1.7110037304107876e+18,0.48433420365535246,0.4394977168949772,0.34324324324324323,0.5015896307165566,0.6384615384615384,0.4449116904962153,1197.0
368.0,1.711003730420797e+18,0.47389033942558745,0.4246575342465753,0.3362162162162162,0.49767669356810956,0.610989010989011,0.4348191757779647,1195.0
369.0,1.711003730430794e+18,0.4725848563968668,0.410958904109589,0.3372972972972973,0.5015896307165566,0.6329670329670329,0.43902439024390244,1197.0
370.0,1.7110037304407967e+18,0.4725848563968668,0.4155251141552511,0.33405405405405403,0.5030569821472243,0.5978021978021978,0.43313708999158956,1195.0
371.0,1.711003730450796e+18,0.48172323759791125,0.4246575342465753,0.35027027027027025,0.49938860357055515,0.6362637362637362,0.44238856181665265,1196.0
372.0,1.7110037304607944e+18,0.47780678851174935,0.410958904109589,0.3335135135135135,0.49474199070677427,0.6175824175824176,0.4373423044575273,1197.0
373.0,1.7110037304707968e+18,0.47389033942558745,0.4041095890410959,0.3302702702702703,0.5037906578625581,0.6384615384615384,0.43902439024390244,1196.0
374.0,1.7110037304807928e+18,0.47911227154047,0.4178082191780822,0.34594594594594597,0.5033015407190022,0.6263736263736264,0.44238856181665265,1194.0
375.0,1.7110037304908111e+18,0.47780678851174935,0.430365296803653,0.32432432432432434,0.5023233064318905,0.634065934065934,0.43986543313709,1197.0
376.0,1.7110037305007954e+18,0.4765013054830287,0.4121004566210046,0.34,0.5028124235754463,0.6626373626373626,0.44238856181665265,1196.0
377.0,1.7110037305107948e+18,0.4725848563968668,0.4178082191780822,0.3362162162162162,0.5035460992907801,0.5989010989010989,0.44238856181665265,1195.0
378.0,1.7110037305207905e+18,0.47389033942558745,0.4143835616438356,0.33297297297297296,0.5030569821472243,0.6120879120879121,0.43902439024390244,1198.0
379.0,1.7110037305307968e+18,0.4765013054830287,0.4143835616438356,0.33783783783783783,0.5023233064318905,0.6230769230769231,0.4415475189234651,1196.0
380.0,1.7110037305408023e+18,0.4725848563968668,0.4223744292237443,0.3518918918918919,0.4996331621423331,0.5989010989010989,0.43902439024390244,1196.0
381.0,1.7110037305508052e+18,0.4725848563968668,0.4178082191780822,0.3281081081081081,0.5030569821472243,0.6274725274725275,0.43986543313709,1196.0
382.0,1.7110037305608044e+18,0.48172323759791125,0.4337899543378995,0.34,0.4937637564196625,0.6175824175824176,0.4381833473507149,1196.0
383.0,1.7110037305707953e+18,0.48172323759791125,0.4223744292237443,0.3232432432432432,0.504524333577892,0.6395604395604395,0.4432296047098402,1196.0
384.0,1.711003730580797e+18,0.47389033942558745,0.4121004566210046,0.33297297297297296,0.5003668378576669,0.6120879120879121,0.43566021867115223,1199.0
385.0,1.7110037305907932e+18,0.47911227154047,0.4121004566210046,0.33675675675675676,0.5103937393005625,0.6626373626373626,0.4440706476030278,1197.0
386.0,1.7110037306007951e+18,0.47389033942558745,0.4132420091324201,0.33405405405405403,0.504279775006114,0.6351648351648351,0.43986543313709,1195.0
387.0,1.7110037306107837e+18,0.4765013054830287,0.4155251141552511,0.33297297297297296,0.491562729273661,0.6274725274725275,0.4381833473507149,1197.0
388.0,1.7110037306207962e+18,0.4765013054830287,0.4178082191780822,0.3362162162162162,0.4996331621423331,0.6087912087912087,0.4381833473507149,1197.0
389.0,1.7110037306307976e+18,0.4830287206266319,0.4315068493150685,0.35567567567567565,0.49767669356810956,0.6098901098901099,0.4339781328847771,1193.0
390.0,1.711003730640799e+18,0.46344647519582244,0.3904109589041096,0.31351351351351353,0.5020787478601125,0.6956043956043956,0.4465937762825904,1194.0
391.0,1.7110037306508124e+18,0.4725848563968668,0.4143835616438356,0.3324324324324324,0.4886280264123258,0.6054945054945055,0.4348191757779647,1196.0
392.0,1.711003730660797e+18,0.46475195822454307,0.3949771689497717,0.3162162162162162,0.4966984592809978,0.6021978021978022,0.43650126156433977,1196.0
393.0,1.7110037306707914e+18,0.4830287206266319,0.4372146118721461,0.35783783783783785,0.5094155050134507,0.667032967032967,0.44575273338940286,1196.0
394.0,1.7110037306807964e+18,0.47127937336814624,0.3984018264840183,0.32216216216216215,0.491807287845439,0.6296703296703297,0.44238856181665265,1196.0
395.0,1.7110037306907973e+18,0.48172323759791125,0.4166666666666667,0.33675675675675676,0.4888725849841037,0.6307692307692307,0.43986543313709,1195.0
396.0,1.7110037307008146e+18,0.46736292428198434,0.4063926940639269,0.3318918918918919,0.4979212521398875,0.6120879120879121,0.4415475189234651,1196.0
397.0,1.71100373071082e+18,0.4830287206266319,0.4246575342465753,0.34054054054054056,0.5077035950110051,0.6296703296703297,0.4373423044575273,1195.0
398.0,1.7110037307207962e+18,0.47780678851174935,0.4132420091324201,0.3281081081081081,0.504035216434336,0.6252747252747253,0.4760302775441548,1195.0
399.0,1.7110037307307994e+18,0.4869451697127937,0.4246575342465753,0.3427027027027027,0.5011005135730008,0.6648351648351648,0.4381833473507149,1195.0
400.0,1.7110037307407939e+18,0.47911227154047,0.4178082191780822,0.33675675675675676,0.5033015407190022,0.6428571428571429,0.45248107653490327,1197.0
401.0,1.711003730750803e+18,0.46344647519582244,0.4098173515981735,0.31945945945945947,0.4996331621423331,0.510989010989011,0.44070647603027757,1196.0
402.0,1.7110037307607977e+18,0.47911227154047,0.4360730593607306,0.3535135135135135,0.5015896307165566,0.6120879120879121,0.43986543313709,1195.0
403.0,1.711003730770796e+18,0.4751958224543081,0.4063926940639269,0.3227027027027027,0.5018341892883346,0.621978021978022,0.43650126156433977,1198.0
404.0,1.7110037307807946e+18,0.46736292428198434,0.4132420091324201,0.34054054054054056,0.5035460992907801,0.6164835164835165,0.44238856181665265,1195.0
405.0,1.7110037307907948e+18,0.4765013054830287,0.4143835616438356,0.3335135135135135,0.5018341892883346,0.6142857142857143,0.42640874684608915,1194.0
406.0,1.7110037308008036e+18,0.4621409921671018,0.410958904109589,0.3345945945945946,0.5035460992907801,0.6318681318681318,0.4280908326324643,1193.0
407.0,1.7110037308107945e+18,0.4869451697127937,0.4280821917808219,0.3481081081081081,0.5079481535827831,0.6208791208791209,0.43566021867115223,1196.0
408.0,1.7110037308207972e+18,0.47127937336814624,0.4075342465753425,0.33513513513513515,0.49229640498899485,0.6241758241758242,0.44575273338940286,1196.0
409.0,1.7110037308307922e+18,0.47911227154047,0.4121004566210046,0.32756756756756755,0.48520420640743456,0.656043956043956,0.46846089150546677,1197.0
410.0,1.711003730840808e+18,0.4516971279373368,0.4041095890410959,0.3318918918918919,0.504279775006114,0.6197802197802198,0.4449116904962153,1198.0
411.0,1.7110037308507873e+18,0.47389033942558745,0.4200913242009132,0.33945945945945943,0.4927855221325507,0.6406593406593407,0.4701429772918419,1195.0
412.0,1.7110037308608092e+18,0.4699738903394256,0.4098173515981735,0.3335135135135135,0.5057471264367817,0.6296703296703297,0.415475189234651,1193.0
413.0,1.711003730870796e+18,0.46866840731070497,0.4052511415525114,0.3232432432432432,0.499877720714111,0.621978021978022,0.4339781328847771,1195.0
414.0,1.7110037308807936e+18,0.4725848563968668,0.4155251141552511,0.33675675675675676,0.5067253607238934,0.6098901098901099,0.44238856181665265,1194.0
415.0,1.7110037308907945e+18,0.48172323759791125,0.4200913242009132,0.3372972972972973,0.4986549278552213,0.6307692307692307,0.4533221194280908,1198.0
416.0,1.7110037309007997e+18,0.47127937336814624,0.4075342465753425,0.33135135135135135,0.4927855221325507,0.6362637362637362,0.4499579478553406,1196.0
417.0,1.711003730910796e+18,0.48172323759791125,0.4189497716894977,0.3308108108108108,0.4966984592809978,0.6153846153846154,0.41715727502102606,1193.0
418.0,1.711003730920798e+18,0.47389033942558745,0.410958904109589,0.30972972972972973,0.47542186353631694,0.5978021978021978,0.42977291841883936,1194.0
419.0,1.7110037309307973e+18,0.4765013054830287,0.4098173515981735,0.3372972972972973,0.5067253607238934,0.5967032967032967,0.4920100925147183,1195.0
420.0,1.7110037309408364e+18,0.47780678851174935,0.4212328767123288,0.3372972972972973,0.5103937393005625,0.6142857142857143,0.3675357443229605,1194.0
421.0,1.7110037309507878e+18,0.47911227154047,0.4223744292237443,0.3410810810810811,0.508192712154561,0.6351648351648351,0.4449116904962153,1198.0
422.0,1.711003730960795e+18,0.4699738903394256,0.4132420091324201,0.33783783783783783,0.512594766446564,0.6241758241758242,0.4415475189234651,1198.0
423.0,1.711003730970792e+18,0.47911227154047,0.4178082191780822,0.3302702702702703,0.5047688921496698,0.6626373626373626,0.4878048780487805,1196.0
424.0,1.7110037309807977e+18,0.4725848563968668,0.410958904109589,0.33135135135135135,0.5062362435803375,0.5923076923076923,0.4482758620689655,1196.0
425.0,1.7110037309907968e+18,0.4765013054830287,0.4143835616438356,0.3389189189189189,0.49938860357055515,0.5989010989010989,0.45248107653490327,1197.0
426.0,1.711003731000792e+18,0.47911227154047,0.4155251141552511,0.33945945945945943,0.4927855221325507,0.6032967032967033,0.4600504625735913,1196.0
427.0,1.7110037310107935e+18,0.47780678851174935,0.4178082191780822,0.3427027027027027,0.5094155050134507,0.6582417582417582,0.44911690496215306,1194.0
428.0,1.7110037310207928e+18,0.47389033942558745,0.4006849315068493,0.33513513513513515,0.499877720714111,0.6230769230769231,0.45500420521446594,1195.0
429.0,1.7110037310308001e+18,0.4765013054830287,0.4029680365296804,0.33837837837837836,0.5030569821472243,0.634065934065934,0.4751892346509672,1196.0
430.0,1.711003731040798e+18,0.46866840731070497,0.4132420091324201,0.3302702702702703,0.499877720714111,0.6208791208791209,0.41715727502102606,1192.0
431.0,1.7110037310507876e+18,0.47127937336814624,0.4063926940639269,0.327027027027027,0.4986549278552213,0.5978021978021978,0.4449116904962153,1197.0
432.0,1.711003731060788e+18,0.4725848563968668,0.4018264840182648,0.312972972972973,0.4942528735632184,0.6032967032967033,0.4381833473507149,1195.0
433.0,1.7110037310707858e+18,0.48172323759791125,0.4212328767123288,0.34,0.5059916850085595,0.6362637362637362,0.44911690496215306,1196.0
434.0,1.711003731080787e+18,0.46866840731070497,0.4155251141552511,0.3362162162162162,0.5050134507214478,0.6230769230769231,0.43650126156433977,1194.0
435.0,1.7110037310907863e+18,0.4765013054830287,0.4132420091324201,0.3264864864864865,0.5008559550012228,0.6395604395604395,0.4112699747687132,1193.0
436.0,1.7110037311007608e+18,0.4765013054830287,0.4029680365296804,0.30648648648648646,0.5069699192956714,0.6043956043956044,0.43986543313709,1197.0
437.0,1.711003731110797e+18,0.47389033942558745,0.4132420091324201,0.32756756756756755,0.5006113964294449,0.667032967032967,0.4415475189234651,1196.0
438.0,1.7110037311208054e+18,0.4556135770234987,0.3892694063926941,0.31891891891891894,0.4971875764245537,0.5659340659340659,0.4188393608074012,1194.0
439.0,1.7110037311307935e+18,0.5195822454308094,0.5353881278538812,0.5102702702702703,0.4930300807043287,0.6813186813186813,0.471825063078217,1197.0
440.0,1.711003731140795e+18,0.46866840731070497,0.4200913242009132,0.3410810810810811,0.5015896307165566,0.6054945054945055,0.4247266610597141,1193.0
441.0,1.7110037311507983e+18,0.47127937336814624,0.4063926940639269,0.31891891891891894,0.49767669356810956,0.6362637362637362,0.44238856181665265,1195.0
442.0,1.7110037311608005e+18,0.49477806788511747,0.4406392694063927,0.36648648648648646,0.5035460992907801,0.6131868131868132,0.4541631623212784,1198.0
443.0,1.7110037311707932e+18,0.47911227154047,0.4132420091324201,0.3281081081081081,0.5064808021521154,0.634065934065934,0.43986543313709,1196.0
444.0,1.7110037311807918e+18,0.46866840731070497,0.4052511415525114,0.3286486486486486,0.5015896307165566,0.6637362637362637,0.3986543313708999,1194.0
445.0,1.7110037311907965e+18,0.47127937336814624,0.408675799086758,0.3302702702702703,0.48226950354609927,0.5,0.4053826745164003,1195.0
446.0,1.7110037312007926e+18,0.4856396866840731,0.4269406392694064,0.3427027027027027,0.5177304964539007,0.5989010989010989,0.432296047098402,1195.0
447.0,1.7110037312107912e+18,0.5809399477806788,0.4714611872146119,0.34486486486486484,0.48911714355588165,0.5978021978021978,0.599663582842725,1197.0
448.0,1.7110037312207951e+18,0.46736292428198434,0.3858447488584475,0.3254054054054054,0.49767669356810956,0.5593406593406594,0.3793103448275862,1194.0
449.0,1.7110037312307937e+18,0.47127937336814624,0.4200913242009132,0.33675675675675676,0.5079481535827831,0.6087912087912087,0.3742640874684609,1194.0
450.0,1.7110037312408005e+18,0.4699738903394256,0.4246575342465753,0.34540540540540543,0.5018341892883346,0.5802197802197803,0.4053826745164003,1194.0
451.0,1.7110037312507994e+18,0.4765013054830287,0.4143835616438356,0.34378378378378377,0.5108828564441183,0.6571428571428571,0.49957947855340623,1197.0
452.0,1.7110037312608338e+18,0.4725848563968668,0.4315068493150685,0.33837837837837836,0.4986549278552213,0.6626373626373626,0.5248107653490328,1198.0
453.0,1.7110037312707937e+18,0.4608355091383812,0.4166666666666667,0.34162162162162163,0.5064808021521154,0.5879120879120879,0.43566021867115223,1199.0
454.0,1.7110037312807939e+18,0.47127937336814624,0.4143835616438356,0.3335135135135135,0.5064808021521154,0.6747252747252748,0.5063078216989066,1194.0
455.0,1.7110037312907953e+18,0.4804177545691906,0.4200913242009132,0.3362162162162162,0.4768892149669846,0.5802197802197803,0.41715727502102606,1195.0
456.0,1.7110037313007933e+18,0.4765013054830287,0.4132420091324201,0.3264864864864865,0.49620934213744194,0.6373626373626373,0.41715727502102606,1196.0
457.0,1.7110037313107889e+18,0.48172323759791125,0.4246575342465753,0.3345945945945946,0.49327463927610665,0.5153846153846153,0.43902439024390244,1195.0
458.0,1.7110037313207923e+18,0.46866840731070497,0.4132420091324201,0.34378378378378377,0.5299584250427978,0.7021978021978021,0.4440706476030278,1197.0
459.0,1.7110037313307927e+18,0.47127937336814624,0.4132420091324201,0.3356756756756757,0.5030569821472243,0.610989010989011,0.4280908326324643,1193.0
460.0,1.7110037313407928e+18,0.4869451697127937,0.4235159817351598,0.3410810810810811,0.5172413793103449,0.6318681318681318,0.4499579478553406,1195.0
461.0,1.7110037313508e+18,0.49738903394255873,0.430365296803653,0.34486486486486484,0.516507703595011,0.6758241758241759,0.4482758620689655,1196.0
462.0,1.7110037313607977e+18,0.46736292428198434,0.3995433789954338,0.3216216216216216,0.4966984592809978,0.667032967032967,0.4028595458368377,1193.0
463.0,1.7110037313707968e+18,0.47780678851174935,0.4155251141552511,0.3372972972972973,0.5111274150158963,0.5802197802197803,0.4272497897392767,1192.0
464.0,1.7110037313808013e+18,0.4830287206266319,0.4223744292237443,0.33675675675675676,0.49645390070921985,0.6,0.4280908326324643,1194.0
465.0,1.7110037313907986e+18,0.49216710182767626,0.4292237442922374,0.34162162162162163,0.5094155050134507,0.6131868131868132,0.4507989907485282,1199.0
466.0,1.7110037314007954e+18,0.4725848563968668,0.410958904109589,0.3372972972972973,0.5015896307165566,0.7153846153846154,0.45500420521446594,1198.0
467.0,1.7110037314107955e+18,0.47911227154047,0.4200913242009132,0.3345945945945946,0.5015896307165566,0.6351648351648351,0.4575273338940286,1196.0
468.0,1.7110037314207987e+18,0.46866840731070497,0.3824200913242009,0.33837837837837836,0.5055025678650037,0.6637362637362637,0.44238856181665265,1196.0
469.0,1.7110037314307986e+18,0.4830287206266319,0.4257990867579909,0.38216216216216214,0.5035460992907801,0.6648351648351648,0.4415475189234651,1196.0
470.0,1.7110037314408038e+18,0.4765013054830287,0.4121004566210046,0.3308108108108108,0.4969430178527757,0.610989010989011,0.4146341463414634,1194.0
471.0,1.7110037314508047e+18,0.46736292428198434,0.4041095890410959,0.32432432432432434,0.49033993641477136,0.6010989010989011,0.4289318755256518,1193.0
472.0,1.7110037314607997e+18,0.46866840731070497,0.4121004566210046,0.3362162162162162,0.5062362435803375,0.6450549450549451,0.4819175777964676,1196.0
473.0,1.7110037314708001e+18,0.4804177545691906,0.4223744292237443,0.33837837837837836,0.4996331621423331,0.643956043956044,0.45164003364171573,1197.0
474.0,1.7110037314808005e+18,0.4765013054830287,0.4155251141552511,0.33783783783783783,0.4641721692345317,0.5494505494505495,0.45164003364171573,1194.0
475.0,1.711003731490802e+18,0.47127937336814624,0.4166666666666667,0.3356756756756757,0.5035460992907801,0.7208791208791209,0.4289318755256518,1194.0
476.0,1.7110037315008036e+18,0.47127937336814624,0.4132420091324201,0.3389189189189189,0.5025678650036683,0.6186813186813187,0.4592094196804037,1195.0
477.0,1.7110037315108047e+18,0.47389033942558745,0.4132420091324201,0.3308108108108108,0.4783565663976522,0.5428571428571428,0.4179983179142136,1193.0
478.0,1.7110037315208026e+18,0.47127937336814624,0.410958904109589,0.3345945945945946,0.5018341892883346,0.6472527472527473,0.4213624894869638,1196.0
479.0,1.7110037315308027e+18,0.46866840731070497,0.408675799086758,0.3302702702702703,0.5067253607238934,0.7164835164835165,0.42640874684608915,1194.0
480.0,1.7110037315408036e+18,0.47389033942558745,0.408675799086758,0.3335135135135135,0.49767669356810956,0.5879120879120879,0.4415475189234651,1196.0
481.0,1.7110037315507858e+18,0.47911227154047,0.4178082191780822,0.3362162162162162,0.508192712154561,0.6615384615384615,0.46761984861227923,1197.0
482.0,1.7110037315608064e+18,0.47911227154047,0.4018264840182648,0.3362162162162162,0.491562729273661,0.5747252747252747,0.4507989907485282,1195.0
483.0,1.7110037315707886e+18,0.46736292428198434,0.4121004566210046,0.33405405405405403,0.5028124235754463,0.6351648351648351,0.44238856181665265,1197.0
484.0,1.7110037315808061e+18,0.47127937336814624,0.4178082191780822,0.33837837837837836,0.49816581071166544,0.5835164835164836,0.43650126156433977,1197.0
485.0,1.711003731590782e+18,0.4804177545691906,0.4189497716894977,0.3362162162162162,0.5094155050134507,0.7901098901098901,0.46846089150546677,1198.0
486.0,1.7110037316008077e+18,0.48433420365535246,0.4200913242009132,0.33675675675675676,0.5025678650036683,0.6054945054945055,0.432296047098402,1193.0
487.0,1.711003731610807e+18,0.47389033942558745,0.4121004566210046,0.3372972972972973,0.5096600635852286,0.634065934065934,0.432296047098402,1194.0
488.0,1.71100373162081e+18,0.47911227154047,0.4178082191780822,0.3356756756756757,0.4988994864269993,0.6373626373626373,0.4280908326324643,1196.0
489.0,1.7110037316308078e+18,0.47127937336814624,0.4143835616438356,0.33135135135135135,0.4944974321349963,0.6516483516483517,0.4247266610597141,1195.0
490.0,1.711003731640808e+18,0.46736292428198434,0.4212328767123288,0.3345945945945946,0.49205184641721694,0.5483516483516484,0.42640874684608915,1195.0
491.0,1.7110037316508099e+18,0.4751958224543081,0.4143835616438356,0.3318918918918919,0.5074590364392272,0.6450549450549451,0.4701429772918419,1193.0
492.0,1.7110037316607923e+18,0.46866840731070497,0.4155251141552511,0.3345945945945946,0.5035460992907801,0.6659340659340659,0.44911690496215306,1196.0
493.0,1.711003731670794e+18,0.48433420365535246,0.4189497716894977,0.3345945945945946,0.48251406211787723,0.554945054945055,0.45836837678721615,1196.0
494.0,1.7110037316807933e+18,0.47780678851174935,0.4178082191780822,0.3372972972972973,0.48520420640743456,0.5835164835164836,0.40117746005046256,1194.0
495.0,1.7110037316908116e+18,0.4765013054830287,0.4178082191780822,0.3389189189189189,0.5182196135974566,0.7626373626373626,0.4533221194280908,1196.0
496.0,1.711003731700796e+18,0.47389033942558745,0.4155251141552511,0.3345945945945946,0.4966984592809978,0.6329670329670329,0.4415475189234651,1199.0
497.0,1.7110037317107963e+18,0.47780678851174935,0.4166666666666667,0.3318918918918919,0.5003668378576669,0.6538461538461539,0.45164003364171573,1195.0
498.0,1.7110037317207954e+18,0.4765013054830287,0.4098173515981735,0.33513513513513515,0.5018341892883346,0.6010989010989011,0.44238856181665265,1197.0
499.0,1.7110037317307945e+18,0.4765013054830287,0.4132420091324201,0.33405405405405403,0.49498654927855223,0.6131868131868132,0.43650126156433977,1194.0
500.0,1.7110037317407972e+18,0.48172323759791125,0.4212328767123288,0.34054054054054056,0.4996331621423331,0.6021978021978022,0.4693019343986543,1196.0
501.0,1.711003731750782e+18,0.4621409921671018,0.4029680365296804,0.32756756756756755,0.5079481535827831,0.6714285714285714,0.4415475189234651,1198.0
502.0,1.7110037317607982e+18,0.4725848563968668,0.4132420091324201,0.33513513513513515,0.5006113964294449,0.5989010989010989,0.4339781328847771,1194.0
503.0,1.711003731770794e+18,0.49216710182767626,0.4178082191780822,0.33675675675675676,0.5028124235754463,0.6362637362637362,0.43902439024390244,1195.0
504.0,1.7110037317807995e+18,0.48172323759791125,0.4155251141552511,0.34054054054054056,0.5037906578625581,0.6043956043956044,0.4415475189234651,1197.0
505.0,1.711003731790797e+18,0.47127937336814624,0.4132420091324201,0.33297297297297296,0.5025678650036683,0.6725274725274726,0.4314550042052145,1194.0
506.0,1.7110037318008159e+18,0.47127937336814624,0.4132420091324201,0.33297297297297296,0.4988994864269993,0.5483516483516484,0.4314550042052145,1193.0
507.0,1.7110037318107994e+18,0.48433420365535246,0.4269406392694064,0.33945945945945943,0.5140621178772316,0.6307692307692307,0.464255677039529,1198.0
508.0,1.7110037318207916e+18,0.46866840731070497,0.408675799086758,0.3318918918918919,0.4988994864269993,0.6032967032967033,0.432296047098402,1194.0
509.0,1.7110037318307912e+18,0.4765013054830287,0.4189497716894977,0.33513513513513515,0.5015896307165566,0.6527472527472528,0.43902439024390244,1196.0
510.0,1.7110037318407977e+18,0.47780678851174935,0.4132420091324201,0.3324324324324324,0.5033015407190022,0.6593406593406593,0.4625735912531539,1197.0
511.0,1.7110037318507922e+18,0.4765013054830287,0.4189497716894977,0.3372972972972973,0.5047688921496698,0.7549450549450549,0.4339781328847771,1195.0
512.0,1.7110037318607962e+18,0.47389033942558745,0.4132420091324201,0.3372972972972973,0.5133284421618978,0.5923076923076923,0.4339781328847771,1194.0
513.0,1.711003731870795e+18,0.4765013054830287,0.4132420091324201,0.3345945945945946,0.4954756664221081,0.6406593406593407,0.44238856181665265,1197.0
514.0,1.7110037318807951e+18,0.4725848563968668,0.4143835616438356,0.3362162162162162,0.5074590364392272,0.6373626373626373,0.4449116904962153,1194.0
515.0,1.7110037318908012e+18,0.47780678851174935,0.4178082191780822,0.3362162162162162,0.4971875764245537,0.6450549450549451,0.4087468460891506,1193.0
516.0,1.7110037319007954e+18,0.4725848563968668,0.4132420091324201,0.3372972972972973,0.504524333577892,0.5703296703296703,0.4348191757779647,1198.0
517.0,1.7110037319107945e+18,0.4699738903394256,0.4132420091324201,0.3324324324324324,0.5023233064318905,0.6758241758241759,0.4432296047098402,1198.0
518.0,1.7110037319207946e+18,0.4725848563968668,0.4121004566210046,0.3324324324324324,0.499877720714111,0.610989010989011,0.4440706476030278,1197.0
519.0,1.7110037319307968e+18,0.4765013054830287,0.4166666666666667,0.3345945945945946,0.5035460992907801,0.654945054945055,0.4348191757779647,1197.0
520.0,1.7110037319408015e+18,0.46736292428198434,0.4132420091324201,0.33675675675675676,0.5006113964294449,0.589010989010989,0.4432296047098402,1196.0
521.0,1.7110037319507988e+18,0.4804177545691906,0.4200913242009132,0.3372972972972973,0.5006113964294449,0.5395604395604395,0.4381833473507149,1197.0
522.0,1.7110037319607954e+18,0.46736292428198434,0.4155251141552511,0.3362162162162162,0.4991440449987772,0.5846153846153846,0.4381833473507149,1197.0
523.0,1.7110037319707935e+18,0.48172323759791125,0.4200913242009132,0.33837837837837836,0.5015896307165566,0.5703296703296703,0.43902439024390244,1196.0
524.0,1.7110037319808438e+18,0.47780678851174935,0.4406392694063927,0.34054054054054056,0.4979212521398875,0.6010989010989011,0.4348191757779647,1197.0
525.0,1.711003731990796e+18,0.4856396866840731,0.4246575342465753,0.33837837837837836,0.5047688921496698,0.6604395604395604,0.43986543313709,1196.0
526.0,1.7110037320007974e+18,0.47389033942558745,0.4143835616438356,0.33513513513513515,0.4930300807043287,0.7,0.4146341463414634,1193.0
527.0,1.711003732010797e+18,0.4765013054830287,0.4155251141552511,0.33405405405405403,0.48495964783565665,0.589010989010989,0.43566021867115223,1198.0
528.0,1.7110037320207954e+18,0.47389033942558745,0.4143835616438356,0.33837837837837836,0.5018341892883346,0.610989010989011,0.4381833473507149,1197.0
529.0,1.711003732030793e+18,0.4765013054830287,0.4178082191780822,0.33675675675675676,0.5011005135730008,0.5846153846153846,0.4314550042052145,1195.0
530.0,1.7110037320408072e+18,0.4765013054830287,0.4200913242009132,0.33675675675675676,0.5064808021521154,0.6945054945054945,0.4280908326324643,1194.0
531.0,1.7110037320507986e+18,0.4856396866840731,0.4269406392694064,0.33945945945945943,0.5094155050134507,0.6703296703296703,0.46173254835996635,1197.0
532.0,1.7110037320607977e+18,0.4751958224543081,0.4178082191780822,0.33837837837837836,0.5091709464416728,0.5923076923076923,0.4213624894869638,1195.0
533.0,1.7110037320707955e+18,0.47127937336814624,0.4155251141552511,0.3335135135135135,0.5074590364392272,0.6461538461538462,0.464255677039529,1195.0
534.0,1.7110037320807944e+18,0.47911227154047,0.4155251141552511,0.33783783783783783,0.5035460992907801,0.6,0.44238856181665265,1197.0
535.0,1.7110037320907983e+18,0.48172323759791125,0.4269406392694064,0.3356756756756757,0.4996331621423331,0.6076923076923076,0.43650126156433977,1196.0
536.0,1.7110037321007944e+18,0.4608355091383812,0.4041095890410959,0.33297297297297296,0.5015896307165566,0.6802197802197802,0.45500420521446594,1196.0
537.0,1.711003732110807e+18,0.48172323759791125,0.4200913242009132,0.3356756756756757,0.5030569821472243,0.643956043956044,0.4112699747687132,1196.0
538.0,1.7110037321208044e+18,0.4699738903394256,0.4029680365296804,0.3324324324324324,0.5028124235754463,0.6395604395604395,0.43650126156433977,1198.0
539.0,1.7110037321307978e+18,0.4830287206266319,0.4269406392694064,0.33675675675675676,0.5003668378576669,0.6065934065934065,0.4482758620689655,1196.0
540.0,1.7110037321408108e+18,0.4765013054830287,0.4178082191780822,0.3389189189189189,0.5023233064318905,0.6483516483516484,0.43986543313709,1196.0
541.0,1.7110037321507963e+18,0.48172323759791125,0.4155251141552511,0.33513513513513515,0.5030569821472243,0.6241758241758242,0.44575273338940286,1197.0
542.0,1.7110037321608054e+18,0.4660574412532637,0.4360730593607306,0.33783783783783783,0.5015896307165566,0.6274725274725275,0.4432296047098402,1196.0
543.0,1.7110037321707996e+18,0.4804177545691906,0.4189497716894977,0.3324324324324324,0.4986549278552213,0.5714285714285714,0.4339781328847771,1196.0
544.0,1.7110037321808095e+18,0.4608355091383812,0.4075342465753425,0.33297297297297296,0.4974321349963316,0.6494505494505495,0.4415475189234651,1198.0
545.0,1.7110037321908127e+18,0.4765013054830287,0.4132420091324201,0.3335135135135135,0.5008559550012228,0.6681318681318681,0.43566021867115223,1197.0
546.0,1.7110037322008092e+18,0.46866840731070497,0.4132420091324201,0.3372972972972973,0.49767669356810956,0.589010989010989,0.432296047098402,1197.0
547.0,1.711003732210806e+18,0.46866840731070497,0.4178082191780822,0.3318918918918919,0.512350207874786,0.6934065934065934,0.4179983179142136,1193.0
548.0,1.711003732220808e+18,0.4765013054830287,0.4166666666666667,0.33837837837837836,0.4988994864269993,0.6505494505494506,0.4558452481076535,1197.0
549.0,1.7110037322308452e+18,0.4765013054830287,0.4178082191780822,0.3335135135135135,0.49767669356810956,0.7087912087912088,0.42977291841883936,1194.0
550.0,1.7110037322408018e+18,0.46866840731070497,0.408675799086758,0.33513513513513515,0.5015896307165566,0.5846153846153846,0.4381833473507149,1195.0
551.0,1.711003732250806e+18,0.489556135770235,0.4223744292237443,0.3345945945945946,0.49767669356810956,0.6912087912087912,0.4373423044575273,1196.0
552.0,1.7110037322608054e+18,0.4856396866840731,0.4223744292237443,0.34054054054054056,0.48618244069454636,0.5879120879120879,0.44911690496215306,1197.0
553.0,1.7110037322708104e+18,0.4765013054830287,0.4098173515981735,0.33297297297297296,0.5152849107361213,0.6648351648351648,0.4482758620689655,1197.0
554.0,1.7110037322809551e+18,0.46736292428198434,0.4132420091324201,0.33945945945945943,0.5015896307165566,0.6065934065934065,0.3650126156433978,1192.0
555.0,1.7110037322908106e+18,0.4765013054830287,0.4052511415525114,0.3308108108108108,0.4930300807043287,0.5274725274725275,0.42304457527333894,1194.0
556.0,1.7110037323008082e+18,0.46866840731070497,0.4098173515981735,0.33405405405405403,0.4859378821227684,0.5439560439560439,0.4381833473507149,1195.0
557.0,1.7110037323108111e+18,0.4869451697127937,0.4132420091324201,0.33405405405405403,0.5086818292981169,0.6384615384615384,0.4600504625735913,1197.0
558.0,1.7110037323208087e+18,0.4830287206266319,0.4223744292237443,0.33837837837837836,0.4966984592809978,0.5747252747252747,0.4440706476030278,1197.0
559.0,1.711003732330807e+18,0.48433420365535246,0.4235159817351598,0.3427027027027027,0.5047688921496698,0.8758241758241758,0.4188393608074012,1195.0
560.0,1.7110037323408074e+18,0.48825065274151436,0.4189497716894977,0.3410810810810811,0.5121056493030081,0.676923076923077,0.471825063078217,1197.0
561.0,1.7110037323508122e+18,0.48433420365535246,0.4200913242009132,0.3362162162162162,0.5094155050134507,0.6681318681318681,0.44575273338940286,1196.0
562.0,1.7110037323608102e+18,0.46866840731070497,0.4200913242009132,0.34054054054054056,0.5050134507214478,0.5318681318681319,0.43313708999158956,1193.0
563.0,1.711003732370816e+18,0.4765013054830287,0.4132420091324201,0.3324324324324324,0.5003668378576669,0.6164835164835165,0.43566021867115223,1193.0
564.0,1.7110037323808092e+18,0.47780678851174935,0.4178082191780822,0.3362162162162162,0.49082905355832723,0.5395604395604395,0.42052144659377627,1194.0
565.0,1.711003732390807e+18,0.47911227154047,0.4178082191780822,0.3335135135135135,0.5015896307165566,0.6032967032967033,0.4381833473507149,1196.0
566.0,1.7110037324007944e+18,0.46866840731070497,0.4132420091324201,0.33675675675675676,0.4937637564196625,0.5417582417582417,0.4255677039529016,1195.0
567.0,1.7110037324108076e+18,0.4869451697127937,0.4178082191780822,0.3345945945945946,0.5113719735876743,0.6593406593406593,0.4449116904962153,1196.0
568.0,1.7110037324208064e+18,0.4660574412532637,0.410958904109589,0.3345945945945946,0.4944974321349963,0.6285714285714286,0.45500420521446594,1196.0
569.0,1.7110037324308242e+18,0.4804177545691906,0.4200913242009132,0.3335135135135135,0.5077035950110051,0.6571428571428571,0.45164003364171573,1196.0
570.0,1.711003732440813e+18,0.4830287206266319,0.4200913242009132,0.33837837837837836,0.5099046221570066,0.7615384615384615,0.4482758620689655,1197.0
571.0,1.7110037324508134e+18,0.48172323759791125,0.4223744292237443,0.3372972972972973,0.5128393250183418,0.6472527472527473,0.43566021867115223,1195.0
572.0,1.711003732460807e+18,0.46475195822454307,0.4121004566210046,0.3362162162162162,0.4883834678405478,0.5296703296703297,0.4381833473507149,1197.0
573.0,1.711003732470804e+18,0.4765013054830287,0.4223744292237443,0.3372972972972973,0.5037906578625581,0.6450549450549451,0.4415475189234651,1195.0
574.0,1.711003732480802e+18,0.4725848563968668,0.4075342465753425,0.33297297297297296,0.5020787478601125,0.6131868131868132,0.41968040370058873,1193.0
575.0,1.711003732490807e+18,0.47911227154047,0.4200913242009132,0.33513513513513515,0.5047688921496698,0.6538461538461539,0.44238856181665265,1197.0
576.0,1.7110037325007982e+18,0.47780678851174935,0.4166666666666667,0.3389189189189189,0.495964783565664,0.6252747252747253,0.4575273338940286,1196.0
577.0,1.711003732510805e+18,0.4830287206266319,0.4212328767123288,0.33783783783783783,0.5006113964294449,0.6538461538461539,0.44238856181665265,1197.0
578.0,1.711003732520811e+18,0.47389033942558745,0.4143835616438356,0.33945945945945943,0.495720224993886,0.5604395604395604,0.4440706476030278,1197.0
579.0,1.711003732530811e+18,0.4751958224543081,0.408675799086758,0.32972972972972975,0.5145512350207875,0.6164835164835165,0.4432296047098402,1196.0
580.0,1.7110037325408177e+18,0.4765013054830287,0.410958904109589,0.3389189189189189,0.4971875764245537,0.4846153846153846,0.4213624894869638,1196.0
581.0,1.7110037325508065e+18,0.4869451697127937,0.4200913242009132,0.3362162162162162,0.504524333577892,0.6230769230769231,0.4432296047098402,1196.0
582.0,1.7110037325608102e+18,0.4765013054830287,0.4155251141552511,0.33837837837837836,0.48618244069454636,0.6010989010989011,0.4432296047098402,1195.0
583.0,1.7110037325708068e+18,0.47780678851174935,0.4178082191780822,0.3356756756756757,0.5106382978723404,0.6758241758241759,0.4381833473507149,1195.0
584.0,1.7110037325808072e+18,0.47127937336814624,0.4098173515981735,0.33513513513513515,0.5037906578625581,0.6714285714285714,0.44238856181665265,1198.0
585.0,1.7110037325908234e+18,0.48172323759791125,0.4155251141552511,0.33513513513513515,0.5008559550012228,0.567032967032967,0.447434819175778,1197.0
586.0,1.7110037326008077e+18,0.47389033942558745,0.4155251141552511,0.33783783783783783,0.5003668378576669,0.6131868131868132,0.4575273338940286,1195.0
587.0,1.711003732610806e+18,0.46475195822454307,0.4121004566210046,0.3286486486486486,0.49229640498899485,0.676923076923077,0.4314550042052145,1193.0
588.0,1.7110037326208102e+18,0.4699738903394256,0.408675799086758,0.3345945945945946,0.5020787478601125,0.6131868131868132,0.44575273338940286,1197.0
589.0,1.7110037326308076e+18,0.4830287206266319,0.4178082191780822,0.3318918918918919,0.5008559550012228,0.6417582417582418,0.45500420521446594,1196.0
590.0,1.7110037326408113e+18,0.4660574412532637,0.4132420091324201,0.33837837837837836,0.487649792125214,0.6329670329670329,0.45836837678721615,1197.0
591.0,1.711003732650803e+18,0.46736292428198434,0.4098173515981735,0.3318918918918919,0.5037906578625581,0.667032967032967,0.43650126156433977,1197.0
592.0,1.711003732660811e+18,0.45691906005221933,0.3984018264840183,0.3302702702702703,0.4954756664221081,0.6230769230769231,0.4339781328847771,1194.0
593.0,1.7110037326708106e+18,0.4751958224543081,0.4178082191780822,0.34054054054054056,0.5079481535827831,0.6538461538461539,0.42640874684608915,1194.0
594.0,1.711003732680813e+18,0.47780678851174935,0.4200913242009132,0.33945945945945943,0.5084372707263389,0.610989010989011,0.4499579478553406,1193.0
595.0,1.711003732690808e+18,0.4804177545691906,0.4189497716894977,0.3345945945945946,0.5035460992907801,0.654945054945055,0.4348191757779647,1197.0
596.0,1.711003732700813e+18,0.47911227154047,0.4178082191780822,0.33837837837837836,0.5020787478601125,0.5615384615384615,0.4381833473507149,1195.0
597.0,1.7110037327108116e+18,0.48172323759791125,0.4143835616438356,0.3324324324324324,0.5182196135974566,0.6967032967032967,0.4314550042052145,1193.0
598.0,1.7110037327208187e+18,0.48172323759791125,0.4178082191780822,0.3389189189189189,0.5028124235754463,0.5252747252747253,0.4129520605550883,1193.0
599.0,1.7110037327308132e+18,0.4830287206266319,0.4200913242009132,0.3362162162162162,0.4986549278552213,0.6582417582417582,0.45164003364171573,1196.0
600.0,1.7110037327408323e+18,0.4725848563968668,0.3949771689497717,0.33405405405405403,0.49938860357055515,0.5989010989010989,0.4415475189234651,1196.0
601.0,1.711003732750819e+18,0.4765013054830287,0.4018264840182648,0.3308108108108108,0.5035460992907801,0.5934065934065934,0.43313708999158956,1194.0
602.0,1.711003732760817e+18,0.4725848563968668,0.4121004566210046,0.33675675675675676,0.4966984592809978,0.578021978021978,0.4507989907485282,1196.0
603.0,1.7110037327708124e+18,0.48433420365535246,0.4200913242009132,0.3362162162162162,0.508192712154561,0.5582417582417583,0.43902439024390244,1196.0
604.0,1.7110037327808125e+18,0.46736292428198434,0.408675799086758,0.3362162162162162,0.5135730007336757,0.7758241758241758,0.432296047098402,1193.0
605.0,1.7110037327908168e+18,0.48172323759791125,0.4200913242009132,0.33405405405405403,0.504035216434336,0.7373626373626374,0.44911690496215306,1198.0
606.0,1.7110037328008253e+18,0.4830287206266319,0.4178082191780822,0.34162162162162163,0.5059916850085595,0.5857142857142857,0.3919259882253995,1194.0
607.0,1.7110037328108137e+18,0.4804177545691906,0.4155251141552511,0.33405405405405403,0.5018341892883346,0.7153846153846154,0.45164003364171573,1197.0
608.0,1.711003732820818e+18,0.46866840731070497,0.4143835616438356,0.34162162162162163,0.49229640498899485,0.5978021978021978,0.4348191757779647,1196.0
609.0,1.7110037328308137e+18,0.4856396866840731,0.4406392694063927,0.3389189189189189,0.4927855221325507,0.6307692307692307,0.46173254835996635,1198.0
610.0,1.711003732840817e+18,0.47127937336814624,0.4121004566210046,0.33783783783783783,0.4937637564196625,0.5626373626373626,0.4558452481076535,1195.0
611.0,1.711003732850825e+18,0.47911227154047,0.4189497716894977,0.3324324324324324,0.5003668378576669,0.5791208791208792,0.4289318755256518,1194.0
612.0,1.7110037328608097e+18,0.4660574412532637,0.4018264840182648,0.33297297297297296,0.5025678650036683,0.554945054945055,0.4339781328847771,1195.0
613.0,1.7110037328708012e+18,0.4830287206266319,0.4280821917808219,0.3335135135135135,0.4984103692834434,0.6142857142857143,0.4465937762825904,1197.0
614.0,1.7110037328808282e+18,0.4699738903394256,0.410958904109589,0.33675675675675676,0.4944974321349963,0.6285714285714286,0.4440706476030278,1194.0
615.0,1.711003732890797e+18,0.4765013054830287,0.4132420091324201,0.3335135135135135,0.5145512350207875,0.7032967032967034,0.4381833473507149,1197.0
616.0,1.7110037329008238e+18,0.4765013054830287,0.4132420091324201,0.3372972972972973,0.5023233064318905,0.6428571428571429,0.4306139613120269,1194.0
617.0,1.711003732910797e+18,0.48433420365535246,0.4200913242009132,0.33405405405405403,0.5037906578625581,0.6406593406593407,0.4482758620689655,1196.0
618.0,1.7110037329216525e+18,0.47127937336814624,0.4178082191780822,0.34054054054054056,0.4991440449987772,0.5802197802197803,0.43313708999158956,1194.0
619.0,1.7110037329308234e+18,0.48172323759791125,0.4178082191780822,0.3345945945945946,0.5064808021521154,0.6054945054945055,0.4381833473507149,1196.0
620.0,1.711003732940795e+18,0.4765013054830287,0.4292237442922374,0.34324324324324323,0.4979212521398875,0.578021978021978,0.4314550042052145,1196.0
621.0,1.7110037329508196e+18,0.47780678851174935,0.4223744292237443,0.32756756756756755,0.5069699192956714,0.8131868131868132,0.4894869638351556,1197.0
622.0,1.711003732960814e+18,0.4765013054830287,0.4121004566210046,0.33675675675675676,0.4984103692834434,0.6835164835164835,0.4507989907485282,1198.0
623.0,1.7110037329707973e+18,0.47911227154047,0.4178082191780822,0.3335135135135135,0.5057471264367817,0.6186813186813187,0.432296047098402,1194.0
624.0,1.7110037329807844e+18,0.47780678851174935,0.4132420091324201,0.33675675675675676,0.5052580092932257,0.6186813186813187,0.44575273338940286,1197.0
625.0,1.7110037329908065e+18,0.47911227154047,0.4200913242009132,0.33405405405405403,0.5028124235754463,0.6417582417582418,0.44911690496215306,1198.0
626.0,1.7110037330008343e+18,0.4751958224543081,0.4143835616438356,0.3389189189189189,0.5003668378576669,0.6978021978021978,0.44070647603027757,1198.0
627.0,1.711003733010801e+18,0.4804177545691906,0.4143835616438356,0.33297297297297296,0.5018341892883346,0.5395604395604395,0.46173254835996635,1196.0
628.0,1.7110037330208061e+18,0.47389033942558745,0.4189497716894977,0.33945945945945943,0.49938860357055515,0.6296703296703297,0.447434819175778,1196.0
629.0,1.7110037330308093e+18,0.4804177545691906,0.4257990867579909,0.3345945945945946,0.5023233064318905,0.6142857142857143,0.432296047098402,1194.0
630.0,1.7110037330408138e+18,0.4660574412532637,0.4143835616438356,0.3362162162162162,0.49474199070677427,0.5582417582417583,0.4087468460891506,1195.0
631.0,1.7110037330508278e+18,0.4856396866840731,0.4223744292237443,0.3345945945945946,0.5096600635852286,0.6714285714285714,0.447434819175778,1196.0
632.0,1.7110037330608074e+18,0.45822454308093996,0.4006849315068493,0.33297297297297296,0.5011005135730008,0.5571428571428572,0.4146341463414634,1195.0
633.0,1.711003733070807e+18,0.47780678851174935,0.4155251141552511,0.3324324324324324,0.5047688921496698,0.5571428571428572,0.4499579478553406,1196.0
634.0,1.7110037330808072e+18,0.47127937336814624,0.410958904109589,0.33837837837837836,0.5003668378576669,0.5736263736263736,0.4280908326324643,1193.0
635.0,1.7110037330908183e+18,0.4804177545691906,0.4212328767123288,0.33513513513513515,0.49938860357055515,0.6197802197802198,0.4314550042052145,1194.0
636.0,1.7110037331008038e+18,0.47911227154047,0.4200913242009132,0.3427027027027027,0.4979212521398875,0.6098901098901099,0.4465937762825904,1197.0
637.0,1.7110037331108178e+18,0.4830287206266319,0.4235159817351598,0.3362162162162162,0.4996331621423331,0.6758241758241759,0.407905803195963,1196.0
638.0,1.7110037331208046e+18,0.48172323759791125,0.4166666666666667,0.3443243243243243,0.5177304964539007,0.8131868131868132,0.4280908326324643,1196.0
639.0,1.7110037331308206e+18,0.4830287206266319,0.4075342465753425,0.3302702702702703,0.4969430178527757,0.5879120879120879,0.4238856181665265,1192.0
640.0,1.711003733140823e+18,0.47127937336814624,0.410958904109589,0.33837837837837836,0.49816581071166544,0.567032967032967,0.4255677039529016,1195.0
641.0,1.7110037331508122e+18,0.48825065274151436,0.4269406392694064,0.33405405405405403,0.4896062606994375,0.5714285714285714,0.4415475189234651,1195.0
642.0,1.7110037331608028e+18,0.47389033942558745,0.4132420091324201,0.33945945945945943,0.5028124235754463,0.610989010989011,0.45500420521446594,1197.0
643.0,1.7110037331708017e+18,0.4765013054830287,0.4143835616438356,0.3308108108108108,0.4888725849841037,0.6120879120879121,0.4053826745164003,1193.0
644.0,1.7110037331808003e+18,0.47389033942558745,0.4132420091324201,0.34054054054054056,0.4971875764245537,0.5846153846153846,0.41379310344827586,1195.0
645.0,1.7110037331908032e+18,0.4765013054830287,0.4006849315068493,0.3302702702702703,0.4991440449987772,0.6054945054945055,0.4415475189234651,1198.0
646.0,1.7110037332008074e+18,0.46866840731070497,0.4006849315068493,0.33513513513513515,0.4971875764245537,0.6054945054945055,0.4280908326324643,1193.0
647.0,1.7110037332107953e+18,0.4830287206266319,0.4315068493150685,0.3410810810810811,0.5067253607238934,0.6384615384615384,0.44911690496215306,1199.0
648.0,1.7110037332208092e+18,0.47911227154047,0.4155251141552511,0.34378378378378377,0.4988994864269993,0.6362637362637362,0.4751892346509672,1197.0
649.0,1.7110037332308042e+18,0.4804177545691906,0.4189497716894977,0.3345945945945946,0.5057471264367817,0.6527472527472528,0.43650126156433977,1197.0
650.0,1.7110037332408207e+18,0.48172323759791125,0.4200913242009132,0.34054054054054056,0.5055025678650037,0.7153846153846154,0.4558452481076535,1198.0
651.0,1.7110037332508221e+18,0.47780678851174935,0.4246575342465753,0.3389189189189189,0.5184641721692346,0.7384615384615385,0.5012615643397813,1198.0
652.0,1.7110037332607987e+18,0.47127937336814624,0.4063926940639269,0.33405405405405403,0.495720224993886,0.5615384615384615,0.3927670311185871,1195.0
653.0,1.711003733270795e+18,0.47780678851174935,0.4189497716894977,0.3324324324324324,0.5035460992907801,0.6461538461538462,0.45164003364171573,1198.0
654.0,1.7110037332807982e+18,0.46736292428198434,0.4292237442922374,0.3410810810810811,0.5113719735876743,0.689010989010989,0.4213624894869638,1192.0
655.0,1.7110037332908058e+18,0.4856396866840731,0.4235159817351598,0.3362162162162162,0.5055025678650037,0.7450549450549451,0.4415475189234651,1198.0
656.0,1.711003733300799e+18,0.4725848563968668,0.4132420091324201,0.33675675675675676,0.5020787478601125,0.5967032967032967,0.45248107653490327,1197.0
657.0,1.7110037333108193e+18,0.4699738903394256,0.410958904109589,0.3264864864864865,0.4979212521398875,0.6637362637362637,0.4339781328847771,1194.0
658.0,1.711003733320807e+18,0.47127937336814624,0.4132420091324201,0.3389189189189189,0.4927855221325507,0.5747252747252747,0.43902439024390244,1197.0
659.0,1.7110037333308188e+18,0.47911227154047,0.4189497716894977,0.33513513513513515,0.5059916850085595,0.6934065934065934,0.45836837678721615,1197.0
660.0,1.7110037333408026e+18,0.4804177545691906,0.4223744292237443,0.34324324324324323,0.4984103692834434,0.6505494505494506,0.4415475189234651,1196.0
661.0,1.7110037333508168e+18,0.4869451697127937,0.4246575342465753,0.3356756756756757,0.48495964783565665,0.6450549450549451,0.4465937762825904,1197.0
662.0,1.7110037333608072e+18,0.4765013054830287,0.4178082191780822,0.34054054054054056,0.4996331621423331,0.5813186813186814,0.44911690496215306,1198.0
663.0,1.711003733370803e+18,0.4830287206266319,0.4212328767123288,0.3345945945945946,0.5037906578625581,0.6494505494505495,0.45500420521446594,1197.0
664.0,1.7110037333808092e+18,0.49738903394255873,0.4223744292237443,0.3410810810810811,0.49767669356810956,0.5802197802197803,0.47771236333052985,1197.0
665.0,1.7110037333908467e+18,0.48433420365535246,0.4235159817351598,0.3372972972972973,0.5118610907312301,0.7615384615384615,0.4112699747687132,1192.0
666.0,1.7110037334008023e+18,0.4765013054830287,0.4041095890410959,0.3362162162162162,0.49816581071166544,0.5802197802197803,0.4432296047098402,1196.0
667.0,1.7110037334108173e+18,0.4869451697127937,0.4200913242009132,0.33513513513513515,0.5023233064318905,0.6076923076923076,0.42977291841883936,1192.0
668.0,1.711003733420807e+18,0.47389033942558745,0.4143835616438356,0.3389189189189189,0.5055025678650037,0.7032967032967034,0.45836837678721615,1198.0
669.0,1.711003733430809e+18,0.48172323759791125,0.4200913242009132,0.3324324324324324,0.49107361213010514,0.6285714285714286,0.4575273338940286,1196.0
670.0,1.7110037334408128e+18,0.4804177545691906,0.4189497716894977,0.34324324324324323,0.5050134507214478,0.6186813186813187,0.4449116904962153,1197.0
671.0,1.7110037334507983e+18,0.47780678851174935,0.4178082191780822,0.33513513513513515,0.5055025678650037,0.5043956043956044,0.37846930193439865,1194.0
672.0,1.7110037334608074e+18,0.46866840731070497,0.4052511415525114,0.33513513513513515,0.49474199070677427,0.5747252747252747,0.4440706476030278,1198.0
673.0,1.711003733470804e+18,0.4830287206266319,0.4200913242009132,0.33513513513513515,0.49938860357055515,0.6197802197802198,0.4465937762825904,1198.0
674.0,1.7110037334808256e+18,0.4725848563968668,0.4200913242009132,0.33837837837837836,0.499877720714111,0.5978021978021978,0.46509671993271656,1194.0
675.0,1.7110037334908142e+18,0.47389033942558745,0.4143835616438356,0.33135135135135135,0.4966984592809978,0.5571428571428572,0.4289318755256518,1193.0
676.0,1.711003733500824e+18,0.48172323759791125,0.4189497716894977,0.33945945945945943,0.4988994864269993,0.5648351648351648,0.44238856181665265,1196.0
677.0,1.711003733510813e+18,0.4725848563968668,0.4155251141552511,0.33135135135135135,0.5008559550012228,0.656043956043956,0.4432296047098402,1198.0
678.0,1.711003733520809e+18,0.46866840731070497,0.4075342465753425,0.3372972972972973,0.5015896307165566,0.6582417582417582,0.4592094196804037,1197.0
679.0,1.7110037335308083e+18,0.48172323759791125,0.4200913242009132,0.33297297297297296,0.5003668378576669,0.6131868131868132,0.4482758620689655,1195.0
680.0,1.711003733540841e+18,0.46866840731070497,0.4063926940639269,0.3362162162162162,0.4979212521398875,0.6230769230769231,0.4348191757779647,1197.0
681.0,1.7110037335508209e+18,0.48433420365535246,0.4509132420091324,0.3345945945945946,0.5035460992907801,0.6835164835164835,0.4482758620689655,1194.0
682.0,1.7110037335608044e+18,0.4856396866840731,0.4212328767123288,0.3427027027027027,0.5023233064318905,0.5901098901098901,0.42640874684608915,1192.0
683.0,1.7110037335708022e+18,0.4830287206266319,0.4246575342465753,0.33513513513513515,0.5064808021521154,0.6725274725274726,0.432296047098402,1194.0
684.0,1.711003733580809e+18,0.47780678851174935,0.4223744292237443,0.3427027027027027,0.5008559550012228,0.6274725274725275,0.4415475189234651,1195.0
685.0,1.7110037335908232e+18,0.4608355091383812,0.410958904109589,0.3291891891891892,0.5020787478601125,0.6912087912087912,0.4280908326324643,1193.0
686.0,1.7110037336008105e+18,0.47127937336814624,0.4132420091324201,0.3389189189189189,0.49523110785033014,0.5494505494505495,0.4314550042052145,1193.0
687.0,1.711003733610812e+18,0.47780678851174935,0.4143835616438356,0.32972972972972975,0.5001222792858889,0.5857142857142857,0.4255677039529016,1193.0
688.0,1.7110037336208054e+18,0.45691906005221933,0.4143835616438356,0.3362162162162162,0.495720224993886,0.5758241758241758,0.407905803195963,1195.0
689.0,1.7110037336308045e+18,0.4804177545691906,0.4223744292237443,0.33837837837837836,0.5177304964539007,0.6197802197802198,0.4440706476030278,1195.0
690.0,1.711003733640809e+18,0.4621409921671018,0.4018264840182648,0.32594594594594595,0.49205184641721694,0.5362637362637362,0.400336417157275,1194.0
691.0,1.7110037336508042e+18,0.46736292428198434,0.4235159817351598,0.3372972972972973,0.5106382978723404,0.6087912087912087,0.4272497897392767,1193.0
692.0,1.7110037336608038e+18,0.4765013054830287,0.4189497716894977,0.34486486486486484,0.5069699192956714,0.489010989010989,0.4146341463414634,1195.0
693.0,1.7110037336708037e+18,0.4765013054830287,0.4235159817351598,0.33675675675675676,0.5106382978723404,0.6868131868131868,0.45248107653490327,1195.0
694.0,1.711003733680804e+18,0.46736292428198434,0.4052511415525114,0.3362162162162162,0.5084372707263389,0.6604395604395604,0.4667788057190917,1193.0
695.0,1.7110037336908314e+18,0.46344647519582244,0.4143835616438356,0.33297297297297296,0.5055025678650037,0.7373626373626374,0.4533221194280908,1196.0
696.0,1.711003733700813e+18,0.4608355091383812,0.4063926940639269,0.33837837837837836,0.49474199070677427,0.5813186813186814,0.4339781328847771,1192.0
697.0,1.7110037337108032e+18,0.4765013054830287,0.4075342465753425,0.3254054054054054,0.4888725849841037,0.6461538461538462,0.4314550042052145,1196.0
698.0,1.7110037337208044e+18,0.4765013054830287,0.4178082191780822,0.34486486486486484,0.5147957935925654,0.7,0.432296047098402,1193.0
699.0,1.7110037337308078e+18,0.47911227154047,0.4143835616438356,0.3308108108108108,0.5050134507214478,0.654945054945055,0.3448275862068966,1193.0
700.0,1.7110037337408164e+18,0.4621409921671018,0.410958904109589,0.34,0.4954756664221081,0.6065934065934065,0.4348191757779647,1197.0
701.0,1.711003733750809e+18,0.4660574412532637,0.410958904109589,0.33297297297297296,0.5152849107361213,0.7252747252747253,0.456686291000841,1196.0
702.0,1.7110037337608056e+18,0.4765013054830287,0.410958904109589,0.33783783783783783,0.5035460992907801,0.6054945054945055,0.4592094196804037,1197.0
703.0,1.7110037337708083e+18,0.4751958224543081,0.4132420091324201,0.3281081081081081,0.5006113964294449,0.6318681318681318,0.4415475189234651,1195.0
704.0,1.7110037337808046e+18,0.4699738903394256,0.410958904109589,0.34216216216216216,0.5025678650036683,0.6318681318681318,0.44575273338940286,1196.0
705.0,1.7110037337908073e+18,0.47911227154047,0.4235159817351598,0.33405405405405403,0.4991440449987772,0.6318681318681318,0.4381833473507149,1197.0
706.0,1.7110037338008105e+18,0.4830287206266319,0.4155251141552511,0.33837837837837836,0.49400831499144043,0.5494505494505495,0.3927670311185871,1194.0
707.0,1.711003733810802e+18,0.47389033942558745,0.4143835616438356,0.3345945945945946,0.5008559550012228,0.5967032967032967,0.43313708999158956,1193.0
708.0,1.7110037338208061e+18,0.47389033942558745,0.4166666666666667,0.3372972972972973,0.5025678650036683,0.6230769230769231,0.4449116904962153,1197.0
709.0,1.711003733830805e+18,0.4765013054830287,0.4178082191780822,0.33405405405405403,0.5028124235754463,0.5923076923076923,0.4465937762825904,1199.0
710.0,1.711003733840807e+18,0.46736292428198434,0.4132420091324201,0.3389189189189189,0.5072144778674492,0.6747252747252748,0.46509671993271656,1197.0
711.0,1.7110037338508244e+18,0.47780678851174935,0.4098173515981735,0.33297297297297296,0.5103937393005625,0.6406593406593407,0.4432296047098402,1197.0
712.0,1.7110037338608054e+18,0.46736292428198434,0.4029680365296804,0.33405405405405403,0.5033015407190022,0.6736263736263737,0.44070647603027757,1198.0
713.0,1.7110037338708065e+18,0.4751958224543081,0.4132420091324201,0.3318918918918919,0.4988994864269993,0.6472527472527473,0.43986543313709,1198.0
714.0,1.711003733880806e+18,0.4725848563968668,0.4132420091324201,0.33945945945945943,0.49816581071166544,0.5879120879120879,0.4373423044575273,1195.0
715.0,1.7110037338908068e+18,0.47911227154047,0.4235159817351598,0.3345945945945946,0.499877720714111,0.6318681318681318,0.4314550042052145,1193.0
716.0,1.711003733900814e+18,0.47911227154047,0.4132420091324201,0.33783783783783783,0.49523110785033014,0.6417582417582418,0.43650126156433977,1196.0
717.0,1.7110037339108132e+18,0.4804177545691906,0.4189497716894977,0.3324324324324324,0.5006113964294449,0.6186813186813187,0.432296047098402,1193.0
718.0,1.711003733920809e+18,0.47911227154047,0.4155251141552511,0.3410810810810811,0.5030569821472243,0.6637362637362637,0.4465937762825904,1196.0
719.0,1.711003733930806e+18,0.4725848563968668,0.4121004566210046,0.3324324324324324,0.49474199070677427,0.6208791208791209,0.45164003364171573,1196.0
720.0,1.7110037339408077e+18,0.48172323759791125,0.4178082191780822,0.3410810810810811,0.5084372707263389,0.6307692307692307,0.45248107653490327,1195.0
721.0,1.7110037339508104e+18,0.47780678851174935,0.4189497716894977,0.3345945945945946,0.5055025678650037,0.6527472527472528,0.4440706476030278,1198.0
722.0,1.711003733960805e+18,0.47389033942558745,0.4178082191780822,0.34054054054054056,0.5003668378576669,0.6175824175824176,0.4381833473507149,1197.0
723.0,1.7110037339708047e+18,0.47389033942558745,0.4178082191780822,0.3324324324324324,0.504279775006114,0.6461538461538462,0.4415475189234651,1197.0
724.0,1.7110037339808036e+18,0.4751958224543081,0.4178082191780822,0.34162162162162163,0.5023233064318905,0.6164835164835165,0.43986543313709,1199.0
725.0,1.711003733990825e+18,0.47389033942558745,0.4098173515981735,0.32756756756756755,0.5028124235754463,0.6142857142857143,0.4381833473507149,1196.0
726.0,1.711003734000805e+18,0.4765013054830287,0.4143835616438356,0.33945945945945943,0.499877720714111,0.6153846153846154,0.4449116904962153,1196.0
727.0,1.711003734010811e+18,0.47127937336814624,0.4143835616438356,0.3324324324324324,0.49816581071166544,0.6186813186813187,0.4339781328847771,1192.0
728.0,1.711003734020808e+18,0.46866840731070497,0.4143835616438356,0.34054054054054056,0.5011005135730008,0.610989010989011,0.43313708999158956,1192.0
729.0,1.7110037340308073e+18,0.4765013054830287,0.4178082191780822,0.3308108108108108,0.5025678650036683,0.6472527472527473,0.4415475189234651,1196.0
730.0,1.711003734040824e+18,0.4765013054830287,0.4143835616438356,0.33837837837837836,0.5003668378576669,0.6054945054945055,0.43650126156433977,1195.0
731.0,1.7110037340507922e+18,0.47127937336814624,0.408675799086758,0.3254054054054054,0.5015896307165566,0.6318681318681318,0.4373423044575273,1198.0
732.0,1.7110037340608064e+18,0.4765013054830287,0.4166666666666667,0.3372972972972973,0.499877720714111,0.6054945054945055,0.4415475189234651,1197.0
733.0,1.7110037340708047e+18,0.48172323759791125,0.4212328767123288,0.33297297297297296,0.5069699192956714,0.6362637362637362,0.4449116904962153,1196.0
734.0,1.7110037340808195e+18,0.47780678851174935,0.4166666666666667,0.34054054054054056,0.4988994864269993,0.5802197802197803,0.40454163162321277,1192.0
735.0,1.7110037340908111e+18,0.4869451697127937,0.4200913242009132,0.33135135135135135,0.49523110785033014,0.6010989010989011,0.4482758620689655,1196.0
736.0,1.7110037341008097e+18,0.4804177545691906,0.4200913242009132,0.3389189189189189,0.5006113964294449,0.5802197802197803,0.46173254835996635,1197.0
737.0,1.7110037341108106e+18,0.4765013054830287,0.4155251141552511,0.33405405405405403,0.504524333577892,0.6714285714285714,0.44070647603027757,1197.0
738.0,1.7110037341208102e+18,0.47911227154047,0.4075342465753425,0.33297297297297296,0.49498654927855223,0.578021978021978,0.42640874684608915,1192.0
739.0,1.7110037341308398e+18,0.4725848563968668,0.4132420091324201,0.3324324324324324,0.5069699192956714,0.6527472527472528,0.4415475189234651,1195.0
740.0,1.7110037341408067e+18,0.47127937336814624,0.4143835616438356,0.3410810810810811,0.5055025678650037,0.6175824175824176,0.45164003364171573,1197.0
741.0,1.7110037341507996e+18,0.4765013054830287,0.4178082191780822,0.3302702702702703,0.4944974321349963,0.6087912087912087,0.4272497897392767,1194.0
742.0,1.7110037341608036e+18,0.48172323759791125,0.4189497716894977,0.34216216216216216,0.4966984592809978,0.6318681318681318,0.4415475189234651,1197.0
743.0,1.7110037341708032e+18,0.48433420365535246,0.4200913242009132,0.3362162162162162,0.5089263878698949,0.6802197802197802,0.4348191757779647,1196.0
744.0,1.7110037341808123e+18,0.47127937336814624,0.4178082191780822,0.34054054054054056,0.5015896307165566,0.589010989010989,0.432296047098402,1194.0
745.0,1.7110037341908042e+18,0.4765013054830287,0.4166666666666667,0.3324324324324324,0.5013450721447786,0.6417582417582418,0.4373423044575273,1198.0
746.0,1.7110037342008074e+18,0.4765013054830287,0.4143835616438356,0.3372972972972973,0.49767669356810956,0.6208791208791209,0.4255677039529016,1192.0
747.0,1.7110037342108078e+18,0.47389033942558745,0.4178082191780822,0.33297297297297296,0.5030569821472243,0.6395604395604395,0.4449116904962153,1196.0
748.0,1.7110037342208077e+18,0.4660574412532637,0.4132420091324201,0.33837837837837836,0.4986549278552213,0.5758241758241758,0.4255677039529016,1194.0
749.0,1.7110037342308183e+18,0.4765013054830287,0.4178082191780822,0.3324324324324324,0.5047688921496698,0.6395604395604395,0.4348191757779647,1197.0
750.0,1.7110037342408033e+18,0.4765013054830287,0.4143835616438356,0.34162162162162163,0.5067253607238934,0.6494505494505495,0.44575273338940286,1199.0
751.0,1.7110037342508142e+18,0.47911227154047,0.4223744292237443,0.3324324324324324,0.5030569821472243,0.6593406593406593,0.4482758620689655,1196.0
752.0,1.7110037342608018e+18,0.47127937336814624,0.4132420091324201,0.33837837837837836,0.5008559550012228,0.6329670329670329,0.4381833473507149,1196.0
753.0,1.711003734270804e+18,0.47911227154047,0.4200913242009132,0.3335135135135135,0.5025678650036683,0.7208791208791209,0.4465937762825904,1197.0
754.0,1.711003734280851e+18,0.4765013054830287,0.4200913242009132,0.33837837837837836,0.4974321349963316,0.5956043956043956,0.44575273338940286,1196.0
755.0,1.7110037342908099e+18,0.4804177545691906,0.4223744292237443,0.3345945945945946,0.5037906578625581,0.6538461538461539,0.4238856181665265,1195.0
756.0,1.711003734300814e+18,0.4765013054830287,0.4178082191780822,0.3410810810810811,0.4996331621423331,0.5945054945054945,0.43566021867115223,1195.0
757.0,1.7110037343108035e+18,0.47127937336814624,0.4155251141552511,0.3324324324324324,0.499877720714111,0.5967032967032967,0.4339781328847771,1192.0
758.0,1.7110037343208056e+18,0.47127937336814624,0.4132420091324201,0.3372972972972973,0.4930300807043287,0.5758241758241758,0.42052144659377627,1194.0
759.0,1.7110037343308204e+18,0.4765013054830287,0.4132420091324201,0.33297297297297296,0.5020787478601125,0.7395604395604396,0.4440706476030278,1195.0
760.0,1.7110037343408228e+18,0.4699738903394256,0.4132420091324201,0.3389189189189189,0.5011005135730008,0.6021978021978022,0.43650126156433977,1196.0
761.0,1.7110037343508063e+18,0.47911227154047,0.4212328767123288,0.33297297297297296,0.504035216434336,0.6516483516483517,0.4432296047098402,1196.0
762.0,1.7110037343608082e+18,0.4804177545691906,0.4143835616438356,0.34054054054054056,0.5079481535827831,0.6362637362637362,0.45164003364171573,1195.0
763.0,1.711003734370808e+18,0.48172323759791125,0.4189497716894977,0.3318918918918919,0.5011005135730008,0.6417582417582418,0.44575273338940286,1195.0
764.0,1.7110037343808343e+18,0.47127937336814624,0.4121004566210046,0.34054054054054056,0.5020787478601125,0.6395604395604395,0.4339781328847771,1194.0
765.0,1.7110037343908099e+18,0.4725848563968668,0.4132420091324201,0.3286486486486486,0.5001222792858889,0.6307692307692307,0.43313708999158956,1194.0
766.0,1.7110037344007585e+18,0.48172323759791125,0.4178082191780822,0.33945945945945943,0.49938860357055515,0.610989010989011,0.4432296047098402,1196.0
767.0,1.7110037344108293e+18,0.47780678851174935,0.4132420091324201,0.3324324324324324,0.5028124235754463,0.6263736263736264,0.4314550042052145,1192.0
768.0,1.7110037344208072e+18,0.47911227154047,0.4166666666666667,0.34054054054054056,0.49938860357055515,0.6076923076923076,0.43902439024390244,1195.0
769.0,1.7110037344308375e+18,0.4765013054830287,0.4178082191780822,0.3308108108108108,0.5035460992907801,0.6472527472527473,0.43650126156433977,1195.0
770.0,1.7110037344408108e+18,0.4765013054830287,0.4075342465753425,0.33783783783783783,0.495720224993886,0.6142857142857143,0.4499579478553406,1197.0
771.0,1.7110037344508104e+18,0.4856396866840731,0.4246575342465753,0.33405405405405403,0.5018341892883346,0.6329670329670329,0.44575273338940286,1196.0
772.0,1.7110037344608113e+18,0.47127937336814624,0.410958904109589,0.34054054054054056,0.4979212521398875,0.5846153846153846,0.43566021867115223,1195.0
773.0,1.7110037344708114e+18,0.48172323759791125,0.4212328767123288,0.33405405405405403,0.5035460992907801,0.6450549450549451,0.4415475189234651,1196.0
774.0,1.7110037344808136e+18,0.47127937336814624,0.4132420091324201,0.3389189189189189,0.5011005135730008,0.6241758241758242,0.4533221194280908,1195.0
775.0,1.711003734490807e+18,0.47780678851174935,0.4178082191780822,0.3318918918918919,0.4996331621423331,0.6373626373626373,0.43986543313709,1195.0
776.0,1.7110037345007916e+18,0.4725848563968668,0.410958904109589,0.3389189189189189,0.4986549278552213,0.5989010989010989,0.43566021867115223,1197.0
777.0,1.7110037345107927e+18,0.48172323759791125,0.4189497716894977,0.3302702702702703,0.5015896307165566,0.6483516483516484,0.4381833473507149,1196.0
778.0,1.711003734520814e+18,0.46866840731070497,0.410958904109589,0.3410810810810811,0.4984103692834434,0.6,0.4449116904962153,1196.0
779.0,1.7110037345308142e+18,0.4765013054830287,0.4132420091324201,0.32972972972972975,0.5035460992907801,0.6087912087912087,0.432296047098402,1194.0
780.0,1.711003734540822e+18,0.46866840731070497,0.4121004566210046,0.33837837837837836,0.49938860357055515,0.6021978021978022,0.43566021867115223,1195.0
781.0,1.7110037345508147e+18,0.4765013054830287,0.4200913242009132,0.3302702702702703,0.5020787478601125,0.6384615384615384,0.43986543313709,1196.0
782.0,1.7110037345608172e+18,0.47127937336814624,0.4121004566210046,0.33945945945945943,0.4986549278552213,0.5967032967032967,0.4432296047098402,1197.0
783.0,1.7110037345708296e+18,0.4804177545691906,0.4178082191780822,0.3291891891891892,0.5028124235754463,0.6373626373626373,0.4381833473507149,1195.0
784.0,1.7110037345808387e+18,0.4765013054830287,0.408675799086758,0.3389189189189189,0.4986549278552213,0.5879120879120879,0.4449116904962153,1197.0
785.0,1.7110037345908198e+18,0.4765013054830287,0.4132420091324201,0.32972972972972975,0.5028124235754463,0.6274725274725275,0.4062237174095879,1194.0
786.0,1.7110037346008177e+18,0.4765013054830287,0.4178082191780822,0.3410810810810811,0.5055025678650037,0.6516483516483517,0.46173254835996635,1196.0
787.0,1.711003734610819e+18,0.4751958224543081,0.4178082191780822,0.32972972972972975,0.5018341892883346,0.6032967032967033,0.4280908326324643,1195.0
788.0,1.7110037346208223e+18,0.47389033942558745,0.4121004566210046,0.34054054054054056,0.5006113964294449,0.6043956043956044,0.43650126156433977,1196.0
789.0,1.7110037346308541e+18,0.4699738903394256,0.4178082191780822,0.3302702702702703,0.49645390070921985,0.6087912087912087,0.4314550042052145,1194.0
790.0,1.7110037346408156e+18,0.46866840731070497,0.408675799086758,0.33837837837837836,0.4966984592809978,0.5802197802197803,0.43902439024390244,1196.0
791.0,1.7110037346508188e+18,0.4804177545691906,0.4235159817351598,0.3324324324324324,0.504524333577892,0.667032967032967,0.4465937762825904,1196.0
792.0,1.7110037346608023e+18,0.4699738903394256,0.4132420091324201,0.33945945945945943,0.5001222792858889,0.6241758241758242,0.4381833473507149,1196.0
793.0,1.7110037346708183e+18,0.47780678851174935,0.4235159817351598,0.3335135135135135,0.504279775006114,0.6494505494505495,0.4415475189234651,1194.0
794.0,1.711003734680833e+18,0.4765013054830287,0.4143835616438356,0.33837837837837836,0.5133284421618978,0.6318681318681318,0.4533221194280908,1194.0
795.0,1.7110037346908193e+18,0.4830287206266319,0.4223744292237443,0.33135135135135135,0.5069699192956714,0.6527472527472528,0.4415475189234651,1198.0
796.0,1.7110037347007997e+18,0.4765013054830287,0.410958904109589,0.34054054054054056,0.5001222792858889,0.6098901098901099,0.4373423044575273,1194.0
797.0,1.7110037347108037e+18,0.4804177545691906,0.4200913242009132,0.3324324324324324,0.5047688921496698,0.656043956043956,0.4121110176619008,1194.0
798.0,1.7110037347207985e+18,0.4725848563968668,0.4098173515981735,0.3389189189189189,0.4979212521398875,0.6197802197802198,0.43566021867115223,1197.0
799.0,1.7110037347308613e+18,0.47780678851174935,0.4189497716894977,0.32972972972972975,0.5001222792858889,0.643956043956044,0.4415475189234651,1197.0
800.0,1.711003734740806e+18,0.4699738903394256,0.408675799086758,0.33783783783783783,0.4927855221325507,0.5659340659340659,0.41715727502102606,1192.0
801.0,1.7110037347508065e+18,0.47389033942558745,0.4178082191780822,0.3308108108108108,0.5025678650036683,0.6406593406593407,0.43902439024390244,1196.0
802.0,1.711003734760799e+18,0.46736292428198434,0.4143835616438356,0.34054054054054056,0.495964783565664,0.5879120879120879,0.432296047098402,1193.0
803.0,1.7110037347708068e+18,0.48172323759791125,0.4178082191780822,0.33135135135135135,0.5047688921496698,0.654945054945055,0.44070647603027757,1197.0
804.0,1.711003734780805e+18,0.46736292428198434,0.4063926940639269,0.33675675675675676,0.504279775006114,0.6296703296703297,0.4272497897392767,1196.0
805.0,1.7110037347908308e+18,0.48172323759791125,0.4166666666666667,0.33297297297297296,0.5033015407190022,0.6780219780219781,0.4533221194280908,1197.0
806.0,1.7110037348008072e+18,0.47127937336814624,0.4189497716894977,0.34216216216216216,0.4996331621423331,0.5802197802197803,0.4381833473507149,1196.0
807.0,1.7110037348108006e+18,0.4751958224543081,0.4223744292237443,0.3308108108108108,0.5055025678650037,0.6901098901098901,0.4449116904962153,1193.0
808.0,1.7110037348208015e+18,0.4765013054830287,0.410958904109589,0.33945945945945943,0.5020787478601125,0.6197802197802198,0.4482758620689655,1196.0
809.0,1.7110037348308262e+18,0.4869451697127937,0.4269406392694064,0.3324324324324324,0.5037906578625581,0.6373626373626373,0.4415475189234651,1196.0
810.0,1.7110037348408084e+18,0.47389033942558745,0.4143835616438356,0.34,0.4971875764245537,0.5934065934065934,0.4415475189234651,1197.0
811.0,1.711003734850831e+18,0.4830287206266319,0.4212328767123288,0.3308108108108108,0.5011005135730008,0.6571428571428571,0.43986543313709,1197.0
812.0,1.711003734860809e+18,0.47127937336814624,0.4155251141552511,0.3410810810810811,0.5028124235754463,0.6956043956043956,0.447434819175778,1197.0
813.0,1.7110037348708106e+18,0.46736292428198434,0.4132420091324201,0.3308108108108108,0.5011005135730008,0.6802197802197802,0.44238856181665265,1196.0
814.0,1.7110037348808067e+18,0.47780678851174935,0.4121004566210046,0.3389189189189189,0.4971875764245537,0.5813186813186814,0.43313708999158956,1192.0
815.0,1.7110037348908114e+18,0.4765013054830287,0.4178082191780822,0.33135135135135135,0.5030569821472243,0.6461538461538462,0.4373423044575273,1195.0
816.0,1.7110037349007936e+18,0.4765013054830287,0.408675799086758,0.3410810810810811,0.49816581071166544,0.578021978021978,0.4432296047098402,1195.0
817.0,1.7110037349107986e+18,0.47911227154047,0.4223744292237443,0.3302702702702703,0.5059916850085595,0.7076923076923077,0.4440706476030278,1196.0
818.0,1.7110037349208038e+18,0.4725848563968668,0.4098173515981735,0.33945945945945943,0.5008559550012228,0.6,0.4415475189234651,1196.0
819.0,1.7110037349308237e+18,0.4765013054830287,0.4223744292237443,0.3335135135135135,0.5018341892883346,0.5824175824175825,0.4306139613120269,1194.0
820.0,1.711003734940838e+18,0.4765013054830287,0.4155251141552511,0.3427027027027027,0.5015896307165566,0.5989010989010989,0.43566021867115223,1195.0
821.0,1.7110037349508055e+18,0.48172323759791125,0.4155251141552511,0.3286486486486486,0.5006113964294449,0.6417582417582418,0.43902439024390244,1195.0
822.0,1.7110037349608082e+18,0.4725848563968668,0.4200913242009132,0.34378378378378377,0.5006113964294449,0.6021978021978022,0.4348191757779647,1197.0
823.0,1.711003734970807e+18,0.47780678851174935,0.4178082191780822,0.3302702702702703,0.5018341892883346,0.6516483516483517,0.4314550042052145,1194.0
824.0,1.7110037349808404e+18,0.47389033942558745,0.4143835616438356,0.34,0.49767669356810956,0.6054945054945055,0.4465937762825904,1198.0
825.0,1.7110037349908142e+18,0.47127937336814624,0.410958904109589,0.32756756756756755,0.5015896307165566,0.6373626373626373,0.4339781328847771,1193.0
826.0,1.711003735000804e+18,0.46736292428198434,0.410958904109589,0.3410810810810811,0.5037906578625581,0.643956043956044,0.4415475189234651,1197.0
827.0,1.7110037350108022e+18,0.4765013054830287,0.4200913242009132,0.3308108108108108,0.504035216434336,0.634065934065934,0.43650126156433977,1197.0
828.0,1.7110037350208026e+18,0.46866840731070497,0.4075342465753425,0.33945945945945943,0.5030569821472243,0.6087912087912087,0.4440706476030278,1195.0
829.0,1.711003735030836e+18,0.4804177545691906,0.4246575342465753,0.3302702702702703,0.5035460992907801,0.6505494505494506,0.43986543313709,1195.0
830.0,1.711003735040807e+18,0.47127937336814624,0.4166666666666667,0.3410810810810811,0.5001222792858889,0.6076923076923076,0.43986543313709,1196.0
831.0,1.7110037350508083e+18,0.4751958224543081,0.4143835616438356,0.32972972972972975,0.49938860357055515,0.6516483516483517,0.4339781328847771,1194.0
832.0,1.7110037350608038e+18,0.4699738903394256,0.3904109589041096,0.33945945945945943,0.4988994864269993,0.6230769230769231,0.4188393608074012,1194.0
833.0,1.711003735070803e+18,0.4804177545691906,0.4052511415525114,0.3281081081081081,0.5025678650036683,0.6483516483516484,0.4415475189234651,1196.0
834.0,1.7110037350808038e+18,0.4725848563968668,0.4143835616438356,0.34324324324324323,0.5011005135730008,0.6208791208791209,0.43986543313709,1194.0
835.0,1.7110037350908234e+18,0.47780678851174935,0.4178082191780822,0.3324324324324324,0.5037906578625581,0.6417582417582418,0.43986543313709,1197.0
836.0,1.7110037351008115e+18,0.4830287206266319,0.4018264840182648,0.33837837837837836,0.5008559550012228,0.5758241758241758,0.4280908326324643,1193.0
837.0,1.711003735110809e+18,0.4765013054830287,0.4063926940639269,0.32756756756756755,0.49938860357055515,0.6648351648351648,0.43650126156433977,1194.0
838.0,1.7110037351208056e+18,0.47127937336814624,0.4178082191780822,0.34,0.4996331621423331,0.6021978021978022,0.4381833473507149,1196.0
839.0,1.711003735130806e+18,0.47389033942558745,0.4178082191780822,0.32756756756756755,0.5055025678650037,0.6857142857142857,0.43902439024390244,1196.0
840.0,1.711003735140824e+18,0.47127937336814624,0.4121004566210046,0.34054054054054056,0.4988994864269993,0.6021978021978022,0.4415475189234651,1197.0
841.0,1.7110037351508017e+18,0.4869451697127937,0.4280821917808219,0.33297297297297296,0.5030569821472243,0.6582417582417582,0.4499579478553406,1197.0
842.0,1.7110037351608087e+18,0.4699738903394256,0.408675799086758,0.34,0.5006113964294449,0.6725274725274726,0.45500420521446594,1197.0
843.0,1.7110037351708017e+18,0.4765013054830287,0.4178082191780822,0.3308108108108108,0.5025678650036683,0.6252747252747253,0.4339781328847771,1192.0
844.0,1.711003735180804e+18,0.4699738903394256,0.410958904109589,0.33945945945945943,0.4988994864269993,0.5714285714285714,0.42304457527333894,1195.0
845.0,1.711003735190827e+18,0.4856396866840731,0.4235159817351598,0.33297297297297296,0.5035460992907801,0.6428571428571429,0.43986543313709,1196.0
846.0,1.7110037352008115e+18,0.4699738903394256,0.410958904109589,0.33837837837837836,0.4991440449987772,0.6032967032967033,0.44238856181665265,1194.0
847.0,1.7110037352108042e+18,0.47911227154047,0.4223744292237443,0.3318918918918919,0.504524333577892,0.6142857142857143,0.432296047098402,1192.0
848.0,1.7110037352208049e+18,0.48172323759791125,0.4235159817351598,0.34702702702702704,0.5008559550012228,0.5846153846153846,0.4381833473507149,1194.0
849.0,1.7110037352308035e+18,0.4830287206266319,0.4189497716894977,0.33135135135135135,0.5008559550012228,0.6659340659340659,0.43986543313709,1196.0
850.0,1.711003735240806e+18,0.47127937336814624,0.4041095890410959,0.34054054054054056,0.5008559550012228,0.6098901098901099,0.4415475189234651,1194.0
851.0,1.7110037352508132e+18,0.4765013054830287,0.4143835616438356,0.3318918918918919,0.5028124235754463,0.643956043956044,0.4415475189234651,1193.0
852.0,1.7110037352607977e+18,0.47127937336814624,0.4063926940639269,0.34162162162162163,0.49938860357055515,0.6142857142857143,0.4432296047098402,1195.0
853.0,1.7110037352708037e+18,0.4804177545691906,0.4212328767123288,0.3308108108108108,0.5001222792858889,0.6538461538461539,0.43902439024390244,1196.0
854.0,1.7110037352807936e+18,0.47127937336814624,0.4155251141552511,0.3427027027027027,0.4996331621423331,0.6153846153846154,0.4432296047098402,1196.0
855.0,1.7110037352908178e+18,0.4765013054830287,0.4178082191780822,0.3281081081081081,0.5050134507214478,0.6736263736263737,0.4415475189234651,1196.0
856.0,1.7110037353008105e+18,0.47127937336814624,0.4075342465753425,0.34324324324324323,0.5015896307165566,0.6208791208791209,0.4440706476030278,1199.0
857.0,1.7110037353108078e+18,0.4830287206266319,0.4121004566210046,0.3286486486486486,0.5018341892883346,0.6274725274725275,0.4432296047098402,1195.0
858.0,1.711003735320802e+18,0.4725848563968668,0.4155251141552511,0.3443243243243243,0.5015896307165566,0.6098901098901099,0.4415475189234651,1197.0
859.0,1.7110037353308296e+18,0.4725848563968668,0.4178082191780822,0.3286486486486486,0.5025678650036683,0.6417582417582418,0.44070647603027757,1196.0
860.0,1.7110037353408305e+18,0.4765013054830287,0.4155251141552511,0.3410810810810811,0.504035216434336,0.6373626373626373,0.4373423044575273,1195.0
861.0,1.7110037353508037e+18,0.4830287206266319,0.4143835616438356,0.3281081081081081,0.4984103692834434,0.6681318681318681,0.43650126156433977,1194.0
862.0,1.7110037353608028e+18,0.4725848563968668,0.4132420091324201,0.3410810810810811,0.4991440449987772,0.5571428571428572,0.43902439024390244,1197.0
863.0,1.711003735370804e+18,0.47911227154047,0.4178082191780822,0.3302702702702703,0.5035460992907801,0.6637362637362637,0.44238856181665265,1195.0
864.0,1.711003735380806e+18,0.47127937336814624,0.4178082191780822,0.3410810810810811,0.5001222792858889,0.6076923076923076,0.4415475189234651,1196.0
865.0,1.7110037353908124e+18,0.47780678851174935,0.4509132420091324,0.33945945945945943,0.5067253607238934,0.6978021978021978,0.4465937762825904,1199.0
866.0,1.7110037354008e+18,0.47911227154047,0.4166666666666667,0.34054054054054056,0.5057471264367817,0.6076923076923076,0.4482758620689655,1194.0
867.0,1.7110037354107996e+18,0.46866840731070497,0.4166666666666667,0.3286486486486486,0.504279775006114,0.5923076923076923,0.4449116904962153,1197.0
868.0,1.7110037354208005e+18,0.47389033942558745,0.4155251141552511,0.34216216216216216,0.4996331621423331,0.6142857142857143,0.4415475189234651,1196.0
869.0,1.711003735430801e+18,0.4804177545691906,0.4178082191780822,0.3308108108108108,0.5033015407190022,0.667032967032967,0.4432296047098402,1196.0
870.0,1.7110037354408156e+18,0.4765013054830287,0.4166666666666667,0.34054054054054056,0.5003668378576669,0.6307692307692307,0.44238856181665265,1197.0
871.0,1.711003735450819e+18,0.4725848563968668,0.4200913242009132,0.3308108108108108,0.5025678650036683,0.6384615384615384,0.43566021867115223,1196.0
872.0,1.711003735460798e+18,0.4699738903394256,0.4132420091324201,0.34324324324324323,0.49938860357055515,0.6142857142857143,0.4415475189234651,1197.0
873.0,1.711003735470805e+18,0.4751958224543081,0.4143835616438356,0.32756756756756755,0.5001222792858889,0.6406593406593407,0.4348191757779647,1197.0
874.0,1.7110037354807997e+18,0.47389033942558745,0.4132420091324201,0.34162162162162163,0.5023233064318905,0.6274725274725275,0.4507989907485282,1195.0
875.0,1.7110037354908096e+18,0.47911227154047,0.4178082191780822,0.3286486486486486,0.5018341892883346,0.6087912087912087,0.4381833473507149,1196.0
876.0,1.7110037355008056e+18,0.4699738903394256,0.410958904109589,0.34054054054054056,0.5069699192956714,0.743956043956044,0.45836837678721615,1194.0
877.0,1.7110037355108035e+18,0.4869451697127937,0.4223744292237443,0.3318918918918919,0.5025678650036683,0.6637362637362637,0.43902439024390244,1197.0
878.0,1.7110037355208084e+18,0.4765013054830287,0.4178082191780822,0.34162162162162163,0.5037906578625581,0.656043956043956,0.44575273338940286,1194.0
879.0,1.7110037355308137e+18,0.48172323759791125,0.4200913242009132,0.32972972972972975,0.5023233064318905,0.6362637362637362,0.432296047098402,1194.0
880.0,1.7110037355408192e+18,0.47127937336814624,0.4155251141552511,0.34324324324324323,0.4988994864269993,0.6274725274725275,0.4381833473507149,1196.0
881.0,1.7110037355508122e+18,0.47780678851174935,0.4200913242009132,0.3324324324324324,0.5106382978723404,0.7604395604395604,0.4339781328847771,1195.0
882.0,1.7110037355607997e+18,0.4765013054830287,0.4143835616438356,0.33945945945945943,0.499877720714111,0.6329670329670329,0.44238856181665265,1195.0
883.0,1.7110037355708582e+18,0.47780678851174935,0.4212328767123288,0.33135135135135135,0.5001222792858889,0.6197802197802198,0.4381833473507149,1196.0
884.0,1.7110037355808023e+18,0.4765013054830287,0.4132420091324201,0.3410810810810811,0.5008559550012228,0.6054945054945055,0.43650126156433977,1197.0
885.0,1.7110037355907955e+18,0.47780678851174935,0.4212328767123288,0.3302702702702703,0.5055025678650037,0.6395604395604395,0.43902439024390244,1197.0
886.0,1.711003735600803e+18,0.47389033942558745,0.4178082191780822,0.34162162162162163,0.49938860357055515,0.6406593406593407,0.4381833473507149,1197.0
887.0,1.7110037356108006e+18,0.4725848563968668,0.4178082191780822,0.32972972972972975,0.5025678650036683,0.6274725274725275,0.43986543313709,1196.0
888.0,1.7110037356208033e+18,0.47127937336814624,0.4155251141552511,0.34162162162162163,0.5025678650036683,0.5945054945054945,0.4373423044575273,1195.0
889.0,1.7110037356308012e+18,0.47127937336814624,0.4189497716894977,0.3286486486486486,0.5033015407190022,0.6406593406593407,0.4339781328847771,1195.0
890.0,1.7110037356407972e+18,0.46866840731070497,0.4132420091324201,0.34054054054054056,0.5025678650036683,0.6164835164835165,0.4482758620689655,1197.0
891.0,1.7110037356508076e+18,0.4804177545691906,0.4189497716894977,0.3281081081081081,0.5018341892883346,0.6208791208791209,0.43313708999158956,1193.0
892.0,1.711003735660804e+18,0.47127937336814624,0.4132420091324201,0.3410810810810811,0.499877720714111,0.5989010989010989,0.43566021867115223,1195.0
893.0,1.7110037356708306e+18,0.4869451697127937,0.4178082191780822,0.3308108108108108,0.5062362435803375,0.654945054945055,0.4432296047098402,1196.0
894.0,1.7110037356807956e+18,0.46866840731070497,0.410958904109589,0.34,0.49474199070677427,0.554945054945055,0.4415475189234651,1196.0
895.0,1.7110037356908088e+18,0.47780678851174935,0.4143835616438356,0.3281081081081081,0.5015896307165566,0.6395604395604395,0.4415475189234651,1196.0
896.0,1.7110037357007928e+18,0.47127937336814624,0.4132420091324201,0.34054054054054056,0.4971875764245537,0.5758241758241758,0.43650126156433977,1195.0
897.0,1.7110037357107924e+18,0.47780678851174935,0.4223744292237443,0.3308108108108108,0.5011005135730008,0.6395604395604395,0.4373423044575273,1196.0
898.0,1.711003735720811e+18,0.4765013054830287,0.4143835616438356,0.3427027027027027,0.5001222792858889,0.5901098901098901,0.4121110176619008,1192.0
899.0,1.7110037357307917e+18,0.4765013054830287,0.4143835616438356,0.3286486486486486,0.4986549278552213,0.6516483516483517,0.43902439024390244,1197.0
900.0,1.7110037357407836e+18,0.4699738903394256,0.4143835616438356,0.34324324324324323,0.4996331621423331,0.610989010989011,0.4415475189234651,1195.0
901.0,1.711003735750794e+18,0.4725848563968668,0.4280821917808219,0.3302702702702703,0.5037906578625581,0.6472527472527473,0.43566021867115223,1196.0
902.0,1.711003735760796e+18,0.46736292428198434,0.4098173515981735,0.33945945945945943,0.5028124235754463,0.567032967032967,0.43566021867115223,1197.0
903.0,1.7110037357707958e+18,0.4908616187989556,0.4121004566210046,0.32756756756756755,0.5003668378576669,0.6450549450549451,0.44575273338940286,1195.0
904.0,1.7110037357808284e+18,0.4765013054830287,0.4155251141552511,0.34162162162162163,0.4954756664221081,0.5604395604395604,0.43986543313709,1196.0
905.0,1.7110037357907848e+18,0.47780678851174935,0.4189497716894977,0.3308108108108108,0.5028124235754463,0.6329670329670329,0.44238856181665265,1197.0
906.0,1.7110037358007928e+18,0.47127937336814624,0.4121004566210046,0.34378378378378377,0.5030569821472243,0.6010989010989011,0.4432296047098402,1195.0
907.0,1.7110037358107901e+18,0.4765013054830287,0.4178082191780822,0.32756756756756755,0.5011005135730008,0.5967032967032967,0.4339781328847771,1194.0
908.0,1.7110037358207928e+18,0.47911227154047,0.4132420091324201,0.3427027027027027,0.5006113964294449,0.5714285714285714,0.43902439024390244,1194.0
909.0,1.711003735830822e+18,0.4765013054830287,0.4178082191780822,0.3286486486486486,0.5059916850085595,0.7131868131868132,0.43650126156433977,1197.0
910.0,1.711003735840789e+18,0.48172323759791125,0.4178082191780822,0.34486486486486484,0.5018341892883346,0.6054945054945055,0.4465937762825904,1196.0
911.0,1.71100373585081e+18,0.4765013054830287,0.4178082191780822,0.3281081081081081,0.5037906578625581,0.6714285714285714,0.4499579478553406,1200.0
912.0,1.711003735860798e+18,0.47780678851174935,0.4143835616438356,0.34216216216216216,0.5025678650036683,0.6,0.43986543313709,1195.0
913.0,1.7110037358708073e+18,0.4765013054830287,0.4189497716894977,0.3308108108108108,0.5047688921496698,0.6450549450549451,0.4348191757779647,1197.0
914.0,1.7110037358807928e+18,0.4765013054830287,0.4143835616438356,0.3427027027027027,0.5008559550012228,0.634065934065934,0.45500420521446594,1194.0
915.0,1.7110037358907988e+18,0.4830287206266319,0.4200913242009132,0.3281081081081081,0.4969430178527757,0.6406593406593407,0.4415475189234651,1195.0
916.0,1.7110037359008013e+18,0.47780678851174935,0.4121004566210046,0.3427027027027027,0.499877720714111,0.6384615384615384,0.4482758620689655,1197.0
917.0,1.7110037359107958e+18,0.4869451697127937,0.4200913242009132,0.32972972972972975,0.5096600635852286,0.6318681318681318,0.4381833473507149,1195.0
918.0,1.7110037359207987e+18,0.4804177545691906,0.408675799086758,0.3427027027027027,0.5047688921496698,0.6,0.43902439024390244,1194.0
919.0,1.7110037359307878e+18,0.47780678851174935,0.4383561643835616,0.3324324324324324,0.5074590364392272,0.6681318681318681,0.44238856181665265,1196.0
920.0,1.7110037359407977e+18,0.47127937336814624,0.4121004566210046,0.34324324324324323,0.4969430178527757,0.5934065934065934,0.44070647603027757,1196.0
921.0,1.7110037359507955e+18,0.4856396866840731,0.4223744292237443,0.3264864864864865,0.5015896307165566,0.667032967032967,0.4247266610597141,1192.0
922.0,1.7110037359607956e+18,0.4725848563968668,0.4178082191780822,0.3443243243243243,0.4996331621423331,0.6274725274725275,0.45164003364171573,1196.0
923.0,1.7110037359708242e+18,0.46344647519582244,0.4098173515981735,0.3237837837837838,0.4988994864269993,0.6307692307692307,0.4255677039529016,1196.0
924.0,1.7110037359807923e+18,0.47389033942558745,0.4098173515981735,0.34540540540540543,0.5011005135730008,0.5923076923076923,0.4381833473507149,1196.0
925.0,1.7110037359907896e+18,0.4765013054830287,0.4063926940639269,0.3254054054054054,0.5018341892883346,0.6901098901098901,0.4449116904962153,1197.0
926.0,1.7110037360007987e+18,0.4765013054830287,0.4143835616438356,0.34594594594594597,0.5099046221570066,0.6032967032967033,0.4449116904962153,1196.0
927.0,1.7110037360107968e+18,0.4765013054830287,0.4212328767123288,0.3286486486486486,0.5055025678650037,0.6659340659340659,0.43986543313709,1195.0
928.0,1.711003736020793e+18,0.47127937336814624,0.4132420091324201,0.34486486486486484,0.49767669356810956,0.5813186813186814,0.4449116904962153,1196.0
929.0,1.711003736030791e+18,0.47780678851174935,0.4178082191780822,0.327027027027027,0.5035460992907801,0.5802197802197803,0.4314550042052145,1193.0
930.0,1.7110037360408018e+18,0.4751958224543081,0.4098173515981735,0.34486486486486484,0.5035460992907801,0.5978021978021978,0.44238856181665265,1197.0
931.0,1.7110037360507973e+18,0.4725848563968668,0.4178082191780822,0.3302702702702703,0.5057471264367817,0.6648351648351648,0.4222035323801514,1194.0
932.0,1.7110037360607926e+18,0.47127937336814624,0.4132420091324201,0.34486486486486484,0.5001222792858889,0.589010989010989,0.44238856181665265,1196.0
933.0,1.7110037360708116e+18,0.4830287206266319,0.4189497716894977,0.32756756756756755,0.5037906578625581,0.6626373626373626,0.4415475189234651,1196.0
934.0,1.7110037360807892e+18,0.4725848563968668,0.4098173515981735,0.34324324324324323,0.5018341892883346,0.6175824175824176,0.4432296047098402,1195.0
935.0,1.7110037360907953e+18,0.4751958224543081,0.410958904109589,0.327027027027027,0.5035460992907801,0.6538461538461539,0.43902439024390244,1195.0
936.0,1.7110037361007962e+18,0.46475195822454307,0.4063926940639269,0.34216216216216216,0.48911714355588165,0.6032967032967033,0.43902439024390244,1197.0
937.0,1.7110037361107932e+18,0.47780678851174935,0.4223744292237443,0.327027027027027,0.504035216434336,0.654945054945055,0.4415475189234651,1195.0
938.0,1.711003736120796e+18,0.47127937336814624,0.4132420091324201,0.34702702702702704,0.49938860357055515,0.5923076923076923,0.43986543313709,1196.0
939.0,1.7110037361307945e+18,0.47780678851174935,0.4155251141552511,0.3254054054054054,0.5018341892883346,0.6505494505494506,0.42640874684608915,1193.0
940.0,1.711003736140783e+18,0.47780678851174935,0.4143835616438356,0.34702702702702704,0.5106382978723404,0.7450549450549451,0.4381833473507149,1197.0
941.0,1.7110037361508004e+18,0.47780678851174935,0.4189497716894977,0.3254054054054054,0.504279775006114,0.6153846153846154,0.4415475189234651,1196.0
942.0,1.7110037361607964e+18,0.46736292428198434,0.4132420091324201,0.34486486486486484,0.5067253607238934,0.6098901098901099,0.4348191757779647,1196.0
943.0,1.7110037361708157e+18,0.47911227154047,0.4178082191780822,0.3286486486486486,0.5037906578625581,0.6307692307692307,0.4625735912531539,1196.0
944.0,1.7110037361807805e+18,0.47911227154047,0.4132420091324201,0.34594594594594597,0.49620934213744194,0.5659340659340659,0.44070647603027757,1198.0
945.0,1.7110037361907976e+18,0.489556135770235,0.4200913242009132,0.32432432432432434,0.49523110785033014,0.6285714285714286,0.43986543313709,1197.0
946.0,1.7110037362008003e+18,0.46866840731070497,0.4143835616438356,0.34324324324324323,0.49938860357055515,0.6098901098901099,0.44575273338940286,1196.0
947.0,1.7110037362108017e+18,0.47780678851174935,0.4189497716894977,0.32756756756756755,0.5057471264367817,0.6736263736263737,0.447434819175778,1196.0
948.0,1.7110037362207987e+18,0.46866840731070497,0.4143835616438356,0.34486486486486484,0.5008559550012228,0.5813186813186814,0.43650126156433977,1194.0
949.0,1.711003736230809e+18,0.4765013054830287,0.4155251141552511,0.3264864864864865,0.5037906578625581,0.6472527472527473,0.46509671993271656,1198.0
950.0,1.7110037362407875e+18,0.47389033942558745,0.4075342465753425,0.34324324324324323,0.5006113964294449,0.6285714285714286,0.4482758620689655,1197.0
951.0,1.7110037362507986e+18,0.4869451697127937,0.4235159817351598,0.3308108108108108,0.5055025678650037,0.6582417582417582,0.44911690496215306,1198.0
952.0,1.7110037362607987e+18,0.4765013054830287,0.4178082191780822,0.34486486486486484,0.5015896307165566,0.6494505494505495,0.4558452481076535,1195.0
953.0,1.7110037362712576e+18,0.4804177545691906,0.4178082191780822,0.32594594594594595,0.4966984592809978,0.6175824175824176,0.432296047098402,1194.0
954.0,1.7110037362808044e+18,0.48433420365535246,0.4155251141552511,0.34702702702702704,0.5015896307165566,0.6142857142857143,0.42640874684608915,1192.0
955.0,1.7110037362908032e+18,0.47911227154047,0.4178082191780822,0.32972972972972975,0.504035216434336,0.6538461538461539,0.4432296047098402,1196.0
956.0,1.711003736300803e+18,0.4699738903394256,0.4155251141552511,0.3427027027027027,0.49767669356810956,0.5945054945054945,0.43902439024390244,1197.0
957.0,1.7110037363107988e+18,0.4621409921671018,0.4189497716894977,0.3281081081081081,0.5001222792858889,0.6241758241758242,0.4314550042052145,1193.0
958.0,1.7110037363207982e+18,0.4765013054830287,0.4223744292237443,0.34378378378378377,0.4979212521398875,0.578021978021978,0.4415475189234651,1196.0
959.0,1.711003736330796e+18,0.4765013054830287,0.4178082191780822,0.32756756756756755,0.5106382978723404,0.7021978021978021,0.4449116904962153,1196.0
960.0,1.711003736340785e+18,0.4699738903394256,0.4178082191780822,0.34486486486486484,0.499877720714111,0.5901098901098901,0.4507989907485282,1198.0
961.0,1.7110037363507953e+18,0.4765013054830287,0.4189497716894977,0.32594594594594595,0.5094155050134507,0.7549450549450549,0.4592094196804037,1195.0
962.0,1.7110037363607939e+18,0.4725848563968668,0.4143835616438356,0.34324324324324323,0.5101491807287846,0.6120879120879121,0.4432296047098402,1196.0
963.0,1.7110037363708116e+18,0.47780678851174935,0.4178082191780822,0.3286486486486486,0.4996331621423331,0.6296703296703297,0.44575273338940286,1194.0
964.0,1.7110037363807882e+18,0.47127937336814624,0.408675799086758,0.3410810810810811,0.5091709464416728,0.6417582417582418,0.4432296047098402,1197.0
965.0,1.7110037363907866e+18,0.4765013054830287,0.410958904109589,0.32594594594594595,0.5062362435803375,0.6472527472527473,0.42052144659377627,1194.0
966.0,1.7110037364007944e+18,0.48172323759791125,0.4132420091324201,0.34216216216216216,0.495964783565664,0.5912087912087912,0.4449116904962153,1196.0
967.0,1.7110037364107914e+18,0.4869451697127937,0.432648401826484,0.32972972972972975,0.4979212521398875,0.634065934065934,0.43902439024390244,1196.0
968.0,1.711003736420796e+18,0.4699738903394256,0.4041095890410959,0.3410810810810811,0.5018341892883346,0.6208791208791209,0.43986543313709,1195.0
969.0,1.711003736430833e+18,0.4765013054830287,0.4178082191780822,0.3281081081081081,0.5074590364392272,0.6923076923076923,0.4449116904962153,1197.0
970.0,1.7110037364407974e+18,0.4699738903394256,0.4132420091324201,0.34054054054054056,0.5052580092932257,0.6,0.4280908326324643,1194.0
971.0,1.711003736450799e+18,0.489556135770235,0.4246575342465753,0.3302702702702703,0.5023233064318905,0.6428571428571429,0.43986543313709,1198.0
972.0,1.711003736460798e+18,0.4751958224543081,0.408675799086758,0.34378378378378377,0.5006113964294449,0.6274725274725275,0.4415475189234651,1195.0
973.0,1.7110037364707965e+18,0.4765013054830287,0.4246575342465753,0.33297297297297296,0.5030569821472243,0.654945054945055,0.4415475189234651,1196.0
974.0,1.711003736480787e+18,0.4725848563968668,0.384703196347032,0.3372972972972973,0.504279775006114,0.5747252747252747,0.4129520605550883,1192.0
975.0,1.7110037364907924e+18,0.47911227154047,0.4063926940639269,0.3281081081081081,0.5030569821472243,0.634065934065934,0.4415475189234651,1196.0
976.0,1.7110037365007936e+18,0.47127937336814624,0.4166666666666667,0.34324324324324323,0.5015896307165566,0.6197802197802198,0.43650126156433977,1196.0
977.0,1.7110037365107912e+18,0.4751958224543081,0.4178082191780822,0.3291891891891892,0.5086818292981169,0.6923076923076923,0.45248107653490327,1197.0
978.0,1.7110037365207892e+18,0.47389033942558745,0.4121004566210046,0.34486486486486484,0.5011005135730008,0.6098901098901099,0.4600504625735913,1196.0
979.0,1.7110037365307955e+18,0.4765013054830287,0.4189497716894977,0.32756756756756755,0.4930300807043287,0.6736263736263737,0.4432296047098402,1196.0
980.0,1.7110037365408003e+18,0.4765013054830287,0.408675799086758,0.3427027027027027,0.5018341892883346,0.6054945054945055,0.4381833473507149,1198.0
981.0,1.711003736550795e+18,0.47780678851174935,0.4200913242009132,0.3281081081081081,0.499877720714111,0.6329670329670329,0.4348191757779647,1195.0
982.0,1.7110037365607972e+18,0.47127937336814624,0.4075342465753425,0.33945945945945943,0.4971875764245537,0.5868131868131868,0.4280908326324643,1194.0
983.0,1.7110037365708155e+18,0.47389033942558745,0.4098173515981735,0.3248648648648649,0.5020787478601125,0.6538461538461539,0.4432296047098402,1195.0
984.0,1.7110037365807944e+18,0.4765013054830287,0.4143835616438356,0.3427027027027027,0.5018341892883346,0.6010989010989011,0.4449116904962153,1197.0
985.0,1.7110037365907922e+18,0.4804177545691906,0.4189497716894977,0.32756756756756755,0.504524333577892,0.6142857142857143,0.4432296047098402,1198.0
986.0,1.7110037366007872e+18,0.4765013054830287,0.4155251141552511,0.3389189189189189,0.5035460992907801,0.5879120879120879,0.43566021867115223,1197.0
987.0,1.711003736610787e+18,0.4804177545691906,0.4189497716894977,0.3281081081081081,0.4986549278552213,0.5384615384615384,0.42052144659377627,1194.0
988.0,1.7110037366207839e+18,0.47127937336814624,0.4143835616438356,0.34324324324324323,0.4984103692834434,0.589010989010989,0.4482758620689655,1199.0
989.0,1.7110037366308032e+18,0.47911227154047,0.4178082191780822,0.32756756756756755,0.49498654927855223,0.6054945054945055,0.43313708999158956,1195.0
990.0,1.7110037366407928e+18,0.46866840731070497,0.4098173515981735,0.34054054054054056,0.4986549278552213,0.610989010989011,0.4449116904962153,1197.0
991.0,1.7110037366507924e+18,0.4804177545691906,0.4178082191780822,0.327027027027027,0.5020787478601125,0.6318681318681318,0.43313708999158956,1193.0
992.0,1.7110037366607967e+18,0.46866840731070497,0.4063926940639269,0.34054054054054056,0.5015896307165566,0.5956043956043956,0.41042893187552565,1193.0
993.0,1.7110037366707994e+18,0.4725848563968668,0.4155251141552511,0.3264864864864865,0.4991440449987772,0.5989010989010989,0.4247266610597141,1194.0
994.0,1.711003736680797e+18,0.4765013054830287,0.4143835616438356,0.3410810810810811,0.499877720714111,0.5263736263736264,0.4339781328847771,1192.0
995.0,1.7110037366907968e+18,0.48172323759791125,0.4189497716894977,0.3302702702702703,0.49327463927610665,0.6538461538461539,0.4348191757779647,1196.0
996.0,1.7110037367008005e+18,0.47911227154047,0.4189497716894977,0.34378378378378377,0.5030569821472243,0.6681318681318681,0.4625735912531539,1196.0
997.0,1.7110037367107948e+18,0.47780678851174935,0.4178082191780822,0.3281081081081081,0.5050134507214478,0.6274725274725275,0.4415475189234651,1196.0
998.0,1.7110037367207933e+18,0.47911227154047,0.4178082191780822,0.3427027027027027,0.5028124235754463,0.6164835164835165,0.45164003364171573,1197.0
999.0,1.7110037367308073e+18,0.4725848563968668,0.4143835616438356,0.3281081081081081,0.5077035950110051,0.6318681318681318,0.4348191757779647,1196.0
1000.0,1.711003736740796e+18,0.4556135770234987,0.4063926940639269,0.3389189189189189,0.495720224993886,0.5714285714285714,0.4179983179142136,1193.0
