202.0,1.7110039087043768e+18,0.4765013054830287,0.4143835616438356,0.3410810810810811,0.5006113964294449,0.5967032967032967,0.4415475189234651,1195.0
203.0,1.7110039087144095e+18,0.4765013054830287,0.4178082191780822,0.3291891891891892,0.5015896307165566,0.6329670329670329,0.4373423044575273,1196.0
204.0,1.7110039087243773e+18,0.4725848563968668,0.4155251141552511,0.34486486486486484,0.5015896307165566,0.6032967032967033,0.4432296047098402,1196.0
205.0,1.71100390873438e+18,0.4765013054830287,0.4155251141552511,0.3302702702702703,0.5008559550012228,0.6450549450549451,0.43650126156433977,1196.0
206.0,1.7110039087443784e+18,0.4725848563968668,0.4143835616438356,0.34162162162162163,0.5015896307165566,0.6131868131868132,0.4415475189234651,1197.0
207.0,1.7110039087543788e+18,0.4765013054830287,0.4132420091324201,0.3248648648648649,0.4996331621423331,0.6274725274725275,0.4348191757779647,1194.0
208.0,1.7110039087643794e+18,0.4725848563968668,0.4280821917808219,0.3481081081081081,0.5015896307165566,0.6,0.44238856181665265,1196.0
209.0,1.7110039087743872e+18,0.47911227154047,0.4223744292237443,0.3324324324324324,0.5035460992907801,0.6395604395604395,0.4373423044575273,1197.0
210.0,1.7110039087843837e+18,0.4699738903394256,0.410958904109589,0.3410810810810811,0.4991440449987772,0.5989010989010989,0.43566021867115223,1196.0
211.0,1.7110039087943708e+18,0.47911227154047,0.4200913242009132,0.32756756756756755,0.5023233064318905,0.6494505494505495,0.4432296047098402,1195.0
212.0,1.7110039088043848e+18,0.4765013054830287,0.4132420091324201,0.34054054054054056,0.5006113964294449,0.6065934065934065,0.43902439024390244,1196.0
213.0,1.711003908814386e+18,0.48433420365535246,0.4178082191780822,0.32756756756756755,0.5025678650036683,0.6494505494505495,0.43902439024390244,1198.0
214.0,1.71100390882437e+18,0.47389033942558745,0.4143835616438356,0.3410810810810811,0.5037906578625581,0.6054945054945055,0.4415475189234651,1196.0
215.0,1.7110039088343698e+18,0.47780678851174935,0.4155251141552511,0.32594594594594595,0.5028124235754463,0.6725274725274726,0.4415475189234651,1197.0
216.0,1.7110039088443681e+18,0.4765013054830287,0.4052511415525114,0.3410810810810811,0.5015896307165566,0.6076923076923076,0.44070647603027757,1195.0
217.0,1.7110039088543685e+18,0.46866840731070497,0.4041095890410959,0.327027027027027,0.5015896307165566,0.6472527472527473,0.4381833473507149,1198.0
218.0,1.7110039088643694e+18,0.4765013054830287,0.410958904109589,0.34162162162162163,0.504035216434336,0.6120879120879121,0.4449116904962153,1194.0
219.0,1.7110039088743724e+18,0.4765013054830287,0.4166666666666667,0.32756756756756755,0.5003668378576669,0.6318681318681318,0.4339781328847771,1194.0
220.0,1.7110039088843745e+18,0.48172323759791125,0.4143835616438356,0.3372972972972973,0.5011005135730008,0.6076923076923076,0.4415475189234651,1196.0
221.0,1.7110039088943695e+18,0.47127937336814624,0.4212328767123288,0.3281081081081081,0.5020787478601125,0.6472527472527473,0.44238856181665265,1198.0
222.0,1.7110039089043676e+18,0.47389033942558745,0.4178082191780822,0.34540540540540543,0.5020787478601125,0.6120879120879121,0.4432296047098402,1193.0
223.0,1.711003908914369e+18,0.4830287206266319,0.4189497716894977,0.3291891891891892,0.5025678650036683,0.654945054945055,0.43902439024390244,1196.0
224.0,1.7110039089243702e+18,0.4765013054830287,0.4121004566210046,0.34054054054054056,0.5003668378576669,0.6274725274725275,0.43986543313709,1196.0
225.0,1.711003908934372e+18,0.4765013054830287,0.4178082191780822,0.32756756756756755,0.5025678650036683,0.6450549450549451,0.4415475189234651,1197.0
226.0,1.7110039089443668e+18,0.48172323759791125,0.410958904109589,0.33837837837837836,0.5015896307165566,0.6065934065934065,0.4381833473507149,1194.0
227.0,1.7110039089543713e+18,0.48172323759791125,0.4223744292237443,0.3237837837837838,0.5023233064318905,0.6417582417582418,0.4381833473507149,1196.0
228.0,1.711003908964374e+18,0.48172323759791125,0.4178082191780822,0.3410810810810811,0.5008559550012228,0.6076923076923076,0.4415475189234651,1195.0
229.0,1.7110039089743764e+18,0.4765013054830287,0.4166666666666667,0.32756756756756755,0.5015896307165566,0.6362637362637362,0.43650126156433977,1196.0
230.0,1.7110039089843692e+18,0.47911227154047,0.4178082191780822,0.34162162162162163,0.5015896307165566,0.6,0.43902439024390244,1197.0
231.0,1.7110039089943716e+18,0.4804177545691906,0.4189497716894977,0.33297297297297296,0.5013450721447786,0.6329670329670329,0.43986543313709,1195.0
232.0,1.7110039090043791e+18,0.4725848563968668,0.4018264840182648,0.33675675675675676,0.5025678650036683,0.6450549450549451,0.447434819175778,1197.0
233.0,1.7110039090143693e+18,0.4830287206266319,0.4212328767123288,0.3302702702702703,0.5018341892883346,0.6450549450549451,0.44070647603027757,1197.0
234.0,1.7110039090243628e+18,0.4765013054830287,0.4075342465753425,0.34054054054054056,0.5013450721447786,0.6065934065934065,0.4381833473507149,1193.0
235.0,1.7110039090343672e+18,0.4765013054830287,0.4212328767123288,0.32972972972972975,0.5025678650036683,0.6461538461538462,0.43902439024390244,1196.0
236.0,1.7110039090443676e+18,0.4765013054830287,0.4143835616438356,0.3427027027027027,0.5008559550012228,0.6076923076923076,0.43902439024390244,1194.0
237.0,1.7110039090543695e+18,0.47780678851174935,0.4143835616438356,0.32756756756756755,0.5018341892883346,0.6461538461538462,0.4381833473507149,1196.0
238.0,1.7110039090643901e+18,0.4751958224543081,0.4132420091324201,0.3389189189189189,0.5011005135730008,0.6054945054945055,0.44238856181665265,1193.0
239.0,1.7110039090743718e+18,0.48433420365535246,0.4189497716894977,0.3281081081081081,0.5015896307165566,0.6461538461538462,0.4432296047098402,1200.0
240.0,1.711003909084372e+18,0.4765013054830287,0.4121004566210046,0.3427027027027027,0.5003668378576669,0.6230769230769231,0.4373423044575273,1197.0
241.0,1.7110039090943683e+18,0.47911227154047,0.4497716894977169,0.33297297297297296,0.5030569821472243,0.656043956043956,0.4381833473507149,1194.0
242.0,1.711003909104373e+18,0.4765013054830287,0.4178082191780822,0.34054054054054056,0.5011005135730008,0.6065934065934065,0.4415475189234651,1193.0
243.0,1.7110039091143713e+18,0.4765013054830287,0.4178082191780822,0.3291891891891892,0.5028124235754463,0.656043956043956,0.4415475189234651,1194.0
244.0,1.7110039091243715e+18,0.4725848563968668,0.4189497716894977,0.352972972972973,0.5015896307165566,0.6054945054945055,0.43902439024390244,1195.0
245.0,1.7110039091343693e+18,0.48172323759791125,0.4189497716894977,0.3286486486486486,0.5035460992907801,0.6582417582417582,0.4449116904962153,1196.0
246.0,1.7110039091443756e+18,0.47389033942558745,0.4052511415525114,0.34540540540540543,0.5018341892883346,0.6142857142857143,0.44238856181665265,1198.0
247.0,1.711003909154369e+18,0.4765013054830287,0.4178082191780822,0.3286486486486486,0.5020787478601125,0.6395604395604395,0.43566021867115223,1195.0
248.0,1.7110039091643786e+18,0.4751958224543081,0.4155251141552511,0.34216216216216216,0.5011005135730008,0.6098901098901099,0.4415475189234651,1196.0
249.0,1.7110039091743716e+18,0.4765013054830287,0.4121004566210046,0.3308108108108108,0.5020787478601125,0.634065934065934,0.43650126156433977,1195.0
250.0,1.7110039091843763e+18,0.4765013054830287,0.410958904109589,0.34324324324324323,0.5003668378576669,0.5978021978021978,0.44238856181665265,1197.0
251.0,1.7110039091943716e+18,0.4765013054830287,0.4132420091324201,0.32594594594594595,0.5025678650036683,0.6450549450549451,0.4373423044575273,1197.0
252.0,1.7110039092043643e+18,0.4751958224543081,0.4200913242009132,0.34594594594594597,0.5015896307165566,0.6010989010989011,0.43986543313709,1197.0
253.0,1.7110039092143672e+18,0.47127937336814624,0.4132420091324201,0.32972972972972975,0.5018341892883346,0.6505494505494506,0.43902439024390244,1197.0
254.0,1.7110039092243679e+18,0.4751958224543081,0.3995433789954338,0.3362162162162162,0.5008559550012228,0.6076923076923076,0.43986543313709,1195.0
255.0,1.7110039092343772e+18,0.47780678851174935,0.4178082191780822,0.32756756756756755,0.5015896307165566,0.6428571428571429,0.43650126156433977,1195.0
256.0,1.711003909244386e+18,0.4765013054830287,0.4417808219178082,0.34540540540540543,0.49938860357055515,0.5923076923076923,0.43902439024390244,1196.0
257.0,1.7110039092543698e+18,0.4869451697127937,0.4257990867579909,0.3281081081081081,0.5020787478601125,0.6494505494505495,0.4339781328847771,1194.0
258.0,1.7110039092643715e+18,0.4725848563968668,0.4098173515981735,0.3481081081081081,0.4988994864269993,0.5923076923076923,0.43566021867115223,1196.0
259.0,1.7110039092743685e+18,0.47780678851174935,0.4098173515981735,0.327027027027027,0.5015896307165566,0.6450549450549451,0.43902439024390244,1197.0
260.0,1.7110039092843666e+18,0.4751958224543081,0.4155251141552511,0.33945945945945943,0.5008559550012228,0.5978021978021978,0.4415475189234651,1196.0
261.0,1.7110039092943675e+18,0.47389033942558745,0.4098173515981735,0.3237837837837838,0.5025678650036683,0.6450549450549451,0.4432296047098402,1196.0
262.0,1.711003909304368e+18,0.47127937336814624,0.4063926940639269,0.3427027027027027,0.5008559550012228,0.6021978021978022,0.4381833473507149,1195.0
263.0,1.711003909314369e+18,0.47127937336814624,0.4189497716894977,0.32756756756756755,0.5011005135730008,0.6384615384615384,0.4348191757779647,1200.0
264.0,1.711003909324369e+18,0.47389033942558745,0.4063926940639269,0.34,0.5001222792858889,0.6043956043956044,0.4415475189234651,1196.0
265.0,1.7110039093343772e+18,0.48172323759791125,0.4155251141552511,0.32756756756756755,0.5023233064318905,0.6450549450549451,0.44238856181665265,1197.0
266.0,1.7110039093443635e+18,0.47911227154047,0.4143835616438356,0.34216216216216216,0.5020787478601125,0.6098901098901099,0.4449116904962153,1196.0
267.0,1.7110039093543583e+18,0.47780678851174935,0.4155251141552511,0.3281081081081081,0.5035460992907801,0.6505494505494506,0.4381833473507149,1198.0
268.0,1.711003909364362e+18,0.4830287206266319,0.4132420091324201,0.34324324324324323,0.5030569821472243,0.6296703296703297,0.4449116904962153,1196.0
269.0,1.7110039093743644e+18,0.47911227154047,0.4166666666666667,0.32972972972972975,0.5025678650036683,0.6406593406593407,0.43902439024390244,1197.0
270.0,1.7110039093843668e+18,0.4751958224543081,0.408675799086758,0.33945945945945943,0.5018341892883346,0.6120879120879121,0.4415475189234651,1197.0
271.0,1.7110039093943862e+18,0.47389033942558745,0.4155251141552511,0.32432432432432434,0.5003668378576669,0.6384615384615384,0.4339781328847771,1193.0
272.0,1.7110039094043837e+18,0.4765013054830287,0.4337899543378995,0.3410810810810811,0.5030569821472243,0.6197802197802198,0.4415475189234651,1199.0
273.0,1.7110039094143706e+18,0.48172323759791125,0.4223744292237443,0.3254054054054054,0.5020787478601125,0.6428571428571429,0.4381833473507149,1197.0
274.0,1.7110039094243679e+18,0.4765013054830287,0.4132420091324201,0.34378378378378377,0.5028124235754463,0.6417582417582418,0.44575273338940286,1196.0
275.0,1.711003909434368e+18,0.47780678851174935,0.4178082191780822,0.3291891891891892,0.5015896307165566,0.6362637362637362,0.4348191757779647,1198.0
276.0,1.711003909444395e+18,0.4725848563968668,0.4143835616438356,0.34054054054054056,0.5001222792858889,0.5989010989010989,0.43650126156433977,1196.0
277.0,1.7110039094543636e+18,0.4699738903394256,0.4132420091324201,0.327027027027027,0.5008559550012228,0.6373626373626373,0.43650126156433977,1196.0
278.0,1.7110039094643707e+18,0.4765013054830287,0.4178082191780822,0.34324324324324323,0.5018341892883346,0.6252747252747253,0.4415475189234651,1196.0
279.0,1.7110039094743772e+18,0.4765013054830287,0.4143835616438356,0.3264864864864865,0.5015896307165566,0.6384615384615384,0.43566021867115223,1196.0
280.0,1.711003909484374e+18,0.4725848563968668,0.4132420091324201,0.34054054054054056,0.5001222792858889,0.6076923076923076,0.4432296047098402,1197.0
281.0,1.7110039094943862e+18,0.48172323759791125,0.4178082191780822,0.3308108108108108,0.5008559550012228,0.656043956043956,0.4339781328847771,1193.0
282.0,1.711003909504374e+18,0.4725848563968668,0.386986301369863,0.33675675675675676,0.5015896307165566,0.6153846153846154,0.44238856181665265,1193.0
283.0,1.7110039095143624e+18,0.48433420365535246,0.4052511415525114,0.3302702702702703,0.5011005135730008,0.6384615384615384,0.44238856181665265,1197.0
284.0,1.71100390952436e+18,0.4751958224543081,0.4132420091324201,0.3443243243243243,0.5015896307165566,0.610989010989011,0.44070647603027757,1196.0
285.0,1.7110039095343631e+18,0.4725848563968668,0.4189497716894977,0.32972972972972975,0.5008559550012228,0.6395604395604395,0.43902439024390244,1195.0
286.0,1.7110039095443748e+18,0.47780678851174935,0.4178082191780822,0.34324324324324323,0.5006113964294449,0.6120879120879121,0.4415475189234651,1194.0
287.0,1.7110039095543667e+18,0.47911227154047,0.4155251141552511,0.3281081081081081,0.5023233064318905,0.6461538461538462,0.4432296047098402,1196.0
288.0,1.71100390956437e+18,0.4765013054830287,0.4155251141552511,0.34162162162162163,0.5008559550012228,0.6076923076923076,0.43902439024390244,1197.0
289.0,1.7110039095743795e+18,0.4765013054830287,0.4178082191780822,0.3362162162162162,0.5006113964294449,0.6406593406593407,0.4381833473507149,1195.0
290.0,1.7110039095843686e+18,0.4725848563968668,0.4063926940639269,0.3389189189189189,0.4986549278552213,0.5846153846153846,0.43902439024390244,1197.0
291.0,1.7110039095943636e+18,0.4765013054830287,0.4178082191780822,0.32756756756756755,0.5028124235754463,0.6692307692307692,0.43902439024390244,1197.0
292.0,1.7110039096043612e+18,0.4804177545691906,0.4178082191780822,0.3427027027027027,0.5025678650036683,0.6087912087912087,0.4432296047098402,1197.0
293.0,1.71100390961437e+18,0.4765013054830287,0.4155251141552511,0.32972972972972975,0.5023233064318905,0.6395604395604395,0.4381833473507149,1196.0
294.0,1.7110039096243679e+18,0.47389033942558745,0.410958904109589,0.34324324324324323,0.5008559550012228,0.6043956043956044,0.4381833473507149,1197.0
295.0,1.7110039096343752e+18,0.47911227154047,0.4143835616438356,0.3286486486486486,0.5020787478601125,0.6538461538461539,0.4373423044575273,1197.0
296.0,1.7110039096443643e+18,0.47127937336814624,0.4178082191780822,0.3427027027027027,0.5020787478601125,0.6131868131868132,0.4381833473507149,1197.0
297.0,1.7110039096543667e+18,0.47911227154047,0.4155251141552511,0.3281081081081081,0.5030569821472243,0.6681318681318681,0.43902439024390244,1197.0
298.0,1.7110039096643643e+18,0.46736292428198434,0.410958904109589,0.3410810810810811,0.5011005135730008,0.6065934065934065,0.4415475189234651,1195.0
299.0,1.7110039096743675e+18,0.4765013054830287,0.4257990867579909,0.33135135135135135,0.5013450721447786,0.6450549450549451,0.43650126156433977,1196.0
300.0,1.7110039096843835e+18,0.4725848563968668,0.4132420091324201,0.34054054054054056,0.5008559550012228,0.6142857142857143,0.4415475189234651,1196.0
301.0,1.7110039096943642e+18,0.4765013054830287,0.4189497716894977,0.3286486486486486,0.5023233064318905,0.6362637362637362,0.4415475189234651,1195.0
302.0,1.711003909704367e+18,0.4751958224543081,0.4178082191780822,0.34702702702702704,0.5006113964294449,0.6175824175824176,0.4440706476030278,1195.0
303.0,1.7110039097143695e+18,0.4765013054830287,0.4155251141552511,0.3264864864864865,0.5018341892883346,0.6494505494505495,0.4381833473507149,1197.0
304.0,1.7110039097243668e+18,0.4765013054830287,0.4155251141552511,0.34324324324324323,0.5030569821472243,0.6274725274725275,0.44575273338940286,1198.0
305.0,1.711003909734362e+18,0.47780678851174935,0.4235159817351598,0.33297297297297296,0.5018341892883346,0.6461538461538462,0.43902439024390244,1197.0
306.0,1.7110039097443625e+18,0.4765013054830287,0.408675799086758,0.34378378378378377,0.5035460992907801,0.6384615384615384,0.4449116904962153,1196.0
307.0,1.7110039097543695e+18,0.47911227154047,0.4200913242009132,0.3286486486486486,0.5018341892883346,0.6395604395604395,0.43902439024390244,1196.0
308.0,1.7110039097643676e+18,0.4765013054830287,0.410958904109589,0.34162162162162163,0.5033015407190022,0.6153846153846154,0.4415475189234651,1195.0
309.0,1.7110039097743734e+18,0.47911227154047,0.4178082191780822,0.3308108108108108,0.5028124235754463,0.6450549450549451,0.4415475189234651,1196.0
310.0,1.7110039097843748e+18,0.4765013054830287,0.408675799086758,0.3443243243243243,0.5018341892883346,0.6098901098901099,0.4440706476030278,1194.0
311.0,1.7110039097943795e+18,0.4765013054830287,0.4166666666666667,0.3286486486486486,0.5013450721447786,0.6428571428571429,0.4381833473507149,1198.0
312.0,1.7110039098043738e+18,0.4830287206266319,0.4223744292237443,0.3443243243243243,0.4996331621423331,0.6153846153846154,0.44070647603027757,1198.0
313.0,1.7110039098143744e+18,0.47389033942558745,0.4006849315068493,0.32756756756756755,0.5015896307165566,0.6318681318681318,0.43902439024390244,1196.0
314.0,1.7110039098243679e+18,0.4725848563968668,0.3961187214611872,0.33837837837837836,0.5008559550012228,0.6087912087912087,0.4415475189234651,1197.0
315.0,1.7110039098343747e+18,0.4725848563968668,0.4132420091324201,0.3324324324324324,0.5025678650036683,0.6626373626373626,0.4415475189234651,1196.0
316.0,1.7110039098443817e+18,0.4725848563968668,0.4075342465753425,0.34162162162162163,0.5018341892883346,0.6087912087912087,0.43986543313709,1196.0
317.0,1.7110039098543657e+18,0.489556135770235,0.430365296803653,0.3308108108108108,0.5030569821472243,0.6296703296703297,0.4348191757779647,1198.0
318.0,1.711003909864387e+18,0.47389033942558745,0.4121004566210046,0.34,0.5006113964294449,0.6021978021978022,0.4373423044575273,1195.0
319.0,1.711003909874382e+18,0.4765013054830287,0.4178082191780822,0.3302702702702703,0.5028124235754463,0.6483516483516484,0.4348191757779647,1197.0
320.0,1.711003909884382e+18,0.47911227154047,0.4372146118721461,0.3551351351351351,0.5015896307165566,0.6087912087912087,0.43902439024390244,1197.0
321.0,1.7110039098943631e+18,0.47911227154047,0.4143835616438356,0.3286486486486486,0.5015896307165566,0.6362637362637362,0.43650126156433977,1196.0
322.0,1.711003909904372e+18,0.47911227154047,0.4121004566210046,0.35135135135135137,0.5015896307165566,0.6230769230769231,0.4415475189234651,1195.0
323.0,1.711003909914456e+18,0.4765013054830287,0.410958904109589,0.33675675675675676,0.5015896307165566,0.6417582417582418,0.43986543313709,1196.0
324.0,1.7110039099243676e+18,0.48172323759791125,0.4132420091324201,0.34216216216216216,0.5020787478601125,0.6043956043956044,0.43902439024390244,1197.0
325.0,1.7110039099344276e+18,0.47127937336814624,0.4063926940639269,0.3254054054054054,0.5013450721447786,0.667032967032967,0.4339781328847771,1193.0
326.0,1.7110039099443587e+18,0.4765013054830287,0.3767123287671233,0.33837837837837836,0.5023233064318905,0.6021978021978022,0.43566021867115223,1197.0
327.0,1.711003909954341e+18,0.47911227154047,0.4132420091324201,0.3286486486486486,0.5020787478601125,0.6406593406593407,0.4373423044575273,1197.0
328.0,1.7110039099643686e+18,0.4765013054830287,0.4132420091324201,0.3427027027027027,0.5011005135730008,0.6076923076923076,0.4432296047098402,1197.0
329.0,1.7110039099743782e+18,0.47911227154047,0.4200913242009132,0.32756756756756755,0.5030569821472243,0.6494505494505495,0.4381833473507149,1197.0
330.0,1.711003909984372e+18,0.46736292428198434,0.408675799086758,0.34054054054054056,0.5008559550012228,0.5978021978021978,0.4415475189234651,1197.0
331.0,1.7110039099943657e+18,0.48433420365535246,0.4189497716894977,0.327027027027027,0.5015896307165566,0.6373626373626373,0.43650126156433977,1194.0
332.0,1.7110039100043722e+18,0.47127937336814624,0.4132420091324201,0.34324324324324323,0.4988994864269993,0.5967032967032967,0.4381833473507149,1197.0
333.0,1.7110039100143667e+18,0.47780678851174935,0.4223744292237443,0.3281081081081081,0.5025678650036683,0.6472527472527473,0.4415475189234651,1199.0
334.0,1.711003910024426e+18,0.4725848563968668,0.4121004566210046,0.34756756756756757,0.49938860357055515,0.6065934065934065,0.4373423044575273,1196.0
335.0,1.7110039100343782e+18,0.4765013054830287,0.4178082191780822,0.3286486486486486,0.5018341892883346,0.6428571428571429,0.4314550042052145,1193.0
336.0,1.7110039100443663e+18,0.4725848563968668,0.4121004566210046,0.34324324324324323,0.5015896307165566,0.6098901098901099,0.43986543313709,1199.0
337.0,1.7110039100543718e+18,0.47911227154047,0.4200913242009132,0.3281081081081081,0.5025678650036683,0.6648351648351648,0.4432296047098402,1196.0
338.0,1.711003910064366e+18,0.4725848563968668,0.4132420091324201,0.34486486486486484,0.5013450721447786,0.5967032967032967,0.4432296047098402,1197.0
339.0,1.7110039100744366e+18,0.47780678851174935,0.4178082191780822,0.3281081081081081,0.5003668378576669,0.6362637362637362,0.4339781328847771,1193.0
340.0,1.7110039100843653e+18,0.4765013054830287,0.4132420091324201,0.34540540540540543,0.5006113964294449,0.5978021978021978,0.43986543313709,1195.0
341.0,1.7110039100943276e+18,0.47780678851174935,0.4178082191780822,0.32972972972972975,0.5025678650036683,0.6637362637362637,0.4440706476030278,1197.0
342.0,1.7110039101043784e+18,0.4765013054830287,0.4143835616438356,0.34486486486486484,0.5008559550012228,0.6197802197802198,0.4432296047098402,1195.0
343.0,1.7110039101143685e+18,0.47911227154047,0.4178082191780822,0.327027027027027,0.5035460992907801,0.6450549450549451,0.43902439024390244,1197.0
344.0,1.7110039101243796e+18,0.47780678851174935,0.4143835616438356,0.34162162162162163,0.5025678650036683,0.6065934065934065,0.4449116904962153,1196.0
345.0,1.711003910134372e+18,0.47389033942558745,0.4155251141552511,0.3286486486486486,0.5025678650036683,0.6604395604395604,0.43986543313709,1194.0
346.0,1.7110039101443648e+18,0.4765013054830287,0.4155251141552511,0.3427027027027027,0.5008559550012228,0.5901098901098901,0.4415475189234651,1196.0
347.0,1.7110039101544087e+18,0.4765013054830287,0.4178082191780822,0.3264864864864865,0.5035460992907801,0.6516483516483517,0.4415475189234651,1196.0
348.0,1.7110039101643674e+18,0.4765013054830287,0.4178082191780822,0.34540540540540543,0.5006113964294449,0.5967032967032967,0.43902439024390244,1196.0
349.0,1.7110039101744207e+18,0.47389033942558745,0.4200913242009132,0.32756756756756755,0.5033015407190022,0.6626373626373626,0.44238856181665265,1196.0
350.0,1.711003910184405e+18,0.4725848563968668,0.4155251141552511,0.34378378378378377,0.5011005135730008,0.5989010989010989,0.43902439024390244,1197.0
351.0,1.7110039101944074e+18,0.4765013054830287,0.4486301369863014,0.3318918918918919,0.5028124235754463,0.6681318681318681,0.44238856181665265,1196.0
352.0,1.7110039102044088e+18,0.48172323759791125,0.4280821917808219,0.3605405405405405,0.5023233064318905,0.5989010989010989,0.4449116904962153,1197.0
353.0,1.7110039102144084e+18,0.48172323759791125,0.4143835616438356,0.32756756756756755,0.5020787478601125,0.6571428571428571,0.44070647603027757,1195.0
354.0,1.711003910224413e+18,0.47780678851174935,0.4189497716894977,0.34702702702702704,0.5030569821472243,0.6153846153846154,0.4449116904962153,1195.0
355.0,1.7110039102344123e+18,0.47127937336814624,0.4212328767123288,0.3281081081081081,0.5020787478601125,0.6494505494505495,0.4348191757779647,1197.0
356.0,1.711003910244411e+18,0.47127937336814624,0.4143835616438356,0.3427027027027027,0.5015896307165566,0.5978021978021978,0.44238856181665265,1196.0
357.0,1.711003910254409e+18,0.48172323759791125,0.4200913242009132,0.3264864864864865,0.5035460992907801,0.656043956043956,0.4415475189234651,1197.0
358.0,1.7110039102644099e+18,0.47389033942558745,0.4155251141552511,0.34162162162162163,0.5015896307165566,0.5879120879120879,0.4432296047098402,1197.0
359.0,1.711003910274413e+18,0.4765013054830287,0.4178082191780822,0.32594594594594595,0.5015896307165566,0.6461538461538462,0.43566021867115223,1195.0
360.0,1.7110039102844093e+18,0.4751958224543081,0.4178082191780822,0.34540540540540543,0.5025678650036683,0.6164835164835165,0.43986543313709,1195.0
361.0,1.7110039102944113e+18,0.47911227154047,0.4200913242009132,0.32756756756756755,0.5020787478601125,0.6538461538461539,0.43566021867115223,1195.0
362.0,1.7110039103044114e+18,0.47127937336814624,0.432648401826484,0.35027027027027025,0.5028124235754463,0.6010989010989011,0.44575273338940286,1194.0
363.0,1.7110039103144118e+18,0.47780678851174935,0.4143835616438356,0.32594594594594595,0.5015896307165566,0.634065934065934,0.44070647603027757,1194.0
364.0,1.7110039103244165e+18,0.47127937336814624,0.4121004566210046,0.34378378378378377,0.5028124235754463,0.6054945054945055,0.43902439024390244,1196.0
365.0,1.7110039103344115e+18,0.4765013054830287,0.4178082191780822,0.3248648648648649,0.504035216434336,0.6857142857142857,0.43902439024390244,1196.0
366.0,1.7110039103443963e+18,0.47389033942558745,0.4098173515981735,0.34594594594594597,0.4996331621423331,0.5989010989010989,0.4415475189234651,1195.0
367.0,1.711003910354398e+18,0.4830287206266319,0.4178082191780822,0.32432432432432434,0.5015896307165566,0.6527472527472528,0.43902439024390244,1196.0
368.0,1.7110039103643986e+18,0.4699738903394256,0.3767123287671233,0.33945945945945943,0.5006113964294449,0.5989010989010989,0.44575273338940286,1196.0
369.0,1.7110039103744013e+18,0.48172323759791125,0.4155251141552511,0.3254054054054054,0.5025678650036683,0.656043956043956,0.4415475189234651,1195.0
370.0,1.7110039103843973e+18,0.46736292428198434,0.4098173515981735,0.3443243243243243,0.5015896307165566,0.6010989010989011,0.44070647603027757,1196.0
371.0,1.711003910394399e+18,0.4765013054830287,0.4143835616438356,0.3254054054054054,0.504035216434336,0.6813186813186813,0.43650126156433977,1197.0
372.0,1.7110039104043976e+18,0.4621409921671018,0.4075342465753425,0.34486486486486484,0.5018341892883346,0.6065934065934065,0.4440706476030278,1196.0
373.0,1.711003910414397e+18,0.47780678851174935,0.4178082191780822,0.32594594594594595,0.5047688921496698,0.6736263736263737,0.43566021867115223,1195.0
374.0,1.7110039104244055e+18,0.47780678851174935,0.4178082191780822,0.34702702702702704,0.5001222792858889,0.6142857142857143,0.4432296047098402,1198.0
375.0,1.7110039104343913e+18,0.4765013054830287,0.4212328767123288,0.3264864864864865,0.5015896307165566,0.6494505494505495,0.4415475189234651,1195.0
376.0,1.7110039104443945e+18,0.47911227154047,0.4155251141552511,0.3481081081081081,0.49816581071166544,0.5879120879120879,0.43986543313709,1198.0
377.0,1.711003910454393e+18,0.4765013054830287,0.4189497716894977,0.3264864864864865,0.5015896307165566,0.6285714285714286,0.4381833473507149,1195.0
378.0,1.7110039104643927e+18,0.4751958224543081,0.4143835616438356,0.34540540540540543,0.5006113964294449,0.5923076923076923,0.43650126156433977,1196.0
379.0,1.7110039104744036e+18,0.47780678851174935,0.4143835616438356,0.3232432432432432,0.5025678650036683,0.6527472527472528,0.4415475189234651,1196.0
380.0,1.7110039104843904e+18,0.46866840731070497,0.4166666666666667,0.3427027027027027,0.5006113964294449,0.5945054945054945,0.43902439024390244,1197.0
381.0,1.711003910494395e+18,0.47780678851174935,0.4155251141552511,0.32216216216216215,0.5018341892883346,0.6626373626373626,0.4415475189234651,1196.0
382.0,1.7110039105043922e+18,0.46866840731070497,0.4132420091324201,0.34594594594594597,0.49938860357055515,0.5835164835164836,0.43902439024390244,1194.0
383.0,1.7110039105143918e+18,0.4765013054830287,0.4178082191780822,0.3281081081081081,0.5020787478601125,0.6516483516483517,0.4381833473507149,1197.0
384.0,1.71100391052448e+18,0.4765013054830287,0.4132420091324201,0.34594594594594597,0.5011005135730008,0.6010989010989011,0.4415475189234651,1196.0
385.0,1.711003910534385e+18,0.47127937336814624,0.4132420091324201,0.32594594594594595,0.5006113964294449,0.6417582417582418,0.43313708999158956,1193.0
386.0,1.7110039105443886e+18,0.4699738903394256,0.3835616438356164,0.34378378378378377,0.5006113964294449,0.6032967032967033,0.4449116904962153,1196.0
387.0,1.7110039105543939e+18,0.4856396866840731,0.408675799086758,0.3254054054054054,0.5035460992907801,0.6626373626373626,0.4415475189234651,1197.0
388.0,1.7110039105643914e+18,0.4725848563968668,0.4121004566210046,0.34162162162162163,0.499877720714111,0.5923076923076923,0.4432296047098402,1197.0
389.0,1.7110039105744187e+18,0.47127937336814624,0.4121004566210046,0.3248648648648649,0.5030569821472243,0.6692307692307692,0.4415475189234651,1198.0
390.0,1.7110039105843896e+18,0.48172323759791125,0.4257990867579909,0.35135135135135137,0.5015896307165566,0.6010989010989011,0.4415475189234651,1197.0
391.0,1.7110039105943683e+18,0.4908616187989556,0.4269406392694064,0.3264864864864865,0.5028124235754463,0.6604395604395604,0.4415475189234651,1197.0
392.0,1.711003910604456e+18,0.47127937336814624,0.4132420091324201,0.34540540540540543,0.5006113964294449,0.5923076923076923,0.43986543313709,1198.0
393.0,1.7110039106143903e+18,0.48172323759791125,0.4235159817351598,0.3302702702702703,0.5033015407190022,0.667032967032967,0.4415475189234651,1196.0
394.0,1.7110039106243878e+18,0.4751958224543081,0.4155251141552511,0.34324324324324323,0.4996331621423331,0.5824175824175825,0.4373423044575273,1196.0
395.0,1.7110039106343864e+18,0.47780678851174935,0.4132420091324201,0.32756756756756755,0.5023233064318905,0.656043956043956,0.43313708999158956,1195.0
396.0,1.7110039106443835e+18,0.4725848563968668,0.4098173515981735,0.34540540540540543,0.5018341892883346,0.5978021978021978,0.43986543313709,1198.0
397.0,1.7110039106543846e+18,0.47780678851174935,0.4143835616438356,0.3232432432432432,0.5013450721447786,0.6582417582417582,0.43650126156433977,1196.0
398.0,1.7110039106643837e+18,0.4621409921671018,0.4098173515981735,0.34216216216216216,0.4988994864269993,0.5857142857142857,0.43986543313709,1196.0
399.0,1.711003910674402e+18,0.4869451697127937,0.4166666666666667,0.3237837837837838,0.5015896307165566,0.6307692307692307,0.4339781328847771,1193.0
400.0,1.7110039106843983e+18,0.4725848563968668,0.4018264840182648,0.34054054054054056,0.5028124235754463,0.6175824175824176,0.4449116904962153,1195.0
401.0,1.7110039106943877e+18,0.48825065274151436,0.4223744292237443,0.32432432432432434,0.5018341892883346,0.6505494505494506,0.43650126156433977,1194.0
402.0,1.7110039107043963e+18,0.46475195822454307,0.410958904109589,0.34324324324324323,0.4996331621423331,0.6032967032967033,0.4415475189234651,1195.0
403.0,1.7110039107144044e+18,0.4765013054830287,0.4189497716894977,0.32594594594594595,0.5030569821472243,0.6736263736263737,0.4415475189234651,1195.0
404.0,1.7110039107244076e+18,0.4765013054830287,0.4063926940639269,0.34540540540540543,0.5006113964294449,0.5945054945054945,0.4415475189234651,1197.0
405.0,1.7110039107344253e+18,0.47389033942558745,0.4178082191780822,0.3254054054054054,0.5018341892883346,0.667032967032967,0.4373423044575273,1197.0
406.0,1.7110039107443817e+18,0.4699738903394256,0.4132420091324201,0.3551351351351351,0.5001222792858889,0.5989010989010989,0.43566021867115223,1197.0
407.0,1.7110039107543828e+18,0.47911227154047,0.4178082191780822,0.3248648648648649,0.5023233064318905,0.6626373626373626,0.43650126156433977,1197.0
408.0,1.7110039107643845e+18,0.4765013054830287,0.410958904109589,0.34324324324324323,0.49938860357055515,0.5879120879120879,0.43902439024390244,1196.0
409.0,1.711003910774385e+18,0.47911227154047,0.4200913242009132,0.32054054054054054,0.5020787478601125,0.6571428571428571,0.4381833473507149,1195.0
410.0,1.7110039107843837e+18,0.4725848563968668,0.4121004566210046,0.34486486486486484,0.5011005135730008,0.5945054945054945,0.44070647603027757,1196.0
411.0,1.7110039107944003e+18,0.47911227154047,0.4178082191780822,0.32756756756756755,0.5028124235754463,0.6648351648351648,0.4381833473507149,1196.0
412.0,1.7110039108043814e+18,0.46866840731070497,0.4166666666666667,0.34702702702702704,0.5025678650036683,0.6384615384615384,0.44238856181665265,1199.0
413.0,1.7110039108143867e+18,0.4804177545691906,0.4121004566210046,0.3248648648648649,0.5030569821472243,0.6538461538461539,0.43986543313709,1198.0
414.0,1.7110039108243858e+18,0.4804177545691906,0.4143835616438356,0.34324324324324323,0.5015896307165566,0.6021978021978022,0.4432296047098402,1195.0
415.0,1.7110039108344038e+18,0.4765013054830287,0.4143835616438356,0.3248648648648649,0.4979212521398875,0.6285714285714286,0.4289318755256518,1194.0
416.0,1.7110039108443832e+18,0.47389033942558745,0.4178082191780822,0.34594594594594597,0.5006113964294449,0.5956043956043956,0.44238856181665265,1195.0
417.0,1.7110039108543854e+18,0.48172323759791125,0.4223744292237443,0.32756756756756755,0.5030569821472243,0.6582417582417582,0.4415475189234651,1196.0
418.0,1.7110039108643848e+18,0.4725848563968668,0.4132420091324201,0.34486486486486484,0.5015896307165566,0.5978021978021978,0.44238856181665265,1196.0
419.0,1.7110039108744097e+18,0.48172323759791125,0.4235159817351598,0.3362162162162162,0.5030569821472243,0.656043956043956,0.4381833473507149,1195.0
420.0,1.7110039108843814e+18,0.46736292428198434,0.410958904109589,0.3427027027027027,0.5006113964294449,0.5934065934065934,0.4415475189234651,1196.0
421.0,1.7110039108943862e+18,0.47780678851174935,0.4189497716894977,0.3254054054054054,0.5020787478601125,0.6516483516483517,0.43650126156433977,1198.0
422.0,1.7110039109043907e+18,0.48172323759791125,0.4178082191780822,0.34378378378378377,0.5018341892883346,0.6010989010989011,0.4432296047098402,1194.0
423.0,1.7110039109143885e+18,0.4765013054830287,0.4200913242009132,0.3264864864864865,0.5025678650036683,0.6516483516483517,0.4381833473507149,1194.0
424.0,1.7110039109243848e+18,0.46736292428198434,0.4098173515981735,0.3427027027027027,0.5023233064318905,0.6032967032967033,0.4381833473507149,1196.0
425.0,1.7110039109343939e+18,0.47911227154047,0.4178082191780822,0.33297297297297296,0.5015896307165566,0.6461538461538462,0.43566021867115223,1193.0
426.0,1.7110039109443886e+18,0.46475195822454307,0.4098173515981735,0.3389189189189189,0.5015896307165566,0.5967032967032967,0.4348191757779647,1195.0
427.0,1.7110039109543826e+18,0.48433420365535246,0.4143835616438356,0.3237837837837838,0.5047688921496698,0.6637362637362637,0.43986543313709,1196.0
428.0,1.7110039109643822e+18,0.47389033942558745,0.4155251141552511,0.34540540540540543,0.5011005135730008,0.5923076923076923,0.4415475189234651,1197.0
429.0,1.7110039109743767e+18,0.48172323759791125,0.4634703196347032,0.3481081081081081,0.5025678650036683,0.6483516483516484,0.43986543313709,1195.0
430.0,1.7110039109843948e+18,0.4765013054830287,0.4178082191780822,0.34324324324324323,0.5013450721447786,0.6021978021978022,0.4415475189234651,1197.0
431.0,1.7110039109943813e+18,0.4804177545691906,0.4178082191780822,0.32756756756756755,0.5033015407190022,0.654945054945055,0.4381833473507149,1195.0
432.0,1.7110039110043835e+18,0.4751958224543081,0.4280821917808219,0.35243243243243244,0.5011005135730008,0.6,0.4449116904962153,1196.0
433.0,1.7110039110143839e+18,0.4725848563968668,0.4178082191780822,0.3254054054054054,0.5023233064318905,0.6516483516483517,0.4381833473507149,1197.0
434.0,1.7110039110244114e+18,0.4765013054830287,0.4155251141552511,0.34540540540540543,0.5015896307165566,0.5967032967032967,0.44238856181665265,1198.0
435.0,1.711003911034385e+18,0.4751958224543081,0.4223744292237443,0.3264864864864865,0.5018341892883346,0.6494505494505495,0.43566021867115223,1196.0
436.0,1.7110039110443863e+18,0.4725848563968668,0.4132420091324201,0.34378378378378377,0.5011005135730008,0.5945054945054945,0.43986543313709,1195.0
437.0,1.7110039110543862e+18,0.47911227154047,0.4178082191780822,0.3227027027027027,0.499877720714111,0.6450549450549451,0.432296047098402,1191.0
438.0,1.711003911064406e+18,0.4725848563968668,0.4200913242009132,0.34540540540540543,0.5008559550012228,0.5956043956043956,0.44238856181665265,1197.0
439.0,1.7110039110743862e+18,0.47780678851174935,0.3904109589041096,0.32054054054054054,0.5028124235754463,0.656043956043956,0.43902439024390244,1194.0
440.0,1.71100391108439e+18,0.4765013054830287,0.4052511415525114,0.3410810810810811,0.5015896307165566,0.5901098901098901,0.43986543313709,1195.0
441.0,1.7110039110943844e+18,0.4830287206266319,0.4189497716894977,0.32432432432432434,0.5025678650036683,0.6582417582417582,0.43986543313709,1198.0
442.0,1.7110039111043825e+18,0.47389033942558745,0.4098173515981735,0.34702702702702704,0.5006113964294449,0.6,0.4415475189234651,1195.0
443.0,1.7110039111143826e+18,0.4830287206266319,0.4257990867579909,0.3291891891891892,0.5030569821472243,0.6538461538461539,0.4381833473507149,1199.0
444.0,1.7110039111243884e+18,0.47127937336814624,0.4018264840182648,0.3410810810810811,0.5015896307165566,0.5967032967032967,0.4415475189234651,1195.0
445.0,1.7110039111343916e+18,0.47127937336814624,0.4178082191780822,0.3210810810810811,0.5018341892883346,0.6450549450549451,0.43650126156433977,1194.0
446.0,1.7110039111443855e+18,0.47127937336814624,0.410958904109589,0.34378378378378377,0.5001222792858889,0.5989010989010989,0.4432296047098402,1197.0
447.0,1.7110039111543864e+18,0.48172323759791125,0.4200913242009132,0.32756756756756755,0.5015896307165566,0.654945054945055,0.4381833473507149,1197.0
448.0,1.711003911164419e+18,0.4725848563968668,0.4417808219178082,0.35027027027027025,0.5006113964294449,0.6010989010989011,0.43986543313709,1196.0
449.0,1.7110039111744015e+18,0.47911227154047,0.4223744292237443,0.33513513513513515,0.5028124235754463,0.6516483516483517,0.43902439024390244,1197.0
450.0,1.7110039111843812e+18,0.4621409921671018,0.410958904109589,0.3427027027027027,0.5006113964294449,0.6054945054945055,0.4415475189234651,1196.0
451.0,1.711003911194383e+18,0.47127937336814624,0.4189497716894977,0.32594594594594595,0.5020787478601125,0.6483516483516484,0.43902439024390244,1195.0
452.0,1.7110039112043832e+18,0.46866840731070497,0.4098173515981735,0.34486486486486484,0.5006113964294449,0.5978021978021978,0.43986543313709,1196.0
453.0,1.7110039112143836e+18,0.4765013054830287,0.4166666666666667,0.3254054054054054,0.5015896307165566,0.6494505494505495,0.43313708999158956,1193.0
454.0,1.7110039112243978e+18,0.46866840731070497,0.4143835616438356,0.34486486486486484,0.5008559550012228,0.5956043956043956,0.4432296047098402,1197.0
455.0,1.7110039112343923e+18,0.4765013054830287,0.4212328767123288,0.3281081081081081,0.5028124235754463,0.6593406593406593,0.4373423044575273,1196.0
456.0,1.7110039112443837e+18,0.4725848563968668,0.410958904109589,0.34486486486486484,0.4991440449987772,0.6010989010989011,0.43902439024390244,1196.0
457.0,1.711003911254383e+18,0.47911227154047,0.4178082191780822,0.3254054054054054,0.5018341892883346,0.6659340659340659,0.43986543313709,1195.0
458.0,1.7110039112643973e+18,0.47127937336814624,0.4257990867579909,0.35135135135135137,0.5015896307165566,0.6010989010989011,0.4415475189234651,1196.0
459.0,1.7110039112743846e+18,0.47780678851174935,0.410958904109589,0.3291891891891892,0.5025678650036683,0.6494505494505495,0.43650126156433977,1195.0
460.0,1.711003911284388e+18,0.4699738903394256,0.410958904109589,0.34486486486486484,0.5006113964294449,0.5868131868131868,0.43650126156433977,1195.0
461.0,1.71100391129439e+18,0.48825065274151436,0.4212328767123288,0.32594594594594595,0.5025678650036683,0.6538461538461539,0.43902439024390244,1194.0
462.0,1.7110039113043858e+18,0.4595300261096606,0.4075342465753425,0.34324324324324323,0.4996331621423331,0.5835164835164836,0.44070647603027757,1193.0
463.0,1.7110039113143846e+18,0.4804177545691906,0.4178082191780822,0.3281081081081081,0.5025678650036683,0.6516483516483517,0.43902439024390244,1195.0
464.0,1.7110039113243963e+18,0.47127937336814624,0.4132420091324201,0.34540540540540543,0.5015896307165566,0.5989010989010989,0.4415475189234651,1196.0
465.0,1.7110039113343844e+18,0.4765013054830287,0.4132420091324201,0.3248648648648649,0.5023233064318905,0.6538461538461539,0.43902439024390244,1195.0
466.0,1.7110039113443845e+18,0.4725848563968668,0.4098173515981735,0.34702702702702704,0.5003668378576669,0.6098901098901099,0.4415475189234651,1195.0
467.0,1.711003911354382e+18,0.47780678851174935,0.4178082191780822,0.3254054054054054,0.5018341892883346,0.676923076923077,0.4415475189234651,1197.0
468.0,1.7110039113643827e+18,0.4725848563968668,0.4178082191780822,0.34540540540540543,0.49938860357055515,0.5868131868131868,0.4373423044575273,1196.0
469.0,1.7110039113744036e+18,0.47911227154047,0.4178082191780822,0.3216216216216216,0.5035460992907801,0.6637362637362637,0.44238856181665265,1197.0
470.0,1.7110039113843802e+18,0.4725848563968668,0.4098173515981735,0.3427027027027027,0.5037906578625581,0.6384615384615384,0.4440706476030278,1196.0
471.0,1.7110039113943803e+18,0.4856396866840731,0.4200913242009132,0.3281081081081081,0.5015896307165566,0.6472527472527473,0.43902439024390244,1193.0
472.0,1.711003911404381e+18,0.4869451697127937,0.4178082191780822,0.34378378378378377,0.5006113964294449,0.5923076923076923,0.4415475189234651,1196.0
473.0,1.7110039114143844e+18,0.4804177545691906,0.4178082191780822,0.32594594594594595,0.5023233064318905,0.6593406593406593,0.4381833473507149,1196.0
474.0,1.711003911424402e+18,0.47127937336814624,0.410958904109589,0.34486486486486484,0.5018341892883346,0.6,0.43986543313709,1195.0
475.0,1.7110039114343846e+18,0.47911227154047,0.4178082191780822,0.3237837837837838,0.5033015407190022,0.6593406593406593,0.43902439024390244,1196.0
476.0,1.711003911444395e+18,0.47389033942558745,0.4155251141552511,0.34702702702702704,0.5001222792858889,0.5956043956043956,0.4415475189234651,1196.0
477.0,1.711003911454386e+18,0.4765013054830287,0.4166666666666667,0.3254054054054054,0.5015896307165566,0.6472527472527473,0.4339781328847771,1194.0
478.0,1.7110039114644006e+18,0.4751958224543081,0.4132420091324201,0.3443243243243243,0.499877720714111,0.5923076923076923,0.44575273338940286,1197.0
479.0,1.7110039114743857e+18,0.47911227154047,0.4132420091324201,0.3227027027027027,0.5008559550012228,0.6373626373626373,0.43566021867115223,1196.0
480.0,1.711003911484382e+18,0.46736292428198434,0.4143835616438356,0.34324324324324323,0.4986549278552213,0.5857142857142857,0.43566021867115223,1194.0
481.0,1.7110039114943852e+18,0.47780678851174935,0.4223744292237443,0.32594594594594595,0.5006113964294449,0.6527472527472528,0.43902439024390244,1196.0
482.0,1.7110039115043843e+18,0.4765013054830287,0.4132420091324201,0.34594594594594597,0.499877720714111,0.5989010989010989,0.4415475189234651,1196.0
483.0,1.7110039115144312e+18,0.4804177545691906,0.4178082191780822,0.3254054054054054,0.5013450721447786,0.6428571428571429,0.4381833473507149,1194.0
484.0,1.7110039115244298e+18,0.4699738903394256,0.410958904109589,0.34702702702702704,0.5006113964294449,0.6010989010989011,0.44238856181665265,1196.0
485.0,1.7110039115344312e+18,0.4765013054830287,0.4212328767123288,0.3286486486486486,0.5037906578625581,0.6648351648351648,0.44238856181665265,1197.0
486.0,1.7110039115444472e+18,0.4765013054830287,0.4269406392694064,0.3464864864864865,0.5006113964294449,0.5923076923076923,0.43902439024390244,1196.0
487.0,1.7110039115544087e+18,0.47911227154047,0.4178082191780822,0.3254054054054054,0.5020787478601125,0.643956043956044,0.43566021867115223,1197.0
488.0,1.711003911564429e+18,0.47780678851174935,0.4155251141552511,0.34216216216216216,0.5011005135730008,0.5978021978021978,0.4415475189234651,1196.0
489.0,1.7110039115744044e+18,0.47911227154047,0.4223744292237443,0.3264864864864865,0.5023233064318905,0.6428571428571429,0.43650126156433977,1197.0
490.0,1.7110039115844104e+18,0.4765013054830287,0.4132420091324201,0.34540540540540543,0.5025678650036683,0.6043956043956044,0.4482758620689655,1196.0
491.0,1.711003911594413e+18,0.48172323759791125,0.4246575342465753,0.3335135135135135,0.5037906578625581,0.6472527472527473,0.4415475189234651,1195.0
492.0,1.7110039116044137e+18,0.4725848563968668,0.4463470319634703,0.35027027027027025,0.5025678650036683,0.6043956043956044,0.44238856181665265,1198.0
493.0,1.711003911614431e+18,0.47911227154047,0.4246575342465753,0.3286486486486486,0.5030569821472243,0.6505494505494506,0.4381833473507149,1197.0
494.0,1.711003911624406e+18,0.46736292428198434,0.4075342465753425,0.34378378378378377,0.4996331621423331,0.5868131868131868,0.43902439024390244,1195.0
495.0,1.7110039116344084e+18,0.47911227154047,0.4189497716894977,0.32756756756756755,0.5011005135730008,0.634065934065934,0.4348191757779647,1194.0
496.0,1.7110039116444352e+18,0.4765013054830287,0.4155251141552511,0.34378378378378377,0.5003668378576669,0.5824175824175825,0.43566021867115223,1196.0
497.0,1.7110039116544358e+18,0.47780678851174935,0.4178082191780822,0.3281081081081081,0.5052580092932257,0.6835164835164835,0.4415475189234651,1193.0
498.0,1.7110039116643848e+18,0.4725848563968668,0.4098173515981735,0.3481081081081081,0.499877720714111,0.5989010989010989,0.44575273338940286,1197.0
499.0,1.711003911674402e+18,0.47911227154047,0.4223744292237443,0.3345945945945946,0.5020787478601125,0.6461538461538462,0.432296047098402,1194.0
500.0,1.7110039116844035e+18,0.4725848563968668,0.410958904109589,0.3443243243243243,0.5011005135730008,0.6,0.4415475189234651,1198.0
501.0,1.7110039116943987e+18,0.47911227154047,0.4200913242009132,0.3281081081081081,0.5018341892883346,0.654945054945055,0.43986543313709,1196.0
502.0,1.7110039117043976e+18,0.4725848563968668,0.4143835616438356,0.35405405405405405,0.4988994864269993,0.5747252747252747,0.4348191757779647,1194.0
503.0,1.7110039117144087e+18,0.4765013054830287,0.4178082191780822,0.3248648648648649,0.5035460992907801,0.6538461538461539,0.43650126156433977,1196.0
504.0,1.7110039117243924e+18,0.47127937336814624,0.4098173515981735,0.34378378378378377,0.5018341892883346,0.6010989010989011,0.44575273338940286,1195.0
505.0,1.7110039117343982e+18,0.4804177545691906,0.4212328767123288,0.3254054054054054,0.5015896307165566,0.6538461538461539,0.43650126156433977,1196.0
506.0,1.7110039117444042e+18,0.47127937336814624,0.4143835616438356,0.3427027027027027,0.5015896307165566,0.6010989010989011,0.4415475189234651,1195.0
507.0,1.7110039117544044e+18,0.4699738903394256,0.3972602739726027,0.3237837837837838,0.5001222792858889,0.6538461538461539,0.4339781328847771,1192.0
508.0,1.711003911764407e+18,0.47127937336814624,0.3995433789954338,0.34378378378378377,0.5013450721447786,0.6043956043956044,0.4432296047098402,1196.0
509.0,1.7110039117744018e+18,0.48825065274151436,0.4200913242009132,0.3254054054054054,0.5020787478601125,0.6538461538461539,0.4381833473507149,1193.0
510.0,1.7110039117843822e+18,0.4660574412532637,0.4098173515981735,0.34594594594594597,0.5015896307165566,0.6197802197802198,0.4432296047098402,1195.0
511.0,1.7110039117944015e+18,0.4751958224543081,0.4200913242009132,0.32756756756756755,0.5030569821472243,0.6461538461538462,0.4381833473507149,1197.0
512.0,1.7110039118043968e+18,0.4699738903394256,0.410958904109589,0.34486486486486484,0.5006113964294449,0.5978021978021978,0.43902439024390244,1196.0
513.0,1.7110039118143951e+18,0.4830287206266319,0.4178082191780822,0.3291891891891892,0.5020787478601125,0.6461538461538462,0.4373423044575273,1196.0
514.0,1.7110039118243963e+18,0.46866840731070497,0.4018264840182648,0.34324324324324323,0.5001222792858889,0.5923076923076923,0.43566021867115223,1197.0
515.0,1.7110039118343939e+18,0.48172323759791125,0.4246575342465753,0.31945945945945947,0.5015896307165566,0.6472527472527473,0.43650126156433977,1194.0
516.0,1.711003911844391e+18,0.4725848563968668,0.4063926940639269,0.3427027027027027,0.5006113964294449,0.5978021978021978,0.4432296047098402,1194.0
517.0,1.711003911854395e+18,0.4830287206266319,0.4178082191780822,0.3264864864864865,0.5020787478601125,0.6538461538461539,0.43902439024390244,1194.0
518.0,1.711003911864402e+18,0.4765013054830287,0.410958904109589,0.34486486486486484,0.5006113964294449,0.6021978021978022,0.4432296047098402,1197.0
519.0,1.7110039118744003e+18,0.4765013054830287,0.4178082191780822,0.32594594594594595,0.5018341892883346,0.6373626373626373,0.4339781328847771,1192.0
520.0,1.7110039118843924e+18,0.46866840731070497,0.410958904109589,0.34486486486486484,0.5011005135730008,0.5978021978021978,0.43986543313709,1196.0
521.0,1.711003911894392e+18,0.48172323759791125,0.4178082191780822,0.32756756756756755,0.5023233064318905,0.6494505494505495,0.4381833473507149,1193.0
522.0,1.7110039119043914e+18,0.46866840731070497,0.4132420091324201,0.34162162162162163,0.4991440449987772,0.5846153846153846,0.4381833473507149,1194.0
523.0,1.7110039119143916e+18,0.4830287206266319,0.4394977168949772,0.3345945945945946,0.5025678650036683,0.6604395604395604,0.43902439024390244,1194.0
524.0,1.7110039119244111e+18,0.46866840731070497,0.430365296803653,0.34756756756756757,0.5001222792858889,0.6021978021978022,0.4415475189234651,1196.0
525.0,1.7110039119344957e+18,0.48825065274151436,0.4269406392694064,0.32756756756756755,0.5025678650036683,0.6450549450549451,0.4348191757779647,1193.0
526.0,1.7110039119444076e+18,0.4725848563968668,0.4178082191780822,0.3535135135135135,0.5025678650036683,0.6054945054945055,0.44238856181665265,1198.0
527.0,1.7110039119543982e+18,0.4751958224543081,0.4200913242009132,0.3254054054054054,0.5028124235754463,0.6582417582417582,0.43986543313709,1194.0
528.0,1.7110039119644027e+18,0.46866840731070497,0.4155251141552511,0.34594594594594597,0.5001222792858889,0.6153846153846154,0.4415475189234651,1196.0
529.0,1.711003911974406e+18,0.4765013054830287,0.4189497716894977,0.32432432432432434,0.5015896307165566,0.6472527472527473,0.43650126156433977,1194.0
530.0,1.7110039119843855e+18,0.4725848563968668,0.410958904109589,0.34378378378378377,0.5006113964294449,0.5857142857142857,0.43902439024390244,1196.0
531.0,1.7110039119943918e+18,0.4765013054830287,0.4166666666666667,0.32594594594594595,0.5020787478601125,0.643956043956044,0.4314550042052145,1192.0
532.0,1.7110039120043976e+18,0.47389033942558745,0.4041095890410959,0.3427027027027027,0.499877720714111,0.5978021978021978,0.4415475189234651,1196.0
533.0,1.7110039120143944e+18,0.48433420365535246,0.4189497716894977,0.32432432432432434,0.5028124235754463,0.6505494505494506,0.4415475189234651,1195.0
534.0,1.711003912024396e+18,0.47911227154047,0.410958904109589,0.34324324324324323,0.49938860357055515,0.6021978021978022,0.44238856181665265,1195.0
535.0,1.7110039120343905e+18,0.4725848563968668,0.4166666666666667,0.3281081081081081,0.5025678650036683,0.6714285714285714,0.43902439024390244,1195.0
536.0,1.7110039120443894e+18,0.47127937336814624,0.4155251141552511,0.3427027027027027,0.5001222792858889,0.5923076923076923,0.4415475189234651,1196.0
537.0,1.711003912054391e+18,0.47911227154047,0.4189497716894977,0.3281081081081081,0.5030569821472243,0.654945054945055,0.4381833473507149,1195.0
538.0,1.7110039120643978e+18,0.47127937336814624,0.4166666666666667,0.3481081081081081,0.4988994864269993,0.5769230769230769,0.42977291841883936,1192.0
539.0,1.7110039120744056e+18,0.4804177545691906,0.4223744292237443,0.33135135135135135,0.5025678650036683,0.6483516483516484,0.4348191757779647,1195.0
540.0,1.711003912084386e+18,0.47127937336814624,0.4098173515981735,0.34054054054054056,0.4991440449987772,0.5857142857142857,0.4373423044575273,1197.0
541.0,1.7110039120943939e+18,0.4804177545691906,0.4200913242009132,0.3264864864864865,0.5013450721447786,0.6406593406593407,0.43566021867115223,1194.0
542.0,1.7110039121043825e+18,0.47127937336814624,0.4098173515981735,0.34324324324324323,0.5020787478601125,0.6032967032967033,0.4465937762825904,1196.0
543.0,1.7110039121143793e+18,0.4765013054830287,0.4155251141552511,0.3264864864864865,0.5020787478601125,0.667032967032967,0.4339781328847771,1192.0
544.0,1.7110039121243766e+18,0.47911227154047,0.4178082191780822,0.34756756756756757,0.5015896307165566,0.6010989010989011,0.4440706476030278,1196.0
545.0,1.7110039121343898e+18,0.4765013054830287,0.4178082191780822,0.3308108108108108,0.504035216434336,0.6538461538461539,0.4432296047098402,1195.0
546.0,1.711003912144377e+18,0.4765013054830287,0.410958904109589,0.34378378378378377,0.5023233064318905,0.6142857142857143,0.4415475189234651,1195.0
547.0,1.7110039121543785e+18,0.48172323759791125,0.4269406392694064,0.33135135135135135,0.5030569821472243,0.6538461538461539,0.4381833473507149,1197.0
548.0,1.7110039121643817e+18,0.4725848563968668,0.4052511415525114,0.34486486486486484,0.5001222792858889,0.6021978021978022,0.44238856181665265,1195.0
549.0,1.711003912174375e+18,0.4830287206266319,0.4212328767123288,0.3248648648648649,0.5015896307165566,0.6494505494505495,0.43650126156433977,1198.0
550.0,1.7110039121843817e+18,0.4725848563968668,0.410958904109589,0.34486486486486484,0.4991440449987772,0.589010989010989,0.44238856181665265,1195.0
551.0,1.7110039121943693e+18,0.47780678851174935,0.4178082191780822,0.3254054054054054,0.5025678650036683,0.6505494505494506,0.4339781328847771,1192.0
552.0,1.711003912204378e+18,0.47127937336814624,0.4132420091324201,0.34378378378378377,0.499877720714111,0.5923076923076923,0.43650126156433977,1197.0
553.0,1.7110039122143813e+18,0.48433420365535246,0.4246575342465753,0.33135135135135135,0.5018341892883346,0.6461538461538462,0.43902439024390244,1197.0
554.0,1.7110039122243763e+18,0.4725848563968668,0.4452054794520548,0.35135135135135137,0.5006113964294449,0.6,0.43902439024390244,1196.0
555.0,1.7110039122343857e+18,0.47911227154047,0.4223744292237443,0.3264864864864865,0.5028124235754463,0.6516483516483517,0.4381833473507149,1195.0
556.0,1.7110039122444168e+18,0.47389033942558745,0.4098173515981735,0.34486486486486484,0.5018341892883346,0.6120879120879121,0.44238856181665265,1196.0
557.0,1.711003912254378e+18,0.48172323759791125,0.4372146118721461,0.33135135135135135,0.5025678650036683,0.6472527472527473,0.43902439024390244,1195.0
558.0,1.711003912264386e+18,0.4725848563968668,0.4143835616438356,0.35567567567567565,0.4996331621423331,0.589010989010989,0.44238856181665265,1196.0
559.0,1.711003912274373e+18,0.47780678851174935,0.4200913242009132,0.32756756756756755,0.5018341892883346,0.6461538461538462,0.43566021867115223,1197.0
560.0,1.7110039122844073e+18,0.4725848563968668,0.410958904109589,0.3410810810810811,0.49938860357055515,0.6021978021978022,0.44238856181665265,1196.0
561.0,1.7110039122943752e+18,0.4804177545691906,0.4178082191780822,0.3232432432432432,0.5028124235754463,0.6516483516483517,0.4381833473507149,1197.0
562.0,1.7110039123043592e+18,0.47389033942558745,0.408675799086758,0.34540540540540543,0.5008559550012228,0.5967032967032967,0.4432296047098402,1194.0
563.0,1.7110039123144102e+18,0.48825065274151436,0.4223744292237443,0.32756756756756755,0.5030569821472243,0.654945054945055,0.4381833473507149,1194.0
564.0,1.7110039123243794e+18,0.47127937336814624,0.4132420091324201,0.34540540540540543,0.5025678650036683,0.6076923076923076,0.44238856181665265,1195.0
565.0,1.7110039123343823e+18,0.4804177545691906,0.4269406392694064,0.3318918918918919,0.5023233064318905,0.6494505494505495,0.4381833473507149,1195.0
566.0,1.7110039123444111e+18,0.4608355091383812,0.4075342465753425,0.34216216216216216,0.5001222792858889,0.5934065934065934,0.4381833473507149,1194.0
567.0,1.711003912354379e+18,0.4830287206266319,0.4189497716894977,0.32594594594594595,0.5018341892883346,0.6538461538461539,0.43650126156433977,1197.0
568.0,1.7110039123643676e+18,0.46475195822454307,0.4075342465753425,0.34054054054054056,0.504524333577892,0.6296703296703297,0.43902439024390244,1195.0
569.0,1.7110039123743706e+18,0.48172323759791125,0.4235159817351598,0.3248648648648649,0.5018341892883346,0.6538461538461539,0.4373423044575273,1196.0
570.0,1.7110039123843791e+18,0.47127937336814624,0.410958904109589,0.3443243243243243,0.5020787478601125,0.6021978021978022,0.4432296047098402,1194.0
571.0,1.7110039123943754e+18,0.47780678851174935,0.4257990867579909,0.3254054054054054,0.5025678650036683,0.656043956043956,0.4381833473507149,1197.0
572.0,1.7110039124043748e+18,0.4725848563968668,0.4143835616438356,0.34486486486486484,0.5001222792858889,0.5945054945054945,0.4415475189234651,1197.0
573.0,1.7110039124143716e+18,0.47911227154047,0.408675799086758,0.3254054054054054,0.5025678650036683,0.6483516483516484,0.43902439024390244,1200.0
574.0,1.711003912424368e+18,0.47780678851174935,0.4052511415525114,0.34054054054054056,0.5008559550012228,0.5956043956043956,0.43986543313709,1196.0
575.0,1.7110039124344077e+18,0.4751958224543081,0.4063926940639269,0.3216216216216216,0.5018341892883346,0.6406593406593407,0.4339781328847771,1192.0
576.0,1.7110039124444047e+18,0.4725848563968668,0.4143835616438356,0.34216216216216216,0.5015896307165566,0.5967032967032967,0.43986543313709,1194.0
577.0,1.7110039124544e+18,0.48172323759791125,0.4178082191780822,0.3227027027027027,0.5028124235754463,0.654945054945055,0.4381833473507149,1195.0
578.0,1.711003912464385e+18,0.47127937336814624,0.4178082191780822,0.34594594594594597,0.5011005135730008,0.5989010989010989,0.4415475189234651,1194.0
579.0,1.7110039124743836e+18,0.4869451697127937,0.4474885844748858,0.33135135135135135,0.5028124235754463,0.654945054945055,0.44238856181665265,1194.0
580.0,1.7110039124844096e+18,0.47911227154047,0.4155251141552511,0.34486486486486484,0.5006113964294449,0.5846153846153846,0.43986543313709,1197.0
581.0,1.7110039124943713e+18,0.4869451697127937,0.4223744292237443,0.3291891891891892,0.5020787478601125,0.6472527472527473,0.4415475189234651,1196.0
582.0,1.7110039125043935e+18,0.4660574412532637,0.4063926940639269,0.34594594594594597,0.4988994864269993,0.5824175824175825,0.43902439024390244,1194.0
583.0,1.7110039125143903e+18,0.4765013054830287,0.4200913242009132,0.32432432432432434,0.5015896307165566,0.6461538461538462,0.4373423044575273,1196.0
584.0,1.7110039125243988e+18,0.4699738903394256,0.4098173515981735,0.34324324324324323,0.4996331621423331,0.6,0.44238856181665265,1195.0
585.0,1.7110039125343754e+18,0.47911227154047,0.4497716894977169,0.33405405405405403,0.5050134507214478,0.6692307692307692,0.44575273338940286,1196.0
586.0,1.7110039125443968e+18,0.48433420365535246,0.4178082191780822,0.34324324324324323,0.5003668378576669,0.610989010989011,0.4415475189234651,1198.0
587.0,1.711003912554387e+18,0.48433420365535246,0.4223744292237443,0.327027027027027,0.5025678650036683,0.656043956043956,0.4415475189234651,1198.0
588.0,1.7110039125643986e+18,0.47127937336814624,0.408675799086758,0.34486486486486484,0.5008559550012228,0.5923076923076923,0.43902439024390244,1196.0
589.0,1.7110039125743767e+18,0.4856396866840731,0.4360730593607306,0.33135135135135135,0.5020787478601125,0.6472527472527473,0.4339781328847771,1192.0
590.0,1.7110039125843766e+18,0.4765013054830287,0.4155251141552511,0.34756756756756757,0.5001222792858889,0.5967032967032967,0.4432296047098402,1197.0
591.0,1.7110039125943823e+18,0.47780678851174935,0.4235159817351598,0.32594594594594595,0.5025678650036683,0.6527472527472528,0.4415475189234651,1196.0
592.0,1.711003912604388e+18,0.46866840731070497,0.4075342465753425,0.34486486486486484,0.5001222792858889,0.5923076923076923,0.43902439024390244,1197.0
593.0,1.711003912614376e+18,0.47780678851174935,0.4509132420091324,0.33513513513513515,0.5020787478601125,0.6505494505494506,0.4381833473507149,1197.0
594.0,1.7110039126243727e+18,0.46475195822454307,0.4018264840182648,0.34054054054054056,0.49938860357055515,0.5967032967032967,0.4348191757779647,1198.0
595.0,1.7110039126343944e+18,0.4765013054830287,0.4200913242009132,0.3308108108108108,0.5020787478601125,0.6395604395604395,0.432296047098402,1193.0
596.0,1.7110039126443707e+18,0.4699738903394256,0.4041095890410959,0.3427027027027027,0.5003668378576669,0.6021978021978022,0.4432296047098402,1197.0
597.0,1.7110039126543985e+18,0.4830287206266319,0.4200913242009132,0.3281081081081081,0.5035460992907801,0.6714285714285714,0.43986543313709,1195.0
598.0,1.7110039126643968e+18,0.4751958224543081,0.4098173515981735,0.34162162162162163,0.5020787478601125,0.6065934065934065,0.4381833473507149,1197.0
599.0,1.7110039126743946e+18,0.48172323759791125,0.4383561643835616,0.32972972972972975,0.5030569821472243,0.6582417582417582,0.43986543313709,1196.0
600.0,1.7110039126843914e+18,0.47780678851174935,0.4178082191780822,0.34486486486486484,0.49938860357055515,0.589010989010989,0.43902439024390244,1196.0
601.0,1.7110039126943918e+18,0.4908616187989556,0.4269406392694064,0.32756756756756755,0.504524333577892,0.6637362637362637,0.43650126156433977,1195.0
602.0,1.7110039127043868e+18,0.4725848563968668,0.4292237442922374,0.35135135135135137,0.5011005135730008,0.5923076923076923,0.4440706476030278,1193.0
603.0,1.7110039127143841e+18,0.4765013054830287,0.4178082191780822,0.3254054054054054,0.5028124235754463,0.6527472527472528,0.44070647603027757,1194.0
604.0,1.711003912724373e+18,0.4699738903394256,0.4178082191780822,0.34324324324324323,0.5025678650036683,0.5978021978021978,0.4449116904962153,1195.0
605.0,1.7110039127343946e+18,0.47911227154047,0.4223744292237443,0.3324324324324324,0.5030569821472243,0.656043956043956,0.4415475189234651,1196.0
606.0,1.7110039127443937e+18,0.47127937336814624,0.4098173515981735,0.3427027027027027,0.499877720714111,0.5967032967032967,0.43986543313709,1197.0
607.0,1.7110039127543887e+18,0.47780678851174935,0.4189497716894977,0.3264864864864865,0.5023233064318905,0.6571428571428571,0.43902439024390244,1196.0
608.0,1.711003912764387e+18,0.46866840731070497,0.410958904109589,0.3410810810810811,0.5015896307165566,0.5989010989010989,0.43902439024390244,1194.0
609.0,1.7110039127743923e+18,0.4869451697127937,0.4212328767123288,0.32756756756756755,0.4986549278552213,0.6527472527472528,0.43986543313709,1193.0
610.0,1.711003912784373e+18,0.46736292428198434,0.4098173515981735,0.34054054054054056,0.5013450721447786,0.5956043956043956,0.43902439024390244,1195.0
611.0,1.7110039127943939e+18,0.47389033942558745,0.4166666666666667,0.3227027027027027,0.5018341892883346,0.656043956043956,0.4373423044575273,1194.0
612.0,1.7110039128043748e+18,0.46344647519582244,0.408675799086758,0.34324324324324323,0.5015896307165566,0.6010989010989011,0.4415475189234651,1197.0
613.0,1.711003912814383e+18,0.47911227154047,0.4189497716894977,0.32756756756756755,0.5025678650036683,0.6538461538461539,0.43902439024390244,1198.0
614.0,1.711003912824372e+18,0.4660574412532637,0.4075342465753425,0.3427027027027027,0.5015896307165566,0.5967032967032967,0.4415475189234651,1198.0
615.0,1.7110039128343798e+18,0.47911227154047,0.4235159817351598,0.3281081081081081,0.5025678650036683,0.6505494505494506,0.43902439024390244,1197.0
616.0,1.711003912844408e+18,0.4725848563968668,0.4052511415525114,0.34486486486486484,0.5020787478601125,0.6384615384615384,0.4415475189234651,1197.0
617.0,1.7110039128543834e+18,0.4830287206266319,0.4075342465753425,0.32594594594594595,0.5025678650036683,0.6450549450549451,0.43313708999158956,1193.0
618.0,1.7110039128643707e+18,0.4725848563968668,0.4132420091324201,0.34378378378378377,0.5013450721447786,0.6,0.4415475189234651,1196.0
619.0,1.711003912874366e+18,0.4751958224543081,0.4121004566210046,0.3264864864864865,0.5028124235754463,0.6582417582417582,0.43986543313709,1194.0
620.0,1.7110039128843663e+18,0.47389033942558745,0.4121004566210046,0.34486486486486484,0.4991440449987772,0.589010989010989,0.4381833473507149,1196.0
621.0,1.7110039128943964e+18,0.4830287206266319,0.4235159817351598,0.327027027027027,0.5018341892883346,0.6516483516483517,0.4415475189234651,1196.0
622.0,1.7110039129043786e+18,0.4765013054830287,0.4132420091324201,0.34540540540540543,0.5018341892883346,0.6120879120879121,0.4432296047098402,1196.0
623.0,1.7110039129143864e+18,0.47911227154047,0.4132420091324201,0.327027027027027,0.5025678650036683,0.6428571428571429,0.4381833473507149,1196.0
624.0,1.7110039129243786e+18,0.47389033942558745,0.4155251141552511,0.34486486486486484,0.5008559550012228,0.6065934065934065,0.4449116904962153,1196.0
625.0,1.7110039129343708e+18,0.47780678851174935,0.432648401826484,0.33135135135135135,0.5015896307165566,0.6450549450549451,0.43902439024390244,1195.0
626.0,1.711003912944405e+18,0.4660574412532637,0.4121004566210046,0.34378378378378377,0.5023233064318905,0.6307692307692307,0.43986543313709,1196.0
627.0,1.711003912954373e+18,0.47911227154047,0.4223744292237443,0.3308108108108108,0.5025678650036683,0.6538461538461539,0.43566021867115223,1197.0
628.0,1.7110039129643848e+18,0.47389033942558745,0.4143835616438356,0.34540540540540543,0.5015896307165566,0.5989010989010989,0.4415475189234651,1196.0
629.0,1.7110039129743872e+18,0.48172323759791125,0.4189497716894977,0.32756756756756755,0.5020787478601125,0.643956043956044,0.43566021867115223,1196.0
630.0,1.7110039129843868e+18,0.4699738903394256,0.4132420091324201,0.3427027027027027,0.4988994864269993,0.589010989010989,0.4381833473507149,1196.0
631.0,1.7110039129943977e+18,0.47389033942558745,0.410958904109589,0.32432432432432434,0.5030569821472243,0.6637362637362637,0.4415475189234651,1196.0
632.0,1.7110039130043725e+18,0.46344647519582244,0.4178082191780822,0.3389189189189189,0.5003668378576669,0.5934065934065934,0.4381833473507149,1196.0
633.0,1.711003913014375e+18,0.489556135770235,0.4372146118721461,0.3324324324324324,0.5033015407190022,0.6538461538461539,0.4381833473507149,1196.0
634.0,1.7110039130243684e+18,0.47127937336814624,0.410958904109589,0.3464864864864865,0.4996331621423331,0.5879120879120879,0.4381833473507149,1197.0
635.0,1.7110039130343782e+18,0.4830287206266319,0.4223744292237443,0.3281081081081081,0.5020787478601125,0.6494505494505495,0.43650126156433977,1194.0
636.0,1.711003913044374e+18,0.4765013054830287,0.4121004566210046,0.34486486486486484,0.5006113964294449,0.5989010989010989,0.4440706476030278,1196.0
637.0,1.7110039130543793e+18,0.4830287206266319,0.410958904109589,0.32432432432432434,0.5023233064318905,0.6659340659340659,0.44070647603027757,1196.0
638.0,1.7110039130643732e+18,0.47389033942558745,0.4178082191780822,0.3572972972972973,0.5015896307165566,0.5945054945054945,0.44070647603027757,1196.0
639.0,1.7110039130743713e+18,0.4830287206266319,0.4178082191780822,0.327027027027027,0.5025678650036683,0.6461538461538462,0.4373423044575273,1196.0
640.0,1.7110039130843766e+18,0.4804177545691906,0.4440639269406393,0.35567567567567565,0.5003668378576669,0.6010989010989011,0.4381833473507149,1196.0
641.0,1.7110039130943867e+18,0.47389033942558745,0.4178082191780822,0.3254054054054054,0.5035460992907801,0.6538461538461539,0.43986543313709,1196.0
642.0,1.711003913104378e+18,0.4725848563968668,0.4121004566210046,0.3443243243243243,0.5006113964294449,0.5989010989010989,0.44238856181665265,1194.0
643.0,1.7110039131143718e+18,0.4765013054830287,0.4189497716894977,0.327027027027027,0.5030569821472243,0.6527472527472528,0.43986543313709,1197.0
644.0,1.7110039131243681e+18,0.46736292428198434,0.4075342465753425,0.3410810810810811,0.5006113964294449,0.5989010989010989,0.43650126156433977,1196.0
645.0,1.7110039131343724e+18,0.4804177545691906,0.4200913242009132,0.3286486486486486,0.5025678650036683,0.656043956043956,0.43902439024390244,1194.0
646.0,1.7110039131443697e+18,0.4699738903394256,0.4292237442922374,0.3497297297297297,0.5011005135730008,0.5956043956043956,0.4415475189234651,1195.0
647.0,1.7110039131543772e+18,0.46866840731070497,0.3881278538812785,0.31945945945945947,0.5028124235754463,0.6527472527472528,0.4373423044575273,1197.0
648.0,1.711003913164377e+18,0.4765013054830287,0.4052511415525114,0.34540540540540543,0.5020787478601125,0.6065934065934065,0.4440706476030278,1196.0
649.0,1.7110039131744026e+18,0.48172323759791125,0.4178082191780822,0.32594594594594595,0.5035460992907801,0.6582417582417582,0.44575273338940286,1195.0
650.0,1.7110039131843758e+18,0.47127937336814624,0.4132420091324201,0.34378378378378377,0.5028124235754463,0.6417582417582418,0.4465937762825904,1196.0
651.0,1.711003913194395e+18,0.4765013054830287,0.4178082191780822,0.32594594594594595,0.5015896307165566,0.6461538461538462,0.4381833473507149,1197.0
652.0,1.7110039132043681e+18,0.46736292428198434,0.4098173515981735,0.34324324324324323,0.5001222792858889,0.5923076923076923,0.43902439024390244,1197.0
653.0,1.7110039132143767e+18,0.48433420365535246,0.4189497716894977,0.327027027027027,0.5025678650036683,0.6494505494505495,0.43986543313709,1196.0
654.0,1.7110039132243743e+18,0.47127937336814624,0.4166666666666667,0.3443243243243243,0.4996331621423331,0.6021978021978022,0.4432296047098402,1197.0
655.0,1.7110039132343744e+18,0.47911227154047,0.4178082191780822,0.327027027027027,0.5037906578625581,0.6593406593406593,0.4348191757779647,1197.0
656.0,1.7110039132443743e+18,0.4725848563968668,0.3995433789954338,0.33675675675675676,0.5008559550012228,0.5989010989010989,0.44238856181665265,1196.0
657.0,1.7110039132543698e+18,0.48172323759791125,0.4166666666666667,0.3264864864864865,0.5015896307165566,0.6516483516483517,0.43902439024390244,1197.0
658.0,1.7110039132643756e+18,0.47127937336814624,0.4075342465753425,0.3410810810810811,0.4984103692834434,0.5769230769230769,0.4348191757779647,1196.0
659.0,1.7110039132743862e+18,0.47127937336814624,0.4269406392694064,0.3291891891891892,0.5023233064318905,0.6461538461538462,0.43902439024390244,1197.0
660.0,1.7110039132843917e+18,0.47389033942558745,0.4166666666666667,0.34378378378378377,0.49816581071166544,0.5714285714285714,0.4381833473507149,1196.0
661.0,1.711003913294407e+18,0.4869451697127937,0.4132420091324201,0.3264864864864865,0.5015896307165566,0.634065934065934,0.4449116904962153,1196.0
662.0,1.7110039133043796e+18,0.47780678851174935,0.4098173515981735,0.34378378378378377,0.5003668378576669,0.5362637362637362,0.44070647603027757,1195.0
663.0,1.7110039133143775e+18,0.4830287206266319,0.4178082191780822,0.32756756756756755,0.5020787478601125,0.6538461538461539,0.4432296047098402,1197.0
664.0,1.7110039133243776e+18,0.4765013054830287,0.408675799086758,0.3427027027027027,0.49816581071166544,0.5846153846153846,0.4432296047098402,1197.0
665.0,1.7110039133343782e+18,0.49216710182767626,0.4223744292237443,0.3302702702702703,0.5030569821472243,0.6450549450549451,0.4314550042052145,1193.0
666.0,1.7110039133443896e+18,0.47389033942558745,0.4132420091324201,0.3427027027027027,0.5013450721447786,0.6054945054945055,0.4381833473507149,1198.0
667.0,1.711003913354377e+18,0.4830287206266319,0.45662100456621,0.34054054054054056,0.5055025678650037,0.6505494505494506,0.4415475189234651,1196.0
668.0,1.7110039133643817e+18,0.4765013054830287,0.4018264840182648,0.33513513513513515,0.5025678650036683,0.6010989010989011,0.4415475189234651,1197.0
669.0,1.7110039133743793e+18,0.4765013054830287,0.4132420091324201,0.3232432432432432,0.5028124235754463,0.654945054945055,0.43902439024390244,1195.0
670.0,1.7110039133843807e+18,0.4751958224543081,0.4132420091324201,0.34486486486486484,0.5020787478601125,0.5967032967032967,0.43986543313709,1197.0
671.0,1.7110039133943852e+18,0.47127937336814624,0.4178082191780822,0.3254054054054054,0.5011005135730008,0.6450549450549451,0.43313708999158956,1191.0
672.0,1.7110039134043558e+18,0.4660574412532637,0.4315068493150685,0.34702702702702704,0.5008559550012228,0.6010989010989011,0.4415475189234651,1197.0
673.0,1.7110039134143828e+18,0.4908616187989556,0.4383561643835616,0.3335135135135135,0.5028124235754463,0.6714285714285714,0.4373423044575273,1197.0
674.0,1.711003913424362e+18,0.47127937336814624,0.4280821917808219,0.3491891891891892,0.5006113964294449,0.5934065934065934,0.4381833473507149,1196.0
675.0,1.7110039134343816e+18,0.4765013054830287,0.4212328767123288,0.3281081081081081,0.5018341892883346,0.6538461538461539,0.43902439024390244,1197.0
676.0,1.7110039134443884e+18,0.4765013054830287,0.4121004566210046,0.34486486486486484,0.5015896307165566,0.589010989010989,0.4415475189234651,1196.0
677.0,1.7110039134543603e+18,0.48172323759791125,0.4212328767123288,0.3308108108108108,0.504524333577892,0.6736263736263737,0.44238856181665265,1194.0
678.0,1.7110039134643837e+18,0.46736292428198434,0.4121004566210046,0.34486486486486484,0.5006113964294449,0.5824175824175825,0.43650126156433977,1197.0
679.0,1.7110039134743834e+18,0.4725848563968668,0.4166666666666667,0.3264864864864865,0.5025678650036683,0.6516483516483517,0.43986543313709,1196.0
680.0,1.711003913484384e+18,0.4699738903394256,0.4121004566210046,0.34216216216216216,0.5006113964294449,0.5879120879120879,0.4348191757779647,1195.0
681.0,1.7110039134943923e+18,0.47780678851174935,0.4155251141552511,0.32594594594594595,0.5035460992907801,0.654945054945055,0.43902439024390244,1196.0
682.0,1.7110039135043576e+18,0.47127937336814624,0.4178082191780822,0.3491891891891892,0.5015896307165566,0.5835164835164836,0.44238856181665265,1194.0
683.0,1.7110039135143688e+18,0.4804177545691906,0.4200913242009132,0.3302702702702703,0.5023233064318905,0.6373626373626373,0.4415475189234651,1196.0
684.0,1.7110039135243686e+18,0.47389033942558745,0.4155251141552511,0.34486486486486484,0.5018341892883346,0.6032967032967033,0.4415475189234651,1197.0
685.0,1.7110039135343685e+18,0.4830287206266319,0.4200913242009132,0.32756756756756755,0.5025678650036683,0.6538461538461539,0.43902439024390244,1197.0
686.0,1.71100391354436e+18,0.47780678851174935,0.4178082191780822,0.34702702702702704,0.5006113964294449,0.5989010989010989,0.44238856181665265,1197.0
687.0,1.7110039135543567e+18,0.4869451697127937,0.4212328767123288,0.3264864864864865,0.5025678650036683,0.6516483516483517,0.43650126156433977,1196.0
688.0,1.7110039135643707e+18,0.46866840731070497,0.4132420091324201,0.34378378378378377,0.5008559550012228,0.6054945054945055,0.44575273338940286,1197.0
689.0,1.7110039135743695e+18,0.47911227154047,0.4200913242009132,0.3248648648648649,0.5025678650036683,0.6582417582417582,0.4415475189234651,1196.0
690.0,1.7110039135843653e+18,0.4765013054830287,0.4372146118721461,0.34864864864864864,0.499877720714111,0.5978021978021978,0.4415475189234651,1197.0
691.0,1.7110039135943877e+18,0.4830287206266319,0.4200913242009132,0.32594594594594595,0.5028124235754463,0.6516483516483517,0.43566021867115223,1197.0
692.0,1.7110039136043937e+18,0.46866840731070497,0.4269406392694064,0.34756756756756757,0.499877720714111,0.5934065934065934,0.4381833473507149,1197.0
693.0,1.7110039136143726e+18,0.47911227154047,0.4189497716894977,0.3248648648648649,0.5023233064318905,0.6879120879120879,0.44238856181665265,1197.0
694.0,1.7110039136243686e+18,0.4660574412532637,0.408675799086758,0.33837837837837836,0.5015896307165566,0.6186813186813187,0.4381833473507149,1195.0
695.0,1.7110039136343683e+18,0.47911227154047,0.4166666666666667,0.32432432432432434,0.5030569821472243,0.6516483516483517,0.4415475189234651,1198.0
696.0,1.711003913644371e+18,0.4725848563968668,0.4292237442922374,0.34486486486486484,0.5001222792858889,0.5978021978021978,0.44070647603027757,1198.0
697.0,1.7110039136543532e+18,0.4908616187989556,0.4223744292237443,0.3264864864864865,0.5030569821472243,0.6593406593406593,0.43986543313709,1196.0
698.0,1.711003913664369e+18,0.4725848563968668,0.4257990867579909,0.35567567567567565,0.5018341892883346,0.6,0.4415475189234651,1197.0
699.0,1.7110039136743662e+18,0.47780678851174935,0.4121004566210046,0.3254054054054054,0.5011005135730008,0.6505494505494506,0.4415475189234651,1197.0
700.0,1.7110039136843704e+18,0.47127937336814624,0.4098173515981735,0.34216216216216216,0.5001222792858889,0.5923076923076923,0.4381833473507149,1194.0
701.0,1.711003913694379e+18,0.4869451697127937,0.4200913242009132,0.3302702702702703,0.5035460992907801,0.6538461538461539,0.4381833473507149,1197.0
702.0,1.7110039137043715e+18,0.4725848563968668,0.4143835616438356,0.34756756756756757,0.5001222792858889,0.5879120879120879,0.4381833473507149,1194.0
703.0,1.7110039137143706e+18,0.47389033942558745,0.4143835616438356,0.3264864864864865,0.5025678650036683,0.656043956043956,0.4449116904962153,1194.0
704.0,1.711003913724371e+18,0.46475195822454307,0.3812785388127854,0.3389189189189189,0.5006113964294449,0.5879120879120879,0.43566021867115223,1196.0
705.0,1.7110039137343703e+18,0.489556135770235,0.4143835616438356,0.3281081081081081,0.5050134507214478,0.667032967032967,0.4449116904962153,1196.0
706.0,1.7110039137443855e+18,0.46736292428198434,0.4075342465753425,0.34162162162162163,0.5006113964294449,0.589010989010989,0.4381833473507149,1197.0
707.0,1.7110039137543624e+18,0.47780678851174935,0.410958904109589,0.3281081081081081,0.5025678650036683,0.654945054945055,0.43902439024390244,1198.0
708.0,1.7110039137643674e+18,0.46475195822454307,0.4075342465753425,0.3427027027027027,0.5008559550012228,0.5923076923076923,0.4381833473507149,1197.0
709.0,1.711003913774335e+18,0.4869451697127937,0.4280821917808219,0.33405405405405403,0.5064808021521154,0.676923076923077,0.43986543313709,1196.0
710.0,1.711003913784369e+18,0.4699738903394256,0.4132420091324201,0.34378378378378377,0.5013450721447786,0.5923076923076923,0.4415475189234651,1195.0
711.0,1.7110039137943772e+18,0.4765013054830287,0.4189497716894977,0.3302702702702703,0.5035460992907801,0.6824175824175824,0.4381833473507149,1196.0
712.0,1.7110039138043543e+18,0.47389033942558745,0.4075342465753425,0.34162162162162163,0.5011005135730008,0.6010989010989011,0.43986543313709,1199.0
713.0,1.7110039138143665e+18,0.47127937336814624,0.4223744292237443,0.32756756756756755,0.5023233064318905,0.6483516483516484,0.43566021867115223,1198.0
714.0,1.7110039138243884e+18,0.46866840731070497,0.4098173515981735,0.3427027027027027,0.49938860357055515,0.5956043956043956,0.4381833473507149,1196.0
715.0,1.711003913834366e+18,0.4804177545691906,0.4200913242009132,0.32594594594594595,0.5006113964294449,0.6538461538461539,0.4381833473507149,1197.0
716.0,1.7110039138443863e+18,0.46866840731070497,0.408675799086758,0.3427027027027027,0.499877720714111,0.5923076923076923,0.43986543313709,1197.0
717.0,1.7110039138543567e+18,0.47780678851174935,0.4178082191780822,0.3281081081081081,0.5025678650036683,0.6461538461538462,0.44070647603027757,1195.0
718.0,1.7110039138643722e+18,0.47911227154047,0.410958904109589,0.3389189189189189,0.5008559550012228,0.6032967032967033,0.44911690496215306,1195.0
719.0,1.7110039138743757e+18,0.49216710182767626,0.408675799086758,0.32594594594594595,0.504035216434336,0.6692307692307692,0.4449116904962153,1197.0
720.0,1.71100391388437e+18,0.4699738903394256,0.410958904109589,0.34378378378378377,0.5008559550012228,0.6010989010989011,0.4381833473507149,1196.0
721.0,1.7110039138943818e+18,0.489556135770235,0.4223744292237443,0.3308108108108108,0.5047688921496698,0.6681318681318681,0.44238856181665265,1196.0
722.0,1.7110039139043697e+18,0.47780678851174935,0.4132420091324201,0.34324324324324323,0.5008559550012228,0.6120879120879121,0.4415475189234651,1197.0
723.0,1.7110039139143718e+18,0.47780678851174935,0.4178082191780822,0.32756756756756755,0.5008559550012228,0.6384615384615384,0.4306139613120269,1194.0
724.0,1.711003913924373e+18,0.4660574412532637,0.4143835616438356,0.34486486486486484,0.5008559550012228,0.5912087912087912,0.4381833473507149,1196.0
725.0,1.7110039139343734e+18,0.48433420365535246,0.4349315068493151,0.33675675675675676,0.5025678650036683,0.6483516483516484,0.43986543313709,1194.0
726.0,1.7110039139443717e+18,0.47127937336814624,0.408675799086758,0.34486486486486484,0.4991440449987772,0.5923076923076923,0.43986543313709,1197.0
727.0,1.7110039139543578e+18,0.47911227154047,0.4200913242009132,0.3281081081081081,0.5018341892883346,0.6494505494505495,0.43986543313709,1194.0
728.0,1.7110039139643694e+18,0.4660574412532637,0.4098173515981735,0.34162162162162163,0.499877720714111,0.5923076923076923,0.4415475189234651,1195.0
729.0,1.7110039139743703e+18,0.47780678851174935,0.4155251141552511,0.3302702702702703,0.5025678650036683,0.6417582417582418,0.43902439024390244,1197.0
730.0,1.711003913984408e+18,0.46344647519582244,0.410958904109589,0.34162162162162163,0.5001222792858889,0.5703296703296703,0.43313708999158956,1192.0
731.0,1.71100391399438e+18,0.4765013054830287,0.4143835616438356,0.3291891891891892,0.5025678650036683,0.6494505494505495,0.4415475189234651,1196.0
732.0,1.7110039140043569e+18,0.4751958224543081,0.432648401826484,0.34486486486486484,0.5006113964294449,0.5989010989010989,0.4415475189234651,1196.0
733.0,1.7110039140143729e+18,0.49738903394255873,0.4315068493150685,0.33297297297297296,0.5020787478601125,0.6494505494505495,0.4381833473507149,1197.0
734.0,1.7110039140243725e+18,0.4765013054830287,0.4063926940639269,0.3372972972972973,0.499877720714111,0.5945054945054945,0.43986543313709,1197.0
735.0,1.711003914034371e+18,0.4765013054830287,0.4178082191780822,0.3264864864864865,0.5003668378576669,0.6329670329670329,0.4339781328847771,1193.0
736.0,1.7110039140443604e+18,0.4725848563968668,0.408675799086758,0.34054054054054056,0.49938860357055515,0.6021978021978022,0.4449116904962153,1196.0
737.0,1.7110039140543724e+18,0.4830287206266319,0.4235159817351598,0.3356756756756757,0.5030569821472243,0.6450549450549451,0.43650126156433977,1197.0
738.0,1.7110039140643697e+18,0.4765013054830287,0.4143835616438356,0.33837837837837836,0.5006113964294449,0.6098901098901099,0.4415475189234651,1196.0
739.0,1.7110039140743741e+18,0.4765013054830287,0.4200913242009132,0.3286486486486486,0.5018341892883346,0.6538461538461539,0.43566021867115223,1198.0
740.0,1.7110039140843727e+18,0.47127937336814624,0.4223744292237443,0.3443243243243243,0.499877720714111,0.5901098901098901,0.43650126156433977,1196.0
741.0,1.7110039140943857e+18,0.47911227154047,0.4223744292237443,0.32972972972972975,0.5020787478601125,0.6527472527472528,0.43986543313709,1195.0
742.0,1.711003914104371e+18,0.47127937336814624,0.4063926940639269,0.33945945945945943,0.5006113964294449,0.6021978021978022,0.43986543313709,1196.0
743.0,1.7110039141143688e+18,0.47127937336814624,0.4178082191780822,0.32756756756756755,0.5037906578625581,0.6450549450549451,0.43313708999158956,1193.0
744.0,1.7110039141243656e+18,0.48433420365535246,0.4235159817351598,0.3551351351351351,0.5001222792858889,0.5901098901098901,0.4465937762825904,1195.0
745.0,1.7110039141343685e+18,0.4725848563968668,0.386986301369863,0.3227027027027027,0.5023233064318905,0.6494505494505495,0.43566021867115223,1194.0
746.0,1.711003914144389e+18,0.4765013054830287,0.3995433789954338,0.33945945945945943,0.5003668378576669,0.5989010989010989,0.4415475189234651,1198.0
747.0,1.711003914154358e+18,0.47780678851174935,0.408675799086758,0.3254054054054054,0.5013450721447786,0.6362637362637362,0.4348191757779647,1195.0
748.0,1.7110039141643643e+18,0.4725848563968668,0.4006849315068493,0.3372972972972973,0.5003668378576669,0.5967032967032967,0.4348191757779647,1198.0
749.0,1.7110039141743657e+18,0.47911227154047,0.4223744292237443,0.3302702702702703,0.5015896307165566,0.6505494505494506,0.4348191757779647,1198.0
750.0,1.7110039141843645e+18,0.47127937336814624,0.4121004566210046,0.34054054054054056,0.5015896307165566,0.6120879120879121,0.43986543313709,1200.0
751.0,1.7110039141943808e+18,0.48433420365535246,0.4292237442922374,0.33675675675675676,0.5015896307165566,0.6351648351648351,0.4415475189234651,1195.0
752.0,1.7110039142043694e+18,0.48172323759791125,0.4143835616438356,0.34162162162162163,0.5015896307165566,0.6032967032967033,0.4440706476030278,1197.0
753.0,1.7110039142143688e+18,0.47127937336814624,0.4063926940639269,0.32594594594594595,0.5013450721447786,0.6428571428571429,0.43902439024390244,1197.0
754.0,1.7110039142243712e+18,0.4765013054830287,0.410958904109589,0.3389189189189189,0.4986549278552213,0.589010989010989,0.4381833473507149,1197.0
755.0,1.7110039142343688e+18,0.4830287206266319,0.4223744292237443,0.3291891891891892,0.5015896307165566,0.6384615384615384,0.43566021867115223,1198.0
756.0,1.7110039142443717e+18,0.48172323759791125,0.4280821917808219,0.34702702702702704,0.5018341892883346,0.6032967032967033,0.4415475189234651,1195.0
757.0,1.7110039142543624e+18,0.4765013054830287,0.4166666666666667,0.3308108108108108,0.5020787478601125,0.6417582417582418,0.4381833473507149,1195.0
758.0,1.711003914264367e+18,0.47911227154047,0.4166666666666667,0.33945945945945943,0.5001222792858889,0.6175824175824176,0.4415475189234651,1195.0
759.0,1.7110039142743706e+18,0.4804177545691906,0.4178082191780822,0.3302702702702703,0.5018341892883346,0.6329670329670329,0.4373423044575273,1196.0
760.0,1.7110039142843681e+18,0.47127937336814624,0.4121004566210046,0.34054054054054056,0.49816581071166544,0.5857142857142857,0.4339781328847771,1194.0
761.0,1.7110039142943918e+18,0.4765013054830287,0.4178082191780822,0.3286486486486486,0.5006113964294449,0.6406593406593407,0.43902439024390244,1195.0
762.0,1.7110039143043758e+18,0.4699738903394256,0.4132420091324201,0.33945945945945943,0.5020787478601125,0.6120879120879121,0.4415475189234651,1195.0
763.0,1.7110039143143677e+18,0.4804177545691906,0.4235159817351598,0.3302702702702703,0.5023233064318905,0.6494505494505495,0.44911690496215306,1194.0
764.0,1.7110039143243668e+18,0.47389033942558745,0.4132420091324201,0.34486486486486484,0.5008559550012228,0.6142857142857143,0.44575273338940286,1197.0
765.0,1.7110039143343688e+18,0.4765013054830287,0.4098173515981735,0.3281081081081081,0.5025678650036683,0.6461538461538462,0.4415475189234651,1197.0
766.0,1.711003914344365e+18,0.47127937336814624,0.4143835616438356,0.34864864864864864,0.5006113964294449,0.6043956043956044,0.4415475189234651,1196.0
767.0,1.7110039143543644e+18,0.47911227154047,0.4178082191780822,0.3362162162162162,0.5015896307165566,0.621978021978022,0.44238856181665265,1196.0
768.0,1.7110039143643622e+18,0.4699738903394256,0.4121004566210046,0.33837837837837836,0.4988994864269993,0.5956043956043956,0.4339781328847771,1193.0
769.0,1.7110039143743698e+18,0.4765013054830287,0.4189497716894977,0.3308108108108108,0.5025678650036683,0.6450549450549451,0.44238856181665265,1197.0
770.0,1.711003914384365e+18,0.4765013054830287,0.4178082191780822,0.33837837837837836,0.5011005135730008,0.610989010989011,0.4415475189234651,1196.0
771.0,1.7110039143943964e+18,0.47911227154047,0.4189497716894977,0.33135135135135135,0.5035460992907801,0.6483516483516484,0.44238856181665265,1197.0
772.0,1.7110039144043668e+18,0.47127937336814624,0.408675799086758,0.3427027027027027,0.5015896307165566,0.5989010989010989,0.43650126156433977,1196.0
773.0,1.7110039144143672e+18,0.4765013054830287,0.4155251141552511,0.3302702702702703,0.5028124235754463,0.6494505494505495,0.4373423044575273,1197.0
774.0,1.7110039144243686e+18,0.47127937336814624,0.3995433789954338,0.33135135135135135,0.5003668378576669,0.6032967032967033,0.4449116904962153,1197.0
775.0,1.711003914434368e+18,0.48172323759791125,0.4075342465753425,0.32972972972972975,0.5025678650036683,0.6483516483516484,0.44575273338940286,1197.0
776.0,1.711003914444369e+18,0.4765013054830287,0.4132420091324201,0.33945945945945943,0.5030569821472243,0.6131868131868132,0.43986543313709,1196.0
777.0,1.7110039144543685e+18,0.4830287206266319,0.4212328767123288,0.33405405405405403,0.5037906578625581,0.656043956043956,0.4415475189234651,1195.0
778.0,1.7110039144643663e+18,0.47389033942558745,0.4132420091324201,0.34162162162162163,0.5018341892883346,0.6032967032967033,0.4415475189234651,1196.0
779.0,1.7110039144743703e+18,0.4725848563968668,0.4200913242009132,0.3308108108108108,0.5025678650036683,0.6450549450549451,0.4381833473507149,1197.0
780.0,1.7110039144843712e+18,0.47127937336814624,0.410958904109589,0.3389189189189189,0.5020787478601125,0.6087912087912087,0.4415475189234651,1195.0
781.0,1.7110039144943688e+18,0.4830287206266319,0.4189497716894977,0.33297297297297296,0.5015896307165566,0.6406593406593407,0.4381833473507149,1196.0
782.0,1.711003914504379e+18,0.46866840731070497,0.4098173515981735,0.3410810810810811,0.4988994864269993,0.5934065934065934,0.432296047098402,1193.0
783.0,1.7110039145143724e+18,0.47911227154047,0.4189497716894977,0.3291891891891892,0.5015896307165566,0.6296703296703297,0.43902439024390244,1194.0
784.0,1.7110039145243748e+18,0.4804177545691906,0.4269406392694064,0.3518918918918919,0.5006113964294449,0.5956043956043956,0.44070647603027757,1197.0
785.0,1.7110039145343752e+18,0.47911227154047,0.4235159817351598,0.3286486486486486,0.5033015407190022,0.6582417582417582,0.43650126156433977,1196.0
786.0,1.711003914544378e+18,0.4765013054830287,0.4200913242009132,0.34162162162162163,0.49938860357055515,0.6032967032967033,0.44238856181665265,1197.0
787.0,1.711003914554372e+18,0.48172323759791125,0.4132420091324201,0.3302702702702703,0.5028124235754463,0.6472527472527473,0.4381833473507149,1196.0
788.0,1.7110039145643162e+18,0.4660574412532637,0.4075342465753425,0.3362162162162162,0.4986549278552213,0.6054945054945055,0.44238856181665265,1196.0
789.0,1.7110039145743724e+18,0.4765013054830287,0.4178082191780822,0.3281081081081081,0.5025678650036683,0.6450549450549451,0.4381833473507149,1195.0
790.0,1.711003914584374e+18,0.4751958224543081,0.4098173515981735,0.3389189189189189,0.49938860357055515,0.6010989010989011,0.4381833473507149,1196.0
791.0,1.7110039145943828e+18,0.4830287206266319,0.4235159817351598,0.33783783783783783,0.5030569821472243,0.6450549450549451,0.43986543313709,1196.0
792.0,1.7110039146043802e+18,0.4765013054830287,0.4132420091324201,0.34324324324324323,0.5001222792858889,0.6120879120879121,0.4415475189234651,1195.0
793.0,1.71100391461438e+18,0.47389033942558745,0.4132420091324201,0.32756756756756755,0.5008559550012228,0.6285714285714286,0.43313708999158956,1194.0
794.0,1.7110039146243802e+18,0.4765013054830287,0.4166666666666667,0.33945945945945943,0.5008559550012228,0.6065934065934065,0.4415475189234651,1195.0
795.0,1.711003914634379e+18,0.47127937336814624,0.4155251141552511,0.3281081081081081,0.5015896307165566,0.6351648351648351,0.43902439024390244,1197.0
796.0,1.7110039146443784e+18,0.46866840731070497,0.408675799086758,0.3362162162162162,0.49938860357055515,0.6010989010989011,0.4440706476030278,1197.0
797.0,1.711003914654365e+18,0.4830287206266319,0.4235159817351598,0.33297297297297296,0.5037906578625581,0.6472527472527473,0.43902439024390244,1195.0
798.0,1.7110039146643622e+18,0.4765013054830287,0.4178082191780822,0.34324324324324323,0.5011005135730008,0.6131868131868132,0.4415475189234651,1196.0
799.0,1.7110039146743775e+18,0.4804177545691906,0.4155251141552511,0.3302702702702703,0.5020787478601125,0.6538461538461539,0.4339781328847771,1194.0
800.0,1.711003914684371e+18,0.4725848563968668,0.3881278538812785,0.3362162162162162,0.5006113964294449,0.5934065934065934,0.43566021867115223,1197.0
801.0,1.711003914694397e+18,0.47911227154047,0.4098173515981735,0.3302702702702703,0.504524333577892,0.6593406593406593,0.44238856181665265,1197.0
802.0,1.711003914704365e+18,0.47911227154047,0.4200913242009132,0.3464864864864865,0.5006113964294449,0.6054945054945055,0.4415475189234651,1194.0
803.0,1.711003914714366e+18,0.489556135770235,0.4269406392694064,0.3318918918918919,0.5015896307165566,0.6351648351648351,0.43566021867115223,1195.0
804.0,1.7110039147243686e+18,0.47780678851174935,0.4178082191780822,0.3410810810810811,0.5006113964294449,0.6197802197802198,0.4482758620689655,1197.0
805.0,1.7110039147343665e+18,0.49738903394255873,0.4406392694063927,0.33405405405405403,0.5020787478601125,0.6373626373626373,0.4381833473507149,1194.0
806.0,1.7110039147443825e+18,0.5039164490861618,0.4212328767123288,0.3410810810810811,0.5011005135730008,0.6032967032967033,0.4482758620689655,1198.0
807.0,1.7110039147543598e+18,0.47911227154047,0.4143835616438356,0.32972972972972975,0.5025678650036683,0.6274725274725275,0.44070647603027757,1196.0
808.0,1.7110039147643702e+18,0.46866840731070497,0.4269406392694064,0.3535135135135135,0.5033015407190022,0.6010989010989011,0.4314550042052145,1193.0
809.0,1.7110039147743675e+18,0.4765013054830287,0.4143835616438356,0.3291891891891892,0.5030569821472243,0.6494505494505495,0.4381833473507149,1195.0
810.0,1.7110039147843656e+18,0.4725848563968668,0.4200913242009132,0.3464864864864865,0.5006113964294449,0.6054945054945055,0.4381833473507149,1197.0
811.0,1.7110039147943951e+18,0.4856396866840731,0.4200913242009132,0.3318918918918919,0.5020787478601125,0.634065934065934,0.4373423044575273,1197.0
812.0,1.7110039148043666e+18,0.4751958224543081,0.4155251141552511,0.3464864864864865,0.4984103692834434,0.5802197802197803,0.4373423044575273,1197.0
813.0,1.7110039148143672e+18,0.46866840731070497,0.4052511415525114,0.32594594594594595,0.5018341892883346,0.6329670329670329,0.4381833473507149,1198.0
814.0,1.711003914824368e+18,0.47911227154047,0.430365296803653,0.34540540540540543,0.5008559550012228,0.6021978021978022,0.44070647603027757,1195.0
815.0,1.7110039148343652e+18,0.4765013054830287,0.4143835616438356,0.32594594594594595,0.5023233064318905,0.6472527472527473,0.43902439024390244,1197.0
816.0,1.7110039148443704e+18,0.4765013054830287,0.4155251141552511,0.34054054054054056,0.5006113964294449,0.6021978021978022,0.432296047098402,1193.0
817.0,1.7110039148543588e+18,0.47780678851174935,0.4200913242009132,0.33837837837837836,0.5059916850085595,0.7,0.44070647603027757,1197.0
818.0,1.7110039148643674e+18,0.4725848563968668,0.4189497716894977,0.34702702702702704,0.5008559550012228,0.6153846153846154,0.4381833473507149,1196.0
819.0,1.711003914874365e+18,0.4765013054830287,0.4246575342465753,0.3308108108108108,0.5025678650036683,0.6417582417582418,0.43650126156433977,1195.0
820.0,1.7110039148843681e+18,0.46736292428198434,0.4098173515981735,0.3410810810810811,0.5006113964294449,0.6043956043956044,0.4415475189234651,1195.0
821.0,1.7110039148943803e+18,0.4804177545691906,0.4235159817351598,0.3335135135135135,0.5035460992907801,0.656043956043956,0.44070647603027757,1193.0
822.0,1.7110039149043953e+18,0.4725848563968668,0.4029680365296804,0.33675675675675676,0.5001222792858889,0.5945054945054945,0.447434819175778,1192.0
823.0,1.711003914914368e+18,0.4765013054830287,0.4178082191780822,0.3291891891891892,0.5015896307165566,0.6461538461538462,0.4415475189234651,1197.0
824.0,1.711003914924368e+18,0.4725848563968668,0.4121004566210046,0.3410810810810811,0.5015896307165566,0.610989010989011,0.4440706476030278,1197.0
825.0,1.7110039149343698e+18,0.4765013054830287,0.4132420091324201,0.3308108108108108,0.5025678650036683,0.6384615384615384,0.4381833473507149,1198.0
826.0,1.7110039149443602e+18,0.47780678851174935,0.4200913242009132,0.3372972972972973,0.5020787478601125,0.6131868131868132,0.4465937762825904,1195.0
827.0,1.711003914954363e+18,0.47911227154047,0.4018264840182648,0.3254054054054054,0.5006113964294449,0.6362637362637362,0.43650126156433977,1195.0
828.0,1.7110039149643692e+18,0.4699738903394256,0.4029680365296804,0.33675675675675676,0.4988994864269993,0.5967032967032967,0.43566021867115223,1196.0
829.0,1.711003914974367e+18,0.47780678851174935,0.4132420091324201,0.33297297297297296,0.5025678650036683,0.6450549450549451,0.44070647603027757,1196.0
830.0,1.7110039149843668e+18,0.47127937336814624,0.4018264840182648,0.3362162162162162,0.5008559550012228,0.6142857142857143,0.44238856181665265,1195.0
831.0,1.7110039149943852e+18,0.4804177545691906,0.4223744292237443,0.3324324324324324,0.5023233064318905,0.6406593406593407,0.4465937762825904,1196.0
832.0,1.7110039150043633e+18,0.47780678851174935,0.410958904109589,0.34162162162162163,0.5015896307165566,0.6131868131868132,0.43986543313709,1197.0
833.0,1.711003915014369e+18,0.47911227154047,0.4178082191780822,0.33837837837837836,0.5015896307165566,0.6461538461538462,0.43986543313709,1199.0
834.0,1.7110039150243674e+18,0.4765013054830287,0.4075342465753425,0.3389189189189189,0.5008559550012228,0.6175824175824176,0.4440706476030278,1197.0
835.0,1.7110039150343695e+18,0.47911227154047,0.4132420091324201,0.3302702702702703,0.5018341892883346,0.6395604395604395,0.4440706476030278,1196.0
836.0,1.7110039150443315e+18,0.4765013054830287,0.4143835616438356,0.34216216216216216,0.5008559550012228,0.6120879120879121,0.4415475189234651,1197.0
837.0,1.7110039150543644e+18,0.48172323759791125,0.4189497716894977,0.3302702702702703,0.5030569821472243,0.6461538461538462,0.43902439024390244,1196.0
838.0,1.711003915064369e+18,0.4765013054830287,0.4178082191780822,0.3443243243243243,0.5008559550012228,0.6175824175824176,0.4381833473507149,1196.0
839.0,1.711003915074368e+18,0.4804177545691906,0.4315068493150685,0.34054054054054056,0.5023233064318905,0.6395604395604395,0.4432296047098402,1196.0
840.0,1.7110039150843663e+18,0.4660574412532637,0.3915525114155251,0.34162162162162163,0.499877720714111,0.5934065934065934,0.4415475189234651,1196.0
841.0,1.7110039150943867e+18,0.4869451697127937,0.4075342465753425,0.3281081081081081,0.5050134507214478,0.6505494505494506,0.4415475189234651,1197.0
842.0,1.7110039151043566e+18,0.47389033942558745,0.4132420091324201,0.34054054054054056,0.49767669356810956,0.5978021978021978,0.43986543313709,1192.0
843.0,1.7110039151143624e+18,0.47127937336814624,0.4143835616438356,0.3308108108108108,0.5006113964294449,0.6318681318681318,0.4306139613120269,1194.0
844.0,1.711003915124363e+18,0.47780678851174935,0.4143835616438356,0.34162162162162163,0.5011005135730008,0.6076923076923076,0.44238856181665265,1198.0
845.0,1.711003915134363e+18,0.47911227154047,0.4132420091324201,0.33405405405405403,0.5020787478601125,0.6472527472527473,0.4381833473507149,1197.0
846.0,1.711003915144389e+18,0.46866840731070497,0.3984018264840183,0.3335135135135135,0.4988994864269993,0.6131868131868132,0.4415475189234651,1196.0
847.0,1.7110039151543603e+18,0.47780678851174935,0.4200913242009132,0.3362162162162162,0.5018341892883346,0.6362637362637362,0.43566021867115223,1196.0
848.0,1.7110039151643653e+18,0.46344647519582244,0.4052511415525114,0.33675675675675676,0.5008559550012228,0.6120879120879121,0.43986543313709,1197.0
849.0,1.711003915174365e+18,0.4804177545691906,0.4132420091324201,0.32972972972972975,0.5001222792858889,0.6274725274725275,0.43986543313709,1196.0
850.0,1.711003915184367e+18,0.4725848563968668,0.4178082191780822,0.33945945945945943,0.5001222792858889,0.5923076923076923,0.43313708999158956,1192.0
851.0,1.7110039151943688e+18,0.4765013054830287,0.4143835616438356,0.3291891891891892,0.5023233064318905,0.6483516483516484,0.43986543313709,1197.0
852.0,1.7110039152043722e+18,0.48172323759791125,0.4075342465753425,0.3372972972972973,0.5003668378576669,0.6010989010989011,0.4415475189234651,1197.0
853.0,1.7110039152143706e+18,0.47911227154047,0.4178082191780822,0.33135135135135135,0.5015896307165566,0.6406593406593407,0.43566021867115223,1196.0
854.0,1.711003915224375e+18,0.47127937336814624,0.4349315068493151,0.34702702702702704,0.5015896307165566,0.6043956043956044,0.43986543313709,1197.0
855.0,1.711003915234368e+18,0.48172323759791125,0.4143835616438356,0.3281081081081081,0.5020787478601125,0.6384615384615384,0.4373423044575273,1198.0
856.0,1.711003915244371e+18,0.4804177545691906,0.4189497716894977,0.3427027027027027,0.5006113964294449,0.5956043956043956,0.43650126156433977,1199.0
857.0,1.7110039152543575e+18,0.4765013054830287,0.4178082191780822,0.3281081081081081,0.5018341892883346,0.656043956043956,0.4373423044575273,1196.0
858.0,1.7110039152643702e+18,0.47127937336814624,0.4075342465753425,0.33513513513513515,0.5003668378576669,0.6120879120879121,0.4381833473507149,1194.0
859.0,1.7110039152743706e+18,0.489556135770235,0.4372146118721461,0.3410810810810811,0.5035460992907801,0.6351648351648351,0.4440706476030278,1196.0
860.0,1.711003915284367e+18,0.46736292428198434,0.410958904109589,0.33675675675675676,0.5015896307165566,0.6,0.43902439024390244,1195.0
861.0,1.7110039152943885e+18,0.48172323759791125,0.4178082191780822,0.32972972972972975,0.5030569821472243,0.6428571428571429,0.43902439024390244,1197.0
862.0,1.7110039153043704e+18,0.47127937336814624,0.4474885844748858,0.34756756756756757,0.5023233064318905,0.6098901098901099,0.44238856181665265,1192.0
863.0,1.711003915314369e+18,0.4765013054830287,0.4132420091324201,0.33675675675675676,0.5037906578625581,0.6538461538461539,0.44238856181665265,1197.0
864.0,1.7110039153243694e+18,0.4804177545691906,0.4292237442922374,0.34702702702702704,0.5015896307165566,0.610989010989011,0.44238856181665265,1195.0
865.0,1.7110039153343672e+18,0.47127937336814624,0.4143835616438356,0.3291891891891892,0.5006113964294449,0.6406593406593407,0.4373423044575273,1195.0
866.0,1.7110039153443763e+18,0.4765013054830287,0.4178082191780822,0.34162162162162163,0.5006113964294449,0.5934065934065934,0.4465937762825904,1199.0
867.0,1.7110039153543675e+18,0.4765013054830287,0.4178082191780822,0.33297297297297296,0.5020787478601125,0.6307692307692307,0.43650126156433977,1195.0
868.0,1.711003915364368e+18,0.4725848563968668,0.4166666666666667,0.35027027027027025,0.5015896307165566,0.621978021978022,0.4482758620689655,1197.0
869.0,1.7110039153743685e+18,0.47127937336814624,0.4155251141552511,0.3291891891891892,0.5008559550012228,0.6417582417582418,0.4373423044575273,1195.0
870.0,1.7110039153843914e+18,0.47911227154047,0.4143835616438356,0.3427027027027027,0.5011005135730008,0.6395604395604395,0.4465937762825904,1196.0
871.0,1.7110039153943613e+18,0.47911227154047,0.4178082191780822,0.32972972972972975,0.5023233064318905,0.6483516483516484,0.44575273338940286,1197.0
872.0,1.7110039154043612e+18,0.4765013054830287,0.4132420091324201,0.34054054054054056,0.5003668378576669,0.6065934065934065,0.4381833473507149,1195.0
873.0,1.711003915414342e+18,0.4765013054830287,0.4178082191780822,0.3302702702702703,0.5023233064318905,0.634065934065934,0.4348191757779647,1196.0
874.0,1.7110039154243725e+18,0.47127937336814624,0.410958904109589,0.3389189189189189,0.4991440449987772,0.6010989010989011,0.43566021867115223,1198.0
875.0,1.7110039154343744e+18,0.4830287206266319,0.4132420091324201,0.33405405405405403,0.5006113964294449,0.6406593406593407,0.43902439024390244,1197.0
876.0,1.71100391544437e+18,0.4765013054830287,0.4029680365296804,0.33675675675675676,0.5003668378576669,0.6274725274725275,0.4415475189234651,1195.0
877.0,1.7110039154543713e+18,0.47127937336814624,0.4132420091324201,0.327027027027027,0.5015896307165566,0.6230769230769231,0.4381833473507149,1197.0
878.0,1.71100391546437e+18,0.47127937336814624,0.4063926940639269,0.3362162162162162,0.5008559550012228,0.6054945054945055,0.43650126156433977,1197.0
879.0,1.711003915474371e+18,0.48825065274151436,0.4132420091324201,0.3308108108108108,0.5023233064318905,0.6472527472527473,0.4432296047098402,1195.0
880.0,1.7110039154843763e+18,0.4660574412532637,0.410958904109589,0.34162162162162163,0.5011005135730008,0.6164835164835165,0.4415475189234651,1197.0
881.0,1.7110039154943744e+18,0.4830287206266319,0.4178082191780822,0.3308108108108108,0.5020787478601125,0.6417582417582418,0.4381833473507149,1196.0
882.0,1.7110039155043622e+18,0.4725848563968668,0.3995433789954338,0.3356756756756757,0.5006113964294449,0.6120879120879121,0.4415475189234651,1194.0
883.0,1.7110039155143718e+18,0.47780678851174935,0.4063926940639269,0.32756756756756755,0.5020787478601125,0.643956043956044,0.43566021867115223,1194.0
884.0,1.7110039155243756e+18,0.4765013054830287,0.4178082191780822,0.3491891891891892,0.5028124235754463,0.6120879120879121,0.4449116904962153,1196.0
885.0,1.7110039155343726e+18,0.4856396866840731,0.4200913242009132,0.33135135135135135,0.5018341892883346,0.6472527472527473,0.43313708999158956,1194.0
886.0,1.7110039155443738e+18,0.46866840731070497,0.4052511415525114,0.3389189189189189,0.5008559550012228,0.6043956043956044,0.44238856181665265,1197.0
887.0,1.711003915554369e+18,0.47911227154047,0.4280821917808219,0.33405405405405403,0.5023233064318905,0.6307692307692307,0.4432296047098402,1196.0
888.0,1.711003915564375e+18,0.4725848563968668,0.4132420091324201,0.33945945945945943,0.5023233064318905,0.6142857142857143,0.44070647603027757,1197.0
889.0,1.7110039155743683e+18,0.4765013054830287,0.4212328767123288,0.3302702702702703,0.5003668378576669,0.6318681318681318,0.4339781328847771,1193.0
890.0,1.7110039155843684e+18,0.4765013054830287,0.4155251141552511,0.35405405405405405,0.5020787478601125,0.6274725274725275,0.44238856181665265,1195.0
891.0,1.7110039155943703e+18,0.4725848563968668,0.4132420091324201,0.33945945945945943,0.5025678650036683,0.6505494505494506,0.43902439024390244,1194.0
892.0,1.71100391560436e+18,0.4765013054830287,0.4132420091324201,0.3427027027027027,0.5008559550012228,0.6065934065934065,0.44238856181665265,1197.0
893.0,1.7110039156143693e+18,0.4869451697127937,0.3938356164383562,0.3264864864864865,0.5023233064318905,0.6472527472527473,0.44238856181665265,1197.0
894.0,1.7110039156243666e+18,0.4725848563968668,0.4041095890410959,0.33945945945945943,0.5006113964294449,0.6142857142857143,0.4415475189234651,1198.0
895.0,1.7110039156343675e+18,0.4765013054830287,0.4178082191780822,0.3302702702702703,0.5018341892883346,0.6461538461538462,0.4415475189234651,1197.0
896.0,1.7110039156443674e+18,0.4699738903394256,0.4075342465753425,0.33675675675675676,0.499877720714111,0.610989010989011,0.44238856181665265,1194.0
897.0,1.7110039156543951e+18,0.47780678851174935,0.410958904109589,0.3264864864864865,0.5015896307165566,0.6296703296703297,0.4381833473507149,1196.0
898.0,1.7110039156643745e+18,0.47127937336814624,0.410958904109589,0.34,0.5011005135730008,0.6087912087912087,0.4381833473507149,1196.0
899.0,1.7110039156743698e+18,0.4765013054830287,0.4155251141552511,0.33135135135135135,0.5015896307165566,0.6395604395604395,0.4373423044575273,1196.0
900.0,1.711003915684365e+18,0.47127937336814624,0.3824200913242009,0.3308108108108108,0.5015896307165566,0.6120879120879121,0.43650126156433977,1194.0
901.0,1.7110039156943862e+18,0.4856396866840731,0.4041095890410959,0.32594594594594595,0.5033015407190022,0.6538461538461539,0.4432296047098402,1197.0
902.0,1.7110039157043686e+18,0.47127937336814624,0.4098173515981735,0.3410810810810811,0.5013450721447786,0.6098901098901099,0.4415475189234651,1192.0
903.0,1.711003915714367e+18,0.46866840731070497,0.4235159817351598,0.3302702702702703,0.504279775006114,0.6813186813186813,0.43902439024390244,1195.0
904.0,1.7110039157243684e+18,0.4725848563968668,0.410958904109589,0.34162162162162163,0.5006113964294449,0.5978021978021978,0.4373423044575273,1196.0
905.0,1.7110039157343665e+18,0.47780678851174935,0.4189497716894977,0.3302702702702703,0.5025678650036683,0.6428571428571429,0.432296047098402,1195.0
906.0,1.711003915744381e+18,0.47780678851174935,0.4063926940639269,0.33783783783783783,0.499877720714111,0.5978021978021978,0.4339781328847771,1192.0
907.0,1.7110039157543852e+18,0.4830287206266319,0.4178082191780822,0.3286486486486486,0.5023233064318905,0.6450549450549451,0.4432296047098402,1198.0
908.0,1.7110039157643681e+18,0.4608355091383812,0.3755707762557078,0.3286486486486486,0.4991440449987772,0.6054945054945055,0.4339781328847771,1194.0
909.0,1.7110039157743675e+18,0.4765013054830287,0.4075342465753425,0.3318918918918919,0.5025678650036683,0.634065934065934,0.43650126156433977,1195.0
910.0,1.7110039157843592e+18,0.47127937336814624,0.4132420091324201,0.33837837837837836,0.5008559550012228,0.6032967032967033,0.4373423044575273,1195.0
911.0,1.7110039157943841e+18,0.4765013054830287,0.4189497716894977,0.3308108108108108,0.5015896307165566,0.6450549450549451,0.44238856181665265,1197.0
912.0,1.711003915804373e+18,0.4621409921671018,0.410958904109589,0.3410810810810811,0.5001222792858889,0.6098901098901099,0.44238856181665265,1197.0
913.0,1.71100391581437e+18,0.4765013054830287,0.4178082191780822,0.3302702702702703,0.5020787478601125,0.6351648351648351,0.43986543313709,1196.0
914.0,1.7110039158243694e+18,0.4765013054830287,0.4155251141552511,0.34162162162162163,0.5008559550012228,0.6043956043956044,0.4415475189234651,1195.0
915.0,1.711003915834369e+18,0.47780678851174935,0.4166666666666667,0.3302702702702703,0.5015896307165566,0.6406593406593407,0.4381833473507149,1195.0
916.0,1.7110039158443786e+18,0.4725848563968668,0.4075342465753425,0.34,0.5023233064318905,0.6274725274725275,0.4449116904962153,1197.0
917.0,1.711003915854368e+18,0.48172323759791125,0.4406392694063927,0.3410810810810811,0.5035460992907801,0.6472527472527473,0.4314550042052145,1192.0
918.0,1.711003915864368e+18,0.4751958224543081,0.4155251141552511,0.3410810810810811,0.5001222792858889,0.5824175824175825,0.4373423044575273,1197.0
919.0,1.7110039158743683e+18,0.47780678851174935,0.4166666666666667,0.3324324324324324,0.5030569821472243,0.6373626373626373,0.4432296047098402,1196.0
920.0,1.711003915884366e+18,0.48172323759791125,0.4178082191780822,0.3410810810810811,0.5006113964294449,0.6021978021978022,0.43986543313709,1197.0
921.0,1.7110039158943736e+18,0.4765013054830287,0.4178082191780822,0.3302702702702703,0.5006113964294449,0.6274725274725275,0.43566021867115223,1196.0
922.0,1.7110039159043676e+18,0.4725848563968668,0.410958904109589,0.3372972972972973,0.499877720714111,0.5934065934065934,0.43902439024390244,1193.0
923.0,1.71100391591437e+18,0.47127937336814624,0.4178082191780822,0.3291891891891892,0.5015896307165566,0.6461538461538462,0.43650126156433977,1198.0
924.0,1.7110039159243704e+18,0.4699738903394256,0.4018264840182648,0.3389189189189189,0.499877720714111,0.6010989010989011,0.4415475189234651,1196.0
925.0,1.7110039159343688e+18,0.48172323759791125,0.4132420091324201,0.33675675675675676,0.5037906578625581,0.6571428571428571,0.4432296047098402,1197.0
926.0,1.7110039159443776e+18,0.47389033942558745,0.410958904109589,0.33945945945945943,0.5013450721447786,0.6098901098901099,0.44575273338940286,1196.0
927.0,1.7110039159543683e+18,0.47780678851174935,0.4189497716894977,0.3318918918918919,0.5020787478601125,0.6307692307692307,0.43650126156433977,1195.0
928.0,1.7110039159643686e+18,0.46866840731070497,0.4166666666666667,0.34,0.5006113964294449,0.6021978021978022,0.43902439024390244,1197.0
929.0,1.7110039159743665e+18,0.47389033942558745,0.4189497716894977,0.3318918918918919,0.5030569821472243,0.6483516483516484,0.4348191757779647,1194.0
930.0,1.7110039159843272e+18,0.47127937336814624,0.4143835616438356,0.34,0.5008559550012228,0.6076923076923076,0.4415475189234651,1196.0
931.0,1.7110039159943698e+18,0.47780678851174935,0.4178082191780822,0.3302702702702703,0.5015896307165566,0.6538461538461539,0.4381833473507149,1195.0
932.0,1.7110039160043615e+18,0.4725848563968668,0.4121004566210046,0.34216216216216216,0.49938860357055515,0.589010989010989,0.4381833473507149,1198.0
933.0,1.7110039160143708e+18,0.4765013054830287,0.4200913242009132,0.3318918918918919,0.5015896307165566,0.6373626373626373,0.4339781328847771,1196.0
934.0,1.7110039160243704e+18,0.47389033942558745,0.4132420091324201,0.33945945945945943,0.5006113964294449,0.6197802197802198,0.44911690496215306,1193.0
935.0,1.7110039160343726e+18,0.47911227154047,0.4178082191780822,0.32972972972972975,0.5030569821472243,0.6450549450549451,0.4432296047098402,1196.0
936.0,1.7110039160443715e+18,0.47911227154047,0.4075342465753425,0.3410810810810811,0.5035460992907801,0.6241758241758242,0.447434819175778,1198.0
937.0,1.711003916054366e+18,0.4765013054830287,0.410958904109589,0.3286486486486486,0.5030569821472243,0.6450549450549451,0.4432296047098402,1195.0
938.0,1.7110039160643674e+18,0.4725848563968668,0.4052511415525114,0.3389189189189189,0.5011005135730008,0.6043956043956044,0.4415475189234651,1196.0
939.0,1.7110039160743677e+18,0.4765013054830287,0.4155251141552511,0.3302702702702703,0.5025678650036683,0.6494505494505495,0.44238856181665265,1197.0
940.0,1.711003916084369e+18,0.46866840731070497,0.408675799086758,0.34,0.5015896307165566,0.6142857142857143,0.4440706476030278,1197.0
941.0,1.7110039160943677e+18,0.4765013054830287,0.4212328767123288,0.33135135135135135,0.5028124235754463,0.6494505494505495,0.43986543313709,1196.0
942.0,1.7110039161043922e+18,0.4765013054830287,0.4452054794520548,0.35135135135135137,0.5003668378576669,0.6010989010989011,0.43902439024390244,1196.0
943.0,1.7110039161143716e+18,0.48825065274151436,0.4212328767123288,0.3389189189189189,0.5033015407190022,0.6538461538461539,0.4415475189234651,1195.0
944.0,1.7110039161243715e+18,0.4765013054830287,0.4155251141552511,0.3410810810810811,0.5006113964294449,0.6065934065934065,0.4373423044575273,1196.0
945.0,1.7110039161343726e+18,0.4804177545691906,0.4143835616438356,0.3302702702702703,0.5018341892883346,0.6406593406593407,0.43902439024390244,1195.0
946.0,1.711003916144369e+18,0.4751958224543081,0.410958904109589,0.34054054054054056,0.5018341892883346,0.6153846153846154,0.44238856181665265,1193.0
947.0,1.7110039161543703e+18,0.4804177545691906,0.4189497716894977,0.3308108108108108,0.5020787478601125,0.6450549450549451,0.4415475189234651,1197.0
948.0,1.7110039161643732e+18,0.4699738903394256,0.4121004566210046,0.3389189189189189,0.5008559550012228,0.6054945054945055,0.4449116904962153,1196.0
949.0,1.7110039161743736e+18,0.4765013054830287,0.4452054794520548,0.33135135135135135,0.5025678650036683,0.6406593406593407,0.44238856181665265,1197.0
950.0,1.7110039161843745e+18,0.4765013054830287,0.4178082191780822,0.33405405405405403,0.5015896307165566,0.6076923076923076,0.4415475189234651,1195.0
951.0,1.7110039161943951e+18,0.47780678851174935,0.4315068493150685,0.3345945945945946,0.5018341892883346,0.6384615384615384,0.4381833473507149,1194.0
952.0,1.7110039162043717e+18,0.47127937336814624,0.4132420091324201,0.34,0.5018341892883346,0.6098901098901099,0.4415475189234651,1196.0
953.0,1.7110039162143752e+18,0.4765013054830287,0.4132420091324201,0.3286486486486486,0.5015896307165566,0.6384615384615384,0.43902439024390244,1198.0
954.0,1.7110039162243756e+18,0.47127937336814624,0.4143835616438356,0.33945945945945943,0.5018341892883346,0.6241758241758242,0.4465937762825904,1194.0
955.0,1.7110039162343762e+18,0.48172323759791125,0.4257990867579909,0.3308108108108108,0.5018341892883346,0.6373626373626373,0.43986543313709,1197.0
956.0,1.7110039162443784e+18,0.47127937336814624,0.4155251141552511,0.3427027027027027,0.499877720714111,0.6,0.4415475189234651,1196.0
957.0,1.711003916254374e+18,0.48172323759791125,0.4178082191780822,0.3286486486486486,0.5015896307165566,0.6417582417582418,0.4381833473507149,1195.0
958.0,1.7110039162643768e+18,0.4725848563968668,0.4052511415525114,0.3362162162162162,0.5006113964294449,0.6120879120879121,0.4449116904962153,1197.0
959.0,1.711003916274376e+18,0.4804177545691906,0.4143835616438356,0.32756756756756755,0.5035460992907801,0.654945054945055,0.4415475189234651,1197.0
960.0,1.7110039162843812e+18,0.4699738903394256,0.4223744292237443,0.3410810810810811,0.5011005135730008,0.6032967032967033,0.43902439024390244,1198.0
961.0,1.7110039162943836e+18,0.47780678851174935,0.4189497716894977,0.32756756756756755,0.5028124235754463,0.6516483516483517,0.4415475189234651,1193.0
962.0,1.71100391630438e+18,0.4765013054830287,0.4360730593607306,0.34486486486486484,0.5003668378576669,0.5967032967032967,0.43986543313709,1197.0
963.0,1.7110039163143795e+18,0.4765013054830287,0.4212328767123288,0.3291891891891892,0.5015896307165566,0.6329670329670329,0.4348191757779647,1194.0
964.0,1.7110039163243812e+18,0.4699738903394256,0.4132420091324201,0.33945945945945943,0.4988994864269993,0.5879120879120879,0.4373423044575273,1196.0
965.0,1.7110039163343805e+18,0.47780678851174935,0.4155251141552511,0.32756756756756755,0.5025678650036683,0.6450549450549451,0.43902439024390244,1196.0
966.0,1.7110039163443794e+18,0.4804177545691906,0.4200913242009132,0.34324324324324323,0.5001222792858889,0.6,0.44238856181665265,1195.0
967.0,1.7110039163543793e+18,0.4765013054830287,0.4189497716894977,0.3291891891891892,0.5025678650036683,0.6362637362637362,0.44238856181665265,1196.0
968.0,1.7110039163643817e+18,0.4725848563968668,0.4052511415525114,0.3427027027027027,0.5006113964294449,0.6087912087912087,0.4381833473507149,1197.0
969.0,1.7110039163743818e+18,0.47389033942558745,0.3984018264840183,0.327027027027027,0.5018341892883346,0.6406593406593407,0.4373423044575273,1198.0
970.0,1.7110039163843822e+18,0.4725848563968668,0.408675799086758,0.3389189189189189,0.5018341892883346,0.6131868131868132,0.4449116904962153,1196.0
971.0,1.7110039163943805e+18,0.4804177545691906,0.4178082191780822,0.3318918918918919,0.5020787478601125,0.6373626373626373,0.4381833473507149,1198.0
972.0,1.711003916404365e+18,0.47127937336814624,0.4155251141552511,0.34054054054054056,0.5033015407190022,0.6296703296703297,0.4373423044575273,1194.0
973.0,1.7110039164143875e+18,0.48172323759791125,0.4178082191780822,0.3302702702702703,0.5015896307165566,0.6428571428571429,0.4381833473507149,1197.0
974.0,1.711003916424368e+18,0.47127937336814624,0.4132420091324201,0.3410810810810811,0.5003668378576669,0.6043956043956044,0.4381833473507149,1197.0
975.0,1.7110039164345797e+18,0.4856396866840731,0.4155251141552511,0.32972972972972975,0.5037906578625581,0.6725274725274726,0.4415475189234651,1194.0
976.0,1.7110039164443845e+18,0.4765013054830287,0.408675799086758,0.3345945945945946,0.4988994864269993,0.6087912087912087,0.4415475189234651,1197.0
977.0,1.7110039164543647e+18,0.4725848563968668,0.4178082191780822,0.32972972972972975,0.5025678650036683,0.6417582417582418,0.4339781328847771,1194.0
978.0,1.7110039164643686e+18,0.4751958224543081,0.4417808219178082,0.34702702702702704,0.5011005135730008,0.6065934065934065,0.43986543313709,1195.0
979.0,1.7110039164743698e+18,0.4765013054830287,0.4166666666666667,0.32756756756756755,0.5020787478601125,0.6395604395604395,0.43902439024390244,1194.0
980.0,1.7110039164843702e+18,0.46475195822454307,0.4143835616438356,0.3410810810810811,0.5018341892883346,0.6065934065934065,0.4440706476030278,1197.0
981.0,1.7110039164943977e+18,0.47389033942558745,0.4178082191780822,0.3286486486486486,0.5023233064318905,0.6714285714285714,0.43902439024390244,1197.0
982.0,1.7110039165043692e+18,0.4699738903394256,0.4132420091324201,0.3362162162162162,0.5008559550012228,0.6010989010989011,0.43902439024390244,1197.0
983.0,1.7110039165143736e+18,0.4830287206266319,0.4178082191780822,0.3291891891891892,0.5035460992907801,0.6582417582417582,0.44070647603027757,1197.0
984.0,1.7110039165243722e+18,0.47389033942558745,0.4132420091324201,0.3410810810810811,0.4996331621423331,0.6032967032967033,0.4415475189234651,1196.0
985.0,1.7110039165343677e+18,0.48172323759791125,0.4121004566210046,0.32972972972972975,0.5018341892883346,0.643956043956044,0.43986543313709,1193.0
986.0,1.711003916544409e+18,0.4804177545691906,0.4121004566210046,0.33837837837837836,0.5011005135730008,0.610989010989011,0.44238856181665265,1197.0
987.0,1.711003916554362e+18,0.47389033942558745,0.410958904109589,0.3286486486486486,0.5020787478601125,0.6417582417582418,0.4415475189234651,1196.0
988.0,1.711003916564369e+18,0.46866840731070497,0.4098173515981735,0.33783783783783783,0.5008559550012228,0.5989010989010989,0.4415475189234651,1198.0
989.0,1.7110039165743708e+18,0.47911227154047,0.4269406392694064,0.3345945945945946,0.5020787478601125,0.6373626373626373,0.4381833473507149,1198.0
990.0,1.7110039165843702e+18,0.47780678851174935,0.4246575342465753,0.34540540540540543,0.5008559550012228,0.6120879120879121,0.4432296047098402,1196.0
991.0,1.7110039165943772e+18,0.48172323759791125,0.4189497716894977,0.3302702702702703,0.5015896307165566,0.6362637362637362,0.4381833473507149,1197.0
992.0,1.711003916604368e+18,0.46475195822454307,0.408675799086758,0.3356756756756757,0.5006113964294449,0.589010989010989,0.43902439024390244,1196.0
993.0,1.7110039166143703e+18,0.47911227154047,0.4223744292237443,0.33297297297297296,0.5018341892883346,0.6362637362637362,0.43566021867115223,1197.0
994.0,1.71100391662437e+18,0.4765013054830287,0.4098173515981735,0.34054054054054056,0.5008559550012228,0.6087912087912087,0.4415475189234651,1196.0
995.0,1.7110039166343685e+18,0.47780678851174935,0.4178082191780822,0.3302702702702703,0.5006113964294449,0.634065934065934,0.43566021867115223,1196.0
996.0,1.7110039166443807e+18,0.46866840731070497,0.4121004566210046,0.34324324324324323,0.499877720714111,0.6197802197802198,0.43902439024390244,1197.0
997.0,1.711003916654364e+18,0.47911227154047,0.4200913242009132,0.34054054054054056,0.504035216434336,0.6428571428571429,0.44238856181665265,1196.0
998.0,1.7110039166643692e+18,0.47127937336814624,0.4098173515981735,0.34054054054054056,0.5006113964294449,0.6065934065934065,0.4415475189234651,1196.0
999.0,1.7110039166743695e+18,0.47911227154047,0.4189497716894977,0.3362162162162162,0.5020787478601125,0.6362637362637362,0.4373423044575273,1199.0
1000.0,1.7110039166843704e+18,0.46866840731070497,0.4166666666666667,0.34540540540540543,0.5008559550012228,0.6021978021978022,0.4373423044575273,1201.0
1001.0,1.7110039166943834e+18,0.4751958224543081,0.4098173515981735,0.3281081081081081,0.5030569821472243,0.6406593406593407,0.4373423044575273,1196.0
