202.0,1.7110044756215375e+18,0.4765013054830287,0.410958904109589,0.34054054054054056,0.5015896307165566,0.6164835164835165,0.4415475189234651,1197.0
203.0,1.7110044756315356e+18,0.4765013054830287,0.4075342465753425,0.3232432432432432,0.5025678650036683,0.6318681318681318,0.4381833473507149,1194.0
204.0,1.7110044756415375e+18,0.4765013054830287,0.4121004566210046,0.33513513513513515,0.5094155050134507,0.6274725274725275,0.4449116904962153,1197.0
205.0,1.7110044756515407e+18,0.4765013054830287,0.4315068493150685,0.33297297297297296,0.504524333577892,0.6362637362637362,0.43650126156433977,1196.0
206.0,1.711004475661541e+18,0.4725848563968668,0.4143835616438356,0.34054054054054056,0.48985081927121543,0.6120879120879121,0.4415475189234651,1195.0
207.0,1.7110044756715418e+18,0.47127937336814624,0.4269406392694064,0.33297297297297296,0.5006113964294449,0.6285714285714286,0.44070647603027757,1197.0
208.0,1.7110044756815404e+18,0.47911227154047,0.4737442922374429,0.3535135135135135,0.5069699192956714,0.6230769230769231,0.4432296047098402,1197.0
209.0,1.7110044756915418e+18,0.47127937336814624,0.4006849315068493,0.3183783783783784,0.4979212521398875,0.6296703296703297,0.43902439024390244,1198.0
210.0,1.7110044757015398e+18,0.4765013054830287,0.410958904109589,0.34486486486486484,0.5067253607238934,0.6285714285714286,0.43986543313709,1194.0
211.0,1.7110044757115443e+18,0.4804177545691906,0.4143835616438356,0.3281081081081081,0.5018341892883346,0.6285714285714286,0.4381833473507149,1196.0
212.0,1.7110044757215432e+18,0.47911227154047,0.4178082191780822,0.34594594594594597,0.5177304964539007,0.6373626373626373,0.4482758620689655,1196.0
213.0,1.711004475731544e+18,0.4804177545691906,0.4623287671232877,0.33405405405405403,0.4954756664221081,0.6274725274725275,0.43986543313709,1194.0
214.0,1.7110044757415442e+18,0.46736292428198434,0.4075342465753425,0.3362162162162162,0.4859378821227684,0.6010989010989011,0.43566021867115223,1195.0
215.0,1.7110044757515318e+18,0.48172323759791125,0.454337899543379,0.34378378378378377,0.5059916850085595,0.6318681318681318,0.43986543313709,1196.0
216.0,1.7110044757615283e+18,0.4765013054830287,0.4121004566210046,0.34054054054054056,0.5008559550012228,0.6142857142857143,0.4415475189234651,1197.0
217.0,1.711004475771529e+18,0.46736292428198434,0.3926940639269406,0.3227027027027027,0.4937637564196625,0.6307692307692307,0.43902439024390244,1195.0
218.0,1.711004475781527e+18,0.48172323759791125,0.432648401826484,0.34486486486486484,0.4854487649792125,0.6098901098901099,0.44070647603027757,1193.0
219.0,1.7110044757915302e+18,0.47911227154047,0.4075342465753425,0.3291891891891892,0.49938860357055515,0.634065934065934,0.4381833473507149,1194.0
220.0,1.7110044758015283e+18,0.48172323759791125,0.4680365296803653,0.35135135135135137,0.49816581071166544,0.6186813186813187,0.4432296047098402,1196.0
221.0,1.7110044758115315e+18,0.4699738903394256,0.4063926940639269,0.3210810810810811,0.491562729273661,0.6362637362637362,0.4432296047098402,1195.0
222.0,1.711004475821529e+18,0.4765013054830287,0.4178082191780822,0.34054054054054056,0.5006113964294449,0.6142857142857143,0.43986543313709,1195.0
223.0,1.7110044758315295e+18,0.48172323759791125,0.4315068493150685,0.33297297297297296,0.495964783565664,0.6285714285714286,0.43902439024390244,1194.0
224.0,1.7110044758415324e+18,0.4699738903394256,0.4200913242009132,0.3427027027027027,0.5072144778674492,0.6164835164835165,0.43902439024390244,1195.0
225.0,1.7110044758515325e+18,0.47780678851174935,0.4189497716894977,0.3281081081081081,0.5074590364392272,0.634065934065934,0.43986543313709,1197.0
226.0,1.7110044758615306e+18,0.48172323759791125,0.4417808219178082,0.3481081081081081,0.5018341892883346,0.6197802197802198,0.4415475189234651,1196.0
227.0,1.7110044758715282e+18,0.4804177545691906,0.4372146118721461,0.32594594594594595,0.5025678650036683,0.6351648351648351,0.43566021867115223,1193.0
228.0,1.7110044758815306e+18,0.46475195822454307,0.4018264840182648,0.33405405405405403,0.495720224993886,0.6098901098901099,0.4381833473507149,1195.0
229.0,1.711004475891532e+18,0.48172323759791125,0.4360730593607306,0.3232432432432432,0.5116165321594522,0.6285714285714286,0.43650126156433977,1197.0
230.0,1.711004475901536e+18,0.4725848563968668,0.4143835616438356,0.3427027027027027,0.5118610907312301,0.6230769230769231,0.4415475189234651,1195.0
231.0,1.7110044759115333e+18,0.47911227154047,0.4178082191780822,0.3286486486486486,0.499877720714111,0.6329670329670329,0.4415475189234651,1196.0
232.0,1.7110044759215299e+18,0.4725848563968668,0.3812785388127854,0.3324324324324324,0.5064808021521154,0.621978021978022,0.43986543313709,1197.0
233.0,1.711004475931546e+18,0.47911227154047,0.4189497716894977,0.3324324324324324,0.5113719735876743,0.6263736263736264,0.4381833473507149,1197.0
234.0,1.711004475941523e+18,0.47389033942558745,0.4052511415525114,0.33945945945945943,0.5037906578625581,0.6175824175824176,0.43986543313709,1195.0
235.0,1.711004475951525e+18,0.47911227154047,0.4280821917808219,0.3302702702702703,0.49938860357055515,0.6285714285714286,0.43566021867115223,1196.0
236.0,1.7110044759615263e+18,0.47911227154047,0.4132420091324201,0.34378378378378377,0.4969430178527757,0.6153846153846154,0.4415475189234651,1196.0
237.0,1.7110044759715254e+18,0.47389033942558745,0.3995433789954338,0.31675675675675674,0.4859378821227684,0.621978021978022,0.4381833473507149,1197.0
238.0,1.7110044759815933e+18,0.47780678851174935,0.4155251141552511,0.34486486486486484,0.5140621178772316,0.6164835164835165,0.4381833473507149,1194.0
239.0,1.7110044759915295e+18,0.47911227154047,0.3915525114155251,0.32432432432432434,0.5020787478601125,0.634065934065934,0.43566021867115223,1196.0
240.0,1.7110044760015306e+18,0.46866840731070497,0.3904109589041096,0.34054054054054056,0.4996331621423331,0.6285714285714286,0.44238856181665265,1195.0
241.0,1.7110044760115313e+18,0.47389033942558745,0.4132420091324201,0.3286486486486486,0.5050134507214478,0.634065934065934,0.43986543313709,1196.0
242.0,1.711004476021537e+18,0.47389033942558745,0.4098173515981735,0.3427027027027027,0.5008559550012228,0.6142857142857143,0.43986543313709,1197.0
243.0,1.7110044760315558e+18,0.4751958224543081,0.4098173515981735,0.3248648648648649,0.5003668378576669,0.634065934065934,0.4381833473507149,1195.0
244.0,1.7110044760415288e+18,0.47127937336814624,0.3938356164383562,0.34216216216216216,0.5052580092932257,0.6208791208791209,0.43902439024390244,1198.0
245.0,1.7110044760515318e+18,0.48172323759791125,0.4041095890410959,0.3237837837837838,0.5015896307165566,0.6329670329670329,0.4381833473507149,1198.0
246.0,1.711004476061535e+18,0.46866840731070497,0.4143835616438356,0.34486486486486484,0.4842259721203228,0.6043956043956044,0.4381833473507149,1197.0
247.0,1.711004476071533e+18,0.47389033942558745,0.408675799086758,0.32972972972972975,0.5006113964294449,0.6318681318681318,0.4348191757779647,1195.0
248.0,1.7110044760815503e+18,0.4765013054830287,0.4257990867579909,0.3491891891891892,0.4741990706774272,0.6098901098901099,0.43902439024390244,1197.0
249.0,1.7110044760915287e+18,0.47127937336814624,0.4178082191780822,0.3232432432432432,0.5086818292981169,0.6329670329670329,0.43902439024390244,1200.0
250.0,1.7110044761015268e+18,0.4660574412532637,0.4075342465753425,0.3308108108108108,0.499877720714111,0.6186813186813187,0.4415475189234651,1196.0
251.0,1.7110044761115297e+18,0.47780678851174935,0.4611872146118721,0.33297297297297296,0.5055025678650037,0.6351648351648351,0.4415475189234651,1197.0
252.0,1.711004476121531e+18,0.47127937336814624,0.4041095890410959,0.3362162162162162,0.4988994864269993,0.6153846153846154,0.4415475189234651,1196.0
253.0,1.7110044761315336e+18,0.4804177545691906,0.3881278538812785,0.31891891891891894,0.4991440449987772,0.6285714285714286,0.4373423044575273,1197.0
254.0,1.7110044761415498e+18,0.4725848563968668,0.4063926940639269,0.34,0.499877720714111,0.6208791208791209,0.43902439024390244,1196.0
255.0,1.7110044761515323e+18,0.4725848563968668,0.4155251141552511,0.3308108108108108,0.5013450721447786,0.6329670329670329,0.43650126156433977,1197.0
256.0,1.7110044761615324e+18,0.47127937336814624,0.4132420091324201,0.34486486486486484,0.5025678650036683,0.6208791208791209,0.4415475189234651,1197.0
257.0,1.7110044761715482e+18,0.4765013054830287,0.4212328767123288,0.3286486486486486,0.5011005135730008,0.6318681318681318,0.4373423044575273,1197.0
258.0,1.711004476181523e+18,0.4751958224543081,0.4246575342465753,0.3491891891891892,0.5025678650036683,0.621978021978022,0.4449116904962153,1197.0
259.0,1.711004476191523e+18,0.48825065274151436,0.4497716894977169,0.36,0.4800684764000978,0.6241758241758242,0.4415475189234651,1195.0
260.0,1.711004476201531e+18,0.47127937336814624,0.3995433789954338,0.3178378378378378,0.4996331621423331,0.6120879120879121,0.43566021867115223,1196.0
261.0,1.7110044762115346e+18,0.47911227154047,0.432648401826484,0.32594594594594595,0.4996331621423331,0.6274725274725275,0.4449116904962153,1196.0
262.0,1.711004476221531e+18,0.4660574412532637,0.4143835616438356,0.3427027027027027,0.4979212521398875,0.6175824175824176,0.43902439024390244,1197.0
263.0,1.7110044762315295e+18,0.4725848563968668,0.4132420091324201,0.32756756756756755,0.5035460992907801,0.6417582417582418,0.44238856181665265,1195.0
264.0,1.7110044762415332e+18,0.4765013054830287,0.4143835616438356,0.34486486486486484,0.4986549278552213,0.6142857142857143,0.44238856181665265,1197.0
265.0,1.7110044762515333e+18,0.4725848563968668,0.408675799086758,0.32216216216216215,0.5062362435803375,0.634065934065934,0.44238856181665265,1195.0
266.0,1.7110044762615314e+18,0.48172323759791125,0.478310502283105,0.3497297297297297,0.504524333577892,0.6032967032967033,0.4280908326324643,1193.0
267.0,1.7110044762715553e+18,0.4765013054830287,0.4029680365296804,0.3264864864864865,0.5084372707263389,0.6824175824175824,0.46761984861227923,1198.0
268.0,1.7110044762815567e+18,0.4725848563968668,0.4098173515981735,0.33783783783783783,0.504524333577892,0.610989010989011,0.4533221194280908,1197.0
269.0,1.7110044762915377e+18,0.4804177545691906,0.4246575342465753,0.3318918918918919,0.4979212521398875,0.6021978021978022,0.4238856181665265,1194.0
270.0,1.711004476301533e+18,0.4830287206266319,0.4132420091324201,0.34162162162162163,0.504524333577892,0.6274725274725275,0.4314550042052145,1195.0
271.0,1.7110044763115338e+18,0.48433420365535246,0.4200913242009132,0.3232432432432432,0.5011005135730008,0.6384615384615384,0.4415475189234651,1197.0
272.0,1.7110044763215954e+18,0.5,0.4280821917808219,0.34756756756756757,0.5084372707263389,0.6956043956043956,0.4693019343986543,1197.0
273.0,1.7110044763315336e+18,0.47127937336814624,0.4178082191780822,0.33297297297297296,0.5047688921496698,0.6593406593406593,0.4432296047098402,1196.0
274.0,1.711004476341531e+18,0.46866840731070497,0.430365296803653,0.3427027027027027,0.49816581071166544,0.5857142857142857,0.43650126156433977,1199.0
275.0,1.7110044763515374e+18,0.48825065274151436,0.4200913242009132,0.33405405405405403,0.49033993641477136,0.5769230769230769,0.4726661059714045,1197.0
276.0,1.7110044763615347e+18,0.4751958224543081,0.4075342465753425,0.34,0.49938860357055515,0.5758241758241758,0.4255677039529016,1196.0
277.0,1.7110044763715525e+18,0.47911227154047,0.4155251141552511,0.3162162162162162,0.5037906578625581,0.6329670329670329,0.4306139613120269,1194.0
278.0,1.7110044763815345e+18,0.4765013054830287,0.4189497716894977,0.33783783783783783,0.5020787478601125,0.6417582417582418,0.4911690496215307,1194.0
279.0,1.7110044763915318e+18,0.4856396866840731,0.4634703196347032,0.34540540540540543,0.5055025678650037,0.6824175824175824,0.4625735912531539,1196.0
280.0,1.7110044764015345e+18,0.46866840731070497,0.4280821917808219,0.3491891891891892,0.5001222792858889,0.6230769230769231,0.42977291841883936,1192.0
281.0,1.7110044764115318e+18,0.47127937336814624,0.3949771689497717,0.3254054054054054,0.4971875764245537,0.5604395604395604,0.4339781328847771,1193.0
282.0,1.711004476421559e+18,0.4725848563968668,0.4143835616438356,0.3389189189189189,0.5067253607238934,0.6626373626373626,0.456686291000841,1193.0
283.0,1.7110044764315487e+18,0.4804177545691906,0.4235159817351598,0.32972972972972975,0.4971875764245537,0.7153846153846154,0.44238856181665265,1196.0
284.0,1.711004476441534e+18,0.4830287206266319,0.4132420091324201,0.3535135135135135,0.5011005135730008,0.610989010989011,0.4348191757779647,1195.0
285.0,1.7110044764515323e+18,0.4765013054830287,0.4235159817351598,0.33135135135135135,0.5143066764490095,0.6901098901098901,0.4751892346509672,1194.0
286.0,1.7110044764615342e+18,0.4765013054830287,0.3687214611872146,0.33405405405405403,0.5011005135730008,0.5989010989010989,0.4625735912531539,1196.0
287.0,1.7110044764715433e+18,0.5,0.4748858447488584,0.34756756756756757,0.5133284421618978,0.7538461538461538,0.3894028595458368,1192.0
288.0,1.711004476481524e+18,0.46344647519582244,0.3949771689497717,0.33513513513513515,0.5069699192956714,0.7604395604395604,0.4432296047098402,1196.0
289.0,1.7110044764915374e+18,0.4751958224543081,0.4178082191780822,0.3286486486486486,0.49229640498899485,0.567032967032967,0.4289318755256518,1194.0
290.0,1.71100447650153e+18,0.4660574412532637,0.4075342465753425,0.33783783783783783,0.4991440449987772,0.6010989010989011,0.41968040370058873,1194.0
291.0,1.7110044765115323e+18,0.47780678851174935,0.4269406392694064,0.32972972972972975,0.5057471264367817,0.6252747252747253,0.4314550042052145,1193.0
292.0,1.7110044765215414e+18,0.4765013054830287,0.4075342465753425,0.33837837837837836,0.49498654927855223,0.5659340659340659,0.4222035323801514,1195.0
293.0,1.7110044765315348e+18,0.4725848563968668,0.4497716894977169,0.33513513513513515,0.4979212521398875,0.6208791208791209,0.4558452481076535,1195.0
294.0,1.7110044765415324e+18,0.46344647519582244,0.365296803652968,0.3308108108108108,0.4930300807043287,0.5230769230769231,0.42977291841883936,1193.0
295.0,1.711004476551531e+18,0.5,0.4269406392694064,0.34054054054054056,0.5037906578625581,0.6659340659340659,0.44575273338940286,1194.0
296.0,1.7110044765615347e+18,0.46475195822454307,0.3904109589041096,0.33837837837837836,0.5062362435803375,0.6516483516483517,0.4432296047098402,1196.0
297.0,1.7110044765715648e+18,0.4699738903394256,0.4121004566210046,0.3281081081081081,0.5011005135730008,0.6318681318681318,0.43650126156433977,1196.0
298.0,1.7110044765815406e+18,0.49216710182767626,0.3801369863013699,0.34054054054054056,0.512594766446564,0.610989010989011,0.4373423044575273,1196.0
299.0,1.711004476591523e+18,0.48172323759791125,0.3892694063926941,0.32432432432432434,0.5057471264367817,0.6274725274725275,0.432296047098402,1192.0
300.0,1.7110044766015311e+18,0.4869451697127937,0.4178082191780822,0.3567567567567568,0.5018341892883346,0.6626373626373626,0.4533221194280908,1197.0
301.0,1.7110044766115305e+18,0.4765013054830287,0.4223744292237443,0.3216216216216216,0.5118610907312301,0.6725274725274726,0.42304457527333894,1192.0
302.0,1.7110044766215363e+18,0.46344647519582244,0.4063926940639269,0.3410810810810811,0.5047688921496698,0.6692307692307692,0.4373423044575273,1195.0
303.0,1.7110044766315392e+18,0.47389033942558745,0.410958904109589,0.3254054054054054,0.4986549278552213,0.6285714285714286,0.4314550042052145,1194.0
304.0,1.7110044766415378e+18,0.46344647519582244,0.4063926940639269,0.33945945945945943,0.5018341892883346,0.6043956043956044,0.42052144659377627,1192.0
305.0,1.7110044766515325e+18,0.47127937336814624,0.4143835616438356,0.32756756756756755,0.5028124235754463,0.6362637362637362,0.43902439024390244,1198.0
306.0,1.711004476661532e+18,0.4725848563968668,0.410958904109589,0.3427027027027027,0.5030569821472243,0.6406593406593407,0.415475189234651,1195.0
307.0,1.711004476672133e+18,0.4725848563968668,0.4006849315068493,0.3237837837837838,0.499877720714111,0.6098901098901099,0.42304457527333894,1192.0
308.0,1.711004476681532e+18,0.47911227154047,0.410958904109589,0.35135135135135137,0.504279775006114,0.6153846153846154,0.4482758620689655,1198.0
309.0,1.711004476691535e+18,0.4830287206266319,0.4132420091324201,0.32594594594594595,0.5011005135730008,0.5879120879120879,0.43902439024390244,1198.0
310.0,1.711004476701529e+18,0.47389033942558745,0.4075342465753425,0.33945945945945943,0.5008559550012228,0.6362637362637362,0.4440706476030278,1196.0
311.0,1.7110044767115295e+18,0.47127937336814624,0.4098173515981735,0.3286486486486486,0.5020787478601125,0.634065934065934,0.4339781328847771,1194.0
312.0,1.7110044767215306e+18,0.48172323759791125,0.4589041095890411,0.34486486486486484,0.5079481535827831,0.6593406593406593,0.4339781328847771,1194.0
313.0,1.7110044767315374e+18,0.46736292428198434,0.430365296803653,0.32594594594594595,0.5025678650036683,0.656043956043956,0.43986543313709,1197.0
314.0,1.7110044767415278e+18,0.4660574412532637,0.3904109589041096,0.3372972972972973,0.5001222792858889,0.6450549450549451,0.42977291841883936,1194.0
315.0,1.7110044767515236e+18,0.5078328981723238,0.4509132420091324,0.3443243243243243,0.5030569821472243,0.6362637362637362,0.4222035323801514,1195.0
316.0,1.71100447676155e+18,0.47911227154047,0.4178082191780822,0.34378378378378377,0.5015896307165566,0.6164835164835165,0.44070647603027757,1197.0
317.0,1.7110044767715318e+18,0.4765013054830287,0.4235159817351598,0.3248648648648649,0.5064808021521154,0.5945054945054945,0.432296047098402,1194.0
318.0,1.7110044767815173e+18,0.46866840731070497,0.3892694063926941,0.3345945945945946,0.4971875764245537,0.5846153846153846,0.43566021867115223,1193.0
319.0,1.7110044767915315e+18,0.4908616187989556,0.430365296803653,0.34324324324324323,0.499877720714111,0.6329670329670329,0.46173254835996635,1198.0
320.0,1.711004476801523e+18,0.46736292428198434,0.4098173515981735,0.3410810810810811,0.5023233064318905,0.6285714285714286,0.4482758620689655,1197.0
321.0,1.7110044768115228e+18,0.46736292428198434,0.3904109589041096,0.31891891891891894,0.5025678650036683,0.6032967032967033,0.4819175777964676,1196.0
322.0,1.7110044768215283e+18,0.47389033942558745,0.4554794520547945,0.3389189189189189,0.5035460992907801,0.6472527472527473,0.43313708999158956,1194.0
323.0,1.7110044768315284e+18,0.4765013054830287,0.4052511415525114,0.3227027027027027,0.4988994864269993,0.6274725274725275,0.432296047098402,1194.0
324.0,1.7110044768415158e+18,0.47127937336814624,0.3664383561643836,0.33135135135135135,0.5008559550012228,0.6076923076923076,0.43650126156433977,1197.0
325.0,1.711004476851516e+18,0.5,0.430365296803653,0.32,0.5006113964294449,0.6373626373626373,0.4449116904962153,1197.0
326.0,1.7110044768615188e+18,0.4660574412532637,0.3961187214611872,0.3372972972972973,0.5015896307165566,0.6032967032967033,0.432296047098402,1193.0
327.0,1.711004476871539e+18,0.48825065274151436,0.3972602739726027,0.3178378378378378,0.4942528735632184,0.5494505494505495,0.4499579478553406,1196.0
328.0,1.711004476881536e+18,0.47389033942558745,0.4417808219178082,0.352972972972973,0.4991440449987772,0.5626373626373626,0.4381833473507149,1197.0
329.0,1.7110044768915249e+18,0.4608355091383812,0.4063926940639269,0.31405405405405407,0.4996331621423331,0.6142857142857143,0.4339781328847771,1196.0
330.0,1.7110044769015204e+18,0.47127937336814624,0.410958904109589,0.3318918918918919,0.5033015407190022,0.6450549450549451,0.4751892346509672,1196.0
331.0,1.7110044769115213e+18,0.4765013054830287,0.4052511415525114,0.3254054054054054,0.4986549278552213,0.6472527472527473,0.4381833473507149,1196.0
332.0,1.7110044769215214e+18,0.4804177545691906,0.4041095890410959,0.34,0.49938860357055515,0.6098901098901099,0.42977291841883936,1195.0
333.0,1.7110044769315395e+18,0.4725848563968668,0.4018264840182648,0.3237837837837838,0.4979212521398875,0.6142857142857143,0.432296047098402,1194.0
334.0,1.7110044769415286e+18,0.47127937336814624,0.4223744292237443,0.34324324324324323,0.5006113964294449,0.5659340659340659,0.4415475189234651,1195.0
335.0,1.711004476951519e+18,0.48172323759791125,0.4269406392694064,0.3324324324324324,0.5015896307165566,0.6318681318681318,0.4348191757779647,1197.0
336.0,1.7110044769615165e+18,0.4765013054830287,0.4178082191780822,0.35027027027027025,0.5001222792858889,0.7153846153846154,0.4306139613120269,1196.0
337.0,1.7110044769715205e+18,0.48172323759791125,0.410958904109589,0.3410810810810811,0.49938860357055515,0.6296703296703297,0.4247266610597141,1194.0
338.0,1.7110044769815427e+18,0.47911227154047,0.3812785388127854,0.33405405405405403,0.5020787478601125,0.6142857142857143,0.44238856181665265,1196.0
339.0,1.7110044769915366e+18,0.47780678851174935,0.4406392694063927,0.3254054054054054,0.4986549278552213,0.6164835164835165,0.4381833473507149,1194.0
340.0,1.7110044770015245e+18,0.46866840731070497,0.4132420091324201,0.34486486486486484,0.49767669356810956,0.6054945054945055,0.42977291841883936,1192.0
341.0,1.7110044770115313e+18,0.47780678851174935,0.4372146118721461,0.3324324324324324,0.504524333577892,0.6274725274725275,0.43986543313709,1197.0
342.0,1.7110044770215232e+18,0.4856396866840731,0.4132420091324201,0.33135135135135135,0.5023233064318905,0.6120879120879121,0.4381833473507149,1196.0
343.0,1.711004477031528e+18,0.4804177545691906,0.4235159817351598,0.34054054054054056,0.5020787478601125,0.6384615384615384,0.432296047098402,1195.0
344.0,1.7110044770415255e+18,0.4725848563968668,0.4063926940639269,0.34054054054054056,0.5028124235754463,0.6021978021978022,0.42977291841883936,1193.0
345.0,1.7110044770515203e+18,0.47127937336814624,0.4098173515981735,0.3362162162162162,0.5008559550012228,0.6241758241758242,0.4381833473507149,1196.0
346.0,1.7110044770615201e+18,0.46344647519582244,0.3949771689497717,0.3372972972972973,0.5015896307165566,0.6120879120879121,0.4465937762825904,1198.0
347.0,1.711004477071524e+18,0.47911227154047,0.4269406392694064,0.3248648648648649,0.5030569821472243,0.6318681318681318,0.46509671993271656,1199.0
348.0,1.7110044770815194e+18,0.4765013054830287,0.4155251141552511,0.33837837837837836,0.4988994864269993,0.5681318681318681,0.42977291841883936,1196.0
349.0,1.711004477091515e+18,0.46866840731070497,0.4132420091324201,0.3291891891891892,0.5001222792858889,0.6010989010989011,0.43650126156433977,1197.0
350.0,1.7110044771015186e+18,0.4765013054830287,0.4189497716894977,0.34054054054054056,0.5015896307165566,0.5846153846153846,0.4381833473507149,1197.0
351.0,1.711004477111519e+18,0.4725848563968668,0.4292237442922374,0.3318918918918919,0.5064808021521154,0.656043956043956,0.4373423044575273,1198.0
352.0,1.7110044771215188e+18,0.4765013054830287,0.4223744292237443,0.34162162162162163,0.5008559550012228,0.6197802197802198,0.4381833473507149,1196.0
353.0,1.7110044771315297e+18,0.48172323759791125,0.4600456621004566,0.33783783783783783,0.5035460992907801,0.6428571428571429,0.4449116904962153,1197.0
354.0,1.7110044771415227e+18,0.4621409921671018,0.3926940639269406,0.33783783783783783,0.5006113964294449,0.6241758241758242,0.4339781328847771,1195.0
355.0,1.71100447715152e+18,0.48172323759791125,0.410958904109589,0.34486486486486484,0.5052580092932257,0.6593406593406593,0.44238856181665265,1196.0
356.0,1.711004477161521e+18,0.5078328981723238,0.4246575342465753,0.34540540540540543,0.5047688921496698,0.6318681318681318,0.4415475189234651,1197.0
357.0,1.7110044771715256e+18,0.47911227154047,0.4178082191780822,0.3232432432432432,0.49645390070921985,0.5835164835164836,0.4280908326324643,1194.0
358.0,1.7110044771815383e+18,0.47127937336814624,0.4269406392694064,0.34486486486486484,0.5008559550012228,0.6087912087912087,0.4339781328847771,1192.0
359.0,1.711004477191519e+18,0.4725848563968668,0.4269406392694064,0.32054054054054054,0.5008559550012228,0.6263736263736264,0.4373423044575273,1197.0
360.0,1.7110044772015247e+18,0.4595300261096606,0.3835616438356164,0.3281081081081081,0.5008559550012228,0.5824175824175825,0.4449116904962153,1197.0
361.0,1.7110044772115254e+18,0.49477806788511747,0.4280821917808219,0.3318918918918919,0.499877720714111,0.6142857142857143,0.43902439024390244,1197.0
362.0,1.711004477221551e+18,0.4856396866840731,0.410958904109589,0.3372972972972973,0.5028124235754463,0.6098901098901099,0.4432296047098402,1198.0
363.0,1.7110044772315274e+18,0.4725848563968668,0.4246575342465753,0.3362162162162162,0.5025678650036683,0.6318681318681318,0.4348191757779647,1195.0
364.0,1.7110044772415252e+18,0.4765013054830287,0.4360730593607306,0.35783783783783785,0.49523110785033014,0.5516483516483517,0.4255677039529016,1192.0
365.0,1.7110044772515267e+18,0.48172323759791125,0.4155251141552511,0.3308108108108108,0.5006113964294449,0.6373626373626373,0.447434819175778,1197.0
366.0,1.7110044772615276e+18,0.4699738903394256,0.4223744292237443,0.34054054054054056,0.5064808021521154,0.6659340659340659,0.4440706476030278,1197.0
367.0,1.7110044772715325e+18,0.4830287206266319,0.4075342465753425,0.33783783783783783,0.5018341892883346,0.6274725274725275,0.4381833473507149,1196.0
368.0,1.711004477281918e+18,0.4804177545691906,0.4132420091324201,0.34702702702702704,0.5030569821472243,0.6054945054945055,0.43902439024390244,1196.0
369.0,1.7110044772915456e+18,0.4765013054830287,0.4178082191780822,0.32972972972972975,0.5001222792858889,0.6230769230769231,0.43566021867115223,1197.0
370.0,1.7110044773015322e+18,0.48433420365535246,0.4315068493150685,0.36972972972972973,0.504035216434336,0.6131868131868132,0.43902439024390244,1195.0
371.0,1.7110044773115292e+18,0.46475195822454307,0.4052511415525114,0.3248648648648649,0.5035460992907801,0.6164835164835165,0.4247266610597141,1194.0
372.0,1.711004477321532e+18,0.48172323759791125,0.4634703196347032,0.3491891891891892,0.5064808021521154,0.6505494505494506,0.4440706476030278,1195.0
373.0,1.7110044773315295e+18,0.47127937336814624,0.3961187214611872,0.3248648648648649,0.5003668378576669,0.6252747252747253,0.4179983179142136,1195.0
374.0,1.71100447734153e+18,0.4660574412532637,0.4246575342465753,0.3302702702702703,0.5020787478601125,0.6318681318681318,0.432296047098402,1194.0
375.0,1.7110044773515305e+18,0.4765013054830287,0.410958904109589,0.3227027027027027,0.5023233064318905,0.6450549450549451,0.4373423044575273,1197.0
376.0,1.7110044773615296e+18,0.4608355091383812,0.3949771689497717,0.3356756756756757,0.5035460992907801,0.6318681318681318,0.4415475189234651,1196.0
377.0,1.7110044773715354e+18,0.47911227154047,0.4155251141552511,0.33675675675675676,0.5025678650036683,0.6450549450549451,0.4449116904962153,1197.0
378.0,1.7110044773815101e+18,0.4725848563968668,0.3904109589041096,0.33783783783783783,0.5018341892883346,0.610989010989011,0.4348191757779647,1195.0
379.0,1.7110044773915328e+18,0.46344647519582244,0.3995433789954338,0.3232432432432432,0.5001222792858889,0.6197802197802198,0.4381833473507149,1194.0
380.0,1.711004477401515e+18,0.4725848563968668,0.4315068493150685,0.33945945945945943,0.5013450721447786,0.6043956043956044,0.4373423044575273,1194.0
381.0,1.7110044774115328e+18,0.48172323759791125,0.4098173515981735,0.3302702702702703,0.5013450721447786,0.6208791208791209,0.4213624894869638,1195.0
382.0,1.7110044774215432e+18,0.48172323759791125,0.4200913242009132,0.34162162162162163,0.5003668378576669,0.6065934065934065,0.43902439024390244,1197.0
383.0,1.7110044774315566e+18,0.4725848563968668,0.4166666666666667,0.33297297297297296,0.5015896307165566,0.6329670329670329,0.4449116904962153,1198.0
384.0,1.7110044774415368e+18,0.4804177545691906,0.4189497716894977,0.33945945945945943,0.49938860357055515,0.5879120879120879,0.432296047098402,1193.0
385.0,1.7110044774515182e+18,0.48172323759791125,0.4212328767123288,0.33783783783783783,0.5020787478601125,0.634065934065934,0.4348191757779647,1197.0
386.0,1.7110044774615642e+18,0.4765013054830287,0.4132420091324201,0.3302702702702703,0.4996331621423331,0.6142857142857143,0.432296047098402,1193.0
387.0,1.7110044774715402e+18,0.46866840731070497,0.4041095890410959,0.31891891891891894,0.5006113964294449,0.621978021978022,0.432296047098402,1195.0
388.0,1.711004477481518e+18,0.48433420365535246,0.4292237442922374,0.3443243243243243,0.5008559550012228,0.6065934065934065,0.44911690496215306,1197.0
389.0,1.7110044774915197e+18,0.4830287206266319,0.4132420091324201,0.3302702702702703,0.5020787478601125,0.6373626373626373,0.4381833473507149,1197.0
390.0,1.7110044775015196e+18,0.46736292428198434,0.4121004566210046,0.3335135135135135,0.5015896307165566,0.6120879120879121,0.4449116904962153,1196.0
391.0,1.7110044775115205e+18,0.49216710182767626,0.4155251141552511,0.33405405405405403,0.49938860357055515,0.6098901098901099,0.43986543313709,1197.0
392.0,1.7110044775215409e+18,0.4765013054830287,0.3904109589041096,0.33513513513513515,0.5050134507214478,0.634065934065934,0.4482758620689655,1196.0
393.0,1.7110044775315203e+18,0.47389033942558745,0.4052511415525114,0.33675675675675676,0.5001222792858889,0.6186813186813187,0.432296047098402,1194.0
394.0,1.7110044775415206e+18,0.4765013054830287,0.4178082191780822,0.3535135135135135,0.4991440449987772,0.5978021978021978,0.4432296047098402,1194.0
395.0,1.7110044775515215e+18,0.4830287206266319,0.432648401826484,0.33135135135135135,0.5003668378576669,0.6208791208791209,0.43902439024390244,1194.0
396.0,1.7110044775615222e+18,0.4869451697127937,0.4269406392694064,0.3443243243243243,0.49767669356810956,0.6065934065934065,0.4592094196804037,1196.0
397.0,1.7110044775715436e+18,0.46344647519582244,0.3858447488584475,0.3286486486486486,0.5025678650036683,0.6362637362637362,0.4373423044575273,1196.0
398.0,1.7110044775815276e+18,0.4869451697127937,0.4178082191780822,0.35135135135135137,0.5020787478601125,0.6417582417582418,0.4339781328847771,1193.0
399.0,1.7110044775915215e+18,0.4765013054830287,0.3995433789954338,0.31513513513513514,0.5020787478601125,0.634065934065934,0.4339781328847771,1193.0
400.0,1.7110044776015178e+18,0.4804177545691906,0.4075342465753425,0.33405405405405403,0.5025678650036683,0.6241758241758242,0.44070647603027757,1197.0
401.0,1.711004477611519e+18,0.4765013054830287,0.3984018264840183,0.31891891891891894,0.5023233064318905,0.6395604395604395,0.46509671993271656,1194.0
402.0,1.7110044776215585e+18,0.4869451697127937,0.4337899543378995,0.36,0.504035216434336,0.6230769230769231,0.4432296047098402,1197.0
403.0,1.7110044776315246e+18,0.4725848563968668,0.4098173515981735,0.3210810810810811,0.5006113964294449,0.6296703296703297,0.43313708999158956,1194.0
404.0,1.7110044776415224e+18,0.48172323759791125,0.4452054794520548,0.3410810810810811,0.5015896307165566,0.6098901098901099,0.4440706476030278,1198.0
405.0,1.7110044776515205e+18,0.49738903394255873,0.4098173515981735,0.3318918918918919,0.5035460992907801,0.6329670329670329,0.43902439024390244,1196.0
406.0,1.711004477661518e+18,0.4699738903394256,0.4075342465753425,0.34054054054054056,0.5025678650036683,0.6208791208791209,0.4465937762825904,1197.0
407.0,1.711004477671517e+18,0.4765013054830287,0.4315068493150685,0.3210810810810811,0.5008559550012228,0.6142857142857143,0.4373423044575273,1197.0
408.0,1.7110044776815194e+18,0.4699738903394256,0.4041095890410959,0.34378378378378377,0.5015896307165566,0.610989010989011,0.43650126156433977,1197.0
409.0,1.7110044776915187e+18,0.4660574412532637,0.4315068493150685,0.32216216216216215,0.5008559550012228,0.6274725274725275,0.4255677039529016,1194.0
410.0,1.71100447770152e+18,0.47911227154047,0.4075342465753425,0.34054054054054056,0.5023233064318905,0.6164835164835165,0.4415475189234651,1194.0
411.0,1.7110044777115203e+18,0.4830287206266319,0.4200913242009132,0.3254054054054054,0.5020787478601125,0.634065934065934,0.43986543313709,1196.0
412.0,1.7110044777215183e+18,0.48172323759791125,0.4600456621004566,0.34216216216216216,0.5028124235754463,0.6120879120879121,0.43902439024390244,1197.0
413.0,1.7110044777315295e+18,0.47389033942558745,0.4178082191780822,0.3362162162162162,0.5006113964294449,0.6604395604395604,0.43902439024390244,1195.0
414.0,1.7110044777415201e+18,0.47127937336814624,0.4052511415525114,0.33675675675675676,0.5003668378576669,0.6076923076923076,0.4432296047098402,1195.0
415.0,1.7110044777515203e+18,0.47389033942558745,0.3972602739726027,0.32756756756756755,0.5030569821472243,0.6395604395604395,0.4415475189234651,1196.0
416.0,1.711004477761518e+18,0.47127937336814624,0.4052511415525114,0.35243243243243244,0.5015896307165566,0.6120879120879121,0.43566021867115223,1196.0
417.0,1.711004477771537e+18,0.4856396866840731,0.4041095890410959,0.32054054054054054,0.5023233064318905,0.6395604395604395,0.4432296047098402,1195.0
418.0,1.7110044777815114e+18,0.46736292428198434,0.3949771689497717,0.3286486486486486,0.5023233064318905,0.6175824175824176,0.4415475189234651,1193.0
419.0,1.7110044777915156e+18,0.4765013054830287,0.4018264840182648,0.3264864864864865,0.5030569821472243,0.621978021978022,0.4314550042052145,1194.0
420.0,1.711004477801515e+18,0.4830287206266319,0.4018264840182648,0.34594594594594597,0.504279775006114,0.6494505494505495,0.4415475189234651,1196.0
421.0,1.7110044778115156e+18,0.4765013054830287,0.4052511415525114,0.32972972972972975,0.5015896307165566,0.621978021978022,0.4381833473507149,1195.0
422.0,1.711004477821551e+18,0.47389033942558745,0.4212328767123288,0.35567567567567565,0.5047688921496698,0.6384615384615384,0.4415475189234651,1195.0
423.0,1.7110044778315246e+18,0.4765013054830287,0.4280821917808219,0.3232432432432432,0.5018341892883346,0.6252747252747253,0.4348191757779647,1197.0
424.0,1.7110044778415122e+18,0.4765013054830287,0.4223744292237443,0.34486486486486484,0.4991440449987772,0.6076923076923076,0.4415475189234651,1196.0
425.0,1.711004477851519e+18,0.4725848563968668,0.4200913242009132,0.32594594594594595,0.5015896307165566,0.6472527472527473,0.43986543313709,1196.0
426.0,1.7110044778615176e+18,0.4765013054830287,0.4235159817351598,0.3545945945945946,0.5028124235754463,0.6098901098901099,0.45164003364171573,1195.0
427.0,1.7110044778715208e+18,0.47911227154047,0.410958904109589,0.3237837837837838,0.5020787478601125,0.6230769230769231,0.4381833473507149,1196.0
428.0,1.7110044778815217e+18,0.489556135770235,0.4098173515981735,0.34378378378378377,0.5037906578625581,0.6318681318681318,0.4465937762825904,1197.0
429.0,1.7110044778915254e+18,0.47911227154047,0.4132420091324201,0.3227027027027027,0.5020787478601125,0.6230769230769231,0.4339781328847771,1194.0
430.0,1.7110044779015212e+18,0.4725848563968668,0.4235159817351598,0.34162162162162163,0.5008559550012228,0.6406593406593407,0.43902439024390244,1196.0
431.0,1.7110044779115218e+18,0.47389033942558745,0.3972602739726027,0.32432432432432434,0.5018341892883346,0.6428571428571429,0.43902439024390244,1194.0
432.0,1.7110044779215232e+18,0.4869451697127937,0.408675799086758,0.3583783783783784,0.5008559550012228,0.6021978021978022,0.43986543313709,1195.0
433.0,1.7110044779315205e+18,0.4765013054830287,0.4018264840182648,0.3318918918918919,0.499877720714111,0.6153846153846154,0.43313708999158956,1194.0
434.0,1.711004477941522e+18,0.48825065274151436,0.4121004566210046,0.3308108108108108,0.5015896307165566,0.6098901098901099,0.4432296047098402,1195.0
435.0,1.7110044779515192e+18,0.4751958224543081,0.4223744292237443,0.3308108108108108,0.5015896307165566,0.634065934065934,0.4432296047098402,1195.0
436.0,1.711004477961522e+18,0.4765013054830287,0.4383561643835616,0.34594594594594597,0.499877720714111,0.6098901098901099,0.43650126156433977,1196.0
437.0,1.711004477971528e+18,0.48172323759791125,0.4337899543378995,0.34702702702702704,0.5020787478601125,0.6230769230769231,0.4381833473507149,1196.0
438.0,1.7110044779815137e+18,0.4725848563968668,0.4132420091324201,0.3410810810810811,0.5018341892883346,0.6032967032967033,0.43566021867115223,1194.0
439.0,1.7110044779915372e+18,0.4660574412532637,0.4178082191780822,0.3210810810810811,0.49816581071166544,0.6274725274725275,0.4348191757779647,1195.0
440.0,1.7110044780015324e+18,0.489556135770235,0.4817351598173516,0.35567567567567565,0.5015896307165566,0.621978021978022,0.4415475189234651,1197.0
441.0,1.7110044780115215e+18,0.4765013054830287,0.4132420091324201,0.3254054054054054,0.5020787478601125,0.6098901098901099,0.4314550042052145,1194.0
442.0,1.7110044780215462e+18,0.4725848563968668,0.4041095890410959,0.34378378378378377,0.5023233064318905,0.6175824175824176,0.4415475189234651,1196.0
443.0,1.7110044780315228e+18,0.47127937336814624,0.4178082191780822,0.33405405405405403,0.5023233064318905,0.6362637362637362,0.4381833473507149,1196.0
444.0,1.7110044780415212e+18,0.4830287206266319,0.4155251141552511,0.34594594594594597,0.49938860357055515,0.6164835164835165,0.44911690496215306,1195.0
445.0,1.7110044780515228e+18,0.46866840731070497,0.3995433789954338,0.32,0.5015896307165566,0.6285714285714286,0.43650126156433977,1195.0
446.0,1.711004478061524e+18,0.4830287206266319,0.4452054794520548,0.34702702702702704,0.5018341892883346,0.6296703296703297,0.43986543313709,1194.0
447.0,1.7110044780715318e+18,0.46736292428198434,0.4132420091324201,0.3216216216216216,0.5006113964294449,0.6362637362637362,0.4348191757779647,1196.0
448.0,1.711004478081519e+18,0.46344647519582244,0.4360730593607306,0.3410810810810811,0.5015896307165566,0.6120879120879121,0.4432296047098402,1197.0
449.0,1.7110044780915249e+18,0.4830287206266319,0.4178082191780822,0.33135135135135135,0.5008559550012228,0.6318681318681318,0.4415475189234651,1195.0
450.0,1.7110044781015212e+18,0.47127937336814624,0.4018264840182648,0.3356756756756757,0.5011005135730008,0.6098901098901099,0.4339781328847771,1193.0
451.0,1.7110044781115218e+18,0.4856396866840731,0.4257990867579909,0.34756756756756757,0.5028124235754463,0.6285714285714286,0.4373423044575273,1198.0
452.0,1.7110044781215772e+18,0.47389033942558745,0.4269406392694064,0.34324324324324323,0.5008559550012228,0.6175824175824176,0.4415475189234651,1195.0
453.0,1.7110044781315233e+18,0.47911227154047,0.4315068493150685,0.32594594594594595,0.5020787478601125,0.6241758241758242,0.43313708999158956,1193.0
454.0,1.7110044781415173e+18,0.4830287206266319,0.4052511415525114,0.3264864864864865,0.5023233064318905,0.6197802197802198,0.4415475189234651,1196.0
455.0,1.7110044781515197e+18,0.4765013054830287,0.4098173515981735,0.31567567567567567,0.4996331621423331,0.6329670329670329,0.42977291841883936,1192.0
456.0,1.7110044781615224e+18,0.49216710182767626,0.4531963470319635,0.34864864864864864,0.504279775006114,0.6164835164835165,0.4381833473507149,1197.0
457.0,1.7110044781715305e+18,0.48172323759791125,0.4280821917808219,0.3324324324324324,0.5020787478601125,0.6461538461538462,0.4432296047098402,1198.0
458.0,1.711004478181525e+18,0.46736292428198434,0.4063926940639269,0.33783783783783783,0.4888725849841037,0.5791208791208792,0.4432296047098402,1194.0
459.0,1.7110044781915246e+18,0.489556135770235,0.454337899543379,0.352972972972973,0.5050134507214478,0.6241758241758242,0.4432296047098402,1199.0
460.0,1.7110044782015224e+18,0.48172323759791125,0.408675799086758,0.33837837837837836,0.5008559550012228,0.6065934065934065,0.4415475189234651,1199.0
461.0,1.7110044782115205e+18,0.47911227154047,0.4098173515981735,0.32432432432432434,0.5020787478601125,0.643956043956044,0.4415475189234651,1196.0
462.0,1.7110044782215606e+18,0.47780678851174935,0.4075342465753425,0.34054054054054056,0.5006113964294449,0.6142857142857143,0.43902439024390244,1196.0
463.0,1.7110044782315146e+18,0.4765013054830287,0.4474885844748858,0.34054054054054056,0.5003668378576669,0.6252747252747253,0.43650126156433977,1196.0
464.0,1.7110044782415176e+18,0.4751958224543081,0.408675799086758,0.34324324324324323,0.5018341892883346,0.6153846153846154,0.4381833473507149,1195.0
465.0,1.7110044782515213e+18,0.4660574412532637,0.4200913242009132,0.32432432432432434,0.5015896307165566,0.634065934065934,0.44575273338940286,1197.0
466.0,1.711004478261523e+18,0.4869451697127937,0.4440639269406393,0.34486486486486484,0.5035460992907801,0.6274725274725275,0.4415475189234651,1197.0
467.0,1.7110044782715564e+18,0.48825065274151436,0.4041095890410959,0.32972972972972975,0.5035460992907801,0.6373626373626373,0.43650126156433977,1197.0
468.0,1.711004478281536e+18,0.48172323759791125,0.4132420091324201,0.34324324324324323,0.5028124235754463,0.6175824175824176,0.44238856181665265,1194.0
469.0,1.7110044782915233e+18,0.47911227154047,0.4063926940639269,0.32594594594594595,0.5015896307165566,0.6593406593406593,0.44238856181665265,1196.0
470.0,1.7110044783015232e+18,0.47911227154047,0.4132420091324201,0.34702702702702704,0.5020787478601125,0.6197802197802198,0.43902439024390244,1194.0
471.0,1.7110044783115228e+18,0.4725848563968668,0.4132420091324201,0.32972972972972975,0.5011005135730008,0.6362637362637362,0.4348191757779647,1195.0
472.0,1.7110044783215212e+18,0.4608355091383812,0.4018264840182648,0.3372972972972973,0.49938860357055515,0.6142857142857143,0.4348191757779647,1196.0
473.0,1.7110044783315305e+18,0.47911227154047,0.4155251141552511,0.327027027027027,0.5018341892883346,0.6373626373626373,0.4465937762825904,1196.0
474.0,1.711004478341526e+18,0.4765013054830287,0.4075342465753425,0.3410810810810811,0.491807287845439,0.621978021978022,0.43650126156433977,1197.0
475.0,1.7110044783515215e+18,0.47389033942558745,0.4463470319634703,0.3605405405405405,0.5035460992907801,0.6384615384615384,0.4415475189234651,1197.0
476.0,1.7110044783615217e+18,0.47780678851174935,0.4474885844748858,0.35027027027027025,0.5008559550012228,0.6131868131868132,0.4449116904962153,1194.0
477.0,1.7110044783715361e+18,0.47127937336814624,0.3949771689497717,0.31567567567567567,0.5023233064318905,0.6351648351648351,0.44070647603027757,1194.0
478.0,1.711004478381508e+18,0.47780678851174935,0.4212328767123288,0.3427027027027027,0.5001222792858889,0.6131868131868132,0.43313708999158956,1193.0
479.0,1.711004478391523e+18,0.4765013054830287,0.4132420091324201,0.3237837837837838,0.5006113964294449,0.6285714285714286,0.4432296047098402,1196.0
480.0,1.7110044784015194e+18,0.4869451697127937,0.4691780821917808,0.35567567567567565,0.5033015407190022,0.6153846153846154,0.4348191757779647,1195.0
481.0,1.711004478411523e+18,0.46866840731070497,0.4018264840182648,0.32756756756756755,0.5020787478601125,0.6494505494505495,0.4465937762825904,1195.0
482.0,1.7110044784215235e+18,0.4765013054830287,0.4200913242009132,0.34162162162162163,0.5008559550012228,0.6296703296703297,0.4499579478553406,1197.0
483.0,1.7110044784315377e+18,0.4699738903394256,0.3961187214611872,0.3216216216216216,0.5001222792858889,0.6318681318681318,0.4381833473507149,1195.0
484.0,1.7110044784415296e+18,0.47911227154047,0.4006849315068493,0.33837837837837836,0.5030569821472243,0.6230769230769231,0.4415475189234651,1195.0
485.0,1.7110044784515223e+18,0.4608355091383812,0.3949771689497717,0.32594594594594595,0.5064808021521154,0.6472527472527473,0.43650126156433977,1197.0
486.0,1.711004478461522e+18,0.4699738903394256,0.4075342465753425,0.34054054054054056,0.5015896307165566,0.6153846153846154,0.44238856181665265,1196.0
487.0,1.7110044784715213e+18,0.4765013054830287,0.410958904109589,0.3248648648648649,0.5008559550012228,0.6274725274725275,0.43313708999158956,1195.0
488.0,1.7110044784815322e+18,0.45691906005221933,0.384703196347032,0.3254054054054054,0.5008559550012228,0.6164835164835165,0.4373423044575273,1197.0
489.0,1.7110044784915272e+18,0.4765013054830287,0.4337899543378995,0.33135135135135135,0.5008559550012228,0.6362637362637362,0.43986543313709,1198.0
490.0,1.711004478501528e+18,0.47780678851174935,0.3972602739726027,0.34216216216216216,0.5025678650036683,0.621978021978022,0.4449116904962153,1198.0
491.0,1.7110044785115277e+18,0.47911227154047,0.4041095890410959,0.31675675675675674,0.5020787478601125,0.6505494505494506,0.4482758620689655,1196.0
492.0,1.7110044785215368e+18,0.46866840731070497,0.4029680365296804,0.3335135135135135,0.5025678650036683,0.6417582417582418,0.4415475189234651,1196.0
493.0,1.711004478531522e+18,0.48433420365535246,0.4143835616438356,0.3308108108108108,0.4988994864269993,0.6175824175824176,0.43902439024390244,1198.0
494.0,1.711004478541528e+18,0.4660574412532637,0.4155251141552511,0.3464864864864865,0.48251406211787723,0.5978021978021978,0.43313708999158956,1193.0
495.0,1.7110044785515246e+18,0.47911227154047,0.4235159817351598,0.3362162162162162,0.5020787478601125,0.6329670329670329,0.4415475189234651,1197.0
496.0,1.7110044785615273e+18,0.4725848563968668,0.4429223744292237,0.34162162162162163,0.4991440449987772,0.610989010989011,0.4381833473507149,1196.0
497.0,1.7110044785715361e+18,0.4699738903394256,0.3972602739726027,0.33513513513513515,0.4986549278552213,0.6153846153846154,0.4373423044575273,1196.0
498.0,1.7110044785815337e+18,0.47911227154047,0.3984018264840183,0.3567567567567568,0.5018341892883346,0.6131868131868132,0.44238856181665265,1194.0
499.0,1.7110044785915264e+18,0.4869451697127937,0.4132420091324201,0.3254054054054054,0.5001222792858889,0.6329670329670329,0.44070647603027757,1195.0
500.0,1.7110044786015311e+18,0.4830287206266319,0.4132420091324201,0.3362162162162162,0.5035460992907801,0.6274725274725275,0.45500420521446594,1195.0
501.0,1.7110044786115315e+18,0.4725848563968668,0.408675799086758,0.3237837837837838,0.499877720714111,0.6252747252747253,0.4339781328847771,1192.0
502.0,1.711004478621566e+18,0.48433420365535246,0.4178082191780822,0.34,0.5050134507214478,0.6142857142857143,0.4449116904962153,1196.0
503.0,1.7110044786315387e+18,0.47780678851174935,0.4178082191780822,0.3264864864864865,0.5023233064318905,0.6307692307692307,0.44070647603027757,1196.0
504.0,1.7110044786415347e+18,0.48172323759791125,0.4132420091324201,0.3583783783783784,0.5028124235754463,0.6197802197802198,0.44575273338940286,1196.0
505.0,1.7110044786515346e+18,0.4725848563968668,0.4041095890410959,0.3216216216216216,0.5015896307165566,0.6296703296703297,0.4482758620689655,1196.0
506.0,1.7110044786615342e+18,0.47911227154047,0.4189497716894977,0.3335135135135135,0.5023233064318905,0.6142857142857143,0.43650126156433977,1197.0
507.0,1.7110044786715359e+18,0.47911227154047,0.432648401826484,0.33945945945945943,0.5006113964294449,0.6384615384615384,0.4381833473507149,1196.0
508.0,1.7110044786815237e+18,0.46736292428198434,0.3904109589041096,0.33513513513513515,0.5006113964294449,0.6098901098901099,0.4432296047098402,1196.0
509.0,1.7110044786915346e+18,0.47389033942558745,0.3995433789954338,0.34054054054054056,0.5023233064318905,0.6274725274725275,0.43566021867115223,1197.0
510.0,1.7110044787015316e+18,0.4765013054830287,0.4383561643835616,0.34054054054054056,0.5035460992907801,0.6241758241758242,0.4432296047098402,1196.0
511.0,1.7110044787115182e+18,0.47127937336814624,0.4075342465753425,0.33513513513513515,0.4986549278552213,0.6450549450549451,0.44575273338940286,1196.0
512.0,1.7110044787215217e+18,0.4765013054830287,0.4143835616438356,0.34162162162162163,0.5057471264367817,0.6186813186813187,0.4432296047098402,1195.0
513.0,1.7110044787315397e+18,0.4908616187989556,0.4372146118721461,0.35243243243243244,0.5030569821472243,0.6241758241758242,0.4373423044575273,1196.0
514.0,1.7110044787415255e+18,0.47911227154047,0.4223744292237443,0.33513513513513515,0.5020787478601125,0.6131868131868132,0.43986543313709,1197.0
515.0,1.7110044787515203e+18,0.46475195822454307,0.3926940639269406,0.31891891891891894,0.5018341892883346,0.6395604395604395,0.4381833473507149,1197.0
516.0,1.7110044787615206e+18,0.46475195822454307,0.3904109589041096,0.33513513513513515,0.5025678650036683,0.6120879120879121,0.4415475189234651,1196.0
517.0,1.7110044787715254e+18,0.49216710182767626,0.4223744292237443,0.33405405405405403,0.5015896307165566,0.6296703296703297,0.43566021867115223,1196.0
518.0,1.711004478781513e+18,0.4765013054830287,0.4121004566210046,0.3362162162162162,0.5015896307165566,0.6164835164835165,0.43650126156433977,1193.0
519.0,1.7110044787915238e+18,0.4765013054830287,0.4132420091324201,0.3264864864864865,0.499877720714111,0.6274725274725275,0.43650126156433977,1196.0
520.0,1.7110044788015196e+18,0.47389033942558745,0.4143835616438356,0.3345945945945946,0.5013450721447786,0.6098901098901099,0.43902439024390244,1196.0
521.0,1.7110044788115197e+18,0.4699738903394256,0.4029680365296804,0.32756756756756755,0.5013450721447786,0.6318681318681318,0.44070647603027757,1198.0
522.0,1.7110044788215365e+18,0.47911227154047,0.4006849315068493,0.35135135135135137,0.5006113964294449,0.6142857142857143,0.44238856181665265,1197.0
523.0,1.7110044788315254e+18,0.47127937336814624,0.3984018264840183,0.3264864864864865,0.5001222792858889,0.6197802197802198,0.4339781328847771,1193.0
524.0,1.7110044788415212e+18,0.47127937336814624,0.408675799086758,0.3345945945945946,0.499877720714111,0.6054945054945055,0.43650126156433977,1195.0
525.0,1.711004478851525e+18,0.4804177545691906,0.430365296803653,0.34594594594594597,0.5030569821472243,0.634065934065934,0.4381833473507149,1196.0
526.0,1.711004478861521e+18,0.4608355091383812,0.4018264840182648,0.34162162162162163,0.5006113964294449,0.6142857142857143,0.4381833473507149,1196.0
527.0,1.711004478871516e+18,0.46866840731070497,0.4155251141552511,0.33513513513513515,0.5020787478601125,0.6329670329670329,0.4381833473507149,1196.0
528.0,1.7110044788815137e+18,0.4699738903394256,0.386986301369863,0.32972972972972975,0.5023233064318905,0.6175824175824176,0.4449116904962153,1197.0
529.0,1.7110044788915187e+18,0.4804177545691906,0.4178082191780822,0.32594594594594595,0.4996331621423331,0.6384615384615384,0.44238856181665265,1196.0
530.0,1.7110044789015258e+18,0.4765013054830287,0.4189497716894977,0.33135135135135135,0.5037906578625581,0.6186813186813187,0.4415475189234651,1195.0
531.0,1.7110044789115192e+18,0.48172323759791125,0.4052511415525114,0.3237837837837838,0.5025678650036683,0.6274725274725275,0.43902439024390244,1196.0
532.0,1.7110044789215217e+18,0.4765013054830287,0.4440639269406393,0.35081081081081084,0.4991440449987772,0.610989010989011,0.43313708999158956,1195.0
533.0,1.7110044789315254e+18,0.4765013054830287,0.4178082191780822,0.32756756756756755,0.5008559550012228,0.6318681318681318,0.44238856181665265,1197.0
534.0,1.711004478941523e+18,0.47389033942558745,0.4223744292237443,0.35027027027027025,0.5030569821472243,0.6241758241758242,0.44238856181665265,1196.0
535.0,1.7110044789515205e+18,0.47911227154047,0.4075342465753425,0.3232432432432432,0.5008559550012228,0.6450549450549451,0.43566021867115223,1194.0
536.0,1.711004478961521e+18,0.46866840731070497,0.4063926940639269,0.3264864864864865,0.5020787478601125,0.6164835164835165,0.44238856181665265,1196.0
537.0,1.7110044789715108e+18,0.47911227154047,0.410958904109589,0.3335135135135135,0.5015896307165566,0.6296703296703297,0.43650126156433977,1196.0
538.0,1.7110044789815427e+18,0.4765013054830287,0.3824200913242009,0.3362162162162162,0.5018341892883346,0.6164835164835165,0.43986543313709,1194.0
539.0,1.711004478991525e+18,0.4908616187989556,0.4178082191780822,0.3210810810810811,0.5006113964294449,0.634065934065934,0.44575273338940286,1196.0
540.0,1.711004479001521e+18,0.47780678851174935,0.4075342465753425,0.33783783783783783,0.5011005135730008,0.6318681318681318,0.4381833473507149,1195.0
541.0,1.7110044790115215e+18,0.4765013054830287,0.408675799086758,0.3237837837837838,0.5030569821472243,0.6362637362637362,0.4381833473507149,1194.0
542.0,1.711004479021521e+18,0.48825065274151436,0.432648401826484,0.34378378378378377,0.5025678650036683,0.6274725274725275,0.4432296047098402,1195.0
543.0,1.711004479031529e+18,0.47127937336814624,0.4041095890410959,0.3281081081081081,0.5003668378576669,0.6241758241758242,0.43566021867115223,1198.0
544.0,1.7110044790415265e+18,0.4765013054830287,0.4029680365296804,0.34054054054054056,0.5013450721447786,0.6241758241758242,0.44575273338940286,1200.0
545.0,1.7110044790515246e+18,0.4765013054830287,0.4098173515981735,0.32432432432432434,0.5001222792858889,0.6318681318681318,0.43902439024390244,1197.0
546.0,1.711004479061523e+18,0.4725848563968668,0.3926940639269406,0.3464864864864865,0.4979212521398875,0.6098901098901099,0.4415475189234651,1195.0
547.0,1.71100447907152e+18,0.4869451697127937,0.4509132420091324,0.3372972972972973,0.49816581071166544,0.6285714285714286,0.4381833473507149,1196.0
548.0,1.7110044790815235e+18,0.46736292428198434,0.4063926940639269,0.3464864864864865,0.4988994864269993,0.6186813186813187,0.4373423044575273,1197.0
549.0,1.711004479091519e+18,0.4765013054830287,0.408675799086758,0.3232432432432432,0.5013450721447786,0.6296703296703297,0.43902439024390244,1198.0
550.0,1.711004479101522e+18,0.4725848563968668,0.4075342465753425,0.3345945945945946,0.499877720714111,0.6153846153846154,0.4415475189234651,1194.0
551.0,1.7110044791115249e+18,0.4621409921671018,0.4246575342465753,0.3286486486486486,0.5018341892883346,0.6241758241758242,0.432296047098402,1195.0
552.0,1.7110044791215204e+18,0.4804177545691906,0.4212328767123288,0.34054054054054056,0.5025678650036683,0.6208791208791209,0.4465937762825904,1195.0
553.0,1.711004479131526e+18,0.47911227154047,0.408675799086758,0.3216216216216216,0.4930300807043287,0.6274725274725275,0.4339781328847771,1194.0
554.0,1.7110044791415485e+18,0.48433420365535246,0.4178082191780822,0.3481081081081081,0.5023233064318905,0.6164835164835165,0.43902439024390244,1196.0
555.0,1.7110044791515164e+18,0.4725848563968668,0.4052511415525114,0.3356756756756757,0.5015896307165566,0.6384615384615384,0.4381833473507149,1194.0
556.0,1.711004479161522e+18,0.49216710182767626,0.4360730593607306,0.36648648648648646,0.5001222792858889,0.6153846153846154,0.43986543313709,1194.0
557.0,1.7110044791715318e+18,0.47780678851174935,0.430365296803653,0.33135135135135135,0.5006113964294449,0.6197802197802198,0.4373423044575273,1194.0
558.0,1.7110044791815201e+18,0.47127937336814624,0.4098173515981735,0.33837837837837836,0.49938860357055515,0.6098901098901099,0.43650126156433977,1194.0
559.0,1.711004479191523e+18,0.47780678851174935,0.4178082191780822,0.33405405405405403,0.5015896307165566,0.634065934065934,0.43650126156433977,1198.0
560.0,1.711004479201521e+18,0.4608355091383812,0.4052511415525114,0.34054054054054056,0.5015896307165566,0.6164835164835165,0.4415475189234651,1197.0
561.0,1.7110044792115267e+18,0.4960835509138381,0.4680365296803653,0.3302702702702703,0.49938860357055515,0.6373626373626373,0.43650126156433977,1196.0
562.0,1.7110044792215537e+18,0.47389033942558745,0.4063926940639269,0.34486486486486484,0.5023233064318905,0.6241758241758242,0.4465937762825904,1196.0
563.0,1.7110044792315197e+18,0.47911227154047,0.4155251141552511,0.32594594594594595,0.5008559550012228,0.6285714285714286,0.43650126156433977,1196.0
564.0,1.711004479241498e+18,0.4804177545691906,0.4235159817351598,0.3491891891891892,0.5023233064318905,0.6252747252747253,0.4415475189234651,1196.0
565.0,1.711004479251517e+18,0.47127937336814624,0.4269406392694064,0.3362162162162162,0.5079481535827831,0.6329670329670329,0.43650126156433977,1195.0
566.0,1.7110044792615206e+18,0.4725848563968668,0.4200913242009132,0.3410810810810811,0.5037906578625581,0.6296703296703297,0.43902439024390244,1196.0
567.0,1.711004479271552e+18,0.4804177545691906,0.432648401826484,0.3362162162162162,0.5006113964294449,0.6373626373626373,0.4339781328847771,1193.0
568.0,1.7110044792815278e+18,0.47389033942558745,0.3949771689497717,0.33837837837837836,0.5015896307165566,0.6230769230769231,0.4415475189234651,1198.0
569.0,1.71100447929151e+18,0.47389033942558745,0.408675799086758,0.3286486486486486,0.5006113964294449,0.6307692307692307,0.43650126156433977,1198.0
570.0,1.7110044793015255e+18,0.48825065274151436,0.454337899543379,0.38216216216216214,0.5018341892883346,0.6120879120879121,0.4440706476030278,1196.0
571.0,1.7110044793115208e+18,0.47911227154047,0.4063926940639269,0.3254054054054054,0.5023233064318905,0.6274725274725275,0.4415475189234651,1197.0
572.0,1.7110044793215204e+18,0.47127937336814624,0.4075342465753425,0.33783783783783783,0.5015896307165566,0.6131868131868132,0.44070647603027757,1196.0
573.0,1.711004479331527e+18,0.4804177545691906,0.4200913242009132,0.3210810810810811,0.5018341892883346,0.6362637362637362,0.43986543313709,1197.0
574.0,1.7110044793415183e+18,0.48172323759791125,0.4406392694063927,0.35135135135135137,0.5018341892883346,0.6197802197802198,0.43986543313709,1196.0
575.0,1.7110044793515172e+18,0.47911227154047,0.4269406392694064,0.3302702702702703,0.5055025678650037,0.6406593406593407,0.4280908326324643,1192.0
576.0,1.7110044793615214e+18,0.45300261096605743,0.3995433789954338,0.34162162162162163,0.5015896307165566,0.6230769230769231,0.4373423044575273,1197.0
577.0,1.7110044793715397e+18,0.47389033942558745,0.3995433789954338,0.3216216216216216,0.5015896307165566,0.634065934065934,0.4381833473507149,1196.0
578.0,1.711004479381523e+18,0.4765013054830287,0.4132420091324201,0.3427027027027027,0.5015896307165566,0.6175824175824176,0.44238856181665265,1194.0
579.0,1.711004479391522e+18,0.4765013054830287,0.4189497716894977,0.3356756756756757,0.5011005135730008,0.6296703296703297,0.43566021867115223,1195.0
580.0,1.7110044794015212e+18,0.4830287206266319,0.430365296803653,0.34324324324324323,0.5037906578625581,0.6329670329670329,0.44238856181665265,1196.0
581.0,1.7110044794115267e+18,0.4765013054830287,0.4041095890410959,0.3324324324324324,0.5001222792858889,0.6208791208791209,0.43566021867115223,1196.0
582.0,1.7110044794215188e+18,0.49869451697127937,0.4474885844748858,0.3491891891891892,0.5011005135730008,0.6285714285714286,0.4465937762825904,1194.0
583.0,1.7110044794315095e+18,0.4725848563968668,0.4143835616438356,0.32756756756756755,0.5037906578625581,0.6362637362637362,0.4381833473507149,1196.0
584.0,1.7110044794415168e+18,0.4725848563968668,0.4178082191780822,0.34486486486486484,0.5023233064318905,0.6252747252747253,0.4415475189234651,1193.0
585.0,1.7110044794515272e+18,0.47127937336814624,0.4052511415525114,0.3162162162162162,0.5018341892883346,0.6307692307692307,0.4373423044575273,1196.0
586.0,1.7110044794615222e+18,0.4765013054830287,0.4235159817351598,0.34486486486486484,0.504279775006114,0.6175824175824176,0.43566021867115223,1195.0
587.0,1.711004479471518e+18,0.46866840731070497,0.4223744292237443,0.3291891891891892,0.5020787478601125,0.6461538461538462,0.4381833473507149,1194.0
588.0,1.711004479481547e+18,0.47780678851174935,0.408675799086758,0.34,0.5015896307165566,0.6175824175824176,0.43986543313709,1195.0
589.0,1.7110044794915182e+18,0.4856396866840731,0.4200913242009132,0.33513513513513515,0.5003668378576669,0.6417582417582418,0.4339781328847771,1193.0
590.0,1.7110044795015132e+18,0.4765013054830287,0.4052511415525114,0.34162162162162163,0.5023233064318905,0.6153846153846154,0.43986543313709,1195.0
591.0,1.711004479511518e+18,0.48172323759791125,0.4098173515981735,0.33945945945945943,0.5028124235754463,0.6384615384615384,0.44238856181665265,1195.0
592.0,1.7110044795215194e+18,0.47127937336814624,0.4246575342465753,0.3567567567567568,0.5025678650036683,0.6208791208791209,0.43902439024390244,1196.0
593.0,1.7110044795315205e+18,0.47911227154047,0.4166666666666667,0.3362162162162162,0.5018341892883346,0.6329670329670329,0.44070647603027757,1197.0
594.0,1.7110044795415247e+18,0.4725848563968668,0.4223744292237443,0.34486486486486484,0.5018341892883346,0.634065934065934,0.4440706476030278,1197.0
595.0,1.7110044795515203e+18,0.4765013054830287,0.4178082191780822,0.33675675675675676,0.4988994864269993,0.6186813186813187,0.4238856181665265,1193.0
596.0,1.7110044795615232e+18,0.4765013054830287,0.4269406392694064,0.34594594594594597,0.5033015407190022,0.6186813186813187,0.43986543313709,1196.0
597.0,1.711004479571524e+18,0.47389033942558745,0.4246575342465753,0.3356756756756757,0.5135730007336757,0.6406593406593407,0.4339781328847771,1195.0
598.0,1.7110044795815265e+18,0.47780678851174935,0.4429223744292237,0.3481081081081081,0.5033015407190022,0.6186813186813187,0.43650126156433977,1196.0
599.0,1.7110044795915223e+18,0.47780678851174935,0.4257990867579909,0.3308108108108108,0.5020787478601125,0.6285714285714286,0.4432296047098402,1198.0
600.0,1.7110044796015227e+18,0.45822454308093996,0.3515981735159817,0.3362162162162162,0.5003668378576669,0.6098901098901099,0.4381833473507149,1196.0
601.0,1.7110044796115226e+18,0.49869451697127937,0.4269406392694064,0.33135135135135135,0.5008559550012228,0.6263736263736264,0.43650126156433977,1198.0
602.0,1.7110044796215242e+18,0.47389033942558745,0.4269406392694064,0.33783783783783783,0.5020787478601125,0.610989010989011,0.42977291841883936,1194.0
603.0,1.7110044796315208e+18,0.4765013054830287,0.4223744292237443,0.32972972972972975,0.5011005135730008,0.634065934065934,0.43566021867115223,1196.0
604.0,1.7110044796415165e+18,0.46475195822454307,0.3961187214611872,0.32756756756756755,0.5008559550012228,0.6197802197802198,0.44238856181665265,1197.0
605.0,1.7110044796515162e+18,0.4751958224543081,0.4166666666666667,0.32432432432432434,0.5011005135730008,0.6230769230769231,0.4449116904962153,1194.0
606.0,1.7110044796615168e+18,0.4869451697127937,0.45662100456621,0.35243243243243244,0.49082905355832723,0.6142857142857143,0.4415475189234651,1196.0
607.0,1.7110044796715395e+18,0.46866840731070497,0.4052511415525114,0.32594594594594595,0.5011005135730008,0.6285714285714286,0.43902439024390244,1195.0
608.0,1.7110044796815327e+18,0.46866840731070497,0.4041095890410959,0.3389189189189189,0.4991440449987772,0.6153846153846154,0.43986543313709,1196.0
609.0,1.7110044796918858e+18,0.48433420365535246,0.4178082191780822,0.3318918918918919,0.5025678650036683,0.6384615384615384,0.44238856181665265,1197.0
610.0,1.7110044797015212e+18,0.4804177545691906,0.4383561643835616,0.34162162162162163,0.5025678650036683,0.6186813186813187,0.4449116904962153,1196.0
611.0,1.7110044797115213e+18,0.4765013054830287,0.4143835616438356,0.32594594594594595,0.5015896307165566,0.6307692307692307,0.4432296047098402,1196.0
612.0,1.7110044797215212e+18,0.4765013054830287,0.4360730593607306,0.3605405405405405,0.5006113964294449,0.6175824175824176,0.4373423044575273,1196.0
613.0,1.7110044797315566e+18,0.4725848563968668,0.3767123287671233,0.3210810810810811,0.4996331621423331,0.6274725274725275,0.4381833473507149,1197.0
614.0,1.7110044797415286e+18,0.4765013054830287,0.4315068493150685,0.34702702702702704,0.504279775006114,0.6197802197802198,0.43902439024390244,1195.0
615.0,1.7110044797515318e+18,0.489556135770235,0.4235159817351598,0.32594594594594595,0.5018341892883346,0.6307692307692307,0.4381833473507149,1197.0
616.0,1.7110044797615375e+18,0.4699738903394256,0.4018264840182648,0.34324324324324323,0.5023233064318905,0.6241758241758242,0.45164003364171573,1195.0
617.0,1.711004479771533e+18,0.47127937336814624,0.4063926940639269,0.3227027027027027,0.5025678650036683,0.6373626373626373,0.4432296047098402,1196.0
618.0,1.7110044797815357e+18,0.46736292428198434,0.4063926940639269,0.3345945945945946,0.4988994864269993,0.6296703296703297,0.4415475189234651,1193.0
619.0,1.7110044797915436e+18,0.46866840731070497,0.3915525114155251,0.312972972972973,0.5006113964294449,0.6241758241758242,0.43566021867115223,1194.0
620.0,1.7110044798015196e+18,0.47780678851174935,0.4429223744292237,0.34702702702702704,0.5018341892883346,0.6186813186813187,0.4381833473507149,1194.0
621.0,1.7110044798115354e+18,0.47127937336814624,0.4178082191780822,0.3308108108108108,0.5084372707263389,0.6274725274725275,0.43902439024390244,1195.0
622.0,1.7110044798215276e+18,0.46736292428198434,0.4063926940639269,0.3410810810810811,0.5037906578625581,0.6197802197802198,0.43902439024390244,1195.0
623.0,1.7110044798315274e+18,0.489556135770235,0.4417808219178082,0.34,0.5023233064318905,0.6373626373626373,0.43986543313709,1194.0
624.0,1.7110044798415414e+18,0.47389033942558745,0.4212328767123288,0.34162162162162163,0.5023233064318905,0.6296703296703297,0.4507989907485282,1195.0
625.0,1.711004479851546e+18,0.47389033942558745,0.4178082191780822,0.32972972972972975,0.4996331621423331,0.6351648351648351,0.4289318755256518,1192.0
626.0,1.7110044798615252e+18,0.47127937336814624,0.3995433789954338,0.3345945945945946,0.5020787478601125,0.6197802197802198,0.4373423044575273,1195.0
627.0,1.7110044798715236e+18,0.48433420365535246,0.4200913242009132,0.3410810810810811,0.5015896307165566,0.6252747252747253,0.43566021867115223,1195.0
628.0,1.7110044798815286e+18,0.47911227154047,0.4098173515981735,0.33513513513513515,0.5008559550012228,0.6241758241758242,0.4415475189234651,1196.0
629.0,1.7110044798915118e+18,0.48433420365535246,0.4132420091324201,0.3286486486486486,0.48520420640743456,0.6186813186813187,0.43902439024390244,1197.0
630.0,1.7110044799015232e+18,0.46475195822454307,0.3915525114155251,0.3362162162162162,0.5025678650036683,0.6241758241758242,0.4415475189234651,1197.0
631.0,1.711004479911526e+18,0.4725848563968668,0.410958904109589,0.33675675675675676,0.5015896307165566,0.6351648351648351,0.4373423044575273,1197.0
632.0,1.7110044799215214e+18,0.47911227154047,0.4246575342465753,0.3427027027027027,0.5013450721447786,0.6175824175824176,0.4306139613120269,1195.0
633.0,1.7110044799315226e+18,0.4765013054830287,0.4063926940639269,0.3254054054054054,0.5015896307165566,0.6450549450549451,0.43650126156433977,1197.0
634.0,1.7110044799415188e+18,0.4751958224543081,0.4235159817351598,0.32756756756756755,0.5011005135730008,0.6131868131868132,0.4449116904962153,1197.0
635.0,1.7110044799515218e+18,0.47127937336814624,0.408675799086758,0.32756756756756755,0.5011005135730008,0.6285714285714286,0.4348191757779647,1198.0
636.0,1.7110044799615176e+18,0.4869451697127937,0.3915525114155251,0.3308108108108108,0.5028124235754463,0.621978021978022,0.4449116904962153,1197.0
637.0,1.7110044799715215e+18,0.4869451697127937,0.4600456621004566,0.3254054054054054,0.4871606749816581,0.6186813186813187,0.43313708999158956,1192.0
638.0,1.7110044799815299e+18,0.46475195822454307,0.3961187214611872,0.3291891891891892,0.5015896307165566,0.610989010989011,0.4415475189234651,1192.0
639.0,1.711004479991525e+18,0.4725848563968668,0.3915525114155251,0.3178378378378378,0.4991440449987772,0.6285714285714286,0.4381833473507149,1196.0
640.0,1.711004480001515e+18,0.47389033942558745,0.4200913242009132,0.34864864864864864,0.5025678650036683,0.6120879120879121,0.4381833473507149,1196.0
641.0,1.711004480011522e+18,0.47127937336814624,0.4121004566210046,0.32756756756756755,0.5003668378576669,0.6241758241758242,0.4381833473507149,1196.0
642.0,1.7110044800215158e+18,0.4804177545691906,0.4269406392694064,0.3643243243243243,0.5015896307165566,0.6230769230769231,0.4440706476030278,1196.0
643.0,1.7110044800315162e+18,0.48172323759791125,0.3961187214611872,0.3232432432432432,0.5023233064318905,0.6329670329670329,0.43902439024390244,1198.0
644.0,1.7110044800415613e+18,0.4830287206266319,0.430365296803653,0.3535135135135135,0.5018341892883346,0.6076923076923076,0.4339781328847771,1193.0
645.0,1.7110044800515185e+18,0.47780678851174935,0.4006849315068493,0.31567567567567567,0.5033015407190022,0.6450549450549451,0.43902439024390244,1196.0
646.0,1.7110044800615227e+18,0.4660574412532637,0.3881278538812785,0.3427027027027027,0.5025678650036683,0.6186813186813187,0.4432296047098402,1195.0
647.0,1.7110044800715215e+18,0.47780678851174935,0.4052511415525114,0.3232432432432432,0.5013450721447786,0.6318681318681318,0.4339781328847771,1193.0
648.0,1.7110044800815212e+18,0.4765013054830287,0.4132420091324201,0.34,0.5015896307165566,0.6241758241758242,0.4482758620689655,1196.0
649.0,1.7110044800915223e+18,0.46866840731070497,0.4075342465753425,0.327027027027027,0.5035460992907801,0.6296703296703297,0.43650126156433977,1196.0
650.0,1.7110044801015176e+18,0.48433420365535246,0.4269406392694064,0.34756756756756757,0.495720224993886,0.6175824175824176,0.43902439024390244,1197.0
651.0,1.711004480111518e+18,0.47911227154047,0.4029680365296804,0.32432432432432434,0.5015896307165566,0.6307692307692307,0.43986543313709,1196.0
652.0,1.7110044801215188e+18,0.4621409921671018,0.4052511415525114,0.33783783783783783,0.5011005135730008,0.6197802197802198,0.4415475189234651,1198.0
653.0,1.71100448013152e+18,0.49216710182767626,0.4497716894977169,0.3302702702702703,0.5008559550012228,0.6296703296703297,0.43566021867115223,1195.0
654.0,1.7110044801415178e+18,0.47389033942558745,0.4132420091324201,0.34540540540540543,0.5008559550012228,0.610989010989011,0.432296047098402,1194.0
655.0,1.7110044801515308e+18,0.4765013054830287,0.4132420091324201,0.3302702702702703,0.5015896307165566,0.6483516483516484,0.4415475189234651,1196.0
656.0,1.7110044801615245e+18,0.4765013054830287,0.4280821917808219,0.34756756756756757,0.5020787478601125,0.6098901098901099,0.43902439024390244,1195.0
657.0,1.7110044801715254e+18,0.46736292428198434,0.4052511415525114,0.32594594594594595,0.5018341892883346,0.634065934065934,0.44070647603027757,1194.0
658.0,1.7110044801815247e+18,0.4960835509138381,0.4452054794520548,0.34864864864864864,0.5018341892883346,0.6318681318681318,0.43902439024390244,1192.0
659.0,1.711004480191526e+18,0.47127937336814624,0.4269406392694064,0.31891891891891894,0.4937637564196625,0.6274725274725275,0.43650126156433977,1198.0
660.0,1.7110044802015263e+18,0.4699738903394256,0.4292237442922374,0.34216216216216216,0.5018341892883346,0.621978021978022,0.43902439024390244,1195.0
661.0,1.7110044802115261e+18,0.4765013054830287,0.4292237442922374,0.3427027027027027,0.5020787478601125,0.6296703296703297,0.43986543313709,1197.0
662.0,1.7110044802215258e+18,0.47127937336814624,0.4121004566210046,0.33837837837837836,0.499877720714111,0.6098901098901099,0.4373423044575273,1197.0
663.0,1.7110044802315264e+18,0.4725848563968668,0.4029680365296804,0.3264864864864865,0.5018341892883346,0.6307692307692307,0.44070647603027757,1196.0
664.0,1.7110044802415286e+18,0.47911227154047,0.3995433789954338,0.34486486486486484,0.5028124235754463,0.6230769230769231,0.4449116904962153,1194.0
665.0,1.7110044802515228e+18,0.46866840731070497,0.4041095890410959,0.3232432432432432,0.5077035950110051,0.6296703296703297,0.43650126156433977,1194.0
666.0,1.7110044802615296e+18,0.48172323759791125,0.4143835616438356,0.34486486486486484,0.504279775006114,0.6406593406593407,0.4449116904962153,1195.0
667.0,1.7110044802715297e+18,0.47389033942558745,0.4052511415525114,0.32054054054054054,0.5023233064318905,0.6362637362637362,0.4415475189234651,1197.0
668.0,1.71100448028153e+18,0.489556135770235,0.4143835616438356,0.3362162162162162,0.5020787478601125,0.621978021978022,0.4449116904962153,1197.0
669.0,1.7110044802915308e+18,0.46736292428198434,0.4098173515981735,0.3248648648648649,0.5015896307165566,0.6318681318681318,0.4373423044575273,1197.0
670.0,1.7110044803015296e+18,0.4725848563968668,0.4052511415525114,0.32756756756756755,0.5015896307165566,0.6197802197802198,0.44238856181665265,1196.0
671.0,1.7110044803115315e+18,0.48433420365535246,0.4155251141552511,0.3497297297297297,0.5023233064318905,0.6362637362637362,0.43902439024390244,1197.0
672.0,1.711004480321532e+18,0.4608355091383812,0.384703196347032,0.33297297297297296,0.5015896307165566,0.6131868131868132,0.44238856181665265,1197.0
673.0,1.711004480331532e+18,0.47911227154047,0.4132420091324201,0.32216216216216215,0.5015896307165566,0.6362637362637362,0.4449116904962153,1195.0
674.0,1.711004480341562e+18,0.47127937336814624,0.4337899543378995,0.3491891891891892,0.504524333577892,0.6197802197802198,0.4432296047098402,1196.0
675.0,1.7110044803515323e+18,0.4725848563968668,0.3984018264840183,0.32756756756756755,0.5006113964294449,0.6274725274725275,0.4415475189234651,1196.0
676.0,1.7110044803615327e+18,0.49216710182767626,0.454337899543379,0.34162162162162163,0.5008559550012228,0.6164835164835165,0.43566021867115223,1196.0
677.0,1.7110044803715346e+18,0.4621409921671018,0.4132420091324201,0.3308108108108108,0.5008559550012228,0.6307692307692307,0.43650126156433977,1196.0
678.0,1.7110044803815337e+18,0.4725848563968668,0.410958904109589,0.3362162162162162,0.5001222792858889,0.6043956043956044,0.43986543313709,1195.0
679.0,1.7110044803915346e+18,0.4830287206266319,0.4189497716894977,0.3210810810810811,0.504524333577892,0.6362637362637362,0.4432296047098402,1193.0
680.0,1.711004480401516e+18,0.4660574412532637,0.4063926940639269,0.33513513513513515,0.5030569821472243,0.6131868131868132,0.4432296047098402,1196.0
681.0,1.7110044804115164e+18,0.4869451697127937,0.4189497716894977,0.3264864864864865,0.5025678650036683,0.6362637362637362,0.447434819175778,1196.0
682.0,1.7110044804215176e+18,0.46344647519582244,0.4200913242009132,0.3427027027027027,0.5018341892883346,0.6142857142857143,0.4415475189234651,1195.0
683.0,1.7110044804315174e+18,0.48172323759791125,0.3881278538812785,0.3372972972972973,0.5015896307165566,0.6274725274725275,0.44070647603027757,1195.0
684.0,1.7110044804415188e+18,0.46736292428198434,0.4006849315068493,0.33837837837837836,0.5018341892883346,0.6153846153846154,0.4381833473507149,1194.0
685.0,1.7110044804515162e+18,0.47389033942558745,0.4063926940639269,0.32,0.5006113964294449,0.6263736263736264,0.4289318755256518,1193.0
686.0,1.7110044804615378e+18,0.47389033942558745,0.3961187214611872,0.3362162162162162,0.5001222792858889,0.6142857142857143,0.44575273338940286,1197.0
687.0,1.7110044804715213e+18,0.4765013054830287,0.408675799086758,0.32756756756756755,0.4988994864269993,0.634065934065934,0.4432296047098402,1194.0
688.0,1.711004480481521e+18,0.47127937336814624,0.4018264840182648,0.3264864864864865,0.5015896307165566,0.6098901098901099,0.43650126156433977,1196.0
689.0,1.711004480491539e+18,0.4725848563968668,0.4223744292237443,0.3254054054054054,0.5023233064318905,0.6472527472527473,0.43313708999158956,1193.0
690.0,1.7110044805015063e+18,0.47780678851174935,0.4360730593607306,0.3481081081081081,0.5025678650036683,0.6230769230769231,0.4449116904962153,1194.0
691.0,1.71100448051152e+18,0.47780678851174935,0.45662100456621,0.3335135135135135,0.5025678650036683,0.6395604395604395,0.43902439024390244,1193.0
692.0,1.7110044805215204e+18,0.4765013054830287,0.4155251141552511,0.35567567567567565,0.5008559550012228,0.6098901098901099,0.4449116904962153,1193.0
693.0,1.7110044805315205e+18,0.46344647519582244,0.3904109589041096,0.3237837837837838,0.5037906578625581,0.6285714285714286,0.43650126156433977,1194.0
694.0,1.7110044805415176e+18,0.4830287206266319,0.4360730593607306,0.35243243243243244,0.5028124235754463,0.6186813186813187,0.4381833473507149,1197.0
695.0,1.7110044805515218e+18,0.4765013054830287,0.4132420091324201,0.3254054054054054,0.5018341892883346,0.6406593406593407,0.4449116904962153,1196.0
696.0,1.7110044805615212e+18,0.48172323759791125,0.408675799086758,0.3389189189189189,0.4996331621423331,0.6087912087912087,0.4415475189234651,1196.0
697.0,1.711004480571521e+18,0.47127937336814624,0.3961187214611872,0.3254054054054054,0.5001222792858889,0.6274725274725275,0.4381833473507149,1196.0
698.0,1.711004480581522e+18,0.46736292428198434,0.4052511415525114,0.33675675675675676,0.5052580092932257,0.6186813186813187,0.43902439024390244,1195.0
699.0,1.7110044805915292e+18,0.4830287206266319,0.4315068493150685,0.3232432432432432,0.5030569821472243,0.6329670329670329,0.4373423044575273,1196.0
700.0,1.711004480601524e+18,0.47780678851174935,0.4132420091324201,0.33945945945945943,0.5008559550012228,0.6120879120879121,0.4415475189234651,1196.0
701.0,1.711004480611522e+18,0.48172323759791125,0.4098173515981735,0.32432432432432434,0.5015896307165566,0.6296703296703297,0.43650126156433977,1195.0
702.0,1.7110044806215227e+18,0.49869451697127937,0.4611872146118721,0.36324324324324325,0.4988994864269993,0.6164835164835165,0.4381833473507149,1197.0
703.0,1.7110044806315223e+18,0.4765013054830287,0.4121004566210046,0.32594594594594595,0.5025678650036683,0.6318681318681318,0.44238856181665265,1195.0
704.0,1.711004480641522e+18,0.48172323759791125,0.4223744292237443,0.3389189189189189,0.5035460992907801,0.6197802197802198,0.4465937762825904,1196.0
705.0,1.711004480651509e+18,0.489556135770235,0.408675799086758,0.3362162162162162,0.4971875764245537,0.6241758241758242,0.44238856181665265,1197.0
706.0,1.7110044806615235e+18,0.47389033942558745,0.4075342465753425,0.33405405405405403,0.5008559550012228,0.6153846153846154,0.4415475189234651,1196.0
707.0,1.7110044806715182e+18,0.46866840731070497,0.4098173515981735,0.33297297297297296,0.5015896307165566,0.6373626373626373,0.43902439024390244,1197.0
708.0,1.7110044806815265e+18,0.47389033942558745,0.4098173515981735,0.3481081081081081,0.5018341892883346,0.6120879120879121,0.4415475189234651,1196.0
709.0,1.7110044806915246e+18,0.47127937336814624,0.4280821917808219,0.33405405405405403,0.5018341892883346,0.6362637362637362,0.4348191757779647,1196.0
710.0,1.7110044807015212e+18,0.4765013054830287,0.4212328767123288,0.3335135135135135,0.5018341892883346,0.6384615384615384,0.4465937762825904,1195.0
711.0,1.71100448071152e+18,0.47389033942558745,0.4189497716894977,0.3254054054054054,0.5035460992907801,0.6263736263736264,0.43313708999158956,1193.0
712.0,1.7110044807215188e+18,0.47127937336814624,0.4041095890410959,0.3372972972972973,0.5020787478601125,0.6175824175824176,0.4415475189234651,1196.0
713.0,1.7110044807315343e+18,0.4934725848563969,0.4440639269406393,0.35027027027027025,0.5018341892883346,0.6285714285714286,0.44238856181665265,1196.0
714.0,1.711004480741526e+18,0.4908616187989556,0.4235159817351598,0.34756756756756757,0.5018341892883346,0.6186813186813187,0.4415475189234651,1197.0
715.0,1.7110044807515261e+18,0.47127937336814624,0.4121004566210046,0.3227027027027027,0.5011005135730008,0.621978021978022,0.4339781328847771,1195.0
716.0,1.7110044807615127e+18,0.47780678851174935,0.408675799086758,0.33783783783783783,0.5037906578625581,0.6274725274725275,0.4449116904962153,1195.0
717.0,1.7110044807714988e+18,0.4725848563968668,0.4292237442922374,0.32972972972972975,0.5035460992907801,0.6362637362637362,0.4440706476030278,1196.0
718.0,1.711004480781531e+18,0.47127937336814624,0.3835616438356164,0.3372972972972973,0.4969430178527757,0.6241758241758242,0.4415475189234651,1193.0
719.0,1.711004480791515e+18,0.489556135770235,0.432648401826484,0.3254054054054054,0.5020787478601125,0.6252747252747253,0.4339781328847771,1194.0
720.0,1.7110044808015252e+18,0.47911227154047,0.410958904109589,0.34216216216216216,0.5006113964294449,0.6120879120879121,0.4415475189234651,1194.0
721.0,1.7110044808115154e+18,0.4765013054830287,0.4052511415525114,0.31891891891891894,0.5011005135730008,0.6351648351648351,0.4381833473507149,1196.0
722.0,1.711004480821516e+18,0.48433420365535246,0.4280821917808219,0.34054054054054056,0.5025678650036683,0.6274725274725275,0.4507989907485282,1196.0
723.0,1.7110044808315192e+18,0.47780678851174935,0.4098173515981735,0.327027027027027,0.4969430178527757,0.6274725274725275,0.44575273338940286,1195.0
724.0,1.7110044808415409e+18,0.4765013054830287,0.4098173515981735,0.33945945945945943,0.5018341892883346,0.6164835164835165,0.4415475189234651,1195.0
725.0,1.7110044808528166e+18,0.47780678851174935,0.4223744292237443,0.3410810810810811,0.4996331621423331,0.6285714285714286,0.43902439024390244,1194.0
726.0,1.7110044808615347e+18,0.4869451697127937,0.4691780821917808,0.36,0.5015896307165566,0.6197802197802198,0.44070647603027757,1194.0
727.0,1.7110044808715346e+18,0.46736292428198434,0.4098173515981735,0.3232432432432432,0.5015896307165566,0.6318681318681318,0.44238856181665265,1197.0
728.0,1.711004480881531e+18,0.4699738903394256,0.4063926940639269,0.3345945945945946,0.5015896307165566,0.610989010989011,0.43986543313709,1195.0
729.0,1.7110044808915484e+18,0.47911227154047,0.4121004566210046,0.3145945945945946,0.5030569821472243,0.6384615384615384,0.44238856181665265,1195.0
730.0,1.711004480901536e+18,0.4725848563968668,0.3938356164383562,0.33837837837837836,0.5025678650036683,0.6230769230769231,0.4449116904962153,1193.0
731.0,1.711004480911533e+18,0.4725848563968668,0.4143835616438356,0.3286486486486486,0.512594766446564,0.6428571428571429,0.43566021867115223,1196.0
732.0,1.7110044809215299e+18,0.47389033942558745,0.4029680365296804,0.3410810810810811,0.5030569821472243,0.6131868131868132,0.44238856181665265,1195.0
733.0,1.7110044809315297e+18,0.47389033942558745,0.4098173515981735,0.3210810810810811,0.5003668378576669,0.6164835164835165,0.4373423044575273,1195.0
734.0,1.711004480941533e+18,0.47911227154047,0.4143835616438356,0.33675675675675676,0.5025678650036683,0.6043956043956044,0.43650126156433977,1195.0
735.0,1.71100448095156e+18,0.47911227154047,0.408675799086758,0.32,0.5001222792858889,0.6285714285714286,0.4381833473507149,1195.0
736.0,1.7110044809615365e+18,0.47911227154047,0.4269406392694064,0.34864864864864864,0.4974321349963316,0.6175824175824176,0.44238856181665265,1197.0
737.0,1.71100448097153e+18,0.47780678851174935,0.4178082191780822,0.3302702702702703,0.5052580092932257,0.6351648351648351,0.43566021867115223,1197.0
738.0,1.7110044809815304e+18,0.4765013054830287,0.4223744292237443,0.3572972972972973,0.5030569821472243,0.621978021978022,0.43902439024390244,1194.0
739.0,1.7110044809915697e+18,0.4725848563968668,0.4200913242009132,0.33297297297297296,0.5006113964294449,0.6241758241758242,0.4381833473507149,1196.0
740.0,1.7110044810015322e+18,0.47780678851174935,0.4372146118721461,0.3491891891891892,0.5018341892883346,0.5989010989010989,0.4381833473507149,1195.0
741.0,1.711004481011535e+18,0.48172323759791125,0.4600456621004566,0.33135135135135135,0.5018341892883346,0.6230769230769231,0.4381833473507149,1196.0
742.0,1.7110044810215324e+18,0.4869451697127937,0.4394977168949772,0.3410810810810811,0.5028124235754463,0.6164835164835165,0.4415475189234651,1195.0
743.0,1.7110044810315302e+18,0.4765013054830287,0.410958904109589,0.33297297297297296,0.5072144778674492,0.6362637362637362,0.44238856181665265,1194.0
744.0,1.7110044810415355e+18,0.4856396866840731,0.4143835616438356,0.3308108108108108,0.5008559550012228,0.6142857142857143,0.44238856181665265,1195.0
745.0,1.7110044810515338e+18,0.4804177545691906,0.4200913242009132,0.32756756756756755,0.5015896307165566,0.6395604395604395,0.4373423044575273,1196.0
746.0,1.7110044810615314e+18,0.4765013054830287,0.4063926940639269,0.33675675675675676,0.5020787478601125,0.6230769230769231,0.4449116904962153,1193.0
747.0,1.7110044810715318e+18,0.47127937336814624,0.4178082191780822,0.3227027027027027,0.4979212521398875,0.6285714285714286,0.432296047098402,1192.0
748.0,1.711004481081532e+18,0.4765013054830287,0.3972602739726027,0.34486486486486484,0.5059916850085595,0.6054945054945055,0.43902439024390244,1197.0
749.0,1.711004481091528e+18,0.48172323759791125,0.4360730593607306,0.3254054054054054,0.5015896307165566,0.6384615384615384,0.44238856181665265,1197.0
750.0,1.7110044811015153e+18,0.4699738903394256,0.3972602739726027,0.3372972972972973,0.5015896307165566,0.6175824175824176,0.447434819175778,1197.0
751.0,1.711004481111512e+18,0.47911227154047,0.4223744292237443,0.3308108108108108,0.5020787478601125,0.6274725274725275,0.43902439024390244,1194.0
752.0,1.7110044811215155e+18,0.4765013054830287,0.4178082191780822,0.3427027027027027,0.5020787478601125,0.6197802197802198,0.4432296047098402,1195.0
753.0,1.7110044811315203e+18,0.47780678851174935,0.4200913242009132,0.3281081081081081,0.5006113964294449,0.6296703296703297,0.44070647603027757,1196.0
754.0,1.711004481141526e+18,0.48433420365535246,0.4075342465753425,0.34,0.5001222792858889,0.6098901098901099,0.43902439024390244,1195.0
755.0,1.7110044811515308e+18,0.4765013054830287,0.4440639269406393,0.34540540540540543,0.4991440449987772,0.643956043956044,0.4381833473507149,1195.0
756.0,1.7110044811615288e+18,0.4725848563968668,0.410958904109589,0.34,0.5059916850085595,0.6241758241758242,0.4432296047098402,1197.0
757.0,1.7110044811715205e+18,0.47389033942558745,0.4029680365296804,0.3172972972972973,0.5030569821472243,0.6373626373626373,0.4381833473507149,1196.0
758.0,1.7110044811815201e+18,0.46475195822454307,0.3824200913242009,0.3389189189189189,0.5018341892883346,0.634065934065934,0.432296047098402,1193.0
759.0,1.7110044811915264e+18,0.47911227154047,0.4098173515981735,0.3237837837837838,0.5013450721447786,0.6384615384615384,0.43986543313709,1196.0
760.0,1.7110044812015176e+18,0.47911227154047,0.4143835616438356,0.34486486486486484,0.5011005135730008,0.6164835164835165,0.43986543313709,1196.0
761.0,1.7110044812115162e+18,0.47127937336814624,0.4178082191780822,0.3232432432432432,0.5001222792858889,0.6252747252747253,0.4306139613120269,1193.0
762.0,1.7110044812215163e+18,0.4804177545691906,0.4497716894977169,0.3637837837837838,0.49033993641477136,0.6098901098901099,0.44070647603027757,1195.0
763.0,1.7110044812315213e+18,0.4765013054830287,0.4063926940639269,0.3227027027027027,0.5011005135730008,0.6417582417582418,0.4381833473507149,1197.0
764.0,1.711004481241519e+18,0.4660574412532637,0.4269406392694064,0.34486486486486484,0.5003668378576669,0.6076923076923076,0.4381833473507149,1196.0
765.0,1.7110044812515123e+18,0.47389033942558745,0.4075342465753425,0.3108108108108108,0.5006113964294449,0.6307692307692307,0.43313708999158956,1191.0
766.0,1.711004481261522e+18,0.4725848563968668,0.4018264840182648,0.33837837837837836,0.5015896307165566,0.6164835164835165,0.4440706476030278,1196.0
767.0,1.7110044812715238e+18,0.47780678851174935,0.4155251141552511,0.33297297297297296,0.5025678650036683,0.6384615384615384,0.43902439024390244,1196.0
768.0,1.7110044812815227e+18,0.4765013054830287,0.4155251141552511,0.34378378378378377,0.5018341892883346,0.6197802197802198,0.4432296047098402,1197.0
769.0,1.711004481291524e+18,0.47911227154047,0.4132420091324201,0.32594594594594595,0.5074590364392272,0.6406593406593407,0.43902439024390244,1198.0
770.0,1.7110044813015273e+18,0.49869451697127937,0.410958904109589,0.34378378378378377,0.504279775006114,0.6406593406593407,0.44575273338940286,1196.0
771.0,1.711004481311527e+18,0.4765013054830287,0.4063926940639269,0.3237837837837838,0.5008559550012228,0.6329670329670329,0.432296047098402,1195.0
772.0,1.7110044813215245e+18,0.47911227154047,0.4132420091324201,0.34054054054054056,0.5028124235754463,0.6208791208791209,0.43986543313709,1197.0
773.0,1.711004481331534e+18,0.48433420365535246,0.4292237442922374,0.3389189189189189,0.5023233064318905,0.6329670329670329,0.432296047098402,1192.0
774.0,1.711004481341526e+18,0.4830287206266319,0.4589041095890411,0.34540540540540543,0.5018341892883346,0.6208791208791209,0.44238856181665265,1195.0
775.0,1.711004481351519e+18,0.4830287206266319,0.4063926940639269,0.3216216216216216,0.5037906578625581,0.6285714285714286,0.43902439024390244,1197.0
776.0,1.7110044813615235e+18,0.47127937336814624,0.4429223744292237,0.34594594594594597,0.5033015407190022,0.6065934065934065,0.4415475189234651,1198.0
777.0,1.7110044813715246e+18,0.4765013054830287,0.410958904109589,0.3286486486486486,0.5025678650036683,0.6362637362637362,0.43650126156433977,1195.0
778.0,1.7110044813815273e+18,0.4765013054830287,0.4143835616438356,0.34540540540540543,0.5028124235754463,0.621978021978022,0.43902439024390244,1193.0
779.0,1.7110044813915254e+18,0.48172323759791125,0.4052511415525114,0.3291891891891892,0.5035460992907801,0.6373626373626373,0.44238856181665265,1196.0
780.0,1.711004481401514e+18,0.46736292428198434,0.4075342465753425,0.33405405405405403,0.5001222792858889,0.6065934065934065,0.4373423044575273,1194.0
781.0,1.7110044814115254e+18,0.4751958224543081,0.4246575342465753,0.33675675675675676,0.499877720714111,0.6362637362637362,0.4373423044575273,1196.0
782.0,1.7110044814215224e+18,0.47780678851174935,0.4223744292237443,0.3518918918918919,0.504524333577892,0.6186813186813187,0.44070647603027757,1195.0
783.0,1.7110044814315246e+18,0.47127937336814624,0.4132420091324201,0.3362162162162162,0.5008559550012228,0.6329670329670329,0.4381833473507149,1196.0
784.0,1.711004481441529e+18,0.47911227154047,0.4497716894977169,0.37405405405405406,0.5020787478601125,0.6175824175824176,0.44238856181665265,1195.0
785.0,1.7110044814515233e+18,0.4725848563968668,0.408675799086758,0.31891891891891894,0.49767669356810956,0.6065934065934065,0.432296047098402,1194.0
786.0,1.7110044814615276e+18,0.4830287206266319,0.4223744292237443,0.34486486486486484,0.5025678650036683,0.6197802197802198,0.4432296047098402,1196.0
787.0,1.711004481471528e+18,0.4765013054830287,0.4200913242009132,0.33675675675675676,0.504035216434336,0.6318681318681318,0.43566021867115223,1196.0
788.0,1.7110044814815276e+18,0.489556135770235,0.4235159817351598,0.3372972972972973,0.5062362435803375,0.6153846153846154,0.43902439024390244,1197.0
789.0,1.7110044814915382e+18,0.48172323759791125,0.4474885844748858,0.33405405405405403,0.5018341892883346,0.634065934065934,0.4415475189234651,1197.0
790.0,1.711004481501532e+18,0.4660574412532637,0.4063926940639269,0.33513513513513515,0.5018341892883346,0.6175824175824176,0.4415475189234651,1193.0
791.0,1.71100448151153e+18,0.4765013054830287,0.4383561643835616,0.33135135135135135,0.5011005135730008,0.6351648351648351,0.4381833473507149,1196.0
792.0,1.7110044815215273e+18,0.47127937336814624,0.4178082191780822,0.34378378378378377,0.499877720714111,0.6274725274725275,0.43902439024390244,1197.0
793.0,1.71100448153153e+18,0.4765013054830287,0.4372146118721461,0.327027027027027,0.5057471264367817,0.6351648351648351,0.4381833473507149,1199.0
794.0,1.7110044815415293e+18,0.47127937336814624,0.4132420091324201,0.34216216216216216,0.504035216434336,0.6142857142857143,0.4381833473507149,1195.0
795.0,1.7110044815519278e+18,0.47780678851174935,0.4121004566210046,0.327027027027027,0.5011005135730008,0.6285714285714286,0.43650126156433977,1197.0
796.0,1.7110044815618465e+18,0.4765013054830287,0.410958904109589,0.3621621621621622,0.5020787478601125,0.6175824175824176,0.4449116904962153,1195.0
797.0,1.7110044815715328e+18,0.47911227154047,0.4098173515981735,0.33297297297297296,0.504279775006114,0.6274725274725275,0.43566021867115223,1193.0
798.0,1.7110044815815311e+18,0.4765013054830287,0.4360730593607306,0.352972972972973,0.5008559550012228,0.6087912087912087,0.4373423044575273,1194.0
799.0,1.711004481591532e+18,0.4869451697127937,0.4178082191780822,0.3281081081081081,0.5008559550012228,0.6329670329670329,0.4348191757779647,1196.0
800.0,1.7110044816015352e+18,0.4699738903394256,0.4052511415525114,0.33945945945945943,0.499877720714111,0.6230769230769231,0.4415475189234651,1195.0
801.0,1.7110044816115292e+18,0.47780678851174935,0.4269406392694064,0.32972972972972975,0.5028124235754463,0.6329670329670329,0.43650126156433977,1194.0
802.0,1.71100448162153e+18,0.47127937336814624,0.4178082191780822,0.3372972972972973,0.5028124235754463,0.610989010989011,0.43650126156433977,1196.0
803.0,1.7110044816315167e+18,0.4725848563968668,0.3789954337899543,0.31135135135135134,0.4988994864269993,0.6318681318681318,0.43650126156433977,1196.0
804.0,1.7110044816415332e+18,0.48172323759791125,0.4029680365296804,0.33837837837837836,0.5025678650036683,0.6186813186813187,0.44070647603027757,1195.0
805.0,1.7110044816515136e+18,0.4699738903394256,0.4235159817351598,0.33135135135135135,0.5006113964294449,0.6373626373626373,0.43986543313709,1195.0
806.0,1.711004481661514e+18,0.47780678851174935,0.4235159817351598,0.3491891891891892,0.495964783565664,0.6197802197802198,0.44238856181665265,1194.0
807.0,1.711004481671523e+18,0.47127937336814624,0.3949771689497717,0.31567567567567567,0.499877720714111,0.6230769230769231,0.4415475189234651,1196.0
808.0,1.7110044816815245e+18,0.4804177545691906,0.4132420091324201,0.33135135135135135,0.504524333577892,0.6384615384615384,0.44238856181665265,1195.0
809.0,1.7110044816915208e+18,0.4699738903394256,0.3995433789954338,0.33405405405405403,0.499877720714111,0.6285714285714286,0.44575273338940286,1196.0
810.0,1.7110044817015503e+18,0.47127937336814624,0.4360730593607306,0.3518918918918919,0.5001222792858889,0.6120879120879121,0.4373423044575273,1194.0
811.0,1.7110044817115515e+18,0.4934725848563969,0.430365296803653,0.3308108108108108,0.5052580092932257,0.6318681318681318,0.43902439024390244,1194.0
812.0,1.7110044817215214e+18,0.47780678851174935,0.4132420091324201,0.3362162162162162,0.5084372707263389,0.6241758241758242,0.43902439024390244,1196.0
813.0,1.711004481731525e+18,0.47127937336814624,0.4121004566210046,0.3232432432432432,0.5015896307165566,0.634065934065934,0.4339781328847771,1195.0
814.0,1.711004481741523e+18,0.47127937336814624,0.408675799086758,0.33513513513513515,0.5015896307165566,0.6010989010989011,0.4289318755256518,1193.0
815.0,1.711004481751521e+18,0.48172323759791125,0.4223744292237443,0.33405405405405403,0.5006113964294449,0.6373626373626373,0.4415475189234651,1196.0
816.0,1.7110044817615199e+18,0.4660574412532637,0.4132420091324201,0.3410810810810811,0.5018341892883346,0.6274725274725275,0.4339781328847771,1196.0
817.0,1.7110044817715085e+18,0.47911227154047,0.4155251141552511,0.33297297297297296,0.5023233064318905,0.6329670329670329,0.4432296047098402,1196.0
818.0,1.7110044817815217e+18,0.4725848563968668,0.4132420091324201,0.34054054054054056,0.49938860357055515,0.6098901098901099,0.4465937762825904,1193.0
819.0,1.7110044817915249e+18,0.48172323759791125,0.4189497716894977,0.33135135135135135,0.5035460992907801,0.6384615384615384,0.4415475189234651,1195.0
820.0,1.7110044818015276e+18,0.48172323759791125,0.4200913242009132,0.3518918918918919,0.5001222792858889,0.6153846153846154,0.44238856181665265,1198.0
821.0,1.7110044818115205e+18,0.48825065274151436,0.4121004566210046,0.32756756756756755,0.5020787478601125,0.6285714285714286,0.4348191757779647,1196.0
822.0,1.7110044818215204e+18,0.47127937336814624,0.4121004566210046,0.33837837837837836,0.4988994864269993,0.6197802197802198,0.4465937762825904,1197.0
823.0,1.7110044818315238e+18,0.48172323759791125,0.4646118721461187,0.33513513513513515,0.5025678650036683,0.634065934065934,0.44070647603027757,1195.0
824.0,1.7110044818415296e+18,0.46866840731070497,0.3961187214611872,0.33297297297297296,0.49523110785033014,0.6175824175824176,0.43566021867115223,1196.0
825.0,1.711004481851528e+18,0.47780678851174935,0.4223744292237443,0.33405405405405403,0.5028124235754463,0.6461538461538462,0.43650126156433977,1196.0
826.0,1.7110044818615153e+18,0.47780678851174935,0.4360730593607306,0.36108108108108106,0.504524333577892,0.6208791208791209,0.4415475189234651,1196.0
827.0,1.711004481871523e+18,0.4830287206266319,0.4132420091324201,0.33135135135135135,0.5001222792858889,0.6263736263736264,0.43313708999158956,1192.0
828.0,1.7110044818815188e+18,0.4804177545691906,0.4292237442922374,0.33783783783783783,0.5028124235754463,0.6208791208791209,0.43902439024390244,1197.0
829.0,1.7110044818915246e+18,0.46736292428198434,0.3949771689497717,0.3237837837837838,0.5025678650036683,0.6307692307692307,0.43902439024390244,1200.0
830.0,1.7110044819015332e+18,0.4765013054830287,0.4235159817351598,0.36864864864864866,0.5035460992907801,0.6230769230769231,0.43902439024390244,1196.0
831.0,1.711004481911525e+18,0.4765013054830287,0.4098173515981735,0.32756756756756755,0.5028124235754463,0.6472527472527473,0.43313708999158956,1194.0
832.0,1.7110044819215206e+18,0.4765013054830287,0.4554794520547945,0.34594594594594597,0.5020787478601125,0.6076923076923076,0.42977291841883936,1193.0
833.0,1.7110044819315187e+18,0.47389033942558745,0.4143835616438356,0.3308108108108108,0.5023233064318905,0.6362637362637362,0.4381833473507149,1196.0
834.0,1.7110044819415214e+18,0.4725848563968668,0.4200913242009132,0.34324324324324323,0.5011005135730008,0.6131868131868132,0.43566021867115223,1195.0
835.0,1.7110044819515282e+18,0.4804177545691906,0.430365296803653,0.33675675675675676,0.5025678650036683,0.6175824175824176,0.4415475189234651,1195.0
836.0,1.7110044819615245e+18,0.48172323759791125,0.4143835616438356,0.34162162162162163,0.5023233064318905,0.6120879120879121,0.4415475189234651,1196.0
837.0,1.7110044819715223e+18,0.48825065274151436,0.4132420091324201,0.3210810810810811,0.5015896307165566,0.6252747252747253,0.4415475189234651,1195.0
838.0,1.7110044819815214e+18,0.47780678851174935,0.4531963470319635,0.3583783783783784,0.5030569821472243,0.6274725274725275,0.4465937762825904,1194.0
839.0,1.7110044819915226e+18,0.47389033942558745,0.4178082191780822,0.3372972972972973,0.5047688921496698,0.6373626373626373,0.4415475189234651,1197.0
840.0,1.711004482001532e+18,0.47127937336814624,0.3904109589041096,0.3291891891891892,0.504279775006114,0.6208791208791209,0.44238856181665265,1196.0
841.0,1.7110044820115267e+18,0.4830287206266319,0.4052511415525114,0.3286486486486486,0.5055025678650037,0.6329670329670329,0.42977291841883936,1192.0
842.0,1.711004482021515e+18,0.47127937336814624,0.4132420091324201,0.33945945945945943,0.504035216434336,0.621978021978022,0.447434819175778,1196.0
843.0,1.7110044820315182e+18,0.47911227154047,0.4315068493150685,0.3362162162162162,0.5028124235754463,0.6274725274725275,0.43902439024390244,1196.0
844.0,1.7110044820415145e+18,0.4725848563968668,0.4006849315068493,0.33297297297297296,0.5030569821472243,0.6186813186813187,0.43986543313709,1197.0
845.0,1.711004482051519e+18,0.4830287206266319,0.4189497716894977,0.327027027027027,0.5020787478601125,0.6296703296703297,0.4339781328847771,1193.0
846.0,1.711004482061527e+18,0.47780678851174935,0.4486301369863014,0.3545945945945946,0.5006113964294449,0.6164835164835165,0.43902439024390244,1197.0
847.0,1.7110044820715226e+18,0.4830287206266319,0.4052511415525114,0.33405405405405403,0.5037906578625581,0.6362637362637362,0.4373423044575273,1195.0
848.0,1.7110044820815224e+18,0.4830287206266319,0.3915525114155251,0.3302702702702703,0.5074590364392272,0.6186813186813187,0.44238856181665265,1197.0
849.0,1.7110044820915553e+18,0.48825065274151436,0.4041095890410959,0.32756756756756755,0.5030569821472243,0.6406593406593407,0.43566021867115223,1194.0
850.0,1.7110044821015265e+18,0.4765013054830287,0.4098173515981735,0.3356756756756757,0.5015896307165566,0.6230769230769231,0.44575273338940286,1195.0
851.0,1.711004482111524e+18,0.4621409921671018,0.3641552511415525,0.31675675675675674,0.4988994864269993,0.6384615384615384,0.44238856181665265,1196.0
852.0,1.7110044821215214e+18,0.46866840731070497,0.4006849315068493,0.3308108108108108,0.49523110785033014,0.6142857142857143,0.43986543313709,1195.0
853.0,1.7110044821315203e+18,0.4869451697127937,0.4063926940639269,0.3124324324324324,0.5047688921496698,0.6373626373626373,0.43986543313709,1196.0
854.0,1.711004482141527e+18,0.4725848563968668,0.4383561643835616,0.35027027027027025,0.5023233064318905,0.6252747252747253,0.4449116904962153,1197.0
855.0,1.711004482151514e+18,0.4869451697127937,0.4155251141552511,0.3248648648648649,0.5008559550012228,0.6329670329670329,0.43566021867115223,1196.0
856.0,1.7110044821615258e+18,0.4765013054830287,0.4269406392694064,0.34378378378378377,0.5030569821472243,0.6208791208791209,0.43566021867115223,1196.0
857.0,1.711004482171527e+18,0.48433420365535246,0.4337899543378995,0.3464864864864865,0.5035460992907801,0.6417582417582418,0.4381833473507149,1196.0
858.0,1.7110044821815242e+18,0.46344647519582244,0.3904109589041096,0.3302702702702703,0.5028124235754463,0.6208791208791209,0.4449116904962153,1195.0
859.0,1.7110044821915244e+18,0.47127937336814624,0.4178082191780822,0.34324324324324323,0.5023233064318905,0.6450549450549451,0.43313708999158956,1195.0
860.0,1.7110044822015322e+18,0.46736292428198434,0.4189497716894977,0.3427027027027027,0.5020787478601125,0.6164835164835165,0.43986543313709,1195.0
861.0,1.711004482211526e+18,0.47389033942558745,0.4223744292237443,0.3427027027027027,0.5035460992907801,0.6318681318681318,0.43986543313709,1197.0
862.0,1.7110044822215214e+18,0.46475195822454307,0.386986301369863,0.3362162162162162,0.5011005135730008,0.6197802197802198,0.4432296047098402,1195.0
863.0,1.7110044822315185e+18,0.47780678851174935,0.410958904109589,0.32756756756756755,0.5006113964294449,0.6307692307692307,0.43650126156433977,1196.0
864.0,1.7110044822415214e+18,0.49216710182767626,0.4360730593607306,0.34054054054054056,0.5023233064318905,0.6175824175824176,0.43902439024390244,1196.0
865.0,1.7110044822515218e+18,0.4660574412532637,0.4052511415525114,0.3232432432432432,0.5020787478601125,0.6329670329670329,0.4314550042052145,1193.0
866.0,1.7110044822615242e+18,0.46736292428198434,0.3926940639269406,0.34486486486486484,0.499877720714111,0.6120879120879121,0.4449116904962153,1195.0
867.0,1.71100448227152e+18,0.4869451697127937,0.432648401826484,0.34540540540540543,0.5018341892883346,0.6241758241758242,0.4381833473507149,1195.0
868.0,1.711004482281519e+18,0.47127937336814624,0.4269406392694064,0.3372972972972973,0.5008559550012228,0.6175824175824176,0.4440706476030278,1195.0
869.0,1.7110044822915302e+18,0.47127937336814624,0.4235159817351598,0.32756756756756755,0.4996331621423331,0.6318681318681318,0.4314550042052145,1195.0
870.0,1.7110044823015132e+18,0.4725848563968668,0.410958904109589,0.35405405405405405,0.5028124235754463,0.6186813186813187,0.44238856181665265,1196.0
871.0,1.7110044823115274e+18,0.4725848563968668,0.4063926940639269,0.33837837837837836,0.5011005135730008,0.6274725274725275,0.43566021867115223,1196.0
872.0,1.7110044823215252e+18,0.47127937336814624,0.3972602739726027,0.34486486486486484,0.5015896307165566,0.6098901098901099,0.44238856181665265,1197.0
873.0,1.7110044823315213e+18,0.489556135770235,0.3732876712328767,0.31891891891891894,0.504524333577892,0.6384615384615384,0.43566021867115223,1195.0
874.0,1.7110044823415135e+18,0.4804177545691906,0.4041095890410959,0.35243243243243244,0.5037906578625581,0.6208791208791209,0.447434819175778,1196.0
875.0,1.7110044823514895e+18,0.47780678851174935,0.408675799086758,0.3264864864864865,0.5020787478601125,0.6406593406593407,0.4465937762825904,1196.0
876.0,1.7110044823615214e+18,0.47389033942558745,0.4383561643835616,0.34486486486486484,0.5015896307165566,0.6285714285714286,0.43566021867115223,1193.0
877.0,1.7110044823715228e+18,0.46866840731070497,0.3972602739726027,0.3216216216216216,0.5008559550012228,0.6329670329670329,0.4373423044575273,1196.0
878.0,1.7110044823815176e+18,0.47780678851174935,0.3949771689497717,0.3410810810810811,0.5015896307165566,0.6131868131868132,0.4381833473507149,1194.0
879.0,1.7110044823915246e+18,0.4830287206266319,0.4029680365296804,0.32054054054054054,0.5035460992907801,0.6285714285714286,0.44238856181665265,1195.0
880.0,1.711004482401528e+18,0.47780678851174935,0.4132420091324201,0.3427027027027027,0.5067253607238934,0.6186813186813187,0.43902439024390244,1195.0
881.0,1.7110044824115215e+18,0.4765013054830287,0.4132420091324201,0.33297297297297296,0.5003668378576669,0.6274725274725275,0.4415475189234651,1195.0
882.0,1.71100448242152e+18,0.4765013054830287,0.4075342465753425,0.3372972972972973,0.5037906578625581,0.6164835164835165,0.4449116904962153,1196.0
883.0,1.7110044824315192e+18,0.4765013054830287,0.4075342465753425,0.32432432432432434,0.5015896307165566,0.6296703296703297,0.43902439024390244,1196.0
884.0,1.711004482441525e+18,0.48172323759791125,0.4223744292237443,0.3535135135135135,0.5006113964294449,0.6241758241758242,0.4415475189234651,1197.0
885.0,1.7110044824515205e+18,0.48433420365535246,0.4223744292237443,0.3286486486486486,0.5035460992907801,0.6285714285714286,0.43650126156433977,1195.0
886.0,1.7110044824615186e+18,0.4699738903394256,0.4178082191780822,0.3427027027027027,0.5015896307165566,0.6153846153846154,0.4415475189234651,1195.0
887.0,1.7110044824715167e+18,0.4556135770234987,0.4063926940639269,0.32216216216216215,0.5033015407190022,0.6296703296703297,0.4415475189234651,1198.0
888.0,1.711004482481515e+18,0.47911227154047,0.4372146118721461,0.3583783783783784,0.5003668378576669,0.6142857142857143,0.4432296047098402,1195.0
889.0,1.711004482491516e+18,0.48172323759791125,0.4383561643835616,0.32972972972972975,0.4996331621423331,0.6296703296703297,0.4348191757779647,1197.0
890.0,1.7110044825015214e+18,0.46866840731070497,0.4029680365296804,0.3464864864864865,0.4996331621423331,0.6164835164835165,0.44070647603027757,1196.0
891.0,1.7110044825115133e+18,0.4699738903394256,0.4018264840182648,0.32756756756756755,0.5006113964294449,0.6208791208791209,0.4348191757779647,1196.0
892.0,1.7110044825215142e+18,0.47911227154047,0.45662100456621,0.34540540540540543,0.5037906578625581,0.6197802197802198,0.4432296047098402,1197.0
893.0,1.7110044825315167e+18,0.47127937336814624,0.4041095890410959,0.32432432432432434,0.5008559550012228,0.6274725274725275,0.43902439024390244,1197.0
894.0,1.7110044825415153e+18,0.47127937336814624,0.4143835616438356,0.3518918918918919,0.5035460992907801,0.6142857142857143,0.4432296047098402,1196.0
895.0,1.7110044825515246e+18,0.46475195822454307,0.4132420091324201,0.327027027027027,0.4988994864269993,0.6153846153846154,0.43313708999158956,1193.0
896.0,1.7110044825615475e+18,0.47389033942558745,0.410958904109589,0.33135135135135135,0.4859378821227684,0.610989010989011,0.4415475189234651,1196.0
897.0,1.7110044825715246e+18,0.47389033942558745,0.4178082191780822,0.3362162162162162,0.5015896307165566,0.634065934065934,0.4339781328847771,1193.0
898.0,1.7110044825815204e+18,0.47127937336814624,0.3447488584474886,0.32594594594594595,0.49938860357055515,0.6142857142857143,0.4314550042052145,1193.0
899.0,1.7110044825915407e+18,0.49869451697127937,0.4223744292237443,0.3410810810810811,0.5008559550012228,0.6472527472527473,0.4432296047098402,1195.0
900.0,1.7110044826015127e+18,0.4751958224543081,0.4075342465753425,0.3427027027027027,0.5001222792858889,0.610989010989011,0.4415475189234651,1194.0
901.0,1.7110044826115323e+18,0.4751958224543081,0.4200913242009132,0.34054054054054056,0.4954756664221081,0.6296703296703297,0.43902439024390244,1195.0
902.0,1.711004482621517e+18,0.4608355091383812,0.3915525114155251,0.3318918918918919,0.5015896307165566,0.6164835164835165,0.44238856181665265,1195.0
903.0,1.71100448263152e+18,0.4804177545691906,0.432648401826484,0.33945945945945943,0.4969430178527757,0.634065934065934,0.4314550042052145,1191.0
904.0,1.711004482641541e+18,0.4765013054830287,0.4075342465753425,0.34054054054054056,0.5025678650036683,0.6208791208791209,0.44575273338940286,1197.0
905.0,1.7110044826515192e+18,0.49216710182767626,0.4269406392694064,0.3308108108108108,0.5015896307165566,0.6285714285714286,0.4415475189234651,1195.0
906.0,1.7110044826615217e+18,0.4908616187989556,0.4292237442922374,0.35567567567567565,0.5035460992907801,0.6164835164835165,0.4432296047098402,1196.0
907.0,1.7110044826715187e+18,0.46866840731070497,0.3915525114155251,0.3248648648648649,0.5001222792858889,0.6362637362637362,0.4339781328847771,1194.0
908.0,1.7110044826815173e+18,0.48172323759791125,0.408675799086758,0.33297297297297296,0.504524333577892,0.6296703296703297,0.4533221194280908,1196.0
909.0,1.711004482691557e+18,0.4830287206266319,0.4474885844748858,0.3589189189189189,0.504279775006114,0.6362637362637362,0.43986543313709,1195.0
910.0,1.7110044827015222e+18,0.4608355091383812,0.4052511415525114,0.3372972972972973,0.4827586206896552,0.6054945054945055,0.43650126156433977,1196.0
911.0,1.7110044827115256e+18,0.48825065274151436,0.4406392694063927,0.3389189189189189,0.5050134507214478,0.6384615384615384,0.43986543313709,1196.0
912.0,1.7110044827215183e+18,0.47780678851174935,0.3972602739726027,0.3389189189189189,0.5006113964294449,0.6274725274725275,0.4482758620689655,1196.0
913.0,1.7110044827315187e+18,0.46866840731070497,0.4132420091324201,0.3281081081081081,0.5018341892883346,0.6329670329670329,0.4381833473507149,1194.0
914.0,1.7110044827415214e+18,0.47911227154047,0.4383561643835616,0.3637837837837838,0.5008559550012228,0.6153846153846154,0.44238856181665265,1194.0
915.0,1.7110044827515425e+18,0.46866840731070497,0.430365296803653,0.33513513513513515,0.48324773783321107,0.6274725274725275,0.4415475189234651,1196.0
916.0,1.7110044827615135e+18,0.4699738903394256,0.4098173515981735,0.34162162162162163,0.5020787478601125,0.6142857142857143,0.43902439024390244,1197.0
917.0,1.7110044827715197e+18,0.48825065274151436,0.4349315068493151,0.32756756756756755,0.5033015407190022,0.6296703296703297,0.43986543313709,1196.0
918.0,1.7110044827815204e+18,0.4765013054830287,0.4143835616438356,0.34324324324324323,0.5015896307165566,0.6197802197802198,0.43986543313709,1195.0
919.0,1.7110044827915197e+18,0.4869451697127937,0.4029680365296804,0.3254054054054054,0.5008559550012228,0.6329670329670329,0.4465937762825904,1196.0
920.0,1.7110044828015334e+18,0.4765013054830287,0.3926940639269406,0.33297297297297296,0.5008559550012228,0.6186813186813187,0.43902439024390244,1195.0
921.0,1.7110044828115174e+18,0.48433420365535246,0.4406392694063927,0.3372972972972973,0.5050134507214478,0.6241758241758242,0.4280908326324643,1193.0
922.0,1.7110044828215183e+18,0.4725848563968668,0.4029680365296804,0.33297297297297296,0.5035460992907801,0.6186813186813187,0.44070647603027757,1195.0
923.0,1.7110044828315187e+18,0.4830287206266319,0.4383561643835616,0.34324324324324323,0.504035216434336,0.6296703296703297,0.4373423044575273,1196.0
924.0,1.7110044828415212e+18,0.4804177545691906,0.4200913242009132,0.34540540540540543,0.5001222792858889,0.610989010989011,0.43566021867115223,1196.0
925.0,1.7110044828515336e+18,0.4765013054830287,0.4189497716894977,0.33297297297297296,0.504035216434336,0.6318681318681318,0.43566021867115223,1194.0
926.0,1.711004482862252e+18,0.47389033942558745,0.4520547945205479,0.34054054054054056,0.4996331621423331,0.6153846153846154,0.43313708999158956,1194.0
927.0,1.7110044828715236e+18,0.46344647519582244,0.4018264840182648,0.3162162162162162,0.4991440449987772,0.634065934065934,0.4432296047098402,1196.0
928.0,1.7110044828815296e+18,0.4765013054830287,0.4189497716894977,0.34054054054054056,0.5025678650036683,0.6274725274725275,0.4482758620689655,1196.0
929.0,1.7110044828915295e+18,0.4725848563968668,0.4098173515981735,0.3254054054054054,0.5013450721447786,0.6307692307692307,0.4381833473507149,1197.0
930.0,1.71100448290153e+18,0.4751958224543081,0.4372146118721461,0.35027027027027025,0.5013450721447786,0.6120879120879121,0.4415475189234651,1196.0
931.0,1.7110044829115192e+18,0.4725848563968668,0.4178082191780822,0.32972972972972975,0.499877720714111,0.6274725274725275,0.43566021867115223,1195.0
932.0,1.7110044829215311e+18,0.48433420365535246,0.4315068493150685,0.35945945945945945,0.5025678650036683,0.6175824175824176,0.4432296047098402,1195.0
933.0,1.711004482931524e+18,0.4804177545691906,0.4052511415525114,0.3264864864864865,0.5015896307165566,0.6362637362637362,0.43986543313709,1193.0
934.0,1.7110044829415667e+18,0.4804177545691906,0.4098173515981735,0.33135135135135135,0.5025678650036683,0.621978021978022,0.4449116904962153,1196.0
935.0,1.7110044829515264e+18,0.47780678851174935,0.4452054794520548,0.3216216216216216,0.5035460992907801,0.6362637362637362,0.4381833473507149,1194.0
936.0,1.7110044829615337e+18,0.47127937336814624,0.3858447488584475,0.3427027027027027,0.49938860357055515,0.6120879120879121,0.4449116904962153,1194.0
937.0,1.7110044829715274e+18,0.47127937336814624,0.4029680365296804,0.31675675675675674,0.5047688921496698,0.6274725274725275,0.4381833473507149,1193.0
938.0,1.7110044829815201e+18,0.4725848563968668,0.4018264840182648,0.33783783783783783,0.5015896307165566,0.621978021978022,0.4449116904962153,1194.0
939.0,1.711004482991522e+18,0.47127937336814624,0.410958904109589,0.3286486486486486,0.4991440449987772,0.6230769230769231,0.43313708999158956,1193.0
940.0,1.7110044830015265e+18,0.48172323759791125,0.432648401826484,0.3481081081081081,0.5003668378576669,0.6197802197802198,0.4415475189234651,1196.0
941.0,1.711004483011523e+18,0.4751958224543081,0.3972602739726027,0.32594594594594595,0.504524333577892,0.6329670329670329,0.4348191757779647,1196.0
942.0,1.7110044830215255e+18,0.46866840731070497,0.3995433789954338,0.33783783783783783,0.5020787478601125,0.610989010989011,0.43902439024390244,1196.0
943.0,1.7110044830315205e+18,0.46344647519582244,0.4223744292237443,0.3248648648648649,0.504035216434336,0.6373626373626373,0.4314550042052145,1193.0
944.0,1.7110044830415217e+18,0.4830287206266319,0.4497716894977169,0.3567567567567568,0.504035216434336,0.6318681318681318,0.4415475189234651,1193.0
945.0,1.7110044830515187e+18,0.47780678851174935,0.4200913242009132,0.32594594594594595,0.4996331621423331,0.6208791208791209,0.43902439024390244,1197.0
946.0,1.711004483061521e+18,0.4830287206266319,0.4178082191780822,0.3481081081081081,0.5015896307165566,0.6175824175824176,0.4415475189234651,1194.0
947.0,1.7110044830715226e+18,0.49216710182767626,0.4349315068493151,0.33783783783783783,0.5015896307165566,0.6362637362637362,0.4415475189234651,1195.0
948.0,1.7110044830815224e+18,0.47127937336814624,0.4098173515981735,0.3362162162162162,0.508192712154561,0.6186813186813187,0.4449116904962153,1196.0
949.0,1.7110044830915228e+18,0.4830287206266319,0.4143835616438356,0.3281081081081081,0.5003668378576669,0.6274725274725275,0.43986543313709,1196.0
950.0,1.7110044831015232e+18,0.4725848563968668,0.4098173515981735,0.35027027027027025,0.5030569821472243,0.6186813186813187,0.44238856181665265,1196.0
951.0,1.7110044831115533e+18,0.4765013054830287,0.4223744292237443,0.33135135135135135,0.5006113964294449,0.6384615384615384,0.44238856181665265,1194.0
952.0,1.711004483121525e+18,0.47389033942558745,0.3972602739726027,0.3345945945945946,0.5008559550012228,0.6120879120879121,0.4381833473507149,1196.0
953.0,1.7110044831315246e+18,0.4908616187989556,0.4554794520547945,0.33405405405405403,0.5018341892883346,0.6285714285714286,0.43566021867115223,1195.0
954.0,1.7110044831415283e+18,0.47780678851174935,0.3995433789954338,0.33513513513513515,0.4971875764245537,0.6142857142857143,0.4449116904962153,1194.0
955.0,1.7110044831515228e+18,0.4869451697127937,0.408675799086758,0.3232432432432432,0.5015896307165566,0.6263736263736264,0.4440706476030278,1194.0
956.0,1.7110044831615273e+18,0.4804177545691906,0.4132420091324201,0.3362162162162162,0.5015896307165566,0.6230769230769231,0.4482758620689655,1194.0
957.0,1.711004483171526e+18,0.4725848563968668,0.4223744292237443,0.3281081081081081,0.5020787478601125,0.634065934065934,0.43650126156433977,1195.0
958.0,1.7110044831815306e+18,0.47127937336814624,0.4041095890410959,0.35783783783783785,0.4991440449987772,0.6208791208791209,0.4465937762825904,1194.0
959.0,1.7110044831915267e+18,0.47127937336814624,0.3938356164383562,0.3178378378378378,0.5008559550012228,0.6274725274725275,0.4415475189234651,1194.0
960.0,1.7110044832015278e+18,0.47911227154047,0.4189497716894977,0.34162162162162163,0.5028124235754463,0.6230769230769231,0.44575273338940286,1196.0
961.0,1.711004483211526e+18,0.46475195822454307,0.4006849315068493,0.31567567567567567,0.512594766446564,0.6263736263736264,0.42977291841883936,1194.0
962.0,1.7110044832215288e+18,0.4725848563968668,0.4041095890410959,0.3362162162162162,0.5020787478601125,0.6208791208791209,0.43902439024390244,1195.0
963.0,1.71100448323153e+18,0.47911227154047,0.4178082191780822,0.3232432432432432,0.5015896307165566,0.6373626373626373,0.4415475189234651,1197.0
964.0,1.7110044832415322e+18,0.48172323759791125,0.4075342465753425,0.33783783783783783,0.4937637564196625,0.6175824175824176,0.4465937762825904,1195.0
965.0,1.711004483251527e+18,0.4804177545691906,0.4269406392694064,0.3216216216216216,0.5013450721447786,0.6329670329670329,0.43986543313709,1197.0
966.0,1.7110044832615247e+18,0.46866840731070497,0.386986301369863,0.3389189189189189,0.5015896307165566,0.6131868131868132,0.4381833473507149,1196.0
967.0,1.711004483271529e+18,0.4725848563968668,0.3995433789954338,0.31675675675675674,0.5015896307165566,0.6318681318681318,0.4432296047098402,1195.0
968.0,1.7110044832815286e+18,0.48172323759791125,0.3961187214611872,0.3389189189189189,0.49351919784788456,0.610989010989011,0.44238856181665265,1197.0
969.0,1.7110044832915292e+18,0.4804177545691906,0.4041095890410959,0.3254054054054054,0.5025678650036683,0.6329670329670329,0.43986543313709,1197.0
970.0,1.7110044833015293e+18,0.46344647519582244,0.3835616438356164,0.3318918918918919,0.5018341892883346,0.6175824175824176,0.43650126156433977,1193.0
971.0,1.7110044833115302e+18,0.47127937336814624,0.3984018264840183,0.32594594594594595,0.5023233064318905,0.6329670329670329,0.44238856181665265,1197.0
972.0,1.7110044833215322e+18,0.47127937336814624,0.4155251141552511,0.34540540540540543,0.5084372707263389,0.6098901098901099,0.4381833473507149,1196.0
973.0,1.7110044833315325e+18,0.4725848563968668,0.4041095890410959,0.3237837837837838,0.5028124235754463,0.6461538461538462,0.4415475189234651,1192.0
974.0,1.7110044833415334e+18,0.4765013054830287,0.3995433789954338,0.3410810810810811,0.5006113964294449,0.6120879120879121,0.4432296047098402,1196.0
975.0,1.711004483351534e+18,0.47780678851174935,0.4178082191780822,0.32972972972972975,0.5035460992907801,0.6318681318681318,0.43902439024390244,1197.0
976.0,1.7110044833615096e+18,0.4725848563968668,0.408675799086758,0.33513513513513515,0.504035216434336,0.6208791208791209,0.4415475189234651,1194.0
977.0,1.7110044833715174e+18,0.47911227154047,0.3926940639269406,0.3162162162162162,0.5015896307165566,0.6285714285714286,0.4432296047098402,1195.0
978.0,1.7110044833815342e+18,0.4804177545691906,0.4235159817351598,0.3491891891891892,0.5037906578625581,0.6230769230769231,0.44238856181665265,1193.0
979.0,1.7110044833915167e+18,0.49738903394255873,0.4360730593607306,0.33945945945945943,0.5020787478601125,0.6274725274725275,0.4432296047098402,1195.0
980.0,1.7110044834015183e+18,0.4699738903394256,0.4269406392694064,0.34702702702702704,0.4988994864269993,0.6120879120879121,0.43650126156433977,1195.0
981.0,1.711004483411544e+18,0.4725848563968668,0.408675799086758,0.3172972972972973,0.5008559550012228,0.6362637362637362,0.44238856181665265,1196.0
982.0,1.7110044834215188e+18,0.4699738903394256,0.4166666666666667,0.3427027027027027,0.5020787478601125,0.610989010989011,0.43902439024390244,1196.0
983.0,1.7110044834315192e+18,0.4765013054830287,0.4143835616438356,0.3172972972972973,0.5015896307165566,0.6318681318681318,0.43650126156433977,1196.0
984.0,1.711004483441521e+18,0.47911227154047,0.4280821917808219,0.3427027027027027,0.5047688921496698,0.6274725274725275,0.4465937762825904,1197.0
985.0,1.7110044834515172e+18,0.47127937336814624,0.4041095890410959,0.3362162162162162,0.5013450721447786,0.6296703296703297,0.4348191757779647,1196.0
986.0,1.7110044834615217e+18,0.489556135770235,0.4143835616438356,0.3497297297297297,0.5025678650036683,0.6142857142857143,0.4449116904962153,1196.0
987.0,1.711004483471521e+18,0.48172323759791125,0.4212328767123288,0.32756756756756755,0.5008559550012228,0.6263736263736264,0.432296047098402,1193.0
988.0,1.7110044834815214e+18,0.46866840731070497,0.3995433789954338,0.3443243243243243,0.4844705306921008,0.6142857142857143,0.44238856181665265,1199.0
989.0,1.7110044834915172e+18,0.47127937336814624,0.3744292237442922,0.3254054054054054,0.5035460992907801,0.6274725274725275,0.4348191757779647,1197.0
990.0,1.7110044835015204e+18,0.4830287206266319,0.410958904109589,0.34540540540540543,0.5028124235754463,0.6208791208791209,0.44238856181665265,1196.0
991.0,1.7110044835115226e+18,0.4699738903394256,0.4200913242009132,0.33135135135135135,0.5018341892883346,0.6373626373626373,0.4373423044575273,1197.0
992.0,1.7110044835215173e+18,0.47127937336814624,0.4029680365296804,0.3324324324324324,0.5006113964294449,0.6175824175824176,0.43650126156433977,1197.0
993.0,1.7110044835315203e+18,0.5013054830287206,0.4440639269406393,0.33675675675675676,0.5001222792858889,0.6406593406593407,0.4415475189234651,1197.0
994.0,1.711004483541523e+18,0.46736292428198434,0.408675799086758,0.3362162162162162,0.5008559550012228,0.6175824175824176,0.44238856181665265,1196.0
995.0,1.7110044835520284e+18,0.4725848563968668,0.408675799086758,0.3232432432432432,0.5030569821472243,0.6307692307692307,0.4415475189234651,1196.0
996.0,1.711004483561529e+18,0.46866840731070497,0.4132420091324201,0.34486486486486484,0.5020787478601125,0.6142857142857143,0.4440706476030278,1194.0
997.0,1.7110044835715236e+18,0.47127937336814624,0.4178082191780822,0.3227027027027027,0.4991440449987772,0.6362637362637362,0.4381833473507149,1197.0
998.0,1.7110044835815183e+18,0.4725848563968668,0.410958904109589,0.34216216216216216,0.5011005135730008,0.6175824175824176,0.44238856181665265,1195.0
999.0,1.711004483591521e+18,0.4804177545691906,0.4121004566210046,0.3232432432432432,0.5011005135730008,0.6252747252747253,0.4348191757779647,1194.0
1000.0,1.7110044836015224e+18,0.46344647519582244,0.4200913242009132,0.3389189189189189,0.5028124235754463,0.6131868131868132,0.44575273338940286,1199.0
