202.0,1.7110041528588063e+18,0.4725848563968668,0.410958904109589,0.34,0.5020787478601125,0.6186813186813187,0.43986543313709,1197.0
203.0,1.7110041528688138e+18,0.4765013054830287,0.4509132420091324,0.33405405405405403,0.5011005135730008,0.6208791208791209,0.43650126156433977,1196.0
204.0,1.7110041528788124e+18,0.47127937336814624,0.4098173515981735,0.33945945945945943,0.5008559550012228,0.6175824175824176,0.44070647603027757,1196.0
205.0,1.7110041528888102e+18,0.4699738903394256,0.4075342465753425,0.3281081081081081,0.5015896307165566,0.6318681318681318,0.43902439024390244,1196.0
206.0,1.7110041528988093e+18,0.4765013054830287,0.4349315068493151,0.3389189189189189,0.4984103692834434,0.6120879120879121,0.43902439024390244,1195.0
207.0,1.7110041529088082e+18,0.4765013054830287,0.4063926940639269,0.3254054054054054,0.5018341892883346,0.6274725274725275,0.4415475189234651,1195.0
208.0,1.7110041529188076e+18,0.4765013054830287,0.4189497716894977,0.3410810810810811,0.5037906578625581,0.6274725274725275,0.4415475189234651,1196.0
209.0,1.711004152928811e+18,0.47389033942558745,0.4052511415525114,0.3291891891891892,0.499877720714111,0.6131868131868132,0.4339781328847771,1193.0
210.0,1.7110041529388111e+18,0.4765013054830287,0.3984018264840183,0.3410810810810811,0.5011005135730008,0.6098901098901099,0.44238856181665265,1194.0
211.0,1.7110041529488074e+18,0.46736292428198434,0.4075342465753425,0.33675675675675676,0.5015896307165566,0.6197802197802198,0.432296047098402,1194.0
212.0,1.7110041529588099e+18,0.4830287206266319,0.430365296803653,0.35783783783783785,0.5013450721447786,0.6186813186813187,0.4415475189234651,1196.0
213.0,1.7110041529688084e+18,0.4725848563968668,0.4166666666666667,0.34054054054054056,0.5008559550012228,0.6186813186813187,0.4373423044575273,1197.0
214.0,1.7110041529788076e+18,0.47127937336814624,0.4052511415525114,0.3362162162162162,0.4988994864269993,0.5989010989010989,0.4381833473507149,1195.0
215.0,1.7110041529888061e+18,0.48172323759791125,0.410958904109589,0.3308108108108108,0.5015896307165566,0.6318681318681318,0.43986543313709,1197.0
216.0,1.7110041529988088e+18,0.4725848563968668,0.4075342465753425,0.33675675675675676,0.499877720714111,0.6021978021978022,0.43902439024390244,1198.0
217.0,1.7110041530088095e+18,0.47911227154047,0.3995433789954338,0.3178378378378378,0.5003668378576669,0.6307692307692307,0.4415475189234651,1196.0
218.0,1.7110041530188073e+18,0.4765013054830287,0.3892694063926941,0.3345945945945946,0.5015896307165566,0.6274725274725275,0.44070647603027757,1196.0
219.0,1.7110041530288074e+18,0.47389033942558745,0.4075342465753425,0.3291891891891892,0.5006113964294449,0.6208791208791209,0.43566021867115223,1197.0
220.0,1.7110041530388068e+18,0.47911227154047,0.4383561643835616,0.3481081081081081,0.5025678650036683,0.6241758241758242,0.4415475189234651,1196.0
221.0,1.7110041530488072e+18,0.4869451697127937,0.4121004566210046,0.3210810810810811,0.5018341892883346,0.6274725274725275,0.43902439024390244,1197.0
222.0,1.7110041530588078e+18,0.4830287206266319,0.4063926940639269,0.33405405405405403,0.5008559550012228,0.6120879120879121,0.43986543313709,1197.0
223.0,1.7110041530688087e+18,0.4765013054830287,0.4189497716894977,0.32972972972972975,0.5037906578625581,0.6307692307692307,0.43566021867115223,1196.0
224.0,1.7110041530788083e+18,0.47780678851174935,0.4406392694063927,0.34540540540540543,0.504524333577892,0.6384615384615384,0.4482758620689655,1196.0
225.0,1.7110041530888105e+18,0.47127937336814624,0.4075342465753425,0.327027027027027,0.5003668378576669,0.6263736263736264,0.43650126156433977,1197.0
226.0,1.7110041530988493e+18,0.47911227154047,0.4292237442922374,0.36324324324324325,0.5020787478601125,0.6153846153846154,0.4440706476030278,1197.0
227.0,1.7110041531088576e+18,0.4830287206266319,0.4406392694063927,0.33837837837837836,0.5020787478601125,0.6241758241758242,0.4381833473507149,1197.0
228.0,1.7110041531188572e+18,0.4765013054830287,0.4200913242009132,0.34162162162162163,0.5025678650036683,0.6197802197802198,0.43986543313709,1198.0
229.0,1.711004153128858e+18,0.46736292428198434,0.4041095890410959,0.3302702702702703,0.5047688921496698,0.6956043956043956,0.4432296047098402,1197.0
230.0,1.711004153138854e+18,0.49216710182767626,0.4200913242009132,0.3345945945945946,0.5018341892883346,0.610989010989011,0.4440706476030278,1194.0
231.0,1.7110041531488566e+18,0.47127937336814624,0.4132420091324201,0.32756756756756755,0.5006113964294449,0.6318681318681318,0.43566021867115223,1198.0
232.0,1.7110041531588562e+18,0.4830287206266319,0.4417808219178082,0.35567567567567565,0.5020787478601125,0.6164835164835165,0.4449116904962153,1197.0
233.0,1.711004153168857e+18,0.47911227154047,0.4178082191780822,0.33405405405405403,0.5015896307165566,0.6362637362637362,0.4339781328847771,1194.0
234.0,1.7110041531788644e+18,0.4751958224543081,0.4166666666666667,0.34486486486486484,0.5006113964294449,0.6164835164835165,0.4373423044575273,1195.0
235.0,1.71100415318886e+18,0.4699738903394256,0.3721461187214612,0.31891891891891894,0.5011005135730008,0.634065934065934,0.4373423044575273,1195.0
236.0,1.7110041531988557e+18,0.4765013054830287,0.4178082191780822,0.3389189189189189,0.5015896307165566,0.6274725274725275,0.4415475189234651,1197.0
237.0,1.711004153208858e+18,0.48433420365535246,0.4406392694063927,0.3481081081081081,0.5025678650036683,0.6472527472527473,0.44238856181665265,1197.0
238.0,1.711004153218859e+18,0.4765013054830287,0.4269406392694064,0.33405405405405403,0.5023233064318905,0.621978021978022,0.4432296047098402,1197.0
239.0,1.711004153228863e+18,0.47389033942558745,0.4143835616438356,0.32756756756756755,0.5023233064318905,0.6307692307692307,0.4381833473507149,1196.0
240.0,1.7110041532388654e+18,0.4725848563968668,0.4098173515981735,0.33513513513513515,0.5015896307165566,0.6274725274725275,0.43902439024390244,1197.0
241.0,1.71100415324886e+18,0.4804177545691906,0.4280821917808219,0.33675675675675676,0.5028124235754463,0.6428571428571429,0.43986543313709,1196.0
242.0,1.7110041532588447e+18,0.4725848563968668,0.4075342465753425,0.33945945945945943,0.5015896307165566,0.6197802197802198,0.43986543313709,1197.0
243.0,1.7110041532688468e+18,0.46866840731070497,0.4189497716894977,0.3254054054054054,0.5015896307165566,0.6307692307692307,0.4373423044575273,1198.0
244.0,1.71100415327885e+18,0.47780678851174935,0.3949771689497717,0.33405405405405403,0.5025678650036683,0.610989010989011,0.4482758620689655,1197.0
245.0,1.7110041532888453e+18,0.47780678851174935,0.4143835616438356,0.34216216216216216,0.5015896307165566,0.6164835164835165,0.43313708999158956,1194.0
246.0,1.7110041532988426e+18,0.47127937336814624,0.4155251141552511,0.34864864864864864,0.5011005135730008,0.6142857142857143,0.43566021867115223,1197.0
247.0,1.711004153308842e+18,0.4765013054830287,0.4178082191780822,0.3318918918918919,0.5023233064318905,0.6351648351648351,0.4381833473507149,1196.0
248.0,1.7110041533188403e+18,0.489556135770235,0.4155251141552511,0.34756756756756757,0.5015896307165566,0.6230769230769231,0.43902439024390244,1195.0
249.0,1.7110041533288453e+18,0.4699738903394256,0.4143835616438356,0.3308108108108108,0.5006113964294449,0.6252747252747253,0.43566021867115223,1198.0
250.0,1.711004153338837e+18,0.4725848563968668,0.4246575342465753,0.34864864864864864,0.5018341892883346,0.6186813186813187,0.43986543313709,1193.0
251.0,1.7110041533487803e+18,0.47127937336814624,0.4098173515981735,0.31945945945945947,0.5006113964294449,0.6285714285714286,0.43313708999158956,1192.0
252.0,1.7110041533588398e+18,0.4830287206266319,0.4623287671232877,0.3481081081081081,0.5020787478601125,0.6164835164835165,0.4415475189234651,1197.0
253.0,1.711004153368837e+18,0.4725848563968668,0.4132420091324201,0.32756756756756755,0.5015896307165566,0.6417582417582418,0.43986543313709,1195.0
254.0,1.7110041533788375e+18,0.4830287206266319,0.4280821917808219,0.33837837837837836,0.499877720714111,0.5956043956043956,0.4381833473507149,1197.0
255.0,1.7110041533888356e+18,0.47780678851174935,0.4200913242009132,0.3410810810810811,0.5020787478601125,0.6362637362637362,0.43902439024390244,1195.0
256.0,1.7110041533988378e+18,0.4765013054830287,0.4200913242009132,0.3491891891891892,0.5030569821472243,0.6186813186813187,0.4415475189234651,1195.0
257.0,1.711004153408834e+18,0.4751958224543081,0.4189497716894977,0.33783783783783783,0.5018341892883346,0.6318681318681318,0.43650126156433977,1196.0
258.0,1.711004153418832e+18,0.4908616187989556,0.4223744292237443,0.34540540540540543,0.5015896307165566,0.6329670329670329,0.4415475189234651,1196.0
259.0,1.7110041534288786e+18,0.48172323759791125,0.4246575342465753,0.3291891891891892,0.5018341892883346,0.6274725274725275,0.4381833473507149,1197.0
260.0,1.7110041534388288e+18,0.47127937336814624,0.410958904109589,0.3286486486486486,0.5015896307165566,0.6197802197802198,0.43902439024390244,1198.0
261.0,1.71100415344883e+18,0.4765013054830287,0.3972602739726027,0.3216216216216216,0.5011005135730008,0.6241758241758242,0.4381833473507149,1198.0
262.0,1.71100415345883e+18,0.4660574412532637,0.3767123287671233,0.3389189189189189,0.5011005135730008,0.6362637362637362,0.4415475189234651,1196.0
263.0,1.7110041534688328e+18,0.4869451697127937,0.410958904109589,0.32,0.5015896307165566,0.6395604395604395,0.4415475189234651,1195.0
264.0,1.7110041534788288e+18,0.46344647519582244,0.4006849315068493,0.3389189189189189,0.5018341892883346,0.6197802197802198,0.4381833473507149,1196.0
265.0,1.7110041534888292e+18,0.47911227154047,0.4269406392694064,0.33837837837837836,0.5013450721447786,0.6263736263736264,0.4415475189234651,1196.0
266.0,1.7110041534988273e+18,0.4765013054830287,0.4235159817351598,0.33135135135135135,0.5011005135730008,0.6065934065934065,0.4373423044575273,1197.0
267.0,1.7110041535088402e+18,0.47911227154047,0.4143835616438356,0.327027027027027,0.5025678650036683,0.6296703296703297,0.4432296047098402,1195.0
268.0,1.7110041535188641e+18,0.4699738903394256,0.3675799086757991,0.32432432432432434,0.5015896307165566,0.6263736263736264,0.44238856181665265,1196.0
269.0,1.711004153528823e+18,0.48172323759791125,0.4246575342465753,0.3345945945945946,0.5023233064318905,0.6285714285714286,0.4381833473507149,1195.0
270.0,1.7110041535388234e+18,0.47780678851174935,0.410958904109589,0.34054054054054056,0.5001222792858889,0.5813186813186814,0.4348191757779647,1193.0
271.0,1.7110041535488212e+18,0.4804177545691906,0.4029680365296804,0.33297297297297296,0.5018341892883346,0.6318681318681318,0.4415475189234651,1196.0
272.0,1.7110041535588367e+18,0.48172323759791125,0.4269406392694064,0.3427027027027027,0.5015896307165566,0.6010989010989011,0.43986543313709,1194.0
273.0,1.7110041535688195e+18,0.47911227154047,0.4269406392694064,0.3362162162162162,0.5015896307165566,0.6384615384615384,0.43650126156433977,1197.0
274.0,1.71100415357882e+18,0.47780678851174935,0.4075342465753425,0.3356756756756757,0.5025678650036683,0.6318681318681318,0.43902439024390244,1195.0
275.0,1.711004153588823e+18,0.4725848563968668,0.4132420091324201,0.3210810810810811,0.5008559550012228,0.6241758241758242,0.43566021867115223,1197.0
276.0,1.7110041535988726e+18,0.47389033942558745,0.4212328767123288,0.33675675675675676,0.5015896307165566,0.6285714285714286,0.4432296047098402,1197.0
277.0,1.7110041536088225e+18,0.4765013054830287,0.3949771689497717,0.32972972972972975,0.5008559550012228,0.6274725274725275,0.43313708999158956,1194.0
278.0,1.7110041536188221e+18,0.47911227154047,0.4223744292237443,0.34702702702702704,0.5015896307165566,0.6087912087912087,0.4482758620689655,1197.0
279.0,1.71100415362882e+18,0.4765013054830287,0.4063926940639269,0.3281081081081081,0.5023233064318905,0.634065934065934,0.4381833473507149,1199.0
280.0,1.7110041536388209e+18,0.4765013054830287,0.3824200913242009,0.3362162162162162,0.5025678650036683,0.6142857142857143,0.44238856181665265,1198.0
281.0,1.711004153648819e+18,0.4804177545691906,0.4223744292237443,0.35135135135135137,0.5028124235754463,0.6285714285714286,0.44070647603027757,1198.0
282.0,1.7110041536588365e+18,0.4765013054830287,0.3995433789954338,0.3389189189189189,0.5028124235754463,0.5945054945054945,0.43902439024390244,1197.0
283.0,1.7110041536688274e+18,0.47911227154047,0.4121004566210046,0.3302702702702703,0.5011005135730008,0.6373626373626373,0.4373423044575273,1195.0
284.0,1.711004153678816e+18,0.48172323759791125,0.4246575342465753,0.34162162162162163,0.5001222792858889,0.6164835164835165,0.4440706476030278,1195.0
285.0,1.7110041536888205e+18,0.4725848563968668,0.4132420091324201,0.3286486486486486,0.5047688921496698,0.7472527472527473,0.44238856181665265,1197.0
286.0,1.711004153698815e+18,0.47127937336814624,0.410958904109589,0.3389189189189189,0.5001222792858889,0.589010989010989,0.4415475189234651,1197.0
287.0,1.7110041537088356e+18,0.4765013054830287,0.4178082191780822,0.33405405405405403,0.512594766446564,0.7065934065934066,0.4179983179142136,1192.0
288.0,1.7110041537188178e+18,0.4765013054830287,0.4155251141552511,0.33945945945945943,0.5006113964294449,0.6186813186813187,0.44238856181665265,1197.0
289.0,1.7110041537288253e+18,0.47911227154047,0.4178082191780822,0.3318918918918919,0.5035460992907801,0.6384615384615384,0.4381833473507149,1194.0
290.0,1.7110041537388175e+18,0.4869451697127937,0.4143835616438356,0.34378378378378377,0.5006113964294449,0.6362637362637362,0.4449116904962153,1193.0
291.0,1.7110041537488218e+18,0.4725848563968668,0.4178082191780822,0.32972972972972975,0.5015896307165566,0.6285714285714286,0.4381833473507149,1196.0
292.0,1.711004153758822e+18,0.4725848563968668,0.4200913242009132,0.33837837837837836,0.5015896307165566,0.6131868131868132,0.4415475189234651,1194.0
293.0,1.7110041537688187e+18,0.4765013054830287,0.4029680365296804,0.3216216216216216,0.5015896307165566,0.6395604395604395,0.43986543313709,1196.0
294.0,1.711004153778818e+18,0.4765013054830287,0.4463470319634703,0.34864864864864864,0.5013450721447786,0.6175824175824176,0.4482758620689655,1197.0
295.0,1.7110041537888164e+18,0.47780678851174935,0.410958904109589,0.3308108108108108,0.5006113964294449,0.6285714285714286,0.43650126156433977,1195.0
296.0,1.7110041537988447e+18,0.4765013054830287,0.4143835616438356,0.34054054054054056,0.5006113964294449,0.6098901098901099,0.4432296047098402,1195.0
297.0,1.7110041538088182e+18,0.4830287206266319,0.4246575342465753,0.3318918918918919,0.5011005135730008,0.634065934065934,0.4373423044575273,1196.0
298.0,1.711004153818822e+18,0.4804177545691906,0.4132420091324201,0.3427027027027027,0.5018341892883346,0.6175824175824176,0.4432296047098402,1195.0
299.0,1.7110041538288248e+18,0.46344647519582244,0.4041095890410959,0.3335135135135135,0.5008559550012228,0.6153846153846154,0.43650126156433977,1196.0
300.0,1.7110041538388196e+18,0.48433420365535246,0.4178082191780822,0.3410810810810811,0.5037906578625581,0.6296703296703297,0.44238856181665265,1195.0
301.0,1.7110041538488502e+18,0.49216710182767626,0.4223744292237443,0.32756756756756755,0.5018341892883346,0.6538461538461539,0.4348191757779647,1197.0
302.0,1.7110041538588193e+18,0.4856396866840731,0.432648401826484,0.3410810810810811,0.5025678650036683,0.6054945054945055,0.44238856181665265,1196.0
303.0,1.711004153868821e+18,0.4804177545691906,0.4269406392694064,0.3356756756756757,0.5011005135730008,0.6307692307692307,0.4415475189234651,1197.0
304.0,1.7110041538788227e+18,0.4765013054830287,0.4121004566210046,0.33783783783783783,0.5006113964294449,0.6208791208791209,0.4449116904962153,1194.0
305.0,1.711004153888821e+18,0.47780678851174935,0.4098173515981735,0.3318918918918919,0.5008559550012228,0.6274725274725275,0.4440706476030278,1196.0
306.0,1.711004153898833e+18,0.4765013054830287,0.4189497716894977,0.34162162162162163,0.504035216434336,0.6098901098901099,0.4415475189234651,1196.0
307.0,1.7110041539088287e+18,0.48825065274151436,0.4178082191780822,0.3264864864864865,0.4991440449987772,0.6054945054945055,0.432296047098402,1194.0
308.0,1.7110041539188206e+18,0.46736292428198434,0.4041095890410959,0.3345945945945946,0.5035460992907801,0.6318681318681318,0.4432296047098402,1197.0
309.0,1.711004153928819e+18,0.47911227154047,0.4246575342465753,0.3308108108108108,0.504524333577892,0.6582417582417582,0.4373423044575273,1198.0
310.0,1.7110041539388221e+18,0.4725848563968668,0.408675799086758,0.3389189189189189,0.5015896307165566,0.6142857142857143,0.4415475189234651,1195.0
311.0,1.7110041539488666e+18,0.4725848563968668,0.4246575342465753,0.3335135135135135,0.5028124235754463,0.6131868131868132,0.44238856181665265,1195.0
312.0,1.711004153958818e+18,0.48172323759791125,0.3995433789954338,0.34324324324324323,0.5072144778674492,0.7274725274725274,0.4449116904962153,1194.0
313.0,1.7110041539688218e+18,0.4725848563968668,0.408675799086758,0.32756756756756755,0.5091709464416728,0.6989010989010989,0.43986543313709,1195.0
314.0,1.711004153978819e+18,0.45822454308093996,0.4178082191780822,0.34702702702702704,0.5018341892883346,0.7494505494505495,0.45500420521446594,1196.0
315.0,1.7110041539888174e+18,0.47127937336814624,0.4121004566210046,0.3302702702702703,0.5028124235754463,0.6582417582417582,0.4449116904962153,1195.0
316.0,1.7110041539988183e+18,0.47389033942558745,0.4143835616438356,0.33945945945945943,0.5015896307165566,0.6208791208791209,0.43650126156433977,1197.0
317.0,1.7110041540088205e+18,0.4869451697127937,0.4440639269406393,0.33837837837837836,0.495964783565664,0.5703296703296703,0.42977291841883936,1192.0
318.0,1.7110041540188237e+18,0.4765013054830287,0.408675799086758,0.33837837837837836,0.5059916850085595,0.6131868131868132,0.4381833473507149,1193.0
319.0,1.7110041540288297e+18,0.4765013054830287,0.4132420091324201,0.3248648648648649,0.5008559550012228,0.5813186813186814,0.4213624894869638,1192.0
320.0,1.711004154038824e+18,0.4660574412532637,0.4098173515981735,0.34378378378378377,0.5003668378576669,0.578021978021978,0.43902439024390244,1197.0
321.0,1.7110041540488315e+18,0.48172323759791125,0.4383561643835616,0.3335135135135135,0.5047688921496698,0.5758241758241758,0.4381833473507149,1197.0
322.0,1.7110041540588224e+18,0.4725848563968668,0.410958904109589,0.34162162162162163,0.504279775006114,0.6318681318681318,0.4415475189234651,1197.0
323.0,1.7110041540688243e+18,0.46475195822454307,0.4269406392694064,0.3410810810810811,0.5015896307165566,0.6373626373626373,0.43650126156433977,1198.0
324.0,1.7110041540788173e+18,0.4699738903394256,0.3904109589041096,0.327027027027027,0.5018341892883346,0.6164835164835165,0.4432296047098402,1198.0
325.0,1.7110041540888192e+18,0.4765013054830287,0.4143835616438356,0.3286486486486486,0.4930300807043287,0.5659340659340659,0.4348191757779647,1196.0
326.0,1.7110041540988255e+18,0.4699738903394256,0.4018264840182648,0.33837837837837836,0.5033015407190022,0.6604395604395604,0.44911690496215306,1198.0
327.0,1.7110041541088136e+18,0.4804177545691906,0.4212328767123288,0.34378378378378377,0.5015896307165566,0.6318681318681318,0.4314550042052145,1194.0
328.0,1.7110041541188426e+18,0.4699738903394256,0.4178082191780822,0.34054054054054056,0.4969430178527757,0.5857142857142857,0.4339781328847771,1194.0
329.0,1.711004154128826e+18,0.47389033942558745,0.4315068493150685,0.3362162162162162,0.4991440449987772,0.6186813186813187,0.43650126156433977,1195.0
330.0,1.7110041541388206e+18,0.4725848563968668,0.4006849315068493,0.33513513513513515,0.5018341892883346,0.6230769230769231,0.4449116904962153,1194.0
331.0,1.7110041541488727e+18,0.47780678851174935,0.4292237442922374,0.3427027027027027,0.5006113964294449,0.6373626373626373,0.43902439024390244,1195.0
332.0,1.711004154158817e+18,0.46475195822454307,0.4041095890410959,0.34054054054054056,0.499877720714111,0.5747252747252747,0.43313708999158956,1193.0
333.0,1.7110041541688195e+18,0.48172323759791125,0.4063926940639269,0.3362162162162162,0.5033015407190022,0.6516483516483517,0.4449116904962153,1196.0
334.0,1.7110041541788157e+18,0.4660574412532637,0.4098173515981735,0.3481081081081081,0.4996331621423331,0.6065934065934065,0.4381833473507149,1196.0
335.0,1.711004154188817e+18,0.4765013054830287,0.4132420091324201,0.32594594594594595,0.5006113964294449,0.634065934065934,0.4373423044575273,1196.0
336.0,1.7110041541988165e+18,0.4751958224543081,0.4143835616438356,0.34486486486486484,0.5003668378576669,0.6065934065934065,0.43986543313709,1196.0
337.0,1.711004154208812e+18,0.47780678851174935,0.4178082191780822,0.32972972972972975,0.5033015407190022,0.6516483516483517,0.4381833473507149,1200.0
338.0,1.7110041542188111e+18,0.4725848563968668,0.4121004566210046,0.3427027027027027,0.5011005135730008,0.6307692307692307,0.45248107653490327,1195.0
339.0,1.7110041542288328e+18,0.4725848563968668,0.4155251141552511,0.33135135135135135,0.5006113964294449,0.6461538461538462,0.43986543313709,1195.0
340.0,1.7110041542388237e+18,0.4765013054830287,0.4132420091324201,0.34324324324324323,0.5028124235754463,0.6351648351648351,0.456686291000841,1197.0
341.0,1.7110041542488425e+18,0.4751958224543081,0.4178082191780822,0.3291891891891892,0.5015896307165566,0.6395604395604395,0.4348191757779647,1196.0
342.0,1.7110041542588147e+18,0.4621409921671018,0.410958904109589,0.34054054054054056,0.4979212521398875,0.5978021978021978,0.4381833473507149,1198.0
343.0,1.7110041542688195e+18,0.48433420365535246,0.4200913242009132,0.3302702702702703,0.5059916850085595,0.6230769230769231,0.4449116904962153,1196.0
344.0,1.711004154278817e+18,0.47389033942558745,0.4143835616438356,0.3427027027027027,0.5015896307165566,0.6054945054945055,0.4381833473507149,1196.0
345.0,1.7110041542888148e+18,0.4804177545691906,0.4200913242009132,0.3286486486486486,0.5052580092932257,0.6373626373626373,0.4373423044575273,1197.0
346.0,1.7110041542988705e+18,0.4804177545691906,0.4200913242009132,0.34486486486486484,0.5018341892883346,0.6065934065934065,0.432296047098402,1193.0
347.0,1.7110041543088195e+18,0.4725848563968668,0.4155251141552511,0.3291891891891892,0.5025678650036683,0.6406593406593407,0.4432296047098402,1197.0
348.0,1.7110041543188206e+18,0.4765013054830287,0.4178082191780822,0.34594594594594597,0.5020787478601125,0.6153846153846154,0.4432296047098402,1195.0
349.0,1.71100415432882e+18,0.47780678851174935,0.4166666666666667,0.3302702702702703,0.5015896307165566,0.6186813186813187,0.43650126156433977,1196.0
350.0,1.7110041543388186e+18,0.4804177545691906,0.408675799086758,0.34378378378378377,0.5030569821472243,0.6417582417582418,0.4449116904962153,1194.0
351.0,1.7110041543488243e+18,0.4725848563968668,0.3995433789954338,0.3210810810810811,0.49767669356810956,0.6241758241758242,0.4213624894869638,1194.0
352.0,1.7110041543588163e+18,0.47389033942558745,0.4143835616438356,0.3443243243243243,0.504279775006114,0.6241758241758242,0.4449116904962153,1196.0
353.0,1.7110041543688184e+18,0.46866840731070497,0.408675799086758,0.3248648648648649,0.4971875764245537,0.621978021978022,0.42640874684608915,1194.0
354.0,1.711004154378824e+18,0.47127937336814624,0.4223744292237443,0.34324324324324323,0.4988994864269993,0.6043956043956044,0.4373423044575273,1196.0
355.0,1.7110041543888195e+18,0.4765013054830287,0.408675799086758,0.3237837837837838,0.5008559550012228,0.6373626373626373,0.43986543313709,1196.0
356.0,1.7110041543988198e+18,0.4725848563968668,0.4143835616438356,0.34054054054054056,0.4781120078258743,0.5945054945054945,0.4381833473507149,1195.0
357.0,1.711004154408865e+18,0.48172323759791125,0.4018264840182648,0.3281081081081081,0.5035460992907801,0.643956043956044,0.43313708999158956,1193.0
358.0,1.7110041544188224e+18,0.46866840731070497,0.4143835616438356,0.3491891891891892,0.5052580092932257,0.6208791208791209,0.4432296047098402,1197.0
359.0,1.7110041544288658e+18,0.4725848563968668,0.4178082191780822,0.3281081081081081,0.5025678650036683,0.6472527472527473,0.4381833473507149,1196.0
360.0,1.7110041544388475e+18,0.4765013054830287,0.4132420091324201,0.3427027027027027,0.5069699192956714,0.6153846153846154,0.45164003364171573,1197.0
361.0,1.7110041544488684e+18,0.4765013054830287,0.4132420091324201,0.3286486486486486,0.5033015407190022,0.6406593406593407,0.4465937762825904,1196.0
362.0,1.7110041544588518e+18,0.47780678851174935,0.4189497716894977,0.3464864864864865,0.5023233064318905,0.6032967032967033,0.44575273338940286,1197.0
363.0,1.7110041544688507e+18,0.48172323759791125,0.4041095890410959,0.31945945945945947,0.504279775006114,0.643956043956044,0.4348191757779647,1196.0
364.0,1.711004154478849e+18,0.4725848563968668,0.4006849315068493,0.3410810810810811,0.5035460992907801,0.6208791208791209,0.4415475189234651,1196.0
365.0,1.7110041544888502e+18,0.47127937336814624,0.4121004566210046,0.3254054054054054,0.5030569821472243,0.6802197802197802,0.4339781328847771,1193.0
366.0,1.7110041544988913e+18,0.46866840731070497,0.4189497716894977,0.34864864864864864,0.5035460992907801,0.6142857142857143,0.4432296047098402,1197.0
367.0,1.7110041545088492e+18,0.48172323759791125,0.4189497716894977,0.3345945945945946,0.4991440449987772,0.6307692307692307,0.43902439024390244,1197.0
368.0,1.71100415451885e+18,0.4725848563968668,0.410958904109589,0.33297297297297296,0.5003668378576669,0.5791208791208792,0.43986543313709,1198.0
369.0,1.7110041545288538e+18,0.48172323759791125,0.4223744292237443,0.3345945945945946,0.499877720714111,0.6285714285714286,0.43650126156433977,1197.0
370.0,1.711004154538852e+18,0.47911227154047,0.4223744292237443,0.34594594594594597,0.499877720714111,0.6065934065934065,0.44238856181665265,1193.0
371.0,1.7110041545488796e+18,0.47911227154047,0.4075342465753425,0.3232432432432432,0.5035460992907801,0.6461538461538462,0.44070647603027757,1195.0
372.0,1.7110041545588518e+18,0.48172323759791125,0.4212328767123288,0.34540540540540543,0.5023233064318905,0.5879120879120879,0.4373423044575273,1196.0
373.0,1.7110041545688517e+18,0.47911227154047,0.4155251141552511,0.3372972972972973,0.5018341892883346,0.6197802197802198,0.43650126156433977,1198.0
374.0,1.7110041545788058e+18,0.47389033942558745,0.4452054794520548,0.3491891891891892,0.504524333577892,0.6329670329670329,0.4415475189234651,1195.0
375.0,1.7110041545888417e+18,0.4765013054830287,0.4063926940639269,0.3264864864864865,0.5015896307165566,0.6285714285714286,0.43902439024390244,1197.0
376.0,1.7110041545988452e+18,0.4765013054830287,0.4029680365296804,0.34378378378378377,0.4986549278552213,0.6021978021978022,0.4348191757779647,1196.0
377.0,1.711004154608843e+18,0.47911227154047,0.4132420091324201,0.3248648648648649,0.5018341892883346,0.6417582417582418,0.4381833473507149,1197.0
378.0,1.7110041546188431e+18,0.47780678851174935,0.4178082191780822,0.34162162162162163,0.4971875764245537,0.6021978021978022,0.4415475189234651,1195.0
379.0,1.7110041546288412e+18,0.4765013054830287,0.4246575342465753,0.3227027027027027,0.4984103692834434,0.6142857142857143,0.4348191757779647,1195.0
380.0,1.7110041546388378e+18,0.4765013054830287,0.408675799086758,0.3345945945945946,0.5064808021521154,0.6527472527472528,0.4482758620689655,1200.0
381.0,1.7110041546488095e+18,0.4765013054830287,0.4246575342465753,0.3362162162162162,0.5020787478601125,0.6373626373626373,0.42640874684608915,1195.0
382.0,1.7110041546588314e+18,0.4765013054830287,0.4132420091324201,0.3427027027027027,0.5028124235754463,0.6186813186813187,0.4415475189234651,1197.0
383.0,1.7110041546688387e+18,0.47389033942558745,0.4041095890410959,0.3210810810810811,0.5033015407190022,0.6648351648351648,0.4415475189234651,1196.0
384.0,1.7110041546788347e+18,0.4908616187989556,0.454337899543379,0.35405405405405405,0.5028124235754463,0.6098901098901099,0.4432296047098402,1197.0
385.0,1.711004154688838e+18,0.47911227154047,0.432648401826484,0.33837837837837836,0.5028124235754463,0.643956043956044,0.4415475189234651,1197.0
386.0,1.7110041546988526e+18,0.45822454308093996,0.3938356164383562,0.3389189189189189,0.5020787478601125,0.6032967032967033,0.43902439024390244,1197.0
387.0,1.7110041547088246e+18,0.4804177545691906,0.4178082191780822,0.32756756756756755,0.5015896307165566,0.634065934065934,0.43650126156433977,1197.0
388.0,1.7110041547188416e+18,0.47911227154047,0.4052511415525114,0.33945945945945943,0.5011005135730008,0.6120879120879121,0.4415475189234651,1198.0
389.0,1.7110041547288407e+18,0.4765013054830287,0.4052511415525114,0.3216216216216216,0.5001222792858889,0.6406593406593407,0.4373423044575273,1196.0
390.0,1.7110041547388442e+18,0.4725848563968668,0.4246575342465753,0.3372972972972973,0.5025678650036683,0.6054945054945055,0.44070647603027757,1194.0
391.0,1.7110041547488353e+18,0.47911227154047,0.4121004566210046,0.3362162162162162,0.5006113964294449,0.6241758241758242,0.4415475189234651,1197.0
392.0,1.71100415475883e+18,0.46475195822454307,0.4006849315068493,0.3427027027027027,0.5015896307165566,0.6065934065934065,0.4415475189234651,1197.0
393.0,1.7110041547688333e+18,0.47911227154047,0.4257990867579909,0.33837837837837836,0.5025678650036683,0.6296703296703297,0.4415475189234651,1196.0
394.0,1.7110041547788285e+18,0.46736292428198434,0.410958904109589,0.33945945945945943,0.49816581071166544,0.6065934065934065,0.4415475189234651,1197.0
395.0,1.7110041547888325e+18,0.4765013054830287,0.4178082191780822,0.3227027027027027,0.5028124235754463,0.6428571428571429,0.4381833473507149,1196.0
396.0,1.7110041547988488e+18,0.4765013054830287,0.4132420091324201,0.34054054054054056,0.5023233064318905,0.6131868131868132,0.4432296047098402,1196.0
397.0,1.7110041548088338e+18,0.47780678851174935,0.4132420091324201,0.32756756756756755,0.5015896307165566,0.643956043956044,0.43986543313709,1197.0
398.0,1.7110041548188288e+18,0.4765013054830287,0.4132420091324201,0.34324324324324323,0.504279775006114,0.6362637362637362,0.44238856181665265,1193.0
399.0,1.7110041548288259e+18,0.48433420365535246,0.4280821917808219,0.3389189189189189,0.5037906578625581,0.6428571428571429,0.4449116904962153,1194.0
400.0,1.7110041548388268e+18,0.4751958224543081,0.4406392694063927,0.3535135135135135,0.5011005135730008,0.6131868131868132,0.4432296047098402,1194.0
401.0,1.7110041548488584e+18,0.46866840731070497,0.3858447488584475,0.31567567567567567,0.5001222792858889,0.6417582417582418,0.4306139613120269,1195.0
402.0,1.71100415485883e+18,0.48825065274151436,0.4315068493150685,0.34054054054054056,0.5013450721447786,0.6208791208791209,0.4465937762825904,1196.0
403.0,1.7110041548688253e+18,0.4765013054830287,0.4143835616438356,0.33837837837837836,0.5086818292981169,0.7329670329670329,0.4381833473507149,1197.0
404.0,1.7110041548788275e+18,0.4765013054830287,0.4166666666666667,0.34540540540540543,0.504035216434336,0.610989010989011,0.44238856181665265,1197.0
405.0,1.7110041548888276e+18,0.47911227154047,0.4223744292237443,0.3302702702702703,0.4984103692834434,0.6252747252747253,0.432296047098402,1193.0
406.0,1.7110041548988398e+18,0.46866840731070497,0.4029680365296804,0.3286486486486486,0.5006113964294449,0.6032967032967033,0.4432296047098402,1197.0
407.0,1.7110041549088184e+18,0.47389033942558745,0.4280821917808219,0.33513513513513515,0.5057471264367817,0.6472527472527473,0.4381833473507149,1197.0
408.0,1.711004154918825e+18,0.47127937336814624,0.4132420091324201,0.34540540540540543,0.5079481535827831,0.656043956043956,0.4432296047098402,1196.0
409.0,1.711004154928835e+18,0.47127937336814624,0.4121004566210046,0.3237837837837838,0.5025678650036683,0.6318681318681318,0.4314550042052145,1193.0
410.0,1.7110041549388257e+18,0.4699738903394256,0.4052511415525114,0.34324324324324323,0.5008559550012228,0.6164835164835165,0.43986543313709,1196.0
411.0,1.7110041549488356e+18,0.4765013054830287,0.4143835616438356,0.3210810810810811,0.5025678650036683,0.6494505494505495,0.4381833473507149,1195.0
412.0,1.7110041549588209e+18,0.47911227154047,0.4280821917808219,0.3545945945945946,0.5006113964294449,0.6021978021978022,0.43902439024390244,1197.0
413.0,1.7110041549688243e+18,0.4830287206266319,0.430365296803653,0.34756756756756757,0.5035460992907801,0.6406593406593407,0.4381833473507149,1195.0
414.0,1.7110041549788198e+18,0.47911227154047,0.432648401826484,0.34540540540540543,0.5023233064318905,0.6186813186813187,0.4432296047098402,1197.0
415.0,1.7110041549888225e+18,0.47389033942558745,0.4235159817351598,0.3232432432432432,0.5006113964294449,0.6538461538461539,0.43313708999158956,1194.0
416.0,1.7110041549988122e+18,0.4725848563968668,0.4121004566210046,0.34486486486486484,0.5035460992907801,0.6098901098901099,0.4449116904962153,1196.0
417.0,1.7110041550088082e+18,0.47127937336814624,0.3972602739726027,0.3248648648648649,0.4954756664221081,0.6098901098901099,0.432296047098402,1194.0
418.0,1.711004155018819e+18,0.4660574412532637,0.3881278538812785,0.3372972972972973,0.5006113964294449,0.5989010989010989,0.43902439024390244,1196.0
419.0,1.7110041550288197e+18,0.4869451697127937,0.4429223744292237,0.3302702702702703,0.5025678650036683,0.6384615384615384,0.43566021867115223,1196.0
420.0,1.7110041550388173e+18,0.47780678851174935,0.4269406392694064,0.3518918918918919,0.5020787478601125,0.6153846153846154,0.4381833473507149,1198.0
421.0,1.7110041550488522e+18,0.47127937336814624,0.4121004566210046,0.33297297297297296,0.5015896307165566,0.6461538461538462,0.4348191757779647,1196.0
422.0,1.7110041550588096e+18,0.4660574412532637,0.4360730593607306,0.35027027027027025,0.5028124235754463,0.6153846153846154,0.4415475189234651,1194.0
423.0,1.7110041550688146e+18,0.48825065274151436,0.4269406392694064,0.32756756756756755,0.5028124235754463,0.6384615384615384,0.4381833473507149,1198.0
424.0,1.7110041550788152e+18,0.4765013054830287,0.432648401826484,0.3362162162162162,0.5015896307165566,0.6054945054945055,0.4440706476030278,1195.0
425.0,1.711004155088835e+18,0.4765013054830287,0.4132420091324201,0.3178378378378378,0.5028124235754463,0.6483516483516484,0.4415475189234651,1196.0
426.0,1.711004155098809e+18,0.47127937336814624,0.4143835616438356,0.34486486486486484,0.5015896307165566,0.6098901098901099,0.4415475189234651,1197.0
427.0,1.7110041551088172e+18,0.4908616187989556,0.4372146118721461,0.32594594594594595,0.5035460992907801,0.6461538461538462,0.4373423044575273,1196.0
428.0,1.711004155118812e+18,0.46866840731070497,0.4417808219178082,0.3551351351351351,0.5008559550012228,0.6098901098901099,0.4381833473507149,1196.0
429.0,1.711004155128813e+18,0.4869451697127937,0.45662100456621,0.33513513513513515,0.5025678650036683,0.6153846153846154,0.43902439024390244,1196.0
430.0,1.7110041551388137e+18,0.47127937336814624,0.4075342465753425,0.3427027027027027,0.504035216434336,0.6164835164835165,0.4415475189234651,1193.0
431.0,1.7110041551488138e+18,0.4765013054830287,0.4098173515981735,0.32756756756756755,0.5015896307165566,0.6296703296703297,0.4348191757779647,1195.0
432.0,1.7110041551588086e+18,0.47127937336814624,0.408675799086758,0.34378378378378377,0.5008559550012228,0.6131868131868132,0.44911690496215306,1194.0
433.0,1.7110041551688095e+18,0.47911227154047,0.410958904109589,0.32756756756756755,0.5015896307165566,0.6362637362637362,0.4381833473507149,1195.0
434.0,1.7110041551788216e+18,0.47911227154047,0.4178082191780822,0.3372972972972973,0.5030569821472243,0.6164835164835165,0.4440706476030278,1196.0
435.0,1.7110041551888018e+18,0.47911227154047,0.4223744292237443,0.3281081081081081,0.5033015407190022,0.6362637362637362,0.4415475189234651,1198.0
436.0,1.7110041551988475e+18,0.4856396866840731,0.4029680365296804,0.34324324324324323,0.5059916850085595,0.6296703296703297,0.43986543313709,1194.0
437.0,1.711004155208831e+18,0.46736292428198434,0.4006849315068493,0.32594594594594595,0.4991440449987772,0.6296703296703297,0.43650126156433977,1194.0
438.0,1.7110041552188221e+18,0.48172323759791125,0.4269406392694064,0.3427027027027027,0.5003668378576669,0.5560439560439561,0.44238856181665265,1194.0
439.0,1.711004155228833e+18,0.47127937336814624,0.3984018264840183,0.31567567567567567,0.4966984592809978,0.5659340659340659,0.4289318755256518,1192.0
440.0,1.7110041552388188e+18,0.4765013054830287,0.408675799086758,0.3427027027027027,0.4969430178527757,0.6120879120879121,0.4415475189234651,1196.0
441.0,1.711004155248811e+18,0.4765013054830287,0.3892694063926941,0.32594594594594595,0.5047688921496698,0.6538461538461539,0.4415475189234651,1197.0
442.0,1.7110041552588209e+18,0.4804177545691906,0.4623287671232877,0.35945945945945945,0.5011005135730008,0.6164835164835165,0.4381833473507149,1197.0
443.0,1.7110041552688133e+18,0.4765013054830287,0.4063926940639269,0.3302702702702703,0.5006113964294449,0.6538461538461539,0.43566021867115223,1197.0
444.0,1.7110041552788334e+18,0.4765013054830287,0.4098173515981735,0.34378378378378377,0.5006113964294449,0.5934065934065934,0.4449116904962153,1196.0
445.0,1.711004155288801e+18,0.47911227154047,0.432648401826484,0.3232432432432432,0.5006113964294449,0.6296703296703297,0.4373423044575273,1196.0
446.0,1.7110041552988099e+18,0.46866840731070497,0.4041095890410959,0.3308108108108108,0.4996331621423331,0.5945054945054945,0.43650126156433977,1195.0
447.0,1.7110041553088077e+18,0.48172323759791125,0.4235159817351598,0.3362162162162162,0.5028124235754463,0.6472527472527473,0.4415475189234651,1198.0
448.0,1.7110041553188424e+18,0.46866840731070497,0.410958904109589,0.34486486486486484,0.5013450721447786,0.5989010989010989,0.43566021867115223,1195.0
449.0,1.7110041553288584e+18,0.47780678851174935,0.4178082191780822,0.3286486486486486,0.5050134507214478,0.6681318681318681,0.4381833473507149,1198.0
450.0,1.7110041553388198e+18,0.47127937336814624,0.3961187214611872,0.3410810810810811,0.5025678650036683,0.6076923076923076,0.44575273338940286,1196.0
451.0,1.711004155348846e+18,0.4830287206266319,0.4075342465753425,0.3232432432432432,0.504279775006114,0.6450549450549451,0.44238856181665265,1198.0
452.0,1.7110041553588426e+18,0.47780678851174935,0.4132420091324201,0.34378378378378377,0.5006113964294449,0.5879120879120879,0.43650126156433977,1195.0
453.0,1.711004155368841e+18,0.47127937336814624,0.410958904109589,0.32432432432432434,0.5025678650036683,0.6538461538461539,0.4348191757779647,1197.0
454.0,1.7110041553788554e+18,0.47780678851174935,0.4280821917808219,0.34864864864864864,0.5013450721447786,0.610989010989011,0.43902439024390244,1196.0
455.0,1.711004155388839e+18,0.46866840731070497,0.4052511415525114,0.3237837837837838,0.5006113964294449,0.634065934065934,0.43566021867115223,1193.0
456.0,1.7110041553988116e+18,0.4765013054830287,0.4178082191780822,0.34540540540540543,0.5008559550012228,0.6142857142857143,0.4432296047098402,1194.0
457.0,1.711004155408811e+18,0.47780678851174935,0.4178082191780822,0.3254054054054054,0.5015896307165566,0.6626373626373626,0.44070647603027757,1194.0
458.0,1.71100415541881e+18,0.47911227154047,0.4611872146118721,0.3535135135135135,0.5008559550012228,0.6054945054945055,0.4440706476030278,1196.0
459.0,1.7110041554288497e+18,0.4765013054830287,0.4155251141552511,0.3302702702702703,0.4966984592809978,0.621978021978022,0.4415475189234651,1195.0
460.0,1.7110041554388227e+18,0.4751958224543081,0.4223744292237443,0.34702702702702704,0.5011005135730008,0.5989010989010989,0.432296047098402,1192.0
461.0,1.7110041554488366e+18,0.4765013054830287,0.410958904109589,0.3210810810810811,0.5037906578625581,0.6604395604395604,0.4415475189234651,1198.0
462.0,1.7110041554588073e+18,0.4725848563968668,0.4269406392694064,0.34864864864864864,0.5030569821472243,0.5703296703296703,0.43313708999158956,1194.0
463.0,1.7110041554688072e+18,0.46866840731070497,0.4041095890410959,0.32432432432432434,0.4979212521398875,0.6208791208791209,0.4373423044575273,1196.0
464.0,1.7110041554788106e+18,0.4751958224543081,0.4075342465753425,0.34486486486486484,0.5074590364392272,0.6274725274725275,0.45248107653490327,1196.0
465.0,1.711004155488817e+18,0.489556135770235,0.4429223744292237,0.3291891891891892,0.5035460992907801,0.643956043956044,0.43902439024390244,1198.0
466.0,1.7110041554988344e+18,0.4660574412532637,0.410958904109589,0.3427027027027027,0.5006113964294449,0.6043956043956044,0.43986543313709,1196.0
467.0,1.7110041555088084e+18,0.47911227154047,0.4155251141552511,0.327027027027027,0.5025678650036683,0.6758241758241759,0.43313708999158956,1193.0
468.0,1.711004155518835e+18,0.46866840731070497,0.4075342465753425,0.34324324324324323,0.5018341892883346,0.6120879120879121,0.4415475189234651,1195.0
469.0,1.7110041555288522e+18,0.4804177545691906,0.432648401826484,0.3372972972972973,0.5025678650036683,0.6406593406593407,0.4339781328847771,1195.0
470.0,1.7110041555388104e+18,0.47780678851174935,0.4315068493150685,0.3497297297297297,0.5015896307165566,0.610989010989011,0.4432296047098402,1194.0
471.0,1.7110041555488192e+18,0.47911227154047,0.4155251141552511,0.3248648648648649,0.5020787478601125,0.6450549450549451,0.4381833473507149,1194.0
472.0,1.7110041555588168e+18,0.47911227154047,0.4178082191780822,0.34378378378378377,0.49767669356810956,0.6010989010989011,0.44070647603027757,1197.0
473.0,1.711004155568854e+18,0.47911227154047,0.4360730593607306,0.32594594594594595,0.5116165321594522,0.6582417582417582,0.4432296047098402,1197.0
474.0,1.7110041555788209e+18,0.4660574412532637,0.3744292237442922,0.3335135135135135,0.5028124235754463,0.5989010989010989,0.4440706476030278,1195.0
475.0,1.7110041555888087e+18,0.47780678851174935,0.4315068493150685,0.32972972972972975,0.5020787478601125,0.6142857142857143,0.447434819175778,1196.0
476.0,1.7110041555988093e+18,0.46866840731070497,0.4029680365296804,0.33675675675675676,0.4984103692834434,0.6021978021978022,0.43650126156433977,1196.0
477.0,1.711004155608806e+18,0.4765013054830287,0.4143835616438356,0.32594594594594595,0.5011005135730008,0.6395604395604395,0.4348191757779647,1196.0
478.0,1.7110041556188288e+18,0.4765013054830287,0.4178082191780822,0.34378378378378377,0.5069699192956714,0.610989010989011,0.4415475189234651,1196.0
479.0,1.7110041556288381e+18,0.47389033942558745,0.4143835616438356,0.32756756756756755,0.5023233064318905,0.6417582417582418,0.43566021867115223,1195.0
480.0,1.7110041556388273e+18,0.4725848563968668,0.4178082191780822,0.34486486486486484,0.5008559550012228,0.6032967032967033,0.4381833473507149,1197.0
481.0,1.7110041556488092e+18,0.48433420365535246,0.4178082191780822,0.3264864864864865,0.4986549278552213,0.6351648351648351,0.4381833473507149,1197.0
482.0,1.7110041556588052e+18,0.47780678851174935,0.4212328767123288,0.35243243243243244,0.5037906578625581,0.6032967032967033,0.4449116904962153,1200.0
483.0,1.7110041556688097e+18,0.47911227154047,0.4166666666666667,0.32594594594594595,0.5025678650036683,0.6461538461538462,0.4482758620689655,1195.0
484.0,1.711004155678806e+18,0.47127937336814624,0.4063926940639269,0.3410810810810811,0.49816581071166544,0.6131868131868132,0.4381833473507149,1196.0
485.0,1.711004155688819e+18,0.4751958224543081,0.4212328767123288,0.32972972972972975,0.5006113964294449,0.6318681318681318,0.43566021867115223,1195.0
486.0,1.7110041556988342e+18,0.4660574412532637,0.4223744292237443,0.34324324324324323,0.5030569821472243,0.6241758241758242,0.4432296047098402,1197.0
487.0,1.7110041557088138e+18,0.47780678851174935,0.4006849315068493,0.3254054054054054,0.4986549278552213,0.6362637362637362,0.4432296047098402,1196.0
488.0,1.7110041557188244e+18,0.4765013054830287,0.4349315068493151,0.3427027027027027,0.4996331621423331,0.6131868131868132,0.4449116904962153,1196.0
489.0,1.7110041557287992e+18,0.48172323759791125,0.4406392694063927,0.33135135135135135,0.5015896307165566,0.6406593406593407,0.4381833473507149,1196.0
490.0,1.711004155738822e+18,0.46344647519582244,0.4006849315068493,0.3389189189189189,0.5025678650036683,0.6065934065934065,0.4415475189234651,1192.0
491.0,1.711004155748828e+18,0.47911227154047,0.4143835616438356,0.32432432432432434,0.4979212521398875,0.6373626373626373,0.4348191757779647,1197.0
492.0,1.7110041557588078e+18,0.4725848563968668,0.4200913242009132,0.35027027027027025,0.504524333577892,0.6230769230769231,0.4432296047098402,1196.0
493.0,1.7110041557688212e+18,0.48825065274151436,0.4634703196347032,0.32756756756756755,0.5015896307165566,0.6362637362637362,0.44238856181665265,1195.0
494.0,1.711004155778844e+18,0.46866840731070497,0.4041095890410959,0.33945945945945943,0.5011005135730008,0.5945054945054945,0.4348191757779647,1195.0
495.0,1.7110041557888056e+18,0.47389033942558745,0.410958904109589,0.32216216216216215,0.5015896307165566,0.6428571428571429,0.4373423044575273,1196.0
496.0,1.7110041557988275e+18,0.4765013054830287,0.4143835616438356,0.34378378378378377,0.5015896307165566,0.6120879120879121,0.4432296047098402,1196.0
497.0,1.711004155808808e+18,0.4765013054830287,0.410958904109589,0.32216216216216215,0.5047688921496698,0.6329670329670329,0.43650126156433977,1197.0
498.0,1.7110041558188083e+18,0.4699738903394256,0.408675799086758,0.3335135135135135,0.5020787478601125,0.6076923076923076,0.4440706476030278,1197.0
499.0,1.7110041558288202e+18,0.4804177545691906,0.4246575342465753,0.31945945945945947,0.5028124235754463,0.6428571428571429,0.43986543313709,1197.0
500.0,1.7110041558388045e+18,0.4725848563968668,0.4121004566210046,0.34324324324324323,0.5030569821472243,0.6274725274725275,0.4432296047098402,1197.0
501.0,1.7110041558488084e+18,0.48172323759791125,0.4143835616438356,0.3237837837837838,0.499877720714111,0.6384615384615384,0.4348191757779647,1197.0
502.0,1.711004155858824e+18,0.47127937336814624,0.4189497716894977,0.34324324324324323,0.504524333577892,0.6054945054945055,0.43902439024390244,1196.0
503.0,1.7110041558688248e+18,0.47780678851174935,0.4041095890410959,0.3232432432432432,0.5015896307165566,0.6395604395604395,0.43902439024390244,1197.0
504.0,1.7110041558788145e+18,0.48172323759791125,0.4098173515981735,0.3410810810810811,0.5020787478601125,0.6142857142857143,0.4432296047098402,1197.0
505.0,1.7110041558888197e+18,0.4751958224543081,0.4246575342465753,0.3302702702702703,0.5025678650036683,0.6395604395604395,0.4348191757779647,1194.0
506.0,1.7110041558988257e+18,0.47911227154047,0.4634703196347032,0.34162162162162163,0.5020787478601125,0.6065934065934065,0.447434819175778,1197.0
507.0,1.7110041559088253e+18,0.4699738903394256,0.3915525114155251,0.32756756756756755,0.5030569821472243,0.6384615384615384,0.43313708999158956,1193.0
508.0,1.7110041559188111e+18,0.4856396866840731,0.4315068493150685,0.35081081081081084,0.5013450721447786,0.6131868131868132,0.44238856181665265,1198.0
509.0,1.7110041559288118e+18,0.47389033942558745,0.4132420091324201,0.3335135135135135,0.5020787478601125,0.6406593406593407,0.4348191757779647,1195.0
510.0,1.7110041559388147e+18,0.4725848563968668,0.410958904109589,0.34486486486486484,0.5011005135730008,0.6032967032967033,0.44575273338940286,1196.0
511.0,1.7110041559488092e+18,0.47911227154047,0.4178082191780822,0.32594594594594595,0.5003668378576669,0.6362637362637362,0.43902439024390244,1197.0
512.0,1.7110041559588093e+18,0.48433420365535246,0.4646118721461187,0.3643243243243243,0.5008559550012228,0.6054945054945055,0.43902439024390244,1196.0
513.0,1.711004155968816e+18,0.47127937336814624,0.4075342465753425,0.3237837837837838,0.5025678650036683,0.6450549450549451,0.43986543313709,1196.0
514.0,1.711004155978811e+18,0.48172323759791125,0.432648401826484,0.36486486486486486,0.5035460992907801,0.6098901098901099,0.4449116904962153,1196.0
515.0,1.711004155988809e+18,0.47911227154047,0.3824200913242009,0.3172972972972973,0.5015896307165566,0.6417582417582418,0.43566021867115223,1198.0
516.0,1.7110041559988047e+18,0.4725848563968668,0.4006849315068493,0.3362162162162162,0.5023233064318905,0.6131868131868132,0.4432296047098402,1198.0
517.0,1.7110041560088044e+18,0.47389033942558745,0.3755707762557078,0.31675675675675674,0.5008559550012228,0.6395604395604395,0.43986543313709,1198.0
518.0,1.711004156018805e+18,0.47911227154047,0.4200913242009132,0.35135135135135137,0.5030569821472243,0.6153846153846154,0.4432296047098402,1198.0
519.0,1.7110041560288023e+18,0.47780678851174935,0.4337899543378995,0.32594594594594595,0.5015896307165566,0.6428571428571429,0.4415475189234651,1195.0
520.0,1.711004156038827e+18,0.4621409921671018,0.3789954337899543,0.33135135135135135,0.49938860357055515,0.621978021978022,0.43902439024390244,1196.0
521.0,1.7110041560488095e+18,0.49738903394255873,0.4600456621004566,0.3362162162162162,0.5055025678650037,0.6538461538461539,0.4415475189234651,1196.0
522.0,1.7110041560588086e+18,0.4725848563968668,0.4223744292237443,0.34324324324324323,0.5008559550012228,0.6032967032967033,0.43902439024390244,1196.0
523.0,1.7110041560688118e+18,0.4765013054830287,0.410958904109589,0.3227027027027027,0.4986549278552213,0.6296703296703297,0.4314550042052145,1194.0
524.0,1.711004156078828e+18,0.4765013054830287,0.4178082191780822,0.34702702702702704,0.5001222792858889,0.6054945054945055,0.45248107653490327,1196.0
525.0,1.7110041560888072e+18,0.48172323759791125,0.4006849315068493,0.3237837837837838,0.4996331621423331,0.6461538461538462,0.4415475189234651,1196.0
526.0,1.7110041560988111e+18,0.4699738903394256,0.3835616438356164,0.34324324324324323,0.5008559550012228,0.6076923076923076,0.43650126156433977,1196.0
527.0,1.71100415610881e+18,0.4804177545691906,0.3949771689497717,0.32,0.5020787478601125,0.6373626373626373,0.4373423044575273,1196.0
528.0,1.7110041561188104e+18,0.47127937336814624,0.408675799086758,0.3427027027027027,0.5020787478601125,0.6098901098901099,0.4432296047098402,1195.0
529.0,1.7110041561288082e+18,0.47780678851174935,0.432648401826484,0.32756756756756755,0.5018341892883346,0.6384615384615384,0.43566021867115223,1198.0
530.0,1.711004156138809e+18,0.47389033942558745,0.4029680365296804,0.3464864864864865,0.5015896307165566,0.6098901098901099,0.44238856181665265,1194.0
531.0,1.711004156148811e+18,0.4765013054830287,0.4063926940639269,0.3254054054054054,0.5030569821472243,0.6494505494505495,0.43566021867115223,1197.0
532.0,1.7110041561588114e+18,0.47389033942558745,0.4178082191780822,0.34756756756756757,0.5020787478601125,0.6120879120879121,0.4415475189234651,1198.0
533.0,1.7110041561688115e+18,0.4804177545691906,0.4143835616438356,0.32216216216216215,0.5018341892883346,0.634065934065934,0.44070647603027757,1195.0
534.0,1.7110041561788293e+18,0.4725848563968668,0.3778538812785388,0.3372972972972973,0.5035460992907801,0.6120879120879121,0.4381833473507149,1195.0
535.0,1.7110041561888087e+18,0.49216710182767626,0.430365296803653,0.32054054054054054,0.5018341892883346,0.6538461538461539,0.4432296047098402,1197.0
536.0,1.7110041561988104e+18,0.47389033942558745,0.4132420091324201,0.3372972972972973,0.5015896307165566,0.6076923076923076,0.4415475189234651,1197.0
537.0,1.7110041562088118e+18,0.4830287206266319,0.4132420091324201,0.31945945945945947,0.5025678650036683,0.6450549450549451,0.4432296047098402,1198.0
538.0,1.7110041562188132e+18,0.4804177545691906,0.4018264840182648,0.34540540540540543,0.5030569821472243,0.6076923076923076,0.4432296047098402,1195.0
539.0,1.7110041562288108e+18,0.4765013054830287,0.408675799086758,0.32432432432432434,0.5001222792858889,0.6428571428571429,0.4373423044575273,1195.0
540.0,1.7110041562388163e+18,0.47780678851174935,0.4155251141552511,0.34324324324324323,0.5018341892883346,0.5934065934065934,0.4415475189234651,1195.0
541.0,1.7110041562488154e+18,0.47389033942558745,0.4292237442922374,0.3308108108108108,0.5035460992907801,0.6582417582417582,0.4381833473507149,1199.0
542.0,1.7110041562588155e+18,0.47127937336814624,0.4006849315068493,0.3362162162162162,0.5015896307165566,0.6098901098901099,0.44238856181665265,1195.0
543.0,1.7110041562688184e+18,0.4765013054830287,0.3984018264840183,0.3172972972972973,0.5015896307165566,0.6461538461538462,0.4440706476030278,1196.0
544.0,1.7110041562788147e+18,0.4725848563968668,0.4200913242009132,0.35081081081081084,0.5015896307165566,0.6131868131868132,0.4381833473507149,1195.0
545.0,1.7110041562887964e+18,0.48172323759791125,0.4360730593607306,0.3389189189189189,0.5025678650036683,0.6406593406593407,0.4381833473507149,1197.0
546.0,1.7110041562988165e+18,0.4621409921671018,0.3915525114155251,0.34054054054054056,0.5015896307165566,0.6021978021978022,0.4373423044575273,1198.0
547.0,1.711004156308817e+18,0.47911227154047,0.4132420091324201,0.3216216216216216,0.5001222792858889,0.6406593406593407,0.4381833473507149,1197.0
548.0,1.7110041563188183e+18,0.47389033942558745,0.4143835616438356,0.3491891891891892,0.5011005135730008,0.6054945054945055,0.4373423044575273,1196.0
549.0,1.711004156328797e+18,0.48172323759791125,0.4223744292237443,0.327027027027027,0.504035216434336,0.6472527472527473,0.43902439024390244,1195.0
550.0,1.7110041563388227e+18,0.47127937336814624,0.410958904109589,0.34324324324324323,0.5035460992907801,0.6131868131868132,0.43986543313709,1194.0
551.0,1.711004156348821e+18,0.46866840731070497,0.3812785388127854,0.31351351351351353,0.49938860357055515,0.6362637362637362,0.4339781328847771,1193.0
552.0,1.711004156358803e+18,0.47780678851174935,0.4200913242009132,0.3518918918918919,0.5020787478601125,0.6098901098901099,0.4415475189234651,1196.0
553.0,1.7110041563688207e+18,0.4869451697127937,0.45662100456621,0.3286486486486486,0.5020787478601125,0.6417582417582418,0.4440706476030278,1197.0
554.0,1.7110041563788027e+18,0.4765013054830287,0.432648401826484,0.35135135135135137,0.4966984592809978,0.6032967032967033,0.4432296047098402,1195.0
555.0,1.7110041563888282e+18,0.4765013054830287,0.4223744292237443,0.3302702702702703,0.5033015407190022,0.6417582417582418,0.4381833473507149,1196.0
556.0,1.711004156398821e+18,0.4765013054830287,0.4223744292237443,0.34324324324324323,0.5025678650036683,0.6142857142857143,0.43986543313709,1196.0
557.0,1.7110041564088218e+18,0.4765013054830287,0.4063926940639269,0.3227027027027027,0.5025678650036683,0.6395604395604395,0.43650126156433977,1196.0
558.0,1.711004156418806e+18,0.47911227154047,0.408675799086758,0.3427027027027027,0.5028124235754463,0.6307692307692307,0.4507989907485282,1196.0
559.0,1.7110041564288026e+18,0.47911227154047,0.4178082191780822,0.32756756756756755,0.5018341892883346,0.6494505494505495,0.4381833473507149,1196.0
560.0,1.711004156438824e+18,0.4699738903394256,0.3892694063926941,0.34054054054054056,0.5001222792858889,0.6098901098901099,0.4415475189234651,1197.0
561.0,1.7110041564488253e+18,0.47911227154047,0.386986301369863,0.32054054054054054,0.5008559550012228,0.656043956043956,0.43650126156433977,1198.0
562.0,1.7110041564588078e+18,0.47127937336814624,0.3881278538812785,0.3464864864864865,0.5001222792858889,0.6065934065934065,0.4415475189234651,1197.0
563.0,1.7110041564688087e+18,0.4725848563968668,0.3949771689497717,0.3210810810810811,0.5011005135730008,0.6406593406593407,0.43566021867115223,1197.0
564.0,1.7110041564788055e+18,0.47127937336814624,0.4121004566210046,0.34162162162162163,0.4988994864269993,0.5967032967032967,0.43902439024390244,1195.0
565.0,1.7110041564888082e+18,0.4804177545691906,0.4360730593607306,0.3291891891891892,0.5018341892883346,0.6417582417582418,0.43650126156433977,1196.0
566.0,1.7110041564988337e+18,0.4660574412532637,0.3961187214611872,0.3464864864864865,0.5001222792858889,0.6076923076923076,0.4432296047098402,1198.0
567.0,1.711004156508804e+18,0.48825065274151436,0.4509132420091324,0.33513513513513515,0.5015896307165566,0.6384615384615384,0.43650126156433977,1195.0
568.0,1.7110041565188088e+18,0.46736292428198434,0.4018264840182648,0.34486486486486484,0.5015896307165566,0.6010989010989011,0.43986543313709,1197.0
569.0,1.7110041565288087e+18,0.4725848563968668,0.4212328767123288,0.3302702702702703,0.5018341892883346,0.634065934065934,0.4339781328847771,1193.0
570.0,1.7110041565388324e+18,0.4765013054830287,0.4452054794520548,0.34486486486486484,0.5028124235754463,0.6043956043956044,0.4415475189234651,1194.0
571.0,1.711004156548812e+18,0.4765013054830287,0.4634703196347032,0.34054054054054056,0.49816581071166544,0.6362637362637362,0.43566021867115223,1198.0
572.0,1.7110041565588114e+18,0.4725848563968668,0.4052511415525114,0.3464864864864865,0.4996331621423331,0.6032967032967033,0.4415475189234651,1195.0
573.0,1.7110041565688128e+18,0.4869451697127937,0.4280821917808219,0.3237837837837838,0.5018341892883346,0.6450549450549451,0.4415475189234651,1195.0
574.0,1.71100415657881e+18,0.4725848563968668,0.4041095890410959,0.3464864864864865,0.5028124235754463,0.6098901098901099,0.44238856181665265,1197.0
575.0,1.7110041565888084e+18,0.4725848563968668,0.3904109589041096,0.31675675675675674,0.5011005135730008,0.6428571428571429,0.43650126156433977,1196.0
576.0,1.7110041565988037e+18,0.489556135770235,0.4726027397260274,0.3551351351351351,0.5020787478601125,0.610989010989011,0.4415475189234651,1196.0
577.0,1.7110041566088095e+18,0.4725848563968668,0.4041095890410959,0.3254054054054054,0.5013450721447786,0.6417582417582418,0.43650126156433977,1196.0
578.0,1.7110041566188283e+18,0.47389033942558745,0.4121004566210046,0.34486486486486484,0.5003668378576669,0.6054945054945055,0.43902439024390244,1195.0
579.0,1.7110041566288123e+18,0.48172323759791125,0.4200913242009132,0.3248648648648649,0.49816581071166544,0.6461538461538462,0.43650126156433977,1198.0
580.0,1.7110041566388132e+18,0.4765013054830287,0.4121004566210046,0.34486486486486484,0.4991440449987772,0.6065934065934065,0.44070647603027757,1200.0
581.0,1.7110041566488036e+18,0.48433420365535246,0.432648401826484,0.3286486486486486,0.5025678650036683,0.6417582417582418,0.4381833473507149,1197.0
582.0,1.7110041566588654e+18,0.4725848563968668,0.4315068493150685,0.34702702702702704,0.5008559550012228,0.6076923076923076,0.43986543313709,1196.0
583.0,1.7110041566688187e+18,0.47127937336814624,0.4018264840182648,0.3291891891891892,0.5015896307165566,0.6406593406593407,0.432296047098402,1194.0
584.0,1.7110041566788104e+18,0.4804177545691906,0.4063926940639269,0.35081081081081084,0.5018341892883346,0.6120879120879121,0.4449116904962153,1197.0
585.0,1.711004156688814e+18,0.4830287206266319,0.432648401826484,0.33783783783783783,0.5033015407190022,0.6450549450549451,0.4415475189234651,1195.0
586.0,1.7110041566988096e+18,0.4725848563968668,0.3949771689497717,0.33837837837837836,0.5006113964294449,0.6010989010989011,0.43986543313709,1195.0
587.0,1.711004156708808e+18,0.4765013054830287,0.3949771689497717,0.32216216216216215,0.5025678650036683,0.6450549450549451,0.43650126156433977,1196.0
588.0,1.7110041567188237e+18,0.47911227154047,0.4269406392694064,0.34756756756756757,0.5018341892883346,0.6065934065934065,0.4415475189234651,1197.0
589.0,1.7110041567287985e+18,0.4804177545691906,0.4143835616438356,0.3248648648648649,0.5020787478601125,0.6428571428571429,0.4348191757779647,1198.0
590.0,1.7110041567388114e+18,0.46736292428198434,0.4292237442922374,0.34864864864864864,0.5015896307165566,0.610989010989011,0.44238856181665265,1196.0
591.0,1.7110041567488056e+18,0.47780678851174935,0.4246575342465753,0.3281081081081081,0.5011005135730008,0.6428571428571429,0.4381833473507149,1197.0
592.0,1.7110041567588032e+18,0.4765013054830287,0.3995433789954338,0.34486486486486484,0.5018341892883346,0.6098901098901099,0.4415475189234651,1195.0
593.0,1.7110041567688108e+18,0.4725848563968668,0.4006849315068493,0.32432432432432434,0.5023233064318905,0.6461538461538462,0.43902439024390244,1197.0
594.0,1.7110041567788152e+18,0.47127937336814624,0.4360730593607306,0.34486486486486484,0.5015896307165566,0.6120879120879121,0.44238856181665265,1197.0
595.0,1.7110041567888433e+18,0.47389033942558745,0.4018264840182648,0.31675675675675674,0.5013450721447786,0.6483516483516484,0.4381833473507149,1195.0
596.0,1.7110041567988068e+18,0.4765013054830287,0.4315068493150685,0.35621621621621624,0.5020787478601125,0.6065934065934065,0.4381833473507149,1197.0
597.0,1.7110041568088108e+18,0.47127937336814624,0.3824200913242009,0.32756756756756755,0.5025678650036683,0.6406593406593407,0.4381833473507149,1196.0
598.0,1.7110041568188068e+18,0.4725848563968668,0.3892694063926941,0.3427027027027027,0.5018341892883346,0.610989010989011,0.4432296047098402,1196.0
599.0,1.7110041568288148e+18,0.48825065274151436,0.4452054794520548,0.3302702702702703,0.5020787478601125,0.6494505494505495,0.44238856181665265,1199.0
600.0,1.7110041568388134e+18,0.4725848563968668,0.4098173515981735,0.34054054054054056,0.5020787478601125,0.6087912087912087,0.43986543313709,1198.0
601.0,1.711004156848811e+18,0.4830287206266319,0.4497716894977169,0.34054054054054056,0.5020787478601125,0.6417582417582418,0.4381833473507149,1198.0
602.0,1.7110041568588424e+18,0.4725848563968668,0.4417808219178082,0.34864864864864864,0.4991440449987772,0.6076923076923076,0.4432296047098402,1198.0
603.0,1.7110041568688105e+18,0.47127937336814624,0.4143835616438356,0.327027027027027,0.4996331621423331,0.6406593406593407,0.4348191757779647,1197.0
604.0,1.7110041568788111e+18,0.47127937336814624,0.3881278538812785,0.3345945945945946,0.5015896307165566,0.6065934065934065,0.43986543313709,1197.0
605.0,1.711004156888804e+18,0.49216710182767626,0.4611872146118721,0.3308108108108108,0.5013450721447786,0.6428571428571429,0.4381833473507149,1199.0
606.0,1.7110041568988088e+18,0.4725848563968668,0.4223744292237443,0.35027027027027025,0.5018341892883346,0.6021978021978022,0.4432296047098402,1196.0
607.0,1.7110041569088092e+18,0.4725848563968668,0.4429223744292237,0.34162162162162163,0.5015896307165566,0.6417582417582418,0.4348191757779647,1196.0
608.0,1.711004156918864e+18,0.4751958224543081,0.432648401826484,0.3427027027027027,0.5023233064318905,0.6098901098901099,0.44575273338940286,1196.0
609.0,1.7110041569288156e+18,0.47127937336814624,0.4121004566210046,0.3232432432432432,0.504035216434336,0.6450549450549451,0.4415475189234651,1195.0
610.0,1.7110041569388099e+18,0.47911227154047,0.4600456621004566,0.36972972972972973,0.5011005135730008,0.5989010989010989,0.4415475189234651,1194.0
611.0,1.7110041569488125e+18,0.4765013054830287,0.4235159817351598,0.32756756756756755,0.5015896307165566,0.6384615384615384,0.4381833473507149,1196.0
612.0,1.7110041569588058e+18,0.46344647519582244,0.4132420091324201,0.3389189189189189,0.5008559550012228,0.6065934065934065,0.4415475189234651,1198.0
613.0,1.7110041569688535e+18,0.4765013054830287,0.4155251141552511,0.3172972972972973,0.5037906578625581,0.6516483516483517,0.4415475189234651,1196.0
614.0,1.7110041569788114e+18,0.47780678851174935,0.4200913242009132,0.34486486486486484,0.5015896307165566,0.6054945054945055,0.44238856181665265,1197.0
615.0,1.711004156988812e+18,0.4765013054830287,0.4212328767123288,0.3248648648648649,0.5008559550012228,0.6417582417582418,0.4381833473507149,1197.0
616.0,1.711004156998808e+18,0.4725848563968668,0.4246575342465753,0.34486486486486484,0.4969430178527757,0.5978021978021978,0.43650126156433977,1197.0
617.0,1.7110041570088072e+18,0.47127937336814624,0.410958904109589,0.3237837837837838,0.5023233064318905,0.6395604395604395,0.43566021867115223,1196.0
618.0,1.7110041570188324e+18,0.4765013054830287,0.4315068493150685,0.35783783783783785,0.5023233064318905,0.6087912087912087,0.4415475189234651,1196.0
619.0,1.7110041570288064e+18,0.4765013054830287,0.4178082191780822,0.3216216216216216,0.4991440449987772,0.6274725274725275,0.43566021867115223,1197.0
620.0,1.7110041570388111e+18,0.48172323759791125,0.4246575342465753,0.3491891891891892,0.5013450721447786,0.6054945054945055,0.44070647603027757,1199.0
621.0,1.711004157048809e+18,0.4765013054830287,0.4132420091324201,0.3248648648648649,0.5047688921496698,0.6582417582417582,0.43902439024390244,1197.0
622.0,1.7110041570588052e+18,0.48172323759791125,0.4589041095890411,0.3643243243243243,0.5015896307165566,0.6065934065934065,0.4415475189234651,1196.0
623.0,1.7110041570688228e+18,0.47389033942558745,0.4063926940639269,0.3210810810810811,0.5035460992907801,0.6395604395604395,0.4373423044575273,1198.0
624.0,1.7110041570788014e+18,0.47127937336814624,0.4178082191780822,0.3491891891891892,0.5008559550012228,0.6087912087912087,0.44070647603027757,1195.0
625.0,1.711004157088808e+18,0.48433420365535246,0.4292237442922374,0.32594594594594595,0.5020787478601125,0.6461538461538462,0.43566021867115223,1196.0
626.0,1.711004157098807e+18,0.46475195822454307,0.3995433789954338,0.33837837837837836,0.5015896307165566,0.6054945054945055,0.4440706476030278,1196.0
627.0,1.7110041571088084e+18,0.47389033942558745,0.4509132420091324,0.33513513513513515,0.5028124235754463,0.6604395604395604,0.4449116904962153,1197.0
628.0,1.7110041571188178e+18,0.47127937336814624,0.4155251141552511,0.34756756756756757,0.5033015407190022,0.5978021978021978,0.44238856181665265,1196.0
629.0,1.7110041571288013e+18,0.4830287206266319,0.4452054794520548,0.3281081081081081,0.5018341892883346,0.6417582417582418,0.4373423044575273,1196.0
630.0,1.7110041571388132e+18,0.4699738903394256,0.4041095890410959,0.34324324324324323,0.5023233064318905,0.6098901098901099,0.4449116904962153,1195.0
631.0,1.711004157148814e+18,0.4804177545691906,0.4269406392694064,0.3286486486486486,0.5018341892883346,0.6450549450549451,0.43650126156433977,1195.0
632.0,1.7110041571588111e+18,0.4765013054830287,0.3938356164383562,0.34486486486486484,0.5015896307165566,0.6098901098901099,0.4415475189234651,1195.0
633.0,1.711004157168819e+18,0.4804177545691906,0.408675799086758,0.3281081081081081,0.5023233064318905,0.6483516483516484,0.4415475189234651,1195.0
634.0,1.7110041571788073e+18,0.46736292428198434,0.3881278538812785,0.3345945945945946,0.5006113964294449,0.6087912087912087,0.4432296047098402,1197.0
635.0,1.7110041571888084e+18,0.47911227154047,0.4075342465753425,0.3254054054054054,0.504524333577892,0.6505494505494506,0.4415475189234651,1196.0
636.0,1.7110041571988055e+18,0.4765013054830287,0.4132420091324201,0.3518918918918919,0.5015896307165566,0.6076923076923076,0.4415475189234651,1196.0
637.0,1.7110041572088082e+18,0.4725848563968668,0.4018264840182648,0.3227027027027027,0.5020787478601125,0.6417582417582418,0.43902439024390244,1196.0
638.0,1.7110041572188285e+18,0.4765013054830287,0.4189497716894977,0.3535135135135135,0.5003668378576669,0.6098901098901099,0.44070647603027757,1197.0
639.0,1.711004157228826e+18,0.47127937336814624,0.4098173515981735,0.3227027027027027,0.5035460992907801,0.6505494505494506,0.4381833473507149,1197.0
640.0,1.7110041572388127e+18,0.46736292428198434,0.4052511415525114,0.34054054054054056,0.5001222792858889,0.6021978021978022,0.44238856181665265,1196.0
641.0,1.711004157248804e+18,0.48433420365535246,0.3904109589041096,0.3124324324324324,0.49938860357055515,0.6428571428571429,0.4381833473507149,1196.0
642.0,1.7110041572588088e+18,0.4830287206266319,0.4360730593607306,0.3643243243243243,0.5008559550012228,0.6175824175824176,0.4432296047098402,1197.0
643.0,1.7110041572688146e+18,0.4830287206266319,0.4200913242009132,0.3216216216216216,0.5025678650036683,0.6472527472527473,0.43986543313709,1197.0
644.0,1.7110041572788045e+18,0.4725848563968668,0.410958904109589,0.34486486486486484,0.5013450721447786,0.6098901098901099,0.4482758620689655,1196.0
645.0,1.7110041572888125e+18,0.4804177545691906,0.4394977168949772,0.3302702702702703,0.5025678650036683,0.6395604395604395,0.4381833473507149,1197.0
646.0,1.71100415729881e+18,0.4699738903394256,0.410958904109589,0.3443243243243243,0.499877720714111,0.6186813186813187,0.43902439024390244,1195.0
647.0,1.7110041573088097e+18,0.4765013054830287,0.4269406392694064,0.32756756756756755,0.5030569821472243,0.6538461538461539,0.44238856181665265,1197.0
648.0,1.7110041573188221e+18,0.47780678851174935,0.4360730593607306,0.3443243243243243,0.5028124235754463,0.6120879120879121,0.4432296047098402,1197.0
649.0,1.7110041573288023e+18,0.4765013054830287,0.3949771689497717,0.32594594594594595,0.5008559550012228,0.6395604395604395,0.4415475189234651,1197.0
650.0,1.7110041573388111e+18,0.46736292428198434,0.3938356164383562,0.35621621621621624,0.5023233064318905,0.6175824175824176,0.4440706476030278,1194.0
651.0,1.711004157348808e+18,0.4765013054830287,0.4063926940639269,0.3232432432432432,0.5025678650036683,0.6461538461538462,0.4415475189234651,1198.0
652.0,1.7110041573588083e+18,0.47127937336814624,0.410958904109589,0.3308108108108108,0.5006113964294449,0.6098901098901099,0.43902439024390244,1197.0
653.0,1.7110041573688333e+18,0.47780678851174935,0.432648401826484,0.32594594594594595,0.5003668378576669,0.6208791208791209,0.432296047098402,1193.0
654.0,1.7110041573788088e+18,0.47389033942558745,0.4474885844748858,0.36108108108108106,0.5025678650036683,0.6186813186813187,0.4415475189234651,1195.0
655.0,1.7110041573888105e+18,0.4765013054830287,0.4052511415525114,0.32,0.5015896307165566,0.6395604395604395,0.43313708999158956,1192.0
656.0,1.711004157398811e+18,0.47911227154047,0.4269406392694064,0.35135135135135137,0.5025678650036683,0.6131868131868132,0.44575273338940286,1197.0
657.0,1.711004157408811e+18,0.47389033942558745,0.408675799086758,0.3254054054054054,0.5018341892883346,0.6384615384615384,0.4373423044575273,1196.0
658.0,1.7110041574188063e+18,0.4725848563968668,0.4155251141552511,0.3518918918918919,0.5025678650036683,0.6098901098901099,0.4440706476030278,1198.0
659.0,1.7110041574288084e+18,0.48433420365535246,0.4794520547945205,0.33135135135135135,0.5028124235754463,0.6384615384615384,0.4373423044575273,1197.0
660.0,1.711004157438812e+18,0.46475195822454307,0.4006849315068493,0.3308108108108108,0.5025678650036683,0.6164835164835165,0.4415475189234651,1196.0
661.0,1.7110041574488123e+18,0.4830287206266319,0.4200913242009132,0.3232432432432432,0.5020787478601125,0.6461538461538462,0.43902439024390244,1197.0
662.0,1.711004157458937e+18,0.4856396866840731,0.4394977168949772,0.35405405405405405,0.5025678650036683,0.6098901098901099,0.4440706476030278,1196.0
663.0,1.7110041574688223e+18,0.4765013054830287,0.4269406392694064,0.3286486486486486,0.5006113964294449,0.6395604395604395,0.43986543313709,1197.0
664.0,1.7110041574788134e+18,0.46736292428198434,0.4155251141552511,0.34540540540540543,0.5006113964294449,0.6054945054945055,0.4373423044575273,1195.0
665.0,1.7110041574888146e+18,0.47389033942558745,0.4178082191780822,0.3281081081081081,0.5030569821472243,0.6450549450549451,0.4373423044575273,1197.0
666.0,1.7110041574987804e+18,0.47911227154047,0.4360730593607306,0.3410810810810811,0.5025678650036683,0.6120879120879121,0.4432296047098402,1197.0
667.0,1.7110041575088166e+18,0.4765013054830287,0.4337899543378995,0.33513513513513515,0.5023233064318905,0.6428571428571429,0.43902439024390244,1196.0
668.0,1.7110041575188063e+18,0.4765013054830287,0.4269406392694064,0.3481081081081081,0.5011005135730008,0.6054945054945055,0.4415475189234651,1197.0
669.0,1.711004157528809e+18,0.4765013054830287,0.4223744292237443,0.3389189189189189,0.5018341892883346,0.6417582417582418,0.43566021867115223,1198.0
670.0,1.7110041575388168e+18,0.46866840731070497,0.4063926940639269,0.33837837837837836,0.504279775006114,0.6153846153846154,0.4415475189234651,1195.0
671.0,1.7110041575488422e+18,0.4765013054830287,0.4200913242009132,0.3264864864864865,0.5018341892883346,0.6461538461538462,0.4432296047098402,1198.0
672.0,1.7110041575588168e+18,0.4725848563968668,0.3961187214611872,0.3491891891891892,0.5025678650036683,0.6087912087912087,0.44238856181665265,1196.0
673.0,1.711004157568811e+18,0.48433420365535246,0.4531963470319635,0.33297297297297296,0.5011005135730008,0.6395604395604395,0.4415475189234651,1197.0
674.0,1.711004157578818e+18,0.46475195822454307,0.410958904109589,0.3545945945945946,0.5015896307165566,0.6043956043956044,0.43986543313709,1197.0
675.0,1.711004157588819e+18,0.4765013054830287,0.4132420091324201,0.3210810810810811,0.5015896307165566,0.6450549450549451,0.43566021867115223,1195.0
676.0,1.7110041575988198e+18,0.4725848563968668,0.4155251141552511,0.34486486486486484,0.5020787478601125,0.6065934065934065,0.4415475189234651,1197.0
677.0,1.711004157608809e+18,0.48433420365535246,0.4372146118721461,0.33513513513513515,0.5025678650036683,0.6428571428571429,0.4348191757779647,1195.0
678.0,1.711004157618811e+18,0.4765013054830287,0.4246575342465753,0.35135135135135137,0.5030569821472243,0.6208791208791209,0.4440706476030278,1197.0
679.0,1.7110041576288205e+18,0.4856396866840731,0.430365296803653,0.3281081081081081,0.5001222792858889,0.643956043956044,0.4381833473507149,1197.0
680.0,1.7110041576388285e+18,0.46866840731070497,0.4075342465753425,0.34486486486486484,0.5025678650036683,0.6175824175824176,0.4432296047098402,1197.0
681.0,1.7110041576488215e+18,0.4765013054830287,0.4257990867579909,0.33135135135135135,0.5025678650036683,0.6406593406593407,0.43650126156433977,1198.0
682.0,1.7110041576588111e+18,0.4725848563968668,0.4029680365296804,0.3237837837837838,0.5013450721447786,0.6065934065934065,0.44238856181665265,1197.0
683.0,1.711004157668805e+18,0.4869451697127937,0.4155251141552511,0.33405405405405403,0.5035460992907801,0.6461538461538462,0.44575273338940286,1198.0
684.0,1.7110041576788206e+18,0.47127937336814624,0.4098173515981735,0.34054054054054056,0.5018341892883346,0.6142857142857143,0.4449116904962153,1197.0
685.0,1.711004157688806e+18,0.4725848563968668,0.4041095890410959,0.3281081081081081,0.5018341892883346,0.6450549450549451,0.43650126156433977,1196.0
686.0,1.7110041576988472e+18,0.47127937336814624,0.4075342465753425,0.34702702702702704,0.5025678650036683,0.6120879120879121,0.4415475189234651,1197.0
687.0,1.7110041577088195e+18,0.47780678851174935,0.454337899543379,0.32972972972972975,0.5037906578625581,0.6450549450549451,0.43313708999158956,1195.0
688.0,1.711004157718815e+18,0.47127937336814624,0.4052511415525114,0.34378378378378377,0.499877720714111,0.6032967032967033,0.44238856181665265,1195.0
689.0,1.7110041577288097e+18,0.4765013054830287,0.4132420091324201,0.3210810810810811,0.5023233064318905,0.6450549450549451,0.43902439024390244,1197.0
690.0,1.7110041577388093e+18,0.4699738903394256,0.4178082191780822,0.3567567567567568,0.5006113964294449,0.6098901098901099,0.4415475189234651,1197.0
691.0,1.71100415774883e+18,0.4765013054830287,0.4155251141552511,0.33135135135135135,0.5020787478601125,0.6450549450549451,0.44070647603027757,1198.0
692.0,1.711004157758819e+18,0.4765013054830287,0.4189497716894977,0.34540540540540543,0.5006113964294449,0.6098901098901099,0.44070647603027757,1197.0
693.0,1.7110041577688102e+18,0.4765013054830287,0.408675799086758,0.3227027027027027,0.5018341892883346,0.6450549450549451,0.4373423044575273,1195.0
694.0,1.7110041577788111e+18,0.4856396866840731,0.4315068493150685,0.34864864864864864,0.5006113964294449,0.6054945054945055,0.4415475189234651,1196.0
695.0,1.711004157788809e+18,0.4765013054830287,0.4098173515981735,0.31027027027027027,0.5037906578625581,0.6505494505494506,0.4339781328847771,1192.0
696.0,1.7110041577988096e+18,0.47127937336814624,0.4075342465753425,0.34486486486486484,0.5035460992907801,0.6065934065934065,0.4415475189234651,1195.0
697.0,1.711004157808815e+18,0.47911227154047,0.4417808219178082,0.34054054054054056,0.5025678650036683,0.6461538461538462,0.4381833473507149,1197.0
698.0,1.711004157818808e+18,0.48172323759791125,0.454337899543379,0.3643243243243243,0.5013450721447786,0.6021978021978022,0.4449116904962153,1198.0
699.0,1.7110041578288054e+18,0.4765013054830287,0.408675799086758,0.3216216216216216,0.5001222792858889,0.6472527472527473,0.43986543313709,1197.0
700.0,1.7110041578388324e+18,0.47127937336814624,0.4132420091324201,0.34486486486486484,0.5020787478601125,0.6098901098901099,0.4449116904962153,1198.0
701.0,1.7110041578488246e+18,0.4725848563968668,0.4041095890410959,0.3248648648648649,0.5015896307165566,0.6472527472527473,0.43902439024390244,1197.0
702.0,1.711004157858811e+18,0.4765013054830287,0.4212328767123288,0.35135135135135137,0.5035460992907801,0.6065934065934065,0.4415475189234651,1199.0
703.0,1.7110041578688123e+18,0.47780678851174935,0.4200913242009132,0.32594594594594595,0.5018341892883346,0.6472527472527473,0.4432296047098402,1197.0
704.0,1.7110041578788111e+18,0.47911227154047,0.4223744292237443,0.3302702702702703,0.5008559550012228,0.6032967032967033,0.43986543313709,1196.0
705.0,1.71100415788881e+18,0.47127937336814624,0.3789954337899543,0.3162162162162162,0.5011005135730008,0.6351648351648351,0.43313708999158956,1194.0
706.0,1.711004157898811e+18,0.48433420365535246,0.4041095890410959,0.3481081081081081,0.5023233064318905,0.6142857142857143,0.4449116904962153,1198.0
707.0,1.7110041579088102e+18,0.47127937336814624,0.408675799086758,0.3232432432432432,0.5025678650036683,0.6406593406593407,0.4348191757779647,1198.0
708.0,1.7110041579188068e+18,0.4765013054830287,0.432648401826484,0.34486486486486484,0.5015896307165566,0.610989010989011,0.4449116904962153,1196.0
709.0,1.7110041579288008e+18,0.4725848563968668,0.4006849315068493,0.3108108108108108,0.5018341892883346,0.6395604395604395,0.4381833473507149,1194.0
710.0,1.7110041579388132e+18,0.47911227154047,0.4200913242009132,0.34702702702702704,0.4996331621423331,0.6098901098901099,0.4415475189234651,1194.0
711.0,1.711004157948822e+18,0.48172323759791125,0.4394977168949772,0.3345945945945946,0.5025678650036683,0.6406593406593407,0.43986543313709,1196.0
712.0,1.711004157958806e+18,0.46866840731070497,0.4474885844748858,0.35135135135135137,0.5008559550012228,0.6065934065934065,0.43986543313709,1196.0
713.0,1.7110041579688046e+18,0.47780678851174935,0.4269406392694064,0.3372972972972973,0.5023233064318905,0.6417582417582418,0.4381833473507149,1196.0
714.0,1.7110041579788152e+18,0.4660574412532637,0.4063926940639269,0.34702702702702704,0.5001222792858889,0.6076923076923076,0.43986543313709,1197.0
715.0,1.7110041579888105e+18,0.47911227154047,0.4052511415525114,0.31567567567567567,0.5025678650036683,0.6417582417582418,0.4339781328847771,1193.0
716.0,1.7110041579988244e+18,0.46866840731070497,0.3904109589041096,0.3318918918918919,0.5011005135730008,0.6076923076923076,0.43902439024390244,1196.0
717.0,1.7110041580088028e+18,0.48433420365535246,0.4155251141552511,0.32216216216216215,0.5015896307165566,0.6395604395604395,0.43566021867115223,1196.0
718.0,1.7110041580188147e+18,0.47911227154047,0.3984018264840183,0.3324324324324324,0.5011005135730008,0.6032967032967033,0.4415475189234651,1196.0
719.0,1.7110041580288195e+18,0.48172323759791125,0.4052511415525114,0.32,0.504035216434336,0.6494505494505495,0.44070647603027757,1196.0
720.0,1.7110041580388196e+18,0.4699738903394256,0.410958904109589,0.34486486486486484,0.5001222792858889,0.6043956043956044,0.43902439024390244,1196.0
721.0,1.7110041580488353e+18,0.47911227154047,0.4155251141552511,0.32216216216216215,0.5025678650036683,0.643956043956044,0.43650126156433977,1195.0
722.0,1.7110041580588163e+18,0.46475195822454307,0.410958904109589,0.34378378378378377,0.5008559550012228,0.6065934065934065,0.4381833473507149,1197.0
723.0,1.7110041580688192e+18,0.47911227154047,0.4383561643835616,0.3389189189189189,0.5015896307165566,0.6406593406593407,0.4381833473507149,1193.0
724.0,1.711004158078815e+18,0.4765013054830287,0.4246575342465753,0.34216216216216216,0.5015896307165566,0.6021978021978022,0.4373423044575273,1194.0
725.0,1.711004158088819e+18,0.46866840731070497,0.3767123287671233,0.312972972972973,0.499877720714111,0.6307692307692307,0.432296047098402,1193.0
726.0,1.7110041580988221e+18,0.48172323759791125,0.4315068493150685,0.3491891891891892,0.5013450721447786,0.6098901098901099,0.43902439024390244,1196.0
727.0,1.7110041581088108e+18,0.47780678851174935,0.4052511415525114,0.31945945945945947,0.5035460992907801,0.6516483516483517,0.4381833473507149,1196.0
728.0,1.7110041581188132e+18,0.46736292428198434,0.4063926940639269,0.3410810810810811,0.4996331621423331,0.6,0.4381833473507149,1196.0
729.0,1.7110041581288159e+18,0.4765013054830287,0.4075342465753425,0.31945945945945947,0.5008559550012228,0.6472527472527473,0.4381833473507149,1197.0
730.0,1.7110041581388334e+18,0.4725848563968668,0.410958904109589,0.34702702702702704,0.5018341892883346,0.6043956043956044,0.44238856181665265,1193.0
731.0,1.7110041581488233e+18,0.48172323759791125,0.4269406392694064,0.33297297297297296,0.5018341892883346,0.6461538461538462,0.4373423044575273,1197.0
732.0,1.7110041581588145e+18,0.47780678851174935,0.408675799086758,0.34324324324324323,0.5018341892883346,0.610989010989011,0.44238856181665265,1196.0
733.0,1.7110041581688118e+18,0.4725848563968668,0.3881278538812785,0.31567567567567567,0.5013450721447786,0.6417582417582418,0.43986543313709,1198.0
734.0,1.7110041581788122e+18,0.489556135770235,0.4611872146118721,0.3643243243243243,0.5015896307165566,0.6032967032967033,0.4373423044575273,1195.0
735.0,1.7110041581888154e+18,0.47127937336814624,0.4006849315068493,0.3183783783783784,0.5020787478601125,0.6417582417582418,0.4381833473507149,1197.0
736.0,1.711004158198829e+18,0.47127937336814624,0.4098173515981735,0.34486486486486484,0.5025678650036683,0.610989010989011,0.4415475189234651,1196.0
737.0,1.711004158208807e+18,0.4751958224543081,0.4280821917808219,0.3286486486486486,0.5015896307165566,0.6472527472527473,0.43986543313709,1197.0
738.0,1.7110041582188275e+18,0.4765013054830287,0.4189497716894977,0.35081081081081084,0.5018341892883346,0.6098901098901099,0.4415475189234651,1196.0
739.0,1.7110041582288023e+18,0.48433420365535246,0.3938356164383562,0.31891891891891894,0.5023233064318905,0.6417582417582418,0.4381833473507149,1195.0
740.0,1.711004158238817e+18,0.47780678851174935,0.4189497716894977,0.34702702702702704,0.5006113964294449,0.6098901098901099,0.43986543313709,1196.0
741.0,1.711004158248828e+18,0.47780678851174935,0.4041095890410959,0.3124324324324324,0.5018341892883346,0.6395604395604395,0.43650126156433977,1196.0
742.0,1.711004158258813e+18,0.46866840731070497,0.4006849315068493,0.3389189189189189,0.5018341892883346,0.6142857142857143,0.4465937762825904,1197.0
743.0,1.7110041582688108e+18,0.47911227154047,0.4178082191780822,0.32432432432432434,0.5023233064318905,0.6483516483516484,0.43902439024390244,1197.0
744.0,1.7110041582788127e+18,0.4725848563968668,0.4132420091324201,0.3491891891891892,0.5015896307165566,0.6087912087912087,0.4415475189234651,1197.0
745.0,1.711004158288809e+18,0.4830287206266319,0.4463470319634703,0.3286486486486486,0.5013450721447786,0.6307692307692307,0.4348191757779647,1197.0
746.0,1.7110041582988342e+18,0.47389033942558745,0.4315068493150685,0.35567567567567565,0.5011005135730008,0.6087912087912087,0.44238856181665265,1195.0
747.0,1.7110041583088115e+18,0.4725848563968668,0.3995433789954338,0.3178378378378378,0.5008559550012228,0.6373626373626373,0.43650126156433977,1195.0
748.0,1.7110041583188157e+18,0.47127937336814624,0.410958904109589,0.3389189189189189,0.49816581071166544,0.6,0.4440706476030278,1195.0
749.0,1.7110041583288113e+18,0.47911227154047,0.430365296803653,0.32594594594594595,0.504279775006114,0.6494505494505495,0.4432296047098402,1196.0
750.0,1.7110041583388137e+18,0.4699738903394256,0.3995433789954338,0.3427027027027027,0.5011005135730008,0.6054945054945055,0.4381833473507149,1194.0
751.0,1.711004158348809e+18,0.47127937336814624,0.4018264840182648,0.3216216216216216,0.5047688921496698,0.6461538461538462,0.43902439024390244,1198.0
752.0,1.7110041583588068e+18,0.46344647519582244,0.384703196347032,0.34162162162162163,0.5008559550012228,0.6065934065934065,0.4373423044575273,1194.0
753.0,1.711004158368808e+18,0.48433420365535246,0.4075342465753425,0.31891891891891894,0.5023233064318905,0.6494505494505495,0.4415475189234651,1196.0
754.0,1.7110041583788076e+18,0.4765013054830287,0.4075342465753425,0.34216216216216216,0.5025678650036683,0.6131868131868132,0.44238856181665265,1195.0
755.0,1.711004158388849e+18,0.4765013054830287,0.4029680365296804,0.32432432432432434,0.5015896307165566,0.6450549450549451,0.4348191757779647,1195.0
756.0,1.7110041583988032e+18,0.4869451697127937,0.4075342465753425,0.34162162162162163,0.5023233064318905,0.6120879120879121,0.43902439024390244,1196.0
757.0,1.7110041584088023e+18,0.47389033942558745,0.4166666666666667,0.3362162162162162,0.5035460992907801,0.6472527472527473,0.43650126156433977,1198.0
758.0,1.7110041584189046e+18,0.46866840731070497,0.4063926940639269,0.3443243243243243,0.5008559550012228,0.5967032967032967,0.4465937762825904,1196.0
759.0,1.7110041584288095e+18,0.47780678851174935,0.432648401826484,0.32432432432432434,0.5008559550012228,0.621978021978022,0.4306139613120269,1194.0
760.0,1.7110041584388183e+18,0.47127937336814624,0.4063926940639269,0.3621621621621622,0.5013450721447786,0.5758241758241758,0.43986543313709,1197.0
761.0,1.7110041584488123e+18,0.47911227154047,0.4098173515981735,0.31945945945945947,0.5015896307165566,0.6296703296703297,0.43566021867115223,1197.0
762.0,1.711004158458806e+18,0.4660574412532637,0.4029680365296804,0.3372972972972973,0.5011005135730008,0.610989010989011,0.44070647603027757,1195.0
763.0,1.7110041584688102e+18,0.4765013054830287,0.4463470319634703,0.34594594594594597,0.5057471264367817,0.6538461538461539,0.43986543313709,1197.0
764.0,1.711004158478815e+18,0.47127937336814624,0.408675799086758,0.34054054054054056,0.499877720714111,0.6054945054945055,0.4381833473507149,1197.0
765.0,1.711004158488822e+18,0.4856396866840731,0.4269406392694064,0.3216216216216216,0.5030569821472243,0.6527472527472528,0.43902439024390244,1196.0
766.0,1.7110041584988145e+18,0.47127937336814624,0.3881278538812785,0.34162162162162163,0.5020787478601125,0.6076923076923076,0.4381833473507149,1195.0
767.0,1.7110041585088095e+18,0.4765013054830287,0.4052511415525114,0.3254054054054054,0.4986549278552213,0.6263736263736264,0.432296047098402,1194.0
768.0,1.7110041585188173e+18,0.4660574412532637,0.3995433789954338,0.34540540540540543,0.5023233064318905,0.6175824175824176,0.4432296047098402,1195.0
769.0,1.7110041585288118e+18,0.4765013054830287,0.4132420091324201,0.32594594594594595,0.504035216434336,0.6406593406593407,0.4381833473507149,1197.0
770.0,1.7110041585388134e+18,0.4660574412532637,0.408675799086758,0.3427027027027027,0.5006113964294449,0.6076923076923076,0.4415475189234651,1196.0
771.0,1.7110041585488084e+18,0.47780678851174935,0.4269406392694064,0.33135135135135135,0.5028124235754463,0.6417582417582418,0.4381833473507149,1196.0
772.0,1.7110041585588078e+18,0.47780678851174935,0.430365296803653,0.3535135135135135,0.5008559550012228,0.6043956043956044,0.4415475189234651,1196.0
773.0,1.7110041585688113e+18,0.4765013054830287,0.4520547945205479,0.33297297297297296,0.5015896307165566,0.6428571428571429,0.4432296047098402,1195.0
774.0,1.711004158578809e+18,0.47389033942558745,0.430365296803653,0.3389189189189189,0.5025678650036683,0.6131868131868132,0.4432296047098402,1197.0
775.0,1.71100415858881e+18,0.4869451697127937,0.4417808219178082,0.3232432432432432,0.5025678650036683,0.6483516483516484,0.4415475189234651,1196.0
776.0,1.711004158598804e+18,0.4765013054830287,0.4200913242009132,0.34864864864864864,0.5015896307165566,0.6087912087912087,0.4415475189234651,1196.0
777.0,1.711004158608805e+18,0.4830287206266319,0.4315068493150685,0.3248648648648649,0.5018341892883346,0.6417582417582418,0.4381833473507149,1196.0
778.0,1.7110041586188083e+18,0.4869451697127937,0.4474885844748858,0.3621621621621622,0.5015896307165566,0.6153846153846154,0.44238856181665265,1196.0
779.0,1.7110041586288118e+18,0.4765013054830287,0.4041095890410959,0.32432432432432434,0.5025678650036683,0.6406593406593407,0.4339781328847771,1193.0
780.0,1.711004158638817e+18,0.46866840731070497,0.3949771689497717,0.33945945945945943,0.5011005135730008,0.6120879120879121,0.44575273338940286,1197.0
781.0,1.7110041586488084e+18,0.47780678851174935,0.3995433789954338,0.3254054054054054,0.5003668378576669,0.6384615384615384,0.43902439024390244,1197.0
782.0,1.711004158658807e+18,0.4765013054830287,0.4223744292237443,0.35621621621621624,0.5035460992907801,0.6142857142857143,0.4432296047098402,1197.0
783.0,1.7110041586688077e+18,0.47780678851174935,0.4121004566210046,0.32972972972972975,0.5003668378576669,0.6417582417582418,0.43650126156433977,1196.0
784.0,1.71100415867881e+18,0.46866840731070497,0.4052511415525114,0.34162162162162163,0.5001222792858889,0.6021978021978022,0.4381833473507149,1197.0
785.0,1.7110041586888346e+18,0.4869451697127937,0.4269406392694064,0.34162162162162163,0.5025678650036683,0.6494505494505495,0.43986543313709,1196.0
786.0,1.711004158698809e+18,0.4751958224543081,0.3995433789954338,0.3497297297297297,0.49938860357055515,0.6032967032967033,0.44238856181665265,1196.0
787.0,1.711004158708808e+18,0.47911227154047,0.4041095890410959,0.31891891891891894,0.5035460992907801,0.6450549450549451,0.4415475189234651,1196.0
788.0,1.711004158718811e+18,0.46866840731070497,0.4474885844748858,0.3545945945945946,0.5006113964294449,0.6043956043956044,0.43986543313709,1195.0
789.0,1.7110041587288097e+18,0.47127937336814624,0.408675799086758,0.32594594594594595,0.5015896307165566,0.6406593406593407,0.43650126156433977,1196.0
790.0,1.7110041587389816e+18,0.4751958224543081,0.4143835616438356,0.3491891891891892,0.5013450721447786,0.6076923076923076,0.4381833473507149,1194.0
791.0,1.7110041587488233e+18,0.47911227154047,0.4269406392694064,0.3356756756756757,0.5035460992907801,0.6472527472527473,0.43902439024390244,1196.0
792.0,1.7110041587588247e+18,0.47389033942558745,0.408675799086758,0.34,0.49938860357055515,0.6010989010989011,0.4381833473507149,1196.0
793.0,1.7110041587688228e+18,0.47780678851174935,0.4212328767123288,0.32216216216216215,0.5055025678650037,0.6505494505494506,0.43650126156433977,1196.0
794.0,1.71100415877886e+18,0.47127937336814624,0.4121004566210046,0.34324324324324323,0.5003668378576669,0.6087912087912087,0.4415475189234651,1196.0
795.0,1.7110041587888358e+18,0.4751958224543081,0.4178082191780822,0.3254054054054054,0.5033015407190022,0.6384615384615384,0.4381833473507149,1197.0
796.0,1.7110041587988178e+18,0.4725848563968668,0.4132420091324201,0.34594594594594597,0.5011005135730008,0.6076923076923076,0.43902439024390244,1198.0
797.0,1.7110041588088182e+18,0.4830287206266319,0.4212328767123288,0.32972972972972975,0.5033015407190022,0.6472527472527473,0.44238856181665265,1199.0
798.0,1.7110041588188244e+18,0.47389033942558745,0.4132420091324201,0.34486486486486484,0.5015896307165566,0.6098901098901099,0.4373423044575273,1197.0
799.0,1.7110041588288192e+18,0.47389033942558745,0.410958904109589,0.3291891891891892,0.5020787478601125,0.6406593406593407,0.43902439024390244,1197.0
800.0,1.7110041588388209e+18,0.47389033942558745,0.4463470319634703,0.3551351351351351,0.5003668378576669,0.6043956043956044,0.43902439024390244,1200.0
801.0,1.7110041588488148e+18,0.4660574412532637,0.3881278538812785,0.31513513513513514,0.504035216434336,0.6417582417582418,0.43566021867115223,1199.0
802.0,1.7110041588588298e+18,0.47389033942558745,0.4075342465753425,0.3427027027027027,0.4996331621423331,0.6054945054945055,0.43986543313709,1196.0
803.0,1.711004158868827e+18,0.48172323759791125,0.408675799086758,0.3237837837837838,0.5018341892883346,0.6461538461538462,0.4415475189234651,1195.0
804.0,1.7110041588788265e+18,0.46736292428198434,0.3961187214611872,0.3372972972972973,0.5023233064318905,0.6098901098901099,0.4432296047098402,1200.0
805.0,1.711004158888821e+18,0.4830287206266319,0.4155251141552511,0.3248648648648649,0.5025678650036683,0.6450549450549451,0.4415475189234651,1198.0
806.0,1.711004158898817e+18,0.4751958224543081,0.4178082191780822,0.3497297297297297,0.5020787478601125,0.610989010989011,0.44238856181665265,1196.0
807.0,1.7110041589088282e+18,0.47780678851174935,0.4349315068493151,0.3481081081081081,0.5018341892883346,0.6461538461538462,0.4415475189234651,1195.0
808.0,1.7110041589188111e+18,0.46736292428198434,0.4189497716894977,0.3491891891891892,0.5015896307165566,0.6076923076923076,0.4415475189234651,1196.0
809.0,1.7110041589288077e+18,0.48172323759791125,0.4360730593607306,0.3345945945945946,0.5052580092932257,0.6472527472527473,0.4432296047098402,1197.0
810.0,1.7110041589388165e+18,0.46736292428198434,0.4235159817351598,0.34540540540540543,0.4988994864269993,0.5978021978021978,0.4381833473507149,1194.0
811.0,1.7110041589488033e+18,0.47389033942558745,0.4098173515981735,0.3237837837837838,0.5015896307165566,0.6450549450549451,0.43902439024390244,1195.0
812.0,1.711004158958815e+18,0.47127937336814624,0.4029680365296804,0.34378378378378377,0.5015896307165566,0.6065934065934065,0.4449116904962153,1194.0
813.0,1.7110041589688118e+18,0.47780678851174935,0.4200913242009132,0.3248648648648649,0.5018341892883346,0.6461538461538462,0.43902439024390244,1197.0
814.0,1.7110041589788124e+18,0.48172323759791125,0.4360730593607306,0.3708108108108108,0.5023233064318905,0.6142857142857143,0.4432296047098402,1197.0
815.0,1.7110041589888246e+18,0.47389033942558745,0.4143835616438356,0.32432432432432434,0.4979212521398875,0.6274725274725275,0.42977291841883936,1194.0
816.0,1.7110041589988024e+18,0.47389033942558745,0.3995433789954338,0.34594594594594597,0.5006113964294449,0.610989010989011,0.44575273338940286,1194.0
817.0,1.711004159008813e+18,0.49477806788511747,0.4292237442922374,0.3291891891891892,0.5028124235754463,0.6406593406593407,0.4373423044575273,1196.0
818.0,1.7110041590188626e+18,0.47127937336814624,0.410958904109589,0.34054054054054056,0.5015896307165566,0.6098901098901099,0.43986543313709,1197.0
819.0,1.7110041590288118e+18,0.4830287206266319,0.4269406392694064,0.32756756756756755,0.5025678650036683,0.6450549450549451,0.4381833473507149,1195.0
820.0,1.7110041590388124e+18,0.4725848563968668,0.4098173515981735,0.34486486486486484,0.5015896307165566,0.6120879120879121,0.44070647603027757,1196.0
821.0,1.7110041590488087e+18,0.4765013054830287,0.4041095890410959,0.31675675675675674,0.5015896307165566,0.6417582417582418,0.43902439024390244,1197.0
822.0,1.7110041590588047e+18,0.47127937336814624,0.4189497716894977,0.34378378378378377,0.5015896307165566,0.6021978021978022,0.4381833473507149,1196.0
823.0,1.7110041590688077e+18,0.47389033942558745,0.4269406392694064,0.3248648648648649,0.5001222792858889,0.6329670329670329,0.43313708999158956,1193.0
824.0,1.7110041590788106e+18,0.46736292428198434,0.4098173515981735,0.3427027027027027,0.5008559550012228,0.6098901098901099,0.4465937762825904,1196.0
825.0,1.7110041590888233e+18,0.47911227154047,0.4178082191780822,0.3237837837837838,0.5018341892883346,0.6395604395604395,0.43902439024390244,1197.0
826.0,1.711004159098808e+18,0.47127937336814624,0.4132420091324201,0.3605405405405405,0.5015896307165566,0.6032967032967033,0.4381833473507149,1195.0
827.0,1.7110041591088082e+18,0.47389033942558745,0.4121004566210046,0.3232432432432432,0.5023233064318905,0.6417582417582418,0.4381833473507149,1194.0
828.0,1.7110041591188275e+18,0.47389033942558745,0.4178082191780822,0.3491891891891892,0.5015896307165566,0.6076923076923076,0.4415475189234651,1196.0
829.0,1.7110041591288108e+18,0.4804177545691906,0.4178082191780822,0.3210810810810811,0.5018341892883346,0.6461538461538462,0.43650126156433977,1196.0
830.0,1.7110041591388142e+18,0.4660574412532637,0.3949771689497717,0.33837837837837836,0.504035216434336,0.6054945054945055,0.43986543313709,1194.0
831.0,1.7110041591488148e+18,0.49477806788511747,0.4189497716894977,0.3362162162162162,0.5037906578625581,0.6417582417582418,0.43566021867115223,1195.0
832.0,1.7110041591588106e+18,0.46344647519582244,0.4052511415525114,0.3410810810810811,0.4979212521398875,0.6010989010989011,0.4415475189234651,1197.0
833.0,1.7110041591688125e+18,0.48825065274151436,0.4280821917808219,0.3362162162162162,0.5030569821472243,0.643956043956044,0.44070647603027757,1198.0
834.0,1.7110041591788111e+18,0.46344647519582244,0.4178082191780822,0.3481081081081081,0.5020787478601125,0.6098901098901099,0.43986543313709,1197.0
835.0,1.7110041591888118e+18,0.48172323759791125,0.4337899543378995,0.3302702702702703,0.5015896307165566,0.6417582417582418,0.43986543313709,1197.0
836.0,1.7110041591988073e+18,0.4830287206266319,0.4440639269406393,0.34702702702702704,0.5011005135730008,0.6054945054945055,0.44238856181665265,1195.0
837.0,1.7110041592088105e+18,0.4804177545691906,0.410958904109589,0.3324324324324324,0.5025678650036683,0.6417582417582418,0.4381833473507149,1196.0
838.0,1.7110041592188193e+18,0.47780678851174935,0.4052511415525114,0.3443243243243243,0.5030569821472243,0.6120879120879121,0.4381833473507149,1195.0
839.0,1.7110041592288123e+18,0.4765013054830287,0.4178082191780822,0.32432432432432434,0.5006113964294449,0.6384615384615384,0.43566021867115223,1197.0
840.0,1.7110041592388145e+18,0.4765013054830287,0.4143835616438356,0.34486486486486484,0.5015896307165566,0.6120879120879121,0.44238856181665265,1198.0
841.0,1.7110041592488123e+18,0.47911227154047,0.4269406392694064,0.3248648648648649,0.5025678650036683,0.6428571428571429,0.4415475189234651,1198.0
842.0,1.7110041592588198e+18,0.47127937336814624,0.4143835616438356,0.34216216216216216,0.5015896307165566,0.6131868131868132,0.4381833473507149,1196.0
843.0,1.7110041592688166e+18,0.47389033942558745,0.4063926940639269,0.3254054054054054,0.5018341892883346,0.6406593406593407,0.43986543313709,1196.0
844.0,1.7110041592788163e+18,0.4660574412532637,0.3835616438356164,0.34162162162162163,0.5008559550012228,0.6120879120879121,0.44238856181665265,1197.0
845.0,1.7110041592888192e+18,0.4960835509138381,0.4771689497716895,0.35027027027027025,0.5030569821472243,0.6417582417582418,0.4339781328847771,1194.0
846.0,1.7110041592988204e+18,0.4725848563968668,0.4075342465753425,0.34486486486486484,0.504524333577892,0.6098901098901099,0.4415475189234651,1195.0
847.0,1.7110041593088192e+18,0.4765013054830287,0.4063926940639269,0.32054054054054054,0.5030569821472243,0.6450549450549451,0.4381833473507149,1195.0
848.0,1.7110041593188209e+18,0.4660574412532637,0.3812785388127854,0.33945945945945943,0.5015896307165566,0.610989010989011,0.4440706476030278,1197.0
849.0,1.7110041593288184e+18,0.4765013054830287,0.4018264840182648,0.3162162162162162,0.5035460992907801,0.6417582417582418,0.432296047098402,1193.0
850.0,1.7110041593388186e+18,0.4765013054830287,0.4429223744292237,0.3551351351351351,0.5008559550012228,0.6098901098901099,0.4415475189234651,1196.0
851.0,1.7110041593488138e+18,0.4765013054830287,0.408675799086758,0.3216216216216216,0.5020787478601125,0.6472527472527473,0.4415475189234651,1197.0
852.0,1.7110041593588173e+18,0.47389033942558745,0.4235159817351598,0.35567567567567565,0.5020787478601125,0.6142857142857143,0.4432296047098402,1199.0
853.0,1.7110041593688174e+18,0.48433420365535246,0.4246575342465753,0.3335135135135135,0.5037906578625581,0.6483516483516484,0.4415475189234651,1197.0
854.0,1.7110041593788175e+18,0.47127937336814624,0.4155251141552511,0.3362162162162162,0.5015896307165566,0.6032967032967033,0.43902439024390244,1197.0
855.0,1.71100415938882e+18,0.47127937336814624,0.4178082191780822,0.33135135135135135,0.5023233064318905,0.643956043956044,0.43650126156433977,1196.0
856.0,1.7110041593988308e+18,0.47127937336814624,0.3995433789954338,0.34756756756756757,0.5008559550012228,0.6098901098901099,0.4415475189234651,1195.0
857.0,1.711004159408832e+18,0.47389033942558745,0.4155251141552511,0.3264864864864865,0.5033015407190022,0.643956043956044,0.43566021867115223,1196.0
858.0,1.711004159418825e+18,0.4765013054830287,0.4143835616438356,0.33945945945945943,0.5018341892883346,0.6098901098901099,0.4415475189234651,1196.0
859.0,1.7110041594288233e+18,0.4765013054830287,0.3972602739726027,0.33135135135135135,0.5035460992907801,0.6461538461538462,0.4415475189234651,1197.0
860.0,1.7110041594388221e+18,0.4765013054830287,0.3961187214611872,0.34,0.499877720714111,0.6054945054945055,0.4449116904962153,1197.0
861.0,1.7110041594487992e+18,0.4765013054830287,0.4098173515981735,0.3362162162162162,0.5020787478601125,0.643956043956044,0.43650126156433977,1197.0
862.0,1.7110041594588196e+18,0.4765013054830287,0.4143835616438356,0.33837837837837836,0.5008559550012228,0.610989010989011,0.44238856181665265,1197.0
863.0,1.711004159468823e+18,0.4869451697127937,0.45662100456621,0.3324324324324324,0.5035460992907801,0.6417582417582418,0.4339781328847771,1194.0
864.0,1.7110041594788298e+18,0.46866840731070497,0.4041095890410959,0.3481081081081081,0.5018341892883346,0.6120879120879121,0.44238856181665265,1199.0
865.0,1.7110041594888282e+18,0.47911227154047,0.4200913242009132,0.3264864864864865,0.5030569821472243,0.6373626373626373,0.44070647603027757,1195.0
866.0,1.7110041594988063e+18,0.47780678851174935,0.4098173515981735,0.34486486486486484,0.5015896307165566,0.6098901098901099,0.44070647603027757,1195.0
867.0,1.7110041595088095e+18,0.4699738903394256,0.3892694063926941,0.3227027027027027,0.5030569821472243,0.6472527472527473,0.4415475189234651,1198.0
868.0,1.7110041595188042e+18,0.4804177545691906,0.4315068493150685,0.3481081081081081,0.5015896307165566,0.6076923076923076,0.44238856181665265,1196.0
869.0,1.7110041595288054e+18,0.47780678851174935,0.4121004566210046,0.3248648648648649,0.49938860357055515,0.6417582417582418,0.4381833473507149,1198.0
870.0,1.7110041595388099e+18,0.47389033942558745,0.3995433789954338,0.3410810810810811,0.5003668378576669,0.5989010989010989,0.43902439024390244,1195.0
871.0,1.711004159548811e+18,0.4804177545691906,0.4360730593607306,0.32,0.5028124235754463,0.6428571428571429,0.4373423044575273,1194.0
872.0,1.71100415955881e+18,0.47127937336814624,0.3892694063926941,0.3427027027027027,0.5011005135730008,0.6032967032967033,0.43902439024390244,1195.0
873.0,1.7110041595688097e+18,0.47389033942558745,0.4223744292237443,0.32432432432432434,0.5025678650036683,0.6461538461538462,0.43986543313709,1198.0
874.0,1.7110041595788498e+18,0.47389033942558745,0.4041095890410959,0.33675675675675676,0.4986549278552213,0.5967032967032967,0.43566021867115223,1195.0
875.0,1.7110041595888018e+18,0.48433420365535246,0.4280821917808219,0.3308108108108108,0.5025678650036683,0.643956043956044,0.4415475189234651,1196.0
876.0,1.711004159598815e+18,0.4830287206266319,0.4452054794520548,0.36486486486486486,0.5020787478601125,0.610989010989011,0.4449116904962153,1196.0
877.0,1.7110041596088092e+18,0.489556135770235,0.4200913242009132,0.3264864864864865,0.5023233064318905,0.6417582417582418,0.43986543313709,1197.0
878.0,1.7110041596188055e+18,0.4751958224543081,0.3767123287671233,0.33297297297297296,0.49938860357055515,0.6054945054945055,0.43986543313709,1196.0
879.0,1.71100415962881e+18,0.48172323759791125,0.4029680365296804,0.3210810810810811,0.5018341892883346,0.6406593406593407,0.43986543313709,1195.0
880.0,1.711004159638839e+18,0.48172323759791125,0.4440639269406393,0.34594594594594597,0.5018341892883346,0.6120879120879121,0.4465937762825904,1198.0
881.0,1.7110041596488049e+18,0.4830287206266319,0.4372146118721461,0.3362162162162162,0.5015896307165566,0.6384615384615384,0.4381833473507149,1198.0
882.0,1.7110041596588173e+18,0.46736292428198434,0.4041095890410959,0.34162162162162163,0.5006113964294449,0.6076923076923076,0.4381833473507149,1196.0
883.0,1.711004159668811e+18,0.47911227154047,0.4132420091324201,0.3237837837837838,0.504524333577892,0.6472527472527473,0.4381833473507149,1195.0
884.0,1.7110041596788142e+18,0.47780678851174935,0.4075342465753425,0.34216216216216216,0.5001222792858889,0.6010989010989011,0.44238856181665265,1196.0
885.0,1.7110041596888502e+18,0.4804177545691906,0.4383561643835616,0.3318918918918919,0.5023233064318905,0.6450549450549451,0.4415475189234651,1197.0
886.0,1.7110041596988093e+18,0.47389033942558745,0.4497716894977169,0.34756756756756757,0.5015896307165566,0.6076923076923076,0.4381833473507149,1198.0
887.0,1.7110041597088105e+18,0.48825065274151436,0.4372146118721461,0.3302702702702703,0.5020787478601125,0.6483516483516484,0.4381833473507149,1198.0
888.0,1.7110041597188165e+18,0.47127937336814624,0.4075342465753425,0.34216216216216216,0.5018341892883346,0.6098901098901099,0.4415475189234651,1196.0
889.0,1.7110041597288148e+18,0.48172323759791125,0.410958904109589,0.33405405405405403,0.5030569821472243,0.6472527472527473,0.43902439024390244,1197.0
890.0,1.7110041597388216e+18,0.4699738903394256,0.4029680365296804,0.3464864864864865,0.5001222792858889,0.6065934065934065,0.4415475189234651,1194.0
891.0,1.7110041597488072e+18,0.47780678851174935,0.4200913242009132,0.3281081081081081,0.5025678650036683,0.6472527472527473,0.4381833473507149,1196.0
892.0,1.711004159758813e+18,0.4765013054830287,0.4132420091324201,0.34540540540540543,0.5011005135730008,0.6054945054945055,0.43986543313709,1196.0
893.0,1.711004159768815e+18,0.4751958224543081,0.4075342465753425,0.33405405405405403,0.5033015407190022,0.6450549450549451,0.43566021867115223,1195.0
894.0,1.7110041597788477e+18,0.47780678851174935,0.4155251141552511,0.34594594594594597,0.5015896307165566,0.6098901098901099,0.43902439024390244,1196.0
895.0,1.7110041597888394e+18,0.4765013054830287,0.4143835616438356,0.33513513513513515,0.5018341892883346,0.6472527472527473,0.43902439024390244,1197.0
896.0,1.7110041597988214e+18,0.4725848563968668,0.3972602739726027,0.3491891891891892,0.5015896307165566,0.6043956043956044,0.44238856181665265,1194.0
897.0,1.711004159808806e+18,0.4751958224543081,0.3858447488584475,0.31891891891891894,0.5020787478601125,0.6417582417582418,0.43902439024390244,1197.0
898.0,1.7110041598188058e+18,0.48172323759791125,0.4166666666666667,0.34486486486486484,0.5018341892883346,0.6087912087912087,0.4415475189234651,1196.0
899.0,1.7110041598288054e+18,0.47780678851174935,0.410958904109589,0.3227027027027027,0.5001222792858889,0.6373626373626373,0.43566021867115223,1196.0
900.0,1.7110041598388196e+18,0.4751958224543081,0.4246575342465753,0.34378378378378377,0.5015896307165566,0.6098901098901099,0.4415475189234651,1196.0
901.0,1.711004159848811e+18,0.4765013054830287,0.3995433789954338,0.32756756756756755,0.5018341892883346,0.6428571428571429,0.4381833473507149,1197.0
902.0,1.7110041598588252e+18,0.47127937336814624,0.4063926940639269,0.34486486486486484,0.5003668378576669,0.6087912087912087,0.44070647603027757,1196.0
903.0,1.7110041598688077e+18,0.47389033942558745,0.4029680365296804,0.3254054054054054,0.5028124235754463,0.6417582417582418,0.4381833473507149,1198.0
904.0,1.711004159878808e+18,0.47389033942558745,0.4098173515981735,0.34486486486486484,0.5001222792858889,0.6054945054945055,0.43902439024390244,1195.0
905.0,1.7110041598888187e+18,0.47911227154047,0.4200913242009132,0.3324324324324324,0.5033015407190022,0.6450549450549451,0.43902439024390244,1196.0
906.0,1.7110041598988035e+18,0.4725848563968668,0.408675799086758,0.34324324324324323,0.5020787478601125,0.6098901098901099,0.4415475189234651,1195.0
907.0,1.711004159908818e+18,0.4804177545691906,0.4280821917808219,0.3264864864864865,0.5025678650036683,0.6450549450549451,0.43986543313709,1197.0
908.0,1.7110041599188104e+18,0.48172323759791125,0.4691780821917808,0.3621621621621622,0.5028124235754463,0.6142857142857143,0.44238856181665265,1196.0
909.0,1.7110041599288118e+18,0.4830287206266319,0.4121004566210046,0.32756756756756755,0.504035216434336,0.6428571428571429,0.4373423044575273,1198.0
910.0,1.7110041599388147e+18,0.4725848563968668,0.4178082191780822,0.34324324324324323,0.5001222792858889,0.6032967032967033,0.44070647603027757,1193.0
911.0,1.711004159948802e+18,0.47780678851174935,0.4315068493150685,0.3216216216216216,0.5023233064318905,0.643956043956044,0.4381833473507149,1196.0
912.0,1.7110041599588106e+18,0.4725848563968668,0.4292237442922374,0.34378378378378377,0.5003668378576669,0.6054945054945055,0.4449116904962153,1196.0
913.0,1.7110041599688077e+18,0.48172323759791125,0.4235159817351598,0.312972972972973,0.5028124235754463,0.6373626373626373,0.4381833473507149,1196.0
914.0,1.7110041599788088e+18,0.4725848563968668,0.4006849315068493,0.3410810810810811,0.4969430178527757,0.5956043956043956,0.4373423044575273,1196.0
915.0,1.7110041599888113e+18,0.4751958224543081,0.4063926940639269,0.32216216216216215,0.5025678650036683,0.6428571428571429,0.4373423044575273,1198.0
916.0,1.711004159998809e+18,0.47389033942558745,0.4041095890410959,0.33837837837837836,0.5006113964294449,0.6098901098901099,0.4415475189234651,1195.0
917.0,1.711004160008809e+18,0.4804177545691906,0.4269406392694064,0.3281081081081081,0.5023233064318905,0.6472527472527473,0.43986543313709,1195.0
918.0,1.7110041600188227e+18,0.4765013054830287,0.4075342465753425,0.34324324324324323,0.5011005135730008,0.6153846153846154,0.44070647603027757,1196.0
919.0,1.7110041600288105e+18,0.4765013054830287,0.410958904109589,0.3254054054054054,0.5025678650036683,0.6450549450549451,0.4348191757779647,1195.0
920.0,1.711004160038807e+18,0.46344647519582244,0.3732876712328767,0.33837837837837836,0.5008559550012228,0.6076923076923076,0.4449116904962153,1198.0
921.0,1.711004160048801e+18,0.489556135770235,0.4235159817351598,0.33297297297297296,0.5025678650036683,0.6373626373626373,0.4381833473507149,1197.0
922.0,1.7110041600588055e+18,0.47780678851174935,0.4360730593607306,0.34702702702702704,0.5018341892883346,0.6153846153846154,0.4449116904962153,1196.0
923.0,1.7110041600688102e+18,0.48172323759791125,0.4143835616438356,0.3254054054054054,0.5025678650036683,0.6428571428571429,0.4348191757779647,1194.0
924.0,1.7110041600788063e+18,0.46736292428198434,0.3938356164383562,0.33513513513513515,0.4991440449987772,0.6054945054945055,0.4440706476030278,1197.0
925.0,1.7110041600888097e+18,0.48433420365535246,0.4246575342465753,0.33837837837837836,0.5020787478601125,0.643956043956044,0.4440706476030278,1197.0
926.0,1.711004160098798e+18,0.4699738903394256,0.4075342465753425,0.3372972972972973,0.5018341892883346,0.6065934065934065,0.43902439024390244,1195.0
927.0,1.7110041601088097e+18,0.47389033942558745,0.3995433789954338,0.32,0.5011005135730008,0.6384615384615384,0.4373423044575273,1194.0
928.0,1.711004160118816e+18,0.45822454308093996,0.3938356164383562,0.3389189189189189,0.5001222792858889,0.6054945054945055,0.43986543313709,1197.0
929.0,1.7110041601288123e+18,0.4856396866840731,0.408675799086758,0.3264864864864865,0.5028124235754463,0.6450549450549451,0.4415475189234651,1197.0
930.0,1.7110041601388275e+18,0.4699738903394256,0.4121004566210046,0.3389189189189189,0.5015896307165566,0.6065934065934065,0.44238856181665265,1192.0
931.0,1.711004160148812e+18,0.4765013054830287,0.4166666666666667,0.32594594594594595,0.5025678650036683,0.6417582417582418,0.43986543313709,1195.0
932.0,1.711004160158808e+18,0.4765013054830287,0.4143835616438356,0.34594594594594597,0.5015896307165566,0.6032967032967033,0.4381833473507149,1196.0
933.0,1.7110041601688082e+18,0.489556135770235,0.4337899543378995,0.3335135135135135,0.5023233064318905,0.643956043956044,0.43566021867115223,1196.0
934.0,1.7110041601788178e+18,0.4621409921671018,0.4018264840182648,0.34054054054054056,0.5018341892883346,0.6098901098901099,0.4415475189234651,1195.0
935.0,1.7110041601888202e+18,0.4908616187989556,0.4577625570776256,0.34486486486486484,0.5035460992907801,0.643956043956044,0.4415475189234651,1197.0
936.0,1.7110041601988058e+18,0.4725848563968668,0.3972602739726027,0.34216216216216216,0.5003668378576669,0.6098901098901099,0.4432296047098402,1196.0
937.0,1.711004160208814e+18,0.4869451697127937,0.4063926940639269,0.3286486486486486,0.5028124235754463,0.6450549450549451,0.4381833473507149,1196.0
938.0,1.7110041602188122e+18,0.47127937336814624,0.3915525114155251,0.33513513513513515,0.5008559550012228,0.6120879120879121,0.44238856181665265,1197.0
939.0,1.711004160228807e+18,0.4869451697127937,0.4178082191780822,0.3318918918918919,0.5023233064318905,0.6494505494505495,0.4381833473507149,1195.0
940.0,1.7110041602388232e+18,0.46344647519582244,0.4041095890410959,0.33945945945945943,0.5006113964294449,0.6021978021978022,0.4415475189234651,1197.0
941.0,1.7110041602488036e+18,0.48433420365535246,0.4246575342465753,0.33837837837837836,0.5020787478601125,0.6395604395604395,0.4381833473507149,1198.0
942.0,1.7110041602588221e+18,0.4765013054830287,0.4520547945205479,0.3410810810810811,0.5003668378576669,0.6065934065934065,0.4381833473507149,1197.0
943.0,1.7110041602688174e+18,0.4725848563968668,0.3949771689497717,0.31945945945945947,0.5015896307165566,0.6461538461538462,0.4381833473507149,1196.0
944.0,1.7110041602788424e+18,0.47127937336814624,0.4269406392694064,0.3410810810810811,0.5008559550012228,0.6021978021978022,0.43902439024390244,1197.0
945.0,1.711004160288817e+18,0.4725848563968668,0.4132420091324201,0.3227027027027027,0.5030569821472243,0.6461538461538462,0.4415475189234651,1194.0
946.0,1.7110041602988068e+18,0.4765013054830287,0.408675799086758,0.3427027027027027,0.5006113964294449,0.6,0.4381833473507149,1197.0
947.0,1.7110041603088136e+18,0.4725848563968668,0.3926940639269406,0.32594594594594595,0.5033015407190022,0.6472527472527473,0.4373423044575273,1197.0
948.0,1.7110041603188114e+18,0.4804177545691906,0.4098173515981735,0.3535135135135135,0.5020787478601125,0.6120879120879121,0.4415475189234651,1196.0
949.0,1.7110041603288154e+18,0.48172323759791125,0.4383561643835616,0.33405405405405403,0.5037906578625581,0.6472527472527473,0.44238856181665265,1197.0
950.0,1.7110041603389102e+18,0.46736292428198434,0.3995433789954338,0.33675675675675676,0.5006113964294449,0.6021978021978022,0.43986543313709,1194.0
951.0,1.7110041603487997e+18,0.4804177545691906,0.4178082191780822,0.3286486486486486,0.5025678650036683,0.6461538461538462,0.4415475189234651,1195.0
952.0,1.7110041603588047e+18,0.4765013054830287,0.4132420091324201,0.34378378378378377,0.5015896307165566,0.6120879120879121,0.4415475189234651,1196.0
953.0,1.7110041603688015e+18,0.4830287206266319,0.4452054794520548,0.3302702702702703,0.5020787478601125,0.6417582417582418,0.4373423044575273,1197.0
954.0,1.7110041603788861e+18,0.4660574412532637,0.4178082191780822,0.3281081081081081,0.5008559550012228,0.6043956043956044,0.4440706476030278,1196.0
955.0,1.7110041603888133e+18,0.4751958224543081,0.3961187214611872,0.3227027027027027,0.5020787478601125,0.6406593406593407,0.43566021867115223,1196.0
956.0,1.7110041603988127e+18,0.48172323759791125,0.3961187214611872,0.34,0.5015896307165566,0.6087912087912087,0.4415475189234651,1198.0
957.0,1.711004160408818e+18,0.47911227154047,0.4178082191780822,0.3302702702702703,0.5028124235754463,0.6450549450549451,0.4415475189234651,1195.0
958.0,1.7110041604188083e+18,0.4660574412532637,0.4098173515981735,0.34054054054054056,0.4984103692834434,0.5978021978021978,0.4373423044575273,1196.0
959.0,1.7110041604288154e+18,0.4804177545691906,0.4189497716894977,0.3264864864864865,0.5025678650036683,0.6406593406593407,0.4381833473507149,1194.0
960.0,1.7110041604388096e+18,0.47389033942558745,0.4155251141552511,0.34378378378378377,0.5008559550012228,0.6098901098901099,0.44238856181665265,1197.0
961.0,1.7110041604488061e+18,0.48172323759791125,0.4143835616438356,0.31891891891891894,0.5013450721447786,0.6417582417582418,0.43650126156433977,1197.0
962.0,1.711004160458812e+18,0.47911227154047,0.4280821917808219,0.3481081081081081,0.5020787478601125,0.6076923076923076,0.4415475189234651,1196.0
963.0,1.7110041604688128e+18,0.48825065274151436,0.4440639269406393,0.3372972972972973,0.5025678650036683,0.6450549450549451,0.43650126156433977,1195.0
964.0,1.711004160478826e+18,0.47127937336814624,0.4360730593607306,0.36,0.5006113964294449,0.6054945054945055,0.44238856181665265,1198.0
965.0,1.711004160488805e+18,0.48172323759791125,0.4269406392694064,0.32432432432432434,0.5020787478601125,0.643956043956044,0.4449116904962153,1197.0
966.0,1.7110041604988047e+18,0.4725848563968668,0.4075342465753425,0.34594594594594597,0.5011005135730008,0.610989010989011,0.44575273338940286,1196.0
967.0,1.7110041605088287e+18,0.48433420365535246,0.4269406392694064,0.3291891891891892,0.5028124235754463,0.6417582417582418,0.43650126156433977,1196.0
968.0,1.7110041605188165e+18,0.4751958224543081,0.4132420091324201,0.34324324324324323,0.5015896307165566,0.6087912087912087,0.4432296047098402,1195.0
969.0,1.711004160528817e+18,0.4765013054830287,0.3949771689497717,0.31675675675675674,0.5035460992907801,0.6450549450549451,0.4415475189234651,1195.0
970.0,1.7110041605388163e+18,0.4765013054830287,0.4029680365296804,0.3318918918918919,0.5011005135730008,0.6032967032967033,0.43902439024390244,1195.0
971.0,1.7110041605488154e+18,0.4869451697127937,0.4315068493150685,0.3302702702702703,0.5020787478601125,0.6395604395604395,0.4381833473507149,1197.0
972.0,1.7110041605588163e+18,0.4660574412532637,0.4098173515981735,0.34378378378378377,0.5008559550012228,0.6098901098901099,0.4415475189234651,1198.0
973.0,1.7110041605688174e+18,0.4765013054830287,0.4098173515981735,0.32594594594594595,0.5023233064318905,0.6417582417582418,0.43650126156433977,1195.0
974.0,1.7110041605788493e+18,0.4830287206266319,0.4235159817351598,0.3545945945945946,0.5020787478601125,0.6076923076923076,0.44070647603027757,1197.0
975.0,1.7110041605888164e+18,0.48825065274151436,0.4178082191780822,0.3232432432432432,0.5023233064318905,0.6384615384615384,0.4373423044575273,1195.0
976.0,1.7110041605988157e+18,0.4725848563968668,0.4052511415525114,0.34,0.5003668378576669,0.6021978021978022,0.43902439024390244,1197.0
977.0,1.7110041606088184e+18,0.47389033942558745,0.3858447488584475,0.32,0.5030569821472243,0.6461538461538462,0.4415475189234651,1196.0
978.0,1.7110041606188168e+18,0.47127937336814624,0.4075342465753425,0.3362162162162162,0.5006113964294449,0.6054945054945055,0.4381833473507149,1196.0
979.0,1.7110041606288174e+18,0.48825065274151436,0.430365296803653,0.3172972972972973,0.504035216434336,0.6461538461538462,0.4381833473507149,1196.0
980.0,1.7110041606388035e+18,0.46866840731070497,0.410958904109589,0.33945945945945943,0.5006113964294449,0.6076923076923076,0.43902439024390244,1194.0
981.0,1.711004160648819e+18,0.48433420365535246,0.4178082191780822,0.3281081081081081,0.5025678650036683,0.6450549450549451,0.43650126156433977,1194.0
982.0,1.7110041606588206e+18,0.46736292428198434,0.4155251141552511,0.34162162162162163,0.5008559550012228,0.6054945054945055,0.4415475189234651,1196.0
983.0,1.711004160668821e+18,0.49216710182767626,0.4235159817351598,0.32594594594594595,0.5015896307165566,0.6373626373626373,0.43902439024390244,1196.0
984.0,1.7110041606788216e+18,0.47127937336814624,0.4075342465753425,0.3410810810810811,0.5006113964294449,0.6010989010989011,0.4415475189234651,1195.0
985.0,1.7110041606888215e+18,0.4765013054830287,0.4280821917808219,0.3302702702702703,0.5020787478601125,0.643956043956044,0.4381833473507149,1196.0
986.0,1.7110041606988242e+18,0.47127937336814624,0.3995433789954338,0.33297297297297296,0.5013450721447786,0.6054945054945055,0.4415475189234651,1195.0
987.0,1.7110041607088072e+18,0.48433420365535246,0.4280821917808219,0.3302702702702703,0.504279775006114,0.6461538461538462,0.4381833473507149,1200.0
988.0,1.7110041607188099e+18,0.4804177545691906,0.4337899543378995,0.34054054054054056,0.5006113964294449,0.6054945054945055,0.43902439024390244,1196.0
989.0,1.711004160728856e+18,0.47780678851174935,0.4155251141552511,0.3248648648648649,0.5025678650036683,0.6450549450549451,0.4415475189234651,1195.0
990.0,1.711004160738809e+18,0.4751958224543081,0.4178082191780822,0.3551351351351351,0.5008559550012228,0.6076923076923076,0.4381833473507149,1195.0
991.0,1.711004160748807e+18,0.48172323759791125,0.4212328767123288,0.32756756756756755,0.5035460992907801,0.6450549450549451,0.44238856181665265,1197.0
992.0,1.7110041607588068e+18,0.4699738903394256,0.410958904109589,0.34216216216216216,0.5015896307165566,0.6120879120879121,0.44070647603027757,1196.0
993.0,1.711004160768831e+18,0.47780678851174935,0.4394977168949772,0.33783783783783783,0.5028124235754463,0.6461538461538462,0.4381833473507149,1195.0
994.0,1.7110041607788485e+18,0.4765013054830287,0.4269406392694064,0.34594594594594597,0.5008559550012228,0.6054945054945055,0.43902439024390244,1197.0
995.0,1.7110041607888018e+18,0.48172323759791125,0.4360730593607306,0.3281081081081081,0.5020787478601125,0.6406593406593407,0.44070647603027757,1197.0
996.0,1.7110041607988037e+18,0.4765013054830287,0.4372146118721461,0.3583783783783784,0.5006113964294449,0.6032967032967033,0.4415475189234651,1196.0
997.0,1.7110041608088028e+18,0.4869451697127937,0.4360730593607306,0.32756756756756755,0.5028124235754463,0.6417582417582418,0.44238856181665265,1196.0
998.0,1.7110041608188114e+18,0.4725848563968668,0.408675799086758,0.34486486486486484,0.5001222792858889,0.6087912087912087,0.43986543313709,1195.0
999.0,1.7110041608288082e+18,0.4765013054830287,0.4132420091324201,0.3227027027027027,0.5020787478601125,0.6373626373626373,0.43566021867115223,1197.0
1000.0,1.7110041608388134e+18,0.4765013054830287,0.410958904109589,0.34486486486486484,0.5008559550012228,0.6087912087912087,0.4415475189234651,1195.0
