seq,time,data[0],data[1],data[2],data[3],data[4],data[5],data[6]
201,1711439347721185686,2054,2053,2054,2080,2084,2061,1197
202,1711439347731186579,2053,2054,2025,2083,2060,2052,1198
203,1711439347741188775,2054,2036,2026,2057,2054,2042,1192
204,1711439347751172954,2053,2052,2042,2040,2046,2064,1198
205,1711439347761175160,2062,2080,2136,2067,2057,2056,1197
206,1711439347771173718,2056,2056,2055,2047,2051,2047,1194
207,1711439347781176294,2057,2060,2058,2049,2060,2053,1197
208,1711439347791177006,2052,2043,2052,2041,2057,2057,1197
209,1711439347801176727,2060,2034,2043,2064,2050,2051,1198
210,1711439347811178842,2055,2044,2044,2058,2060,2049,1198
211,1711439347821178552,2056,2045,2011,2050,2046,2077,1198
212,1711439347831179665,2059,2076,2078,2080,2063,2057,1198
213,1711439347841182963,2055,2052,2045,2064,2055,2055,1197
214,1711439347851180820,2058,2048,2029,2052,2046,2056,1195
215,1711439347861185390,2056,2056,2056,2061,2049,2049,1194
216,1711439347871186453,2057,2058,2056,2060,2058,2054,1196
217,1711439347881186143,2057,2062,2089,2073,2061,2058,1198
218,1711439347891185904,2057,2056,2061,2056,2059,2053,1196
219,1711439347901187257,2058,2064,2060,2059,2054,2056,1196
220,1711439347911186016,2052,2046,2047,2047,2048,2050,1197
221,1711439347921187850,2056,2052,2068,2066,2049,2056,1197
222,1711439347931188002,2058,2050,2068,2085,2072,2052,1197
223,1711439347941191530,2058,2054,2043,2068,2050,2052,1195
224,1711439347951188986,2058,2077,2088,2053,2042,2052,1197
225,1711439347961191351,2050,2049,2029,2047,2047,2053,1197
226,1711439347971191823,2050,2049,2053,2048,2040,2049,1197
227,1711439347981192916,2056,2053,2048,2052,2056,2062,1195
228,1711439347991193719,2059,2050,2069,2041,2066,2053,1196
229,1711439348001196445,2050,2024,2008,2039,2041,2051,1196
230,1711439348011195240,2051,2045,2047,2068,2073,2054,1198
231,1711439348021214737,2056,2053,2061,2052,2050,2054,1195
232,1711439348031224593,2056,2059,2146,2049,2044,2054,1196
233,1711439348041200099,2056,2041,2012,2049,2050,2052,1198
234,1711439348051156827,2052,2060,2050,2014,2042,2047,1192
235,1711439348061159489,2060,2062,2058,2060,2093,2056,1197
236,1711439348071155306,2049,2046,2010,2037,2057,2058,1195
237,1711439348081209203,2056,2052,2042,2052,2047,2037,1194
238,1711439348091212847,2058,2068,2062,2042,2050,2046,1194
239,1711439348101208875,2054,2045,2024,2074,2050,2053,1197
240,1711439348111183279,2052,2052,2069,2062,2054,2056,1193
241,1711439348121219780,2056,2076,2041,2057,2052,2050,1196
242,1711439348131168712,2056,2053,2056,2051,2059,2050,1196
243,1711439348141173007,2056,2048,2045,2055,2045,2049,1195
244,1711439348151212925,2056,2060,2034,2075,2055,2063,1195
245,1711439348161174442,2052,2044,2064,2049,2051,2045,1197
246,1711439348171227959,2056,2053,2052,2036,2046,2049,1197
247,1711439348181182962,2056,2081,2052,2059,2049,2054,1195
248,1711439348191159090,2059,2070,2045,2057,2050,2052,1196
249,1711439348201172193,2054,2075,2034,2063,2055,2059,1194
250,1711439348211158170,2048,2049,2027,2076,2050,2044,1193
251,1711439348221222960,2053,2043,2062,2047,2053,2050,1195
252,1711439348231166701,2057,2044,2096,2067,2061,2053,1195
253,1711439348241176306,2057,2057,2060,2050,2034,2053,1197
254,1711439348251162455,2049,2040,2000,2044,2044,2046,1191
255,1711439348261170787,2057,2057,2043,2072,2068,2064,1195
256,1711439348271168540,2052,2058,2077,2044,2048,2047,1193
257,1711439348281170761,2024,2050,2077,2033,2040,2049,1195
258,1711439348291164323,2080,2065,2072,2061,2060,2073,1194
259,1711439348301191586,2059,2060,2091,2064,2059,2053,1194
260,1711439348311160318,2056,2061,2142,2058,2049,2049,1195
261,1711439348321174764,2052,2060,2087,2073,2066,2052,1197
262,1711439348331170231,2056,2048,2038,2068,2059,2064,1196
263,1711439348341166620,2056,2056,2052,2052,2046,2040,1195
264,1711439348351164291,2039,2033,2056,2052,2096,2064,1199
265,1711439348361164578,2056,2036,2033,2026,2019,2075,1198
266,1711439348371171940,2056,2056,2037,2049,2043,2042,1194
267,1711439348381158498,2057,2068,2090,2113,2065,2054,1196
268,1711439348391165950,2068,2071,2078,2056,2076,2058,1196
269,1711439348401165305,2057,2060,2054,2025,2047,2053,1195
270,1711439348411186455,2052,2051,2046,1985,2045,2052,1194
271,1711439348421176170,2064,2057,2036,2088,2046,2050,1197
272,1711439348431162849,2061,2047,2048,2159,2068,2060,1196
273,1711439348441162725,2056,2052,2040,2016,2053,2055,1195
274,1711439348451152501,2052,2060,2092,2097,2068,2053,1196
275,1711439348461163519,2064,2077,2121,2029,2042,2048,1195
276,1711439348471168776,2060,2050,2043,2105,2077,2057,1198
277,1711439348481162019,2056,2066,2082,2213,2070,2056,1196
278,1711439348491160492,2046,2025,2017,2060,2048,2051,1195
279,1711439348501163244,2064,2046,2078,2072,2059,2057,1196
280,1711439348511180626,2049,2041,2052,2024,2052,2050,1197
281,1711439348521174880,2053,2045,2054,2116,2057,2057,1196
282,1711439348531170388,2054,2060,2064,2000,2045,2053,1195
283,1711439348541181837,2060,2053,2019,2065,2061,2058,1195
284,1711439348551174679,2058,2057,2037,2056,2048,2050,1195
285,1711439348561181469,2053,2050,2151,2010,2057,2052,1197
286,1711439348571161093,2058,2060,2088,2037,2055,2057,1196
287,1711439348581105666,2058,2050,2046,2052,2053,2056,1196
288,1711439348591160886,2052,2046,2038,2052,2048,2052,1196
289,1711439348601168898,2061,2051,2041,2065,2057,2048,1196
290,1711439348611158945,2056,2068,2066,2060,2058,2072,1197
291,1711439348621174173,2055,2032,2036,2058,2053,2042,1196
292,1711439348631174338,2040,2083,2070,2048,2069,1966,1193
293,1711439348641165928,2058,2054,2046,2068,2057,2047,1196
294,1711439348651171846,2053,2056,2052,2057,2022,1900,1192
295,1711439348661168646,2056,2048,2052,2076,2042,2012,1194
296,1711439348671169514,2053,2065,2036,2076,2069,2081,1194
297,1711439348681155431,2056,2053,2052,2064,1985,2038,1192
298,1711439348691153694,2044,2024,2004,2037,2029,2044,1195
299,1711439348701158451,2053,2044,2040,2071,2125,2086,1195
300,1711439348711182355,2052,2046,2029,2021,2048,2045,1195
301,1711439348721178494,2059,2065,2111,2066,2058,2052,1195
302,1711439348731176687,2051,2044,1989,2076,2064,2047,1193
303,1711439348741113934,2055,2044,2046,2044,2060,2053,1196
304,1711439348751157229,2055,2082,2058,2027,2047,2069,1197
305,1711439348761186206,2058,2051,2038,2054,2060,2061,1197
306,1711439348771155047,2050,2032,2009,2029,2043,2052,1193
307,1711439348781169063,2058,2056,2070,2072,2058,1996,1194
308,1711439348791169560,2056,2053,2050,2060,2073,2055,1197
309,1711439348801171139,2058,2056,2044,2030,2053,2055,1196
310,1711439348811208042,2051,2050,2058,1985,2040,2051,1196
311,1711439348821163576,2059,2052,2089,2062,2072,2074,1196
312,1711439348831178233,2058,2049,2046,2052,2064,2054,1194
313,1711439348841165473,2053,2049,2044,2072,2054,2053,1196
314,1711439348851157994,2052,2047,2046,2061,2050,2000,1192
315,1711439348861189505,2056,2041,2029,2079,2062,2044,1193
316,1711439348871155652,2052,2029,2036,2058,2049,2048,1194
317,1711439348881164015,2056,2032,2038,2057,2062,2065,1196
318,1711439348891152739,2057,2072,2066,2057,2042,2050,1196
319,1711439348901164539,2052,2041,2024,2026,2036,2011,1194
320,1711439348911173584,2056,2049,2037,2062,2048,2047,1194
321,1711439348921188210,2058,2056,2036,2066,2049,2040,1193
322,1711439348931172214,2059,2072,2104,2056,2035,2043,1194
323,1711439348941166709,2050,2044,2036,2027,2056,2045,1193
324,1711439348951158789,2056,2042,2056,2035,2080,2053,1198
325,1711439348961199027,2060,2056,2072,2121,2066,1997,1195
326,1711439348971180736,2058,2068,2168,2056,2044,2050,1197
327,1711439348981161794,2056,2060,2032,2059,2045,2047,1195
328,1711439348991157301,2052,2046,2031,2044,2053,2057,1196
329,1711439349001163540,2047,2013,2004,2056,2050,2049,1197
330,1711439349011201094,2048,2036,2084,2030,2053,2053,1196
331,1711439349021160130,2060,2045,1988,2059,2052,2050,1196
332,1711439349031168408,2050,2053,2008,2020,2072,2092,1194
333,1711439349041169380,2060,2052,2050,2056,2046,2029,1194
334,1711439349051178409,2073,2057,2039,2056,2051,2060,1196
335,1711439349061171055,2060,2069,2072,2066,2076,2060,1195
336,1711439349071170935,2052,2045,2026,2056,2049,2045,1196
337,1711439349081163050,2056,2082,2064,2064,2050,2056,1197
338,1711439349091155224,2056,2042,2024,2040,2052,2040,1193
339,1711439349101103678,2052,2046,1984,2069,2054,2056,1198
340,1711439349111183113,2056,2051,2053,2056,2057,2056,1195
341,1711439349121168042,2054,2048,2045,2073,2056,2064,1197
342,1711439349131165178,2050,2065,2056,2021,2049,2050,1196
343,1711439349141173405,2058,2054,2049,2074,2056,2058,1195
344,1711439349151172284,2052,2072,2064,2056,2057,2044,1194
345,1711439349161200382,2061,2072,2141,1990,2044,2053,1198
346,1711439349171165461,2051,2046,2058,2061,2050,2050,1196
347,1711439349181180292,2056,2061,2030,2079,2044,2050,1198
348,1711439349191150701,2062,2060,2065,2061,2052,2046,1195
349,1711439349201165654,2052,2047,2068,2059,2051,2053,1198
350,1711439349211226369,2056,2064,2037,2050,2047,2040,1195
351,1711439349221182580,2052,2040,2037,2025,2047,2061,1197
352,1711439349231131765,2056,2052,2041,2021,2045,2053,1196
353,1711439349241167821,2057,2088,2042,2040,2056,2061,1196
354,1711439349251158953,2053,2061,2072,2073,2056,2056,1197
355,1711439349261166809,2058,2049,2039,2062,2060,2064,1197
356,1711439349271166250,2057,2060,2069,2040,2053,2061,1196
357,1711439349281101947,2060,2066,2093,2061,2075,2072,1197
358,1711439349291148063,2052,2070,2050,2039,2050,2046,1193
359,1711439349301101978,2064,2069,2060,2059,2056,2058,1196
360,1711439349311159508,2052,2048,2046,2056,2050,2047,1196
361,1711439349321172436,2058,2053,2077,2058,2052,2048,1197
362,1711439349331162656,2052,2041,2049,2045,2055,2037,1194
363,1711439349341167767,2060,2044,2006,2056,2042,2049,1196
364,1711439349351160803,2050,2051,2051,2042,2047,2042,1193
365,1711439349361191318,2053,2051,2050,2030,2041,2048,1196
366,1711439349371165394,2064,2091,2219,2060,2065,2047,1196
367,1711439349381190868,2052,2052,2045,2057,2040,2053,1197
368,1711439349391164594,2059,2065,2094,2072,2056,2050,1197
369,1711439349401169925,2060,2052,2046,2056,2053,2055,1196
370,1711439349411168183,2058,2075,1988,2076,2059,2056,1198
371,1711439349421194007,2057,2036,2017,2057,2047,2047,1193
372,1711439349431168525,2052,2047,2045,2056,2057,2051,1195
373,1711439349441176933,2061,2064,2073,2061,2053,2052,1194
374,1711439349451161192,2052,2048,2018,2070,2066,2061,1193
375,1711439349461104996,2056,2050,2040,2028,2049,2065,1195
376,1711439349471189481,2056,2052,2036,2027,2052,2050,1195
377,1711439349481164741,2056,2057,2092,2084,2061,2050,1196
378,1711439349491160081,2058,2060,2114,2112,2061,2056,1196
379,1711439349501162017,2056,2042,2008,2066,2055,2060,1194
380,1711439349511166696,2058,2045,2056,2054,2058,2056,1196
381,1711439349521189194,2052,2056,2045,2066,2054,2052,1198
382,1711439349531155064,2059,2069,2115,2077,2058,2074,1199
383,1711439349541174565,2057,2055,2056,2074,2050,2050,1198
384,1711439349551162290,2054,2070,2040,2066,2054,2052,1196
385,1711439349561164996,2051,2044,2050,2068,2052,2052,1197
386,1711439349571188406,2059,2075,2121,2068,2056,2059,1195
387,1711439349581160909,2056,2052,2038,2069,2052,2056,1196
388,1711439349591153355,2052,2043,2040,2036,2049,2049,1196
389,1711439349601160790,2058,2052,2045,2063,2058,2053,1196
390,1711439349611157955,2055,2089,2074,2036,2054,2053,1196
391,1711439349621173679,2052,2045,2044,2057,2053,2053,1198
392,1711439349631167186,2056,2046,2017,2054,2053,2052,1194
393,1711439349641172317,2056,2053,2051,2033,2053,2058,1197
394,1711439349651165974,2047,2044,2024,2040,2049,2050,1195
395,1711439349661185536,2058,2081,2053,2076,2054,2053,1195
396,1711439349671168772,2050,2037,2046,2050,2052,2058,1198
397,1711439349681109500,2056,2053,2046,2066,2046,2037,1193
398,1711439349691160516,2056,2056,2068,2062,2056,2052,1196
399,1711439349701167631,2054,2049,2036,2051,2052,2052,1197
400,1711439349711160327,2048,2032,2027,2012,2044,2057,1197
401,1711439349721199769,2060,2068,2073,2053,2052,2047,1195
402,1711439349731161371,2056,2049,2035,2051,2056,2054,1195
403,1711439349741171372,2058,2061,2118,2058,2057,2061,1195
404,1711439349751165661,2046,2039,2032,2009,2045,2058,1197
405,1711439349761178969,2057,2052,2054,2050,2056,2054,1197
406,1711439349771191265,2050,2031,2059,2053,2052,2046,1190
407,1711439349781155682,2059,2046,2052,2051,2056,2061,1195
408,1711439349791174602,2056,2072,2053,2053,2057,2050,1197
409,1711439349801159151,2056,2060,2073,2092,2060,2057,1196
410,1711439349811153119,2050,2052,2043,2044,2048,2047,1191
411,1711439349821200388,2058,2053,2043,2058,2050,2053,1195
412,1711439349831153190,2053,2046,2044,2080,2059,2052,1196
413,1711439349841169566,2054,2056,2076,2064,2053,2053,1195
414,1711439349851157000,2047,2036,2006,2036,2057,2068,1194
415,1711439349861186501,2062,2064,2038,2084,2058,2060,1194
416,1711439349871164437,2052,2047,2040,2057,2047,2050,1195
417,1711439349881106247,2056,2070,2041,2062,2055,2053,1196
418,1711439349891161041,2067,2075,2132,2100,2064,2058,1197
419,1711439349901174449,2057,2052,2070,2030,2057,2059,1194
420,1711439349911161593,2053,2048,2037,2065,2054,2056,1199
421,1711439349921197398,2058,2065,2070,2058,2053,2056,1198
422,1711439349931158338,2059,2112,2039,2051,2056,2059,1199
423,1711439349941102544,2047,2036,2032,2027,2037,2046,1193
424,1711439349951156726,2053,2051,2052,2047,2050,2045,1193
425,1711439349961196359,2056,2053,2057,2056,2056,2062,1197
426,1711439349971119901,2047,2048,2058,2056,2053,2053,1197
427,1711439349981160446,2056,2050,2042,2056,2055,2052,1197
428,1711439349991166810,2056,2061,2068,2042,2057,2060,1196
429,1711439350001168144,2065,2066,2116,2004,2055,2056,1196
430,1711439350011168278,2054,2050,2032,2078,2056,2054,1198
431,1711439350021173364,2055,2063,2108,2076,2060,2060,1196
432,1711439350031163869,2061,2084,2145,2057,2052,2050,1196
433,1711439350041179546,2057,2047,2034,2060,2056,2057,1197
434,1711439350051162365,2050,2051,2056,2058,2048,2054,1195
435,1711439350061202413,2056,2078,2058,2042,2052,2052,1196
436,1711439350071193028,2050,2043,2027,2044,2053,2049,1198
437,1711439350081164363,2064,2075,2075,2073,2061,2065,1197
438,1711439350091160159,2052,2042,2009,2052,2047,2035,1194
439,1711439350101157519,2060,2066,2109,2066,2057,2053,1197
440,1711439350111157503,2053,2061,2052,2052,2056,2052,1196
441,1711439350121181698,2061,2087,2124,2065,2053,2059,1196
442,1711439350131176993,2048,2026,2035,2044,2052,2053,1196
443,1711439350141156987,2062,2077,2108,2072,2051,2045,1194
444,1711439350151170209,2050,2042,1998,2056,2066,2060,1197
445,1711439350161171707,2055,2054,2077,2060,2050,2047,1194
446,1711439350171165589,2055,2052,2037,2050,2053,2043,1193
447,1711439350181167848,2062,2059,2101,2080,2057,2061,1198
448,1711439350191168514,2049,2048,2059,2051,2052,2044,1192
449,1711439350201161905,2059,2056,2062,2060,2060,2043,1192
450,1711439350211154765,2052,2039,2036,2036,2045,2060,1198
451,1711439350221165572,2059,2038,2034,2056,2048,2067,1198
452,1711439350231188244,2054,2052,2026,2059,2059,2049,1196
453,1711439350241165373,2057,2048,2074,2063,2062,2058,1196
454,1711439350251167642,2049,2036,2015,2046,2054,2044,1193
455,1711439350261165512,2057,2058,2086,2062,2062,2058,1198
456,1711439350271158242,2054,2058,2082,2053,2056,2053,1196
457,1711439350281180633,2068,2093,2166,2068,2064,2052,1196
458,1711439350291153321,2050,2050,2050,2053,2059,2052,1195
459,1711439350301160180,2058,2061,2053,2056,2065,2052,1197
460,1711439350311159744,2052,2054,2061,2054,2050,2059,1197
461,1711439350321179710,2056,2054,2057,2052,2047,2051,1198
462,1711439350331170326,2056,2046,2033,2055,2056,2057,1197
463,1711439350341191845,2052,2040,2066,2054,2053,2052,1196
464,1711439350351173592,2056,2029,2005,2045,2053,2052,1198
465,1711439350361175952,2056,2041,2013,2069,2060,2060,1198
466,1711439350371254169,2052,2052,2047,2065,2052,2047,1194
467,1711439350381180821,2058,2064,2112,2060,2059,2054,1196
468,1711439350391161696,2055,2054,2049,2043,2062,2054,1196
469,1711439350401103309,2053,2036,2029,2064,2053,2058,1196
470,1711439350411152116,2054,2047,2020,2061,2047,2052,1194
471,1711439350421170328,2052,2044,1994,2047,2052,2051,1194
472,1711439350431171987,2053,2046,2033,2062,2056,2046,1194
473,1711439350441166981,2056,2049,2042,2058,2053,2053,1196
474,1711439350451158729,2052,2025,2045,2033,2053,2055,1196
475,1711439350461114010,2056,2041,2060,2062,2054,2057,1196
476,1711439350471227431,2054,2064,2052,2051,2053,2053,1195
477,1711439350481176720,2053,2045,2044,2059,2051,2056,1195
478,1711439350491158497,2058,2075,2057,2099,2055,2064,1197
479,1711439350501166599,2053,2046,2027,2066,2048,2048,1196
480,1711439350511160501,2058,2080,2053,2040,2054,2052,1196
481,1711439350521175727,2058,2056,2050,2061,2054,2053,1196
482,1711439350531154197,2056,2056,2036,2060,2052,2046,1194
483,1711439350541162900,2055,2045,2040,2060,2066,2058,1198
484,1711439350551164238,2052,2050,2025,2048,2052,2049,1196
485,1711439350561168391,2058,2045,2056,2063,2052,2053,1197
486,1711439350571183197,2052,2063,2057,2100,2059,2076,1197
487,1711439350581181067,2055,2047,2062,2068,2056,2054,1198
488,1711439350591175300,2056,2067,2084,2081,2056,2048,1196
489,1711439350601194104,2058,2056,2025,2066,2060,2063,1197
490,1711439350611163865,2059,2069,2096,2060,2051,2054,1196
491,1711439350621166225,2056,2070,2112,2060,2059,2057,1194
492,1711439350631187704,2059,2065,2117,2056,2052,2040,1194
493,1711439350641183410,2058,2063,2091,2058,2056,2051,1198
494,1711439350651157902,2056,2059,2072,2047,2054,2056,1196
495,1711439350661160612,2060,2077,2059,2086,2057,2061,1197
496,1711439350671161068,2056,2042,2025,2039,2044,2039,1194
497,1711439350681172186,2060,2057,2064,2042,2057,2054,1196
498,1711439350691177933,2049,2044,2012,2052,2052,2038,1193
499,1711439350701166073,2060,2076,2096,1988,2043,2049,1195
500,1711439350711166368,2052,2043,2060,2057,2057,2053,1196
501,1711439350721167074,2057,2049,2064,2060,2060,2057,1196
502,1711439350731180317,2053,2026,2040,2046,2061,2069,1196
503,1711439350741172064,2057,2034,2046,2069,2056,2049,1196
504,1711439350751169904,2052,2050,2053,2061,2054,2051,1195
505,1711439350761171544,2054,2040,2037,2065,2056,2045,1195
506,1711439350771167089,2056,2049,2016,2029,2048,2045,1194
507,1711439350781175712,2057,2064,2090,2079,2056,2054,1197
508,1711439350791166347,2058,2090,2068,2080,2057,2056,1196
509,1711439350801171603,2057,2056,2061,2081,2057,2048,1197
510,1711439350811167910,2056,2058,2040,2063,2052,2050,1196
511,1711439350821182675,2056,2041,2029,2075,2050,2052,1198
512,1711439350831177018,2056,2052,2070,2051,2048,2058,1198
513,1711439350841172754,2059,2068,2109,2068,2059,2065,1199
514,1711439350851161365,2052,2047,2044,2049,2050,2042,1192
515,1711439350861162472,2060,2056,2101,2059,2053,2057,1198
516,1711439350871196328,2052,2057,2107,2050,2062,2056,1197
517,1711439350881170940,2057,2059,2085,2061,2051,2053,1194
518,1711439350891169221,2057,2048,2021,2053,2058,2045,1194
519,1711439350901172903,2058,2045,2024,2061,2046,2054,1196
520,1711439350911174411,2053,2050,2034,2063,2051,2056,1195
521,1711439350921196422,2061,2075,2058,2084,2060,2056,1197
522,1711439350931187107,2052,2081,2038,2037,2052,2053,1196
523,1711439350941172632,2056,2060,2086,2069,2052,2053,1196
524,1711439350951166293,2054,2049,2026,2046,2050,2052,1196
525,1711439350961173884,2056,2055,2033,2052,2052,2045,1195
526,1711439350971194341,2051,2044,2053,2073,2058,2053,1196
527,1711439350981183934,2056,2081,2056,2062,2051,2056,1197
528,1711439350991165561,2057,2060,2040,2037,2056,2046,1193
529,1711439351001173893,2056,2050,2043,2044,2051,2068,1197
530,1711439351011172522,2051,2056,2082,2026,2036,2041,1192
531,1711439351021184886,2056,2054,2040,2068,2060,2084,1194
532,1711439351031167920,2053,2042,2025,2058,2052,2056,1196
533,1711439351041167949,2058,2058,2097,2046,2043,2050,1197
534,1711439351051165394,2046,2043,2012,2037,2045,2051,1195
535,1711439351061185785,2067,2081,2140,2066,2059,2056,1194
536,1711439351071179211,2050,2044,2085,2041,2053,2053,1197
537,1711439351081192868,2058,2058,2092,2074,2067,2057,1196
538,1711439351091169630,2061,2079,2141,2068,2058,2074,1198
539,1711439351101176753,2049,2044,2008,2057,2047,2038,1194
540,1711439351111175290,2064,2053,2043,2056,2057,2040,1194
541,1711439351121191984,2053,2049,2034,2069,2047,2047,1193
542,1711439351131177182,2052,2040,1993,2074,2050,2048,1196
543,1711439351141162450,2056,2049,1967,2068,2048,2045,1191
544,1711439351151170556,2046,2032,2032,2040,2055,2048,1197
545,1711439351161183202,2048,2032,2013,2050,2051,2052,1197
546,1711439351171173581,2052,2044,2000,2040,2046,2042,1192
547,1711439351181177409,2060,2049,2029,2052,2050,2041,1193
548,1711439351191179542,2041,2053,2057,2051,2064,2064,1198
549,1711439351201175583,2057,2056,2034,2066,2052,2049,1193
550,1711439351211168487,2050,2056,2072,2045,2049,2048,1197
551,1711439351221184240,2056,2047,2044,2047,2064,2062,1196
552,1711439351231233993,2059,2068,2056,2060,2056,2058,1197
553,1711439351241161942,2059,2067,2109,2067,2056,2043,1192
554,1711439351251181271,2051,2049,2043,2042,2056,2069,1194
555,1711439351261178896,2064,2069,2113,2072,2056,2058,1196
556,1711439351271209599,2056,2056,2090,2057,2050,2065,1196
557,1711439351281173613,2056,2052,2056,2056,2053,2053,1195
558,1711439351291166247,2056,2065,2115,2056,2052,2043,1194
559,1711439351301166587,2061,2068,2107,2081,2062,2049,1196
560,1711439351311153448,2056,2056,2010,2056,2064,2057,1197
561,1711439351321180344,2061,2067,2116,2071,2063,2056,1198
562,1711439351331178319,2082,2054,2063,2046,2040,2049,1197
563,1711439351341173799,2061,2045,2053,2054,2052,2059,1197
564,1711439351351163166,2041,2006,2015,2038,2049,2046,1195
565,1711439351361169187,2075,2057,2136,2064,2065,2075,1197
566,1711439351371181242,2049,2042,2035,2053,2049,2040,1194
567,1711439351381205071,2056,2050,2019,2060,2048,2053,1196
568,1711439351391167031,2054,2044,2015,2049,2046,2043,1195
569,1711439351401172792,2056,2049,2017,2054,2057,2060,1197
570,1711439351411168162,2053,2045,2069,2049,2047,2046,1195
571,1711439351421183653,2030,2047,2025,2060,2047,2056,1199
572,1711439351431177390,2040,2052,2062,2044,2044,2019,1193
573,1711439351441180886,2073,2104,2268,2090,2096,2112,1197
574,1711439351451155312,2047,2042,2008,2046,2051,2053,1194
575,1711439351461183780,2058,2064,2074,2068,2072,2052,1197
576,1711439351471154829,2050,2073,2030,2054,2059,2047,1193
577,1711439351481175481,2054,2049,2061,2070,2052,2052,1196
578,1711439351491161001,2056,2054,2064,2052,2052,2033,1194
579,1711439351501166000,2060,2072,2126,2070,2054,2036,1194
580,1711439351511190290,2048,2043,1988,2043,2076,2010,1194
581,1711439351521172021,2045,2020,2040,2025,2136,2061,1196
582,1711439351531170297,2059,2055,2056,2049,2036,2091,1197
583,1711439351541166638,2058,2048,2061,2056,2024,2056,1193
584,1711439351551157308,2054,2062,2096,2017,1848,2036,1194
585,1711439351561175255,2057,2057,2080,2070,2057,2036,1193
586,1711439351571150823,2060,2050,2052,2041,2043,2037,1194
587,1711439351581155823,2060,2059,2040,1935,2053,2037,1193
588,1711439351591170402,2066,2087,2168,2078,2073,2057,1198
589,1711439351601182848,2044,2053,2049,2060,2093,2072,1197
590,1711439351611158365,2058,2087,2045,2057,2057,2036,1195
591,1711439351621169027,2062,2072,2070,2073,2065,2068,1198
592,1711439351631175931,2048,2064,2057,2030,2032,2042,1195
593,1711439351641181101,2056,2047,2042,2023,2080,2065,1197
594,1711439351651168834,2057,2058,2047,2028,2071,2052,1195
595,1711439351661183415,2043,2041,1988,2082,2005,2066,1197
596,1711439351671172480,2060,2063,2101,2094,2032,2046,1193
597,1711439351681171348,2056,2058,2055,2121,2050,2037,1196
598,1711439351691156165,2066,2049,2037,2058,2039,2054,1197
599,1711439351701165033,2053,2052,2049,1972,2024,2053,1197
600,1711439351711156825,2049,2051,2036,2020,2056,2073,1197
601,1711439351721181516,2048,2048,2056,2088,2066,2056,1196
602,1711439351731154528,2049,2047,2044,2065,2043,2033,1192
603,1711439351741161403,2063,2030,2066,2047,2081,1996,1194
604,1711439351751156571,2057,2038,2061,2047,2060,2042,1193
605,1711439351761164907,2053,2049,2033,2059,2046,2068,1197
606,1711439351771195682,2053,2052,2029,2047,2068,2064,1196
607,1711439351781156067,2052,2064,2056,2058,2066,2060,1196
608,1711439351791158873,2056,2084,2088,2033,2045,2060,1196
609,1711439351801170306,2062,2053,2045,2105,2046,2035,1195
610,1711439351811160405,2052,2056,2074,2079,2019,2041,1193
611,1711439351821166947,2061,2076,2116,2038,2098,2064,1198
612,1711439351831161215,2060,2074,2176,2074,2059,2050,1195
613,1711439351841165994,2056,2041,2037,2076,2064,2066,1197
614,1711439351851157756,2060,2046,2070,2077,2052,2040,1189
615,1711439351861163487,2062,2069,2133,2055,2050,2069,1197
616,1711439351871163206,2060,2065,2100,2097,2072,2052,1197
617,1711439351881176433,2056,2058,2056,2052,2069,2062,1196
618,1711439351891164277,2051,2063,2063,2092,2055,2051,1198
619,1711439351901170930,2067,2100,2162,2078,2059,2065,1198
620,1711439351911166179,2051,2044,2003,2036,2038,2052,1197
621,1711439351921167731,2045,2050,2052,2028,2067,2060,1196
622,1711439351931189306,2057,2056,2071,2076,2051,2050,1196
623,1711439351941163391,2049,2033,2049,2101,2068,2049,1195
624,1711439351951171517,2065,2048,2054,2078,2057,2008,1193
625,1711439351961176136,2040,2036,2034,2066,2065,2057,1197
626,1711439351971172227,2055,2036,1999,1967,2043,2051,1197
627,1711439351981178049,2048,2046,2085,2030,2056,2056,1197
628,1711439351991161332,2052,2053,2069,2025,2049,2051,1198
629,1711439352001167204,2052,2056,2093,2018,2041,2051,1197
630,1711439352011160001,2052,2088,2074,2082,2045,2044,1195
631,1711439352021173704,2044,2044,2060,2058,2053,2052,1195
632,1711439352031161433,2050,2045,2017,2050,2051,2050,1195
633,1711439352041163111,2057,2057,2078,2061,2053,2049,1195
634,1711439352051156282,2029,2035,2028,2041,2048,2051,1194
635,1711439352061165837,2045,2066,2132,2108,2047,2044,1192
636,1711439352071173828,2056,2050,2026,2068,2057,2057,1197
637,1711439352081169573,2056,2061,2099,1981,2055,2051,1197
638,1711439352091161852,2058,2049,2114,2072,2053,2051,1197
639,1711439352101168100,2052,2045,2042,2066,2053,2050,1196
640,1711439352111166601,2057,2050,2060,2025,2057,2056,1198
641,1711439352121167899,2052,2047,2054,2093,2052,2049,1195
642,1711439352131182845,2053,2056,2055,2108,2074,2052,1196
643,1711439352141170132,2059,2053,2047,2068,2064,2054,1197
644,1711439352151155847,2053,2065,2006,2017,2042,2051,1197
645,1711439352161179752,2052,2073,2117,2047,2058,2054,1196
646,1711439352171175408,2051,2050,2050,2023,2041,2049,1197
647,1711439352181195134,2057,2060,2069,2069,2049,2056,1197
648,1711439352191149303,2050,2057,2049,2121,2048,2045,1194
649,1711439352201168498,2048,2065,2047,2002,2045,2052,1197
650,1711439352211165927,2068,2045,2012,2042,2057,2056,1196
651,1711439352221169438,2056,2053,2056,2047,2058,2056,1196
652,1711439352231231123,2060,2064,2064,2072,2058,2057,1197
653,1711439352241156471,2057,2056,2047,2052,2053,2053,1198
654,1711439352251158901,2052,2051,2045,2049,2052,2047,1193
655,1711439352261169708,2050,2040,2040,2064,2053,2052,1197
656,1711439352271166396,2060,2051,2081,2076,2066,2058,1197
657,1711439352281187775,2057,2037,2036,2031,2049,2042,1193
658,1711439352291153077,2059,2052,2046,2071,2063,2056,1196
659,1711439352301164596,2052,2052,2033,2073,2058,2063,1194
660,1711439352311177277,2054,2067,2130,2064,2064,2052,1194
661,1711439352321164626,2073,2051,2066,2064,2053,2039,1192
662,1711439352331173759,2064,2049,2052,2049,2064,2065,1195
663,1711439352341102904,2056,2065,2085,2060,2056,2035,1194
664,1711439352351157103,2053,2052,2073,2056,2055,2048,1197
665,1711439352361172350,2059,2063,2064,2058,2057,2056,1198
666,1711439352371159017,2061,2049,2021,2018,2050,2048,1194
667,1711439352381168231,2060,2064,2064,2052,2045,2050,1196
668,1711439352391161401,2064,2093,2108,2056,2062,2059,1196
669,1711439352401166837,2056,2050,2012,2052,2056,2042,1193
670,1711439352411161831,2050,2048,2058,2045,2046,2036,1194
671,1711439352421191158,2057,2051,2045,2052,2052,2039,1193
672,1711439352431181282,2066,2089,2210,2062,2071,2081,1198
673,1711439352441168029,2056,2052,2033,2066,2064,2056,1196
674,1711439352451169576,2056,2046,2013,2045,2059,2052,1194
675,1711439352461172567,2055,2037,2040,2042,2054,2045,1195
676,1711439352471214570,2056,2064,2050,2056,2060,2053,1195
677,1711439352481108431,2046,2042,2032,2050,2058,2052,1196
678,1711439352491160265,2070,2093,2179,2072,2043,2051,1195
679,1711439352501165782,2046,2050,2050,2054,2039,2043,1193
680,1711439352511162148,2053,2049,2013,2051,2044,2048,1197
681,1711439352521194982,2052,2045,2017,2052,2056,2061,1196
682,1711439352531172780,2040,2060,2011,2050,2043,2040,1194
683,1711439352541166872,2060,2058,2047,2052,2052,2056,1198
684,1711439352551161135,2050,2044,2010,2051,2060,2051,1198
685,1711439352561164086,2068,2061,2101,2060,2061,2049,1197
686,1711439352571167347,2052,2052,2091,2044,2053,2049,1198
687,1711439352581103827,2060,2063,2094,2067,2066,2064,1197
688,1711439352591157846,2053,2076,2051,2053,2055,2052,1195
689,1711439352601162631,2055,2036,2028,2060,2059,2051,1197
690,1711439352611154940,2058,2056,2059,2056,2060,2054,1195
691,1711439352621164815,2074,2093,2180,2080,2069,2062,1196
692,1711439352631173147,2054,2060,2088,2064,2056,2042,1192
693,1711439352641176779,2056,2060,2059,2061,2064,2073,1195
694,1711439352651173457,2054,2072,2052,2052,2052,2053,1195
695,1711439352661164713,2052,2041,2018,2052,2054,2052,1195
696,1711439352671181915,2062,2064,2094,2064,2056,2053,1197
697,1711439352681166046,2035,2040,1987,2052,2048,2056,1196
698,1711439352691152191,2056,2058,2050,2051,2053,2044,1194
699,1711439352701167999,2045,2051,2026,2056,2061,2068,1195
700,1711439352711160117,2056,2059,2040,2049,2048,2044,1194
701,1711439352721192400,2049,2040,2021,2055,2046,2052,1196
702,1711439352731151649,2053,2045,2046,2047,2053,2050,1195
703,1711439352741167286,2056,2051,2047,2056,2051,2058,1194
704,1711439352751161138,2051,2049,2026,2044,2050,2049,1196
705,1711439352761197028,2060,2060,2066,2060,2052,2052,1197
706,1711439352771544997,2052,2056,2090,2050,2050,2060,1196
707,1711439352781105414,2054,2040,2009,2061,2051,2045,1194
708,1711439352791161497,2056,2052,2034,2050,2056,2052,1195
709,1711439352801168226,2051,2052,2067,2056,2052,2050,1195
710,1711439352811160214,2072,2045,2056,2048,2047,2049,1196
711,1711439352821192517,2053,2042,2034,2053,2051,2050,1196
712,1711439352831155954,2060,2054,2068,2064,2056,2044,1194
713,1711439352841104761,2053,2040,2029,2054,2048,2060,1195
714,1711439352851163379,2061,2052,2066,2052,2046,2043,1192
715,1711439352861165929,2044,2043,2045,2056,2056,2065,1196
716,1711439352871172638,2040,2047,2058,2051,2042,2051,1197
717,1711439352881173485,2061,2066,2138,2053,2054,2053,1196
718,1711439352891169130,2053,2049,2068,2052,2052,2052,1196
719,1711439352901170307,2052,2047,2045,2052,2051,2053,1193
720,1711439352911158988,2054,2050,2056,2050,2056,2049,1195
721,1711439352921173283,2074,2065,2096,2069,2057,2055,1195
722,1711439352931163106,2051,2049,2027,2046,2053,2047,1192
723,1711439352941165035,2053,2050,2045,2054,2046,2048,1196
724,1711439352951173016,2065,2081,2128,2065,2062,2056,1196
725,1711439352961173241,2058,2084,2088,2064,2054,2058,1198
726,1711439352971172304,2057,2051,2046,2049,2043,2044,1195
727,1711439352981174403,2057,2045,2051,2056,2045,2050,1197
728,1711439352991152271,2068,2049,1997,2061,2056,2053,1196
729,1711439353001166777,2053,2052,2048,2059,2052,2047,1193
730,1711439353011157357,2049,2044,2052,2045,2050,2050,1196
731,1711439353021165396,2056,2029,2026,2058,2052,2045,1194
732,1711439353031155757,2052,2031,2036,2052,2046,2053,1199
733,1711439353041168776,2055,2057,2078,2066,2064,2061,1195
734,1711439353051159348,2049,2053,2057,2049,2053,2052,1194
735,1711439353061165623,2056,2053,2057,2056,2049,2056,1194
736,1711439353071151014,2053,2080,2091,2064,2050,2052,1197
737,1711439353081158281,2056,2052,2023,2061,2049,2046,1194
738,1711439353091161299,2053,2082,2119,2072,2065,2076,1196
739,1711439353101165469,2053,2056,2078,2061,2057,2050,1196
740,1711439353111163737,2050,2057,2060,2052,2050,2048,1198
741,1711439353121167447,2059,2051,2040,2069,2056,2052,1196
742,1711439353131228578,2052,2048,2074,2048,2052,2054,1197
743,1711439353141163181,2040,2049,2019,2056,2047,2052,1197
744,1711439353151161820,2052,2069,2056,2048,2052,2053,1197
745,1711439353161170850,2057,2055,2057,2060,2051,2056,1197
746,1711439353171173638,2056,2054,2058,2050,2051,2040,1193
747,1711439353181227143,2051,2051,2053,2065,2069,2064,1197
748,1711439353191155893,2047,2042,2060,2047,2060,2056,1197
749,1711439353201163000,2055,2048,2042,2058,2046,2049,1197
750,1711439353211159745,2050,2020,2024,2050,2050,2051,1198
751,1711439353221165989,2060,2031,2048,2058,2052,2044,1196
752,1711439353231168828,2073,2079,2165,2058,2063,2060,1196
753,1711439353241157635,2041,2056,2045,2058,2061,2049,1196
754,1711439353251162778,2050,2048,2044,2052,2051,2053,1194
755,1711439353261166728,2056,2056,2052,2058,2056,2056,1196
756,1711439353271160766,2049,2041,2037,2040,2055,2052,1194
757,1711439353281204521,2067,2092,2177,2084,2066,2064,1196
758,1711439353291136087,2053,2035,2036,2044,2048,2047,1195
759,1711439353301160902,2052,2047,2054,2056,2049,2043,1193
760,1711439353311119476,2054,2050,2052,2050,2060,2068,1196
761,1711439353321163560,2064,2042,2002,2056,2049,2050,1195
762,1711439353331167982,2052,2052,2038,2047,2046,2042,1195
763,1711439353341157782,2061,2062,2101,2062,2058,2055,1196
764,1711439353351170420,2052,2076,2056,2049,2053,2052,1197
765,1711439353361170612,2061,2065,2075,2062,2056,2056,1198
766,1711439353371162386,2047,2035,2040,2044,2049,2053,1196
767,1711439353381163039,2050,2033,1982,2056,2058,2052,1197
768,1711439353391164274,2067,2063,2092,2050,2058,2054,1197
769,1711439353401165888,2055,2086,2057,2071,2053,2056,1197
770,1711439353411167103,2050,2046,2026,2056,2053,2063,1195
771,1711439353421167436,2066,2042,2009,2048,2044,2045,1195
772,1711439353431170483,2056,2066,2056,2050,2051,2051,1197
773,1711439353441103162,2053,2042,2026,2051,2057,2057,1197
774,1711439353451173963,2046,2051,2062,2045,2049,2050,1195
775,1711439353461166550,2062,2083,2037,2052,2046,2044,1194
776,1711439353471159747,2060,2066,2122,2056,2069,2056,1195
777,1711439353481104872,2055,2052,2056,2059,2053,2052,1197
778,1711439353491164129,2044,2068,2141,2061,2056,2057,1197
779,1711439353501168820,2053,2043,2023,2057,2055,2053,1199
780,1711439353511156827,2050,2050,2046,2051,2050,2047,1194
781,1711439353521178455,2053,2036,2088,2068,2060,2064,1196
782,1711439353531154796,2057,2046,2069,2056,2056,2050,1197
783,1711439353541104030,2049,2045,2037,2049,2051,2056,1196
784,1711439353551163498,2059,2084,2158,2063,2058,2059,1198
785,1711439353561168590,2048,2051,2014,2057,2056,2052,1198
786,1711439353571193495,2058,2067,2040,2056,2049,2051,1200
787,1711439353581163572,2057,2045,2011,2065,2049,2052,1197
788,1711439353591154485,2057,2053,2049,2043,2056,2063,1197
789,1711439353601169559,2061,2056,2058,2058,2056,2056,1197
790,1711439353611163858,2060,2056,2086,2046,2047,2063,1197
791,1711439353621217073,2053,2054,2086,2061,2056,2047,1195
792,1711439353631176598,2056,2052,2058,2048,2049,2048,1197
793,1711439353641321888,2060,2057,2101,2072,2057,2047,1194
794,1711439353651185691,2057,2077,2100,2068,2058,2059,1196
795,1711439353661177745,2059,2046,2037,2061,2052,2042,1193
796,1711439353671184662,2051,2052,2029,2049,2052,2065,1196
797,1711439353681173079,2053,2027,2069,2065,2052,2050,1196
798,1711439353691169894,2056,2043,2033,2050,2050,2053,1197
799,1711439353701178544,2058,2069,2100,2067,2053,2049,1195
800,1711439353711169766,2053,2049,2037,2044,2047,2057,1194
801,1711439353721204462,2054,2046,2025,2055,2049,2050,1196
802,1711439353731171815,2056,2049,2046,2049,2051,2051,1196
803,1711439353741175504,2053,2056,2059,2060,2053,2057,1196
804,1711439353751168220,2058,2038,2053,2050,2053,2047,1194
805,1711439353761170215,2053,2050,2053,2059,2054,2056,1197
806,1711439353771173885,2060,2073,2133,2057,2056,2057,1196
807,1711439353781103969,2063,2052,2050,2060,2053,2052,1197
808,1711439353791159407,2047,2095,2206,2074,2058,2056,1196
809,1711439353801163628,2050,2045,2036,2047,2049,2053,1197
810,1711439353811159351,2056,2057,2064,2058,2053,2052,1197
811,1711439353821190398,2053,2052,2060,2057,2052,2053,1197
812,1711439353831161429,2061,2050,2028,2060,2056,2057,1197
813,1711439353841175890,2047,2042,2017,2045,2050,2064,1196
814,1711439353851163205,2050,2048,2047,2052,2052,2051,1195
815,1711439353861173279,2061,2064,2097,2064,2056,2057,1195
816,1711439353871162016,2058,2050,2041,2046,2049,2050,1198
817,1711439353881180537,2057,2060,2128,2060,2056,2060,1198
818,1711439353891170157,2052,2052,2066,2046,2052,2045,1195
819,1711439353901175920,2059,2056,2066,2057,2053,2060,1198
820,1711439353911177195,2056,2056,2049,2049,2046,2047,1196
821,1711439353921190615,2051,2020,2008,2056,2054,2054,1198
822,1711439353931182209,2056,2045,2046,2052,2050,2053,1197
823,1711439353941178914,2055,2068,2056,2060,2060,2054,1197
824,1711439353951160967,2059,2072,2129,2056,2056,2054,1196
825,1711439353961169166,2052,2050,2043,2056,2049,2051,1199
826,1711439353971174218,2056,2056,2056,2053,2056,2058,1197
827,1711439353981160561,2054,2051,2033,2057,2054,2053,1196
828,1711439353991159631,2057,2053,2070,2056,2053,2053,1196
829,1711439354001166236,2051,2061,2056,2052,2042,2049,1195
830,1711439354011159426,2049,2044,2034,2049,2052,2047,1195
831,1711439354021168847,2051,2051,2038,2056,2056,2052,1197
832,1711439354031159167,2065,2060,2066,2050,2056,2056,1198
833,1711439354041159047,2048,2034,2046,2050,2052,2053,1197
834,1711439354051153816,2053,2036,2008,2041,2053,2050,1195
835,1711439354061168479,2060,2079,2090,2060,2056,2056,1196
836,1711439354071170373,2057,2064,2110,2044,2055,2053,1198
837,1711439354081160632,2055,2052,2050,2061,2054,2049,1197
838,1711439354091172368,2050,2050,2054,2050,2052,2052,1196
839,1711439354101171257,2063,2082,2140,2067,2060,2069,1197
840,1711439354111159572,2060,2071,2073,2068,2056,2050,1197
841,1711439354121188274,2061,2047,2025,2062,2051,2054,1197
842,1711439354131159132,2054,2079,2078,2050,2052,2051,1196
843,1711439354141157109,2061,2057,2080,2062,2051,2053,1198
844,1711439354151160758,2056,2046,2034,2048,2052,2054,1199
845,1711439354161179138,2064,2058,2072,2058,2053,2051,1197
846,1711439354171162442,2053,2052,2024,2052,2052,2050,1194
847,1711439354181168526,2064,2072,2127,2066,2059,2059,1197
848,1711439354191161341,2044,2045,2057,2051,2051,2046,1193
849,1711439354201165471,2056,2072,2078,2065,2056,2054,1198
850,1711439354211157464,2056,2057,2056,2052,2054,2052,1199
851,1711439354221177327,2050,2037,2026,2058,2052,2054,1197
852,1711439354231161915,2064,2077,2112,2059,2056,2058,1197
853,1711439354241103040,2058,2057,2038,2057,2056,2060,1199
854,1711439354251170204,2053,2056,2054,2051,2051,2051,1196
855,1711439354261169543,2056,2066,2054,2055,2050,2052,1197
856,1711439354271210922,2051,2045,2025,2058,2058,2056,1196
857,1711439354281167600,2069,2064,2057,2063,2050,2052,1197
858,1711439354291158271,2054,2088,2026,2056,2052,2050,1195
859,1711439354301182895,2062,2070,2119,2060,2056,2053,1197
860,1711439354311180099,2047,2047,2050,2047,2057,2061,1198
861,1711439354321198960,2056,2067,2060,2062,2052,2051,1196
862,1711439354331180591,2054,2060,2030,2045,2051,2052,1196
863,1711439354341180472,2065,2048,1995,2052,2054,2052,1195
864,1711439354351191075,2052,2045,2057,2047,2052,2057,1196
865,1711439354361178378,2053,2050,2051,2060,2052,2052,1200
866,1711439354371170903,2057,2050,2060,2056,2053,2052,1197
867,1711439354381156413,2054,2050,2037,2056,2052,2050,1194
868,1711439354391187109,2061,2071,2159,2067,2058,2057,1197
869,1711439354401180595,2051,2040,2044,2053,2050,2056,1197
870,1711439354411190648,2057,2058,2087,2050,2053,2048,1196
871,1711439354421189366,2057,2046,2042,2064,2057,2060,1195
872,1711439354431191400,2056,2048,2032,2054,2050,2049,1196
873,1711439354441113696,2056,2057,2073,2060,2054,2054,1197
874,1711439354451161338,2054,2061,2040,2048,2054,2053,1196
875,1711439354461166058,2058,2058,2059,2057,2054,2053,1195
876,1711439354471208951,2056,2040,2037,2051,2060,2052,1196
877,1711439354481189410,2060,2062,2088,2065,2053,2054,1195
878,1711439354491169137,2053,2049,2013,2053,2050,2052,1200
879,1711439354501166542,2052,2050,2039,2059,2051,2053,1196
880,1711439354511171724,2050,2024,2030,2054,2053,2057,1194
881,1711439354521169049,2060,2052,2052,2065,2058,2058,1197
882,1711439354531164129,2051,2048,2049,2049,2050,2050,1196
883,1711439354541176074,2054,2048,2036,2060,2053,2052,1196
884,1711439354551176356,2053,2051,2054,2052,2052,2052,1195
885,1711439354561176186,2053,2053,2047,2053,2045,2051,1197
886,1711439354571228949,2061,2045,2171,2065,2067,2065,1196
887,1711439354581182762,2056,2042,2048,2060,2052,2052,1196
888,1711439354591180989,2053,2051,2053,2052,2052,2051,1197
889,1711439354601178213,2056,2045,2044,2057,2052,2053,1195
890,1711439354611189187,2073,2056,2032,2068,2055,2052,1196
891,1711439354621181141,2053,2042,2013,2049,2068,2072,1197
892,1711439354631203229,2039,2048,2045,2054,2053,2049,1198
893,1711439354641184409,2056,2050,2057,2059,2053,2053,1197
894,1711439354651196295,2056,2056,2052,2053,2054,2052,1195
895,1711439354661180562,2056,2048,2047,2059,2050,2052,1196
896,1711439354671170341,2066,2085,2189,2060,2053,2050,1197
897,1711439354681186846,2057,2050,2040,2058,2062,2066,1197
898,1711439354691167265,2053,2081,2059,2050,2048,2049,1197
899,1711439354701173961,2056,2056,2058,2058,2052,2054,1196
900,1711439354711168339,2054,2050,2054,2052,2056,2051,1195
901,1711439354721178211,2057,2058,2082,2065,2053,2053,1197
902,1711439354731181910,2057,2072,2115,2047,2045,2050,1196
903,1711439354741176839,2060,2050,2048,2059,2062,2071,1195
904,1711439354751169254,2055,2076,2055,2047,2049,2050,1198
905,1711439354761173183,2056,2052,2056,2060,2050,2050,1197
906,1711439354771171620,2062,2074,2067,2061,2058,2058,1197
907,1711439354781174346,2056,2050,2042,2057,2054,2054,1196
908,1711439354791166300,2065,2056,2060,2051,2054,2056,1198
909,1711439354801171782,2049,2047,2046,2053,2052,2052,1198
910,1711439354811166632,2062,2074,2077,2056,2054,2051,1195
911,1711439354821185462,2056,2072,2059,2052,2046,2049,1200
912,1711439354831174941,2050,2046,2047,2052,2053,2051,1197
913,1711439354841171795,2056,2052,2049,2057,2056,2052,1197
914,1711439354851167646,2059,2072,2123,2060,2056,2052,1195
915,1711439354861166133,2052,2043,2018,2056,2052,2046,1193
916,1711439354871171075,2057,2060,2008,2056,2050,2048,1193
917,1711439354881175355,2053,2049,2042,2054,2050,2052,1195
918,1711439354891166126,2050,2061,2093,2051,2048,2050,1196
919,1711439354901169093,2060,2047,2041,2060,2056,2056,1196
920,1711439354911168793,2052,2047,2050,2050,2054,2054,1196
921,1711439354921220283,2053,2049,2042,2055,2047,2054,1194
922,1711439354931170087,2050,2045,2046,2046,2052,2052,1196
923,1711439354941172683,2054,2040,2033,2052,2050,2050,1194
924,1711439354951174908,2058,2093,2132,2059,2059,2058,1195
925,1711439354961181623,2040,2047,2051,2053,2050,2048,1197
926,1711439354971185041,2056,2057,2080,2046,2054,2052,1197
927,1711439354981184190,2060,2064,2061,2062,2059,2056,1196
928,1711439354991187788,2052,2048,2068,2052,2052,2056,1195
929,1711439355001189723,2064,2084,2107,2065,2056,2059,1197
930,1711439355011191195,2045,2009,2030,2034,2048,2049,1196
931,1711439355021192931,2052,2033,2058,2060,2054,2060,1197
932,1711439355031149159,2054,2056,2102,2051,2058,2048,1193
933,1711439355041196042,2062,2057,2052,2052,2049,2050,1193
934,1711439355051198620,2048,2034,2042,2054,2050,2052,1196
935,1711439355061202079,2057,2041,2038,2050,2052,2047,1193
936,1711439355071151383,2051,2079,2043,2048,2058,2058,1197
937,1711439355081204960,2056,2060,2084,2064,2053,2051,1194
938,1711439355091163373,2056,2046,2035,2049,2053,2059,1196
939,1711439355101165239,2056,2042,2008,2037,2051,2052,1195
940,1711439355111161814,2052,2050,2053,2046,2052,2053,1195
941,1711439355121212154,2072,2080,2117,2068,2059,2061,1198
942,1711439355131167320,2047,2047,2042,2068,2053,2052,1196
943,1711439355141163013,2052,2086,2053,2032,2050,2052,1196
944,1711439355151163938,2076,2097,2260,2059,2056,2056,1195
945,1711439355161170063,2045,2042,2061,2065,2050,2052,1199
946,1711439355171164704,2054,2050,2053,2052,2055,2052,1200
947,1711439355181168264,2057,2054,2029,2072,2053,2055,1197
948,1711439355191164007,2056,2056,2049,2056,2052,2059,1198
949,1711439355201163127,2054,2045,2037,2062,2050,2052,1196
950,1711439355211162598,2059,2064,2089,2077,2059,2056,1194
951,1711439355221164254,2056,2057,2069,2064,2056,2050,1197
952,1711439355231182645,2056,2084,2046,2060,2053,2056,1198
953,1711439355241162494,2051,2045,2040,2058,2056,2053,1197
954,1711439355251169972,2054,2052,2052,2058,2052,2050,1196
955,1711439355261168271,2062,2067,2102,2064,2054,2058,1198
956,1711439355271173003,2053,2049,2045,2052,2056,2054,1197
957,1711439355281179088,2054,2048,2054,2057,2053,2050,1196
958,1711439355291148145,2051,2044,2053,2025,2050,2052,1197
959,1711439355301161495,2064,2102,2091,2068,2060,2053,1200
960,1711439355311164494,2054,2057,2056,2056,2054,2054,1196
961,1711439355321163795,2053,2049,2053,2064,2055,2054,1198
962,1711439355331153224,2057,2059,2080,2056,2052,2052,1197
963,1711439355341112108,2058,2058,2013,2057,2060,2060,1197
964,1711439355351156245,2048,2034,1993,2051,2047,2045,1198
965,1711439355361103635,2062,2052,2075,2077,2058,2056,1198
966,1711439355371161671,2052,2051,2045,2051,2047,2047,1193
967,1711439355381177136,2056,2054,2076,2056,2052,2054,1198
968,1711439355391162888,2058,2063,2125,2043,2054,2054,1198
969,1711439355401165486,2056,2056,2056,2042,2050,2052,1196
970,1711439355411160878,2057,2056,2057,2067,2057,2060,1195
971,1711439355421183500,2055,2085,2050,2061,2056,2053,1197
972,1711439355431163248,2052,2051,2062,2054,2058,2052,1197
973,1711439355441167068,2062,2065,2130,2052,2057,2058,1196
974,1711439355451146847,2055,2041,2025,2047,2050,2048,1194
975,1711439355461111614,2056,2040,2009,2056,2056,2057,1193
976,1711439355471159960,2055,2048,2056,2015,2046,2047,1192
977,1711439355481165033,2056,2056,1991,2089,2058,2064,1196
978,1711439355491155184,2052,2069,2056,2020,2042,2045,1193
979,1711439355501169136,2054,2049,2043,2056,2057,2052,1195
980,1711439355511158475,2052,2061,2064,2052,2052,2047,1192
981,1711439355521177558,2052,2058,2024,2066,2056,2054,1196
982,1711439355531165725,2056,2056,2058,2064,2053,2049,1197
983,1711439355541163443,2058,2081,2092,2065,2057,2057,1196
984,1711439355551156791,2054,2046,2032,2052,2054,2053,1197
985,1711439355561157194,2053,2044,2030,2052,2050,2052,1197
986,1711439355571181799,2053,2045,2046,2047,2051,2052,1197
987,1711439355581161618,2056,2072,2131,2082,2051,2058,1197
988,1711439355591160047,2052,2043,2040,2051,2053,2052,1198
989,1711439355601170772,2057,2064,2056,2049,2054,2056,1197
990,1711439355611163649,2056,2054,2062,2033,2049,2049,1197
991,1711439355621191701,2054,2043,2037,2056,2049,2044,1194
992,1711439355631152980,2053,2056,2065,2052,2056,2057,1197
993,1711439355641169969,2053,2053,2054,2059,2050,2046,1192
994,1711439355651156883,2056,2056,2060,2053,2052,2052,1194
995,1711439355661163710,2054,2048,2034,2065,2048,2054,1196
996,1711439355671181951,2064,2030,2014,2042,2050,2050,1197
997,1711439355681167763,2052,2033,2032,2053,2048,2056,1196
998,1711439355691170932,2056,2053,2057,2049,2052,2050,1195
999,1711439355701172218,2049,2036,1992,2051,2051,2053,1197
1000,1711439355711162689,2056,2057,2048,2055,2053,2052,1195
1001,1711439355721156718,2061,2082,2129,2086,2064,2061,1196
1002,1711439355731150207,2060,2084,2109,2046,2054,2060,1196
1003,1711439355741164069,2054,2035,2019,2052,2056,2050,1195
1004,1711439355751160002,2056,2043,2032,2053,2054,2054,1196
1005,1711439355761199288,2056,2056,2064,2061,2056,2054,1199
1006,1711439355771166140,2056,2044,2020,2056,2052,2056,1197
1007,1711439355781175272,2054,2052,2043,2051,2049,2052,1197
1008,1711439355791166785,2054,2056,2051,2061,2049,2052,1197
1009,1711439355801164863,2060,2038,2016,2064,2056,2056,1197
1010,1711439355811160666,2059,2033,2027,2050,2053,2052,1197
1011,1711439355821168385,2053,2041,1969,2057,2058,2053,1199
1012,1711439355831159458,2056,2053,2043,2052,2053,2054,1194
1013,1711439355841168290,2060,2062,2085,2079,2055,2055,1196
1014,1711439355851155755,2061,2078,2150,2064,2057,2057,1195
1015,1711439355861164315,2058,2049,2044,2059,2052,2055,1196
1016,1711439355871168397,2058,2090,2047,2052,2052,2052,1196
1017,1711439355881175013,2052,2040,2027,2053,2050,2045,1193
1018,1711439355891175286,2052,2056,2080,2057,2053,2066,1198
1019,1711439355901169064,2052,2032,2004,2045,2046,2047,1195
1020,1711439355911158715,2050,2055,2052,2052,2050,2050,1196
1021,1711439355921184332,2056,2052,2055,2048,2054,2056,1196
1022,1711439355931207724,2064,2052,2061,2056,2053,2051,1193
1023,1711439355941168081,2049,2042,2056,2064,2053,2057,1196
1024,1711439355951157451,2047,2047,2040,2050,2049,2048,1198
1025,1711439355961171132,2065,2056,2060,2061,2054,2061,1196
1026,1711439355971169912,2052,2056,2040,2053,2058,2059,1196
1027,1711439355981102340,2053,2049,2045,2058,2056,2053,1197
1028,1711439355991146987,2058,2059,2037,2065,2053,2053,1196
1029,1711439356001103165,2052,2034,2090,2067,2058,2056,1195
1030,1711439356011146013,2063,2068,2141,2060,2060,2060,1197
1031,1711439356021162225,2058,2057,2062,2064,2064,2062,1195
1032,1711439356031152481,2053,2056,2067,2041,2056,2052,1198
1033,1711439356041156717,2052,2039,2029,2047,2053,2047,1193
1034,1711439356051150851,2052,2052,2094,2065,2057,2052,1194
1035,1711439356061156961,2064,2050,2043,2058,2050,2052,1193
1036,1711439356071171188,2047,2037,2031,2049,2061,2068,1197
1037,1711439356081169601,2057,2042,2007,2060,2051,2047,1193
1038,1711439356091159547,2060,2052,2037,2064,2061,2064,1197
1039,1711439356101166568,2056,2054,2070,2060,2052,2053,1196
1040,1711439356111164271,2054,2067,2109,2054,2056,2053,1196
1041,1711439356121201047,2061,2116,2134,2068,2066,2060,1195
1042,1711439356131171721,2053,2046,2057,2043,2054,2058,1195
1043,1711439356141166076,2057,2064,2086,2068,2054,2050,1197
1044,1711439356151151331,2057,2064,2088,2071,2058,2059,1197
1045,1711439356161178626,2045,2053,2064,2059,2056,2052,1197
1046,1711439356171159512,2045,2043,1993,2050,2049,2050,1198
1047,1711439356181173849,2058,2060,2039,2052,2048,2048,1197
1048,1711439356191159235,2052,2049,2037,2038,2050,2053,1196
1049,1711439356201160895,2056,2053,2062,2057,2052,2049,1197
1050,1711439356211157134,2056,2056,2099,2054,2057,2053,1197
1051,1711439356221166601,2059,2054,2092,2077,2059,2058,1195
1052,1711439356231183304,2056,2050,2034,2047,2050,2050,1195
1053,1711439356241104471,2052,2046,2039,2056,2050,2052,1196
1054,1711439356251160338,2056,2049,2049,2057,2056,2059,1192
1055,1711439356261164764,2057,2057,2081,2060,2050,2056,1196
1056,1711439356271172037,2058,2074,2144,2060,2051,2052,1195
1057,1711439356281174278,2045,2048,2060,2049,2057,2053,1198
1058,1711439356291155344,2056,2051,2058,2059,2056,2053,1196
1059,1711439356301161965,2056,2073,2061,2057,2056,2053,1197
1060,1711439356311170300,2047,2048,2058,2049,2051,2052,1197
1061,1711439356321115478,2060,2061,2090,2086,2056,2052,1197
1062,1711439356331159240,2056,2040,2004,2047,2049,2049,1194
1063,1711439356341175582,2057,2060,2064,2061,2056,2056,1197
1064,1711439356351160325,2054,2062,2053,2045,2048,2046,1195
1065,1711439356361165163,2054,2047,2050,2064,2054,2056,1195
1066,1711439356371159477,2056,2052,2046,2044,2051,2053,1197
1067,1711439356381178956,2049,2050,2096,2047,2049,2050,1195
1068,1711439356391164262,2052,2047,2037,2043,2051,2046,1194
1069,1711439356401165993,2057,2058,2070,2059,2056,2064,1196
1070,1711439356411162171,2051,2053,2050,2053,2055,2052,1196
1071,1711439356421195279,2064,2074,2070,2074,2057,2054,1193
1072,1711439356431175373,2033,2061,2096,2042,2053,2052,1198
1073,1711439356441158403,2054,2045,2033,2056,2052,2048,1196
1074,1711439356451154762,2052,2039,2006,2041,2049,2061,1193
1075,1711439356461156804,2056,2050,2036,2058,2059,2057,1197
1076,1711439356471155518,2054,2047,2041,2050,2049,2053,1195
1077,1711439356481152979,2057,2069,2121,2070,2058,2058,1196
1078,1711439356491175965,2046,2045,2016,2052,2052,2052,1195
1079,1711439356501171933,2054,2065,2110,2063,2052,2052,1195
1080,1711439356511159634,2062,2068,2064,2048,2054,2053,1195
1081,1711439356521232407,2056,2049,2054,2052,2045,2047,1194
1082,1711439356531164758,2056,2068,2150,2059,2058,2052,1196
1083,1711439356541197826,2056,2061,2093,2056,2053,2053,1197
1084,1711439356551206572,2050,2047,2051,2047,2053,2053,1195
1085,1711439356561175682,2060,2053,2033,2062,2056,2054,1196
1086,1711439356571215154,2060,2090,2083,2056,2056,2053,1197
1087,1711439356581164441,2048,2034,2027,2064,2056,2057,1197
1088,1711439356591158606,2052,2048,2043,2050,2052,2056,1196
1089,1711439356601163633,2057,2067,2122,2072,2059,2054,1197
1090,1711439356611158238,2056,2056,2060,2057,2062,2057,1195
1091,1711439356621202911,2056,2042,2036,2060,2052,2052,1195
1092,1711439356631156588,2062,2072,2061,2049,2053,2052,1195
1093,1711439356641159962,2046,2053,2058,2060,2056,2054,1195
1094,1711439356651160661,2052,2057,2050,2060,2050,2050,1197
1095,1711439356661164958,2056,2060,2072,2062,2058,2052,1194
1096,1711439356671233603,2058,2085,2096,2053,2050,2057,1198
1097,1711439356681170614,2062,2041,2029,2059,2054,2057,1193
1098,1711439356691158043,2056,2053,2080,2049,2054,2053,1197
1099,1711439356701162530,2052,2057,2056,2040,2046,2049,1196
1100,1711439356711162176,2056,2057,2030,2052,2052,2052,1195
1101,1711439356721185984,2056,2056,1982,2066,2050,2049,1195
1102,1711439356731169254,2056,2059,2022,2047,2056,2064,1197
1103,1711439356741112399,2056,2056,2056,2060,2052,2047,1195
1104,1711439356751156190,2057,2045,2024,2058,2054,2056,1195
1105,1711439356761103623,2049,2041,2032,2056,2054,2053,1197
1106,1711439356771168390,2054,2056,2080,2056,2060,2058,1198
1107,1711439356781161041,2056,2070,2029,2060,2056,2052,1196
1108,1711439356791161388,2057,2051,2012,2056,2057,2056,1197
1109,1711439356801163419,2058,2050,2046,2068,2058,2051,1195
1110,1711439356811157774,2049,2037,2036,2048,2047,2051,1196
1111,1711439356821166159,2047,2051,2054,2061,2054,2056,1198
1112,1711439356831152135,2056,2050,2026,2052,2054,2053,1194
1113,1711439356841163557,2052,2041,2100,2060,2054,2056,1195
1114,1711439356851202467,2061,2052,2056,2044,2053,2055,1195
1115,1711439356861172560,2056,2051,2064,2075,2056,2056,1196
1116,1711439356871165812,2062,2056,2034,2056,2056,2052,1196
1117,1711439356881171952,2045,2040,2024,2057,2049,2052,1194
1118,1711439356891166778,2056,2045,2029,2046,2053,2052,1197
1119,1711439356901175162,2056,2051,2062,2056,2048,2049,1194
1120,1711439356911172113,2053,2053,2060,2049,2052,2052,1196
1121,1711439356921185258,2056,2054,2056,2057,2053,2057,1197
1122,1711439356931195047,2056,2060,2038,2058,2054,2051,1196
1123,1711439356941170671,2056,2056,2065,2059,2053,2056,1197
1124,1711439356951165607,2064,2028,2082,2056,2055,2052,1195
1125,1711439356961202263,2045,2027,2011,2060,2053,2054,1196
1126,1711439356971149927,2052,2046,2043,2056,2056,2052,1196
1127,1711439356981156237,2058,2060,2056,2064,2056,2058,1195
1128,1711439356991155081,2053,2045,2056,2053,2053,2052,1196
1129,1711439357001160169,2072,2056,2068,2064,2054,2056,1197
1130,1711439357011156637,2049,2044,2034,2040,2049,2049,1195
1131,1711439357021102705,2061,2060,2089,2062,2052,2052,1195
1132,1711439357031154432,2045,2041,2013,2047,2049,2047,1195
1133,1711439357041171404,2062,2052,2021,2054,2055,2059,1195
1134,1711439357051160345,2053,2049,2021,2047,2052,2050,1195
1135,1711439357062285145,2053,2053,2051,2085,2065,2056,1196
1136,1711439357071170837,2058,2088,2097,2048,2056,2057,1196
1137,1711439357081162003,2060,2053,2047,2055,2057,2056,1196
1138,1711439357091190148,2052,2040,2045,2053,2053,2049,1196
1139,1711439357101190164,2035,2040,1995,2060,2050,2049,1197
1140,1711439357111162829,2050,2044,2042,2048,2051,2050,1197
1141,1711439357121177376,2060,2055,2057,2057,2054,2055,1197
1142,1711439357131167098,2053,2042,2008,2045,2053,2054,1197
1143,1711439357141166201,2058,2061,2069,2057,2050,2056,1197
1144,1711439357151157006,2056,2056,2062,2059,2056,2054,1194
1145,1711439357161164136,2062,2057,2020,2068,2058,2058,1199
1146,1711439357171175166,2061,2067,2086,2058,2056,2054,1197
1147,1711439357181168926,2058,2064,2086,2067,2058,2059,1196
1148,1711439357191155753,2067,2080,2084,2032,2053,2050,1197
1149,1711439357201165178,2056,2047,2024,2059,2054,2056,1196
1150,1711439357211153097,2052,2043,2038,2040,2050,2048,1194
1151,1711439357221177705,2060,2060,2074,2060,2053,2056,1194
1152,1711439357231152816,2057,2056,2046,2056,2053,2052,1195
1153,1711439357241174348,2052,2051,2059,2046,2052,2052,1196
1154,1711439357251160783,2055,2050,2047,2051,2053,2053,1193
1155,1711439357261170600,2059,2076,2058,2052,2056,2051,1194
1156,1711439357271152164,2054,2058,2100,2058,2054,2053,1196
1157,1711439357281169176,2045,2044,2036,2058,2054,2054,1198
1158,1711439357291161615,2056,2052,2029,2047,2049,2053,1198
1159,1711439357301159515,2056,2064,2086,2061,2057,2056,1197
1160,1711439357311157606,2057,2048,2082,2058,2054,2056,1196
1161,1711439357321183035,2056,2050,2060,2060,2054,2053,1195
1162,1711439357331157015,2054,2053,2048,2055,2056,2053,1194
1163,1711439357341165778,2063,2060,2072,2062,2056,2052,1195
1164,1711439357351162225,2047,2046,2038,2050,2056,2051,1197
1165,1711439357361181532,2050,2069,2065,2057,2049,2053,1195
1166,1711439357371170994,2061,2058,2050,2052,2056,2054,1195
1167,1711439357381174266,2052,2054,2036,2058,2056,2053,1196
1168,1711439357391175062,2054,2054,2056,2056,2051,2053,1196
1169,1711439357401164385,2062,2044,2035,2057,2053,2053,1197
1170,1711439357411163196,2055,2059,2170,2069,2059,2058,1195
1171,1711439357421166498,2060,2052,2049,2050,2053,2054,1196
1172,1711439357431161252,2047,2038,2048,2037,2048,2052,1196
1173,1711439357441164714,2056,2050,2064,2059,2055,2052,1197
1174,1711439357451160490,2054,2050,2078,2056,2051,2052,1194
1175,1711439357461165536,2056,2073,2084,2058,2052,2053,1196
1176,1711439357471162916,2063,2090,2072,2056,2056,2051,1195
1177,1711439357481103251,2053,2049,2057,2057,2055,2052,1196
1178,1711439357491150308,2069,2057,2052,2056,2052,2053,1197
1179,1711439357501102639,2057,2057,2046,2079,2057,2054,1195
1180,1711439357511150487,2056,2062,2042,2060,2054,2053,1197
1181,1711439357521167470,2057,2068,2066,2069,2059,2057,1196
1182,1711439357531165119,2056,2057,2096,2060,2056,2054,1194
1183,1711439357541171769,2056,2060,2084,2060,2053,2053,1195
1184,1711439357551168807,2056,2045,2043,2048,2054,2053,1195
1185,1711439357561171387,2062,2068,2053,2072,2057,2056,1196
1186,1711439357571153714,2055,2045,2028,2067,2051,2051,1196
1187,1711439357581117019,2049,2053,2064,2058,2056,2052,1196
1188,1711439357591163215,2052,2071,2042,2050,2052,2053,1196
1189,1711439357601165113,2056,2056,2056,2067,2056,2054,1195
1190,1711439357611160870,2057,2054,2035,2052,2050,2052,1196
1191,1711439357621163279,2060,2062,2066,2067,2055,2058,1196
1192,1711439357631154876,2050,2057,2040,2051,2056,2053,1196
1193,1711439357641181549,2058,2048,2070,2061,2055,2059,1197
1194,1711439357651159746,2054,2054,2101,2052,2056,2053,1194
1195,1711439357661165484,2059,2070,2051,2059,2054,2056,1196
1196,1711439357671164155,2050,2041,2032,2053,2052,2054,1195
1197,1711439357681170224,2044,2059,2058,2061,2055,2053,1194
1198,1711439357691163734,2052,2026,2037,2054,2052,2053,1196
1199,1711439357701168820,2058,2041,2044,2060,2050,2051,1196
1200,1711439357711159184,2052,2058,2056,2058,2052,2049,1196
1201,1711439357721190627,2056,2074,2057,2057,2056,2053,1194
1202,1711439357731155466,2052,2050,2036,2053,2056,2052,1195
1203,1711439357741165613,2057,2050,2045,2054,2051,2052,1196
1204,1711439357751161509,2051,2021,2044,2052,2049,2056,1195
1205,1711439357761169120,2056,2043,2052,2056,2053,2053,1197
1206,1711439357771181943,2048,2045,2037,2049,2051,2052,1197
1207,1711439357781186387,2058,2060,2067,2056,2053,2053,1199
1208,1711439357791172712,2050,2052,2043,2030,2050,2052,1196
1209,1711439357801164911,2058,2064,2061,2064,2051,2054,1196
1210,1711439357811157710,2057,2071,2029,2049,2054,2051,1195
1211,1711439357821165211,2056,2052,2040,2062,2056,2056,1196
1212,1711439357831152669,2056,2052,2046,2053,2050,2050,1194
1213,1711439357841163817,2055,2065,2021,2085,2054,2056,1194
1214,1711439357851159554,2060,2053,2086,2051,2053,2055,1194
1215,1711439357861166613,2049,2047,2045,2059,2053,2052,1196
1216,1711439357871154302,2055,2088,2066,2052,2052,2052,1196
1217,1711439357881162835,2052,2043,2033,2052,2052,2054,1196
1218,1711439357891158160,2052,2045,2016,2056,2053,2052,1197
1219,1711439357901158115,2052,2043,2040,2068,2053,2056,1195
1220,1711439357911156376,2052,2044,2030,2074,2057,2056,1196
1221,1711439357921164849,2057,2046,2002,2058,2055,2052,1195
1222,1711439357931158901,2061,2056,2070,2054,2053,2053,1195
1223,1711439357941169780,2053,2044,2022,2053,2052,2056,1194
1224,1711439357951170676,2052,2039,2014,2047,2046,2048,1196
1225,1711439357961173187,2053,2043,2044,2063,2052,2056,1198
1226,1711439357971171227,2053,2048,2036,2053,2056,2053,1195
1227,1711439357981152661,2057,2088,2038,2056,2050,2053,1197
1228,1711439357991159161,2054,2048,2049,2052,2051,2052,1196
1229,1711439358001159496,2064,2066,2071,2070,2056,2055,1195
1230,1711439358011158024,2060,2054,2060,2065,2058,2056,1197
1231,1711439358021189048,2054,2040,2044,2058,2051,2056,1196
1232,1711439358031153918,2056,2052,2052,2044,2047,2050,1197
1233,1711439358041167716,2056,2082,2052,2061,2056,2057,1196
1234,1711439358051159083,2048,2046,2040,2051,2049,2055,1196
1235,1711439358061162227,2057,2065,2094,2066,2057,2056,1196
1236,1711439358071831059,2054,2049,2093,2056,2056,2054,1196
1237,1711439358081173355,2052,2044,2041,2057,2053,2054,1196
1238,1711439358091152807,2058,2044,2057,2056,2054,2052,1196
1239,1711439358101105251,2061,2060,2072,2062,2056,2057,1198
1240,1711439358111151788,2056,2056,2064,2059,2052,2053,1195
1241,1711439358121104201,2053,2049,2040,2055,2052,2055,1197
1242,1711439358131157705,2056,2056,2072,2053,2052,2054,1200
1243,1711439358141160488,2054,2037,2040,2056,2056,2054,1197
1244,1711439358151157788,2054,2044,2047,2051,2050,2052,1194
1245,1711439358161171536,2058,2051,2046,2058,2057,2053,1197
1246,1711439358171163084,2056,2045,2032,2050,2053,2051,1197
1247,1711439358181186902,2060,2059,2083,2061,2057,2056,1196
1248,1711439358191171887,2052,2042,2052,2044,2051,2052,1195
1249,1711439358201159527,2056,2056,2044,2058,2050,2051,1196
1250,1711439358211158531,2059,2060,2078,2058,2054,2054,1194
1251,1711439358221167698,2054,2047,2029,2061,2054,2052,1195
1252,1711439358231171313,2051,2045,2045,2048,2049,2056,1194
1253,1711439358241105917,2047,2056,2045,2056,2058,2056,1195
1254,1711439358251157938,2059,2074,2088,2052,2056,2054,1196
1255,1711439358261159498,2056,2086,2057,2056,2052,2052,1197
1256,1711439358271154112,2053,2047,2037,2044,2054,2053,1194
1257,1711439358281180457,2054,2046,2026,2054,2053,2054,1196
1258,1711439358291153074,2060,2072,2085,2060,2057,2057,1196
1259,1711439358301162882,2060,2060,2108,2065,2058,2055,1196
1260,1711439358311157036,2052,2042,2037,2052,2054,2056,1195
1261,1711439358321160180,2056,2038,2044,2054,2050,2049,1196
1262,1711439358331162060,2056,2036,2049,2054,2052,2053,1196
1263,1711439358341182573,2061,2084,2181,2076,2062,2059,1195
1264,1711439358351167015,2056,2045,2040,2049,2052,2056,1196
1265,1711439358361171471,2057,2052,2058,2056,2050,2051,1197
1266,1711439358371160344,2051,2052,2038,2049,2054,2052,1196
1267,1711439358381171526,2057,2046,2026,2063,2056,2054,1196
1268,1711439358391169738,2061,2060,2093,2054,2053,2052,1195
1269,1711439358401172992,2056,2056,2068,2057,2056,2056,1195
1270,1711439358411163539,2056,2054,2040,2052,2056,2054,1195
1271,1711439358421174349,2048,2044,2033,2061,2056,2054,1198
1272,1711439358431171700,2057,2065,2043,2053,2053,2053,1195
1273,1711439358441179073,2051,2040,2044,2058,2053,2053,1197
1274,1711439358451161982,2058,2063,2141,2061,2059,2057,1195
1275,1711439358461167952,2052,2046,2042,2053,2052,2053,1195
1276,1711439358471229162,2059,2066,2141,2046,2056,2054,1195
1277,1711439358481178549,2053,2088,2065,2056,2052,2054,1194
1278,1711439358491170518,2052,2052,2052,2048,2052,2049,1196
1279,1711439358501176508,2052,2064,2040,2060,2057,2056,1196
1280,1711439358511172316,2060,2067,2064,2056,2052,2052,1197
1281,1711439358521193137,2054,2048,2032,2054,2053,2053,1197
1282,1711439358531156535,2051,2047,2042,2051,2054,2050,1197
1283,1711439358541178970,2058,2056,2058,2063,2055,2057,1195
1284,1711439358551169186,2053,2076,2053,2051,2053,2056,1199
1285,1711439358561171558,2049,2029,2040,2061,2056,2047,1195
1286,1711439358571177247,2056,2056,2049,2046,2054,2052,1196
1287,1711439358581180421,2064,2061,2072,2064,2058,2055,1194
1288,1711439358591178263,2052,2041,2013,2050,2051,2052,1197
1289,1711439358601182228,2051,2060,2002,2056,2053,2056,1195
1290,1711439358611167613,2059,2050,2036,2047,2052,2048,1195
1291,1711439358621199560,2051,2047,2041,2056,2054,2056,1199
1292,1711439358631396184,2056,2065,2068,2043,2053,2051,1195
1293,1711439358641178858,2053,2060,2072,2050,2052,2051,1196
1294,1711439358651183736,2050,2039,2015,2049,2052,2047,1193
1295,1711439358661177970,2048,2032,2025,2065,2056,2055,1196
1296,1711439358671239601,2064,2064,2105,2054,2054,2052,1195
1297,1711439358681183556,2056,2051,2041,2062,2056,2056,1195
1298,1711439358691151283,2052,2044,2032,2049,2052,2052,1199
1299,1711439358701161772,2057,2053,2094,2061,2056,2053,1196
1300,1711439358711158723,2055,2057,2040,2050,2052,2049,1196
1301,1711439358721165253,2052,2028,2018,2057,2051,2054,1194
1302,1711439358731152713,2060,2062,2096,2057,2056,2056,1198
1303,1711439358741175159,2045,2040,2028,2056,2053,2052,1197
1304,1711439358751169142,2059,2060,2050,2056,2057,2056,1198
1305,1711439358761166303,2056,2084,2072,2058,2056,2054,1197
1306,1711439358771214324,2057,2065,2106,2050,2054,2056,1196
1307,1711439358781159331,2053,2040,2031,2060,2056,2053,1196
1308,1711439358791152433,2056,2041,2045,2049,2048,2052,1196
1309,1711439358801102081,2056,2045,2040,2056,2052,2052,1195
1310,1711439358811151214,2062,2069,2124,2052,2054,2052,1198
1311,1711439358821112386,2059,2053,2054,2056,2054,2054,1196
1312,1711439358831152150,2054,2052,2060,2050,2053,2053,1197
1313,1711439358841109735,2051,2034,2020,2054,2052,2053,1196
1314,1711439358851159229,2056,2059,2100,2053,2054,2053,1195
1315,1711439358861165378,2052,2046,2038,2061,2052,2053,1196
1316,1711439358871156216,2053,2048,2046,2053,2053,2054,1197
1317,1711439358881169451,2056,2092,2056,2059,2052,2052,1197
1318,1711439358891162253,2049,2044,2041,2050,2052,2052,1195
1319,1711439358901164895,2055,2055,2061,2061,2058,2056,1197
1320,1711439358911161605,2059,2056,2074,2056,2056,2052,1197
1321,1711439358921163976,2047,2037,2027,2059,2052,2055,1194
1322,1711439358931161719,2054,2096,2057,2056,2052,2054,1195
1323,1711439358941169542,2050,2040,2018,2065,2058,2054,1196
1324,1711439358951164749,2046,2046,2035,2047,2051,2052,1196
1325,1711439358961168524,2050,2049,2049,2057,2053,2053,1197
1326,1711439358971170745,2056,2045,2030,2056,2050,2051,1195
1327,1711439358981181395,2050,2020,2051,2060,2053,2052,1197
1328,1711439358991158012,2056,2041,2052,2054,2053,2053,1197
1329,1711439359001158410,2052,2065,2082,2056,2050,2052,1196
1330,1711439359011193920,2056,2041,2014,2047,2049,2052,1197
1331,1711439359021163066,2056,2047,2029,2056,2051,2050,1197
1332,1711439359031165163,2056,2048,2031,2051,2048,2056,1199
1333,1711439359041165156,2049,2048,2043,2054,2048,2053,1196
1334,1711439359051155028,2054,2019,2044,2052,2056,2054,1196
1335,1711439359061158799,2058,2041,2042,2064,2054,2053,1195
1336,1711439359071177783,2057,2062,2075,2056,2053,2053,1198
1337,1711439359081166161,2058,2063,2108,2065,2057,2056,1195
1338,1711439359091164500,2054,2058,2061,2057,2053,2051,1196
1339,1711439359101177021,2057,2074,2061,2058,2054,2053,1194
1340,1711439359111162201,2049,2037,2026,2052,2054,2052,1196
1341,1711439359121165411,2064,2058,2067,2058,2053,2054,1196
1342,1711439359131173953,2056,2046,2044,2050,2054,2050,1195
1343,1711439359141165778,2052,2046,2029,2060,2050,2053,1195
1344,1711439359151146779,2056,2052,2053,2054,2050,2048,1196
1345,1711439359161167176,2054,2032,2039,2056,2054,2059,1198
1346,1711439359171163952,2056,2033,2036,2056,2056,2053,1199
1347,1711439359181164107,2055,2054,2047,2063,2056,2053,1195
1348,1711439359191338771,2056,2056,2056,2050,2054,2052,1196
1349,1711439359201106597,2052,2049,2052,2056,2052,2052,1196
1350,1711439359211157261,2058,2028,2060,2058,2056,2056,1197
1351,1711439359221154247,2052,2013,2033,2052,2060,2054,1198
1352,1711439359231171197,2053,2038,2025,2050,2052,2050,1195
1353,1711439359241180109,2053,2048,2036,2053,2049,2054,1196
1354,1711439359251189723,2058,2069,2035,2055,2053,2051,1193
1355,1711439359261177349,2058,2053,2042,2056,2053,2054,1194
1356,1711439359271196494,2048,2044,2044,2045,2056,2052,1196
1357,1711439359281181123,2056,2057,2044,2052,2052,2054,1195
1358,1711439359291163357,2058,2065,2100,2057,2056,2053,1198
1359,1711439359301103910,2056,2052,2025,2056,2052,2058,1198
1360,1711439359311166190,2054,2051,2044,2054,2052,2052,1196
1361,1711439359321171365,2053,2042,2006,2061,2053,2056,1198
1362,1711439359331168992,2061,2053,2096,2058,2060,2059,1195
1363,1711439359341181362,2046,2045,2012,2062,2053,2050,1197
1364,1711439359351181946,2049,2056,2043,2046,2050,2051,1198
1365,1711439359361177359,2052,2049,2088,2057,2056,2052,1197
1366,1711439359371176300,2050,2043,2013,2047,2048,2051,1195
1367,1711439359381177576,2062,2077,2064,2064,2057,2053,1197
1368,1711439359391182940,2057,2053,2004,2058,2051,2056,1196
1369,1711439359401182001,2056,2052,2054,2057,2056,2056,1198
1370,1711439359411184399,2054,2050,2036,2056,2056,2056,1198
1371,1711439359421170392,2058,2054,2061,2062,2053,2053,1196
1372,1711439359431200931,2056,2057,2068,2056,2054,2056,1197
1373,1711439359441171921,2050,2094,2085,2060,2052,2053,1197
1374,1711439359451196819,2051,2050,2041,2052,2047,2049,1196
1375,1711439359461168500,2056,2056,2056,2061,2056,2054,1196
1376,1711439359471167681,2056,2053,2031,2050,2049,2049,1196
1377,1711439359481177446,2050,2042,2041,2054,2051,2053,1197
1378,1711439359491179794,2056,2068,2096,2048,2053,2052,1196
1379,1711439359501186671,2052,2080,2054,2055,2052,2052,1196
1380,1711439359511164666,2064,2072,2113,2056,2058,2058,1196
1381,1711439359521181406,2054,2051,2048,2060,2055,2056,1197
1382,1711439359531183062,2056,2056,2037,2050,2053,2052,1197
1383,1711439359541190502,2061,2057,2037,2061,2058,2056,1197
1384,1711439359551170381,2055,2057,2052,2056,2051,2052,1197
1385,1711439359561177780,2064,2085,2069,2060,2057,2057,1198
1386,1711439359571169795,2049,2051,2059,2052,2054,2049,1196
1387,1711439359581176704,2062,2084,2145,2072,2062,2060,1197
1388,1711439359591171937,2053,2051,2044,2050,2056,2052,1197
1389,1711439359601172892,2053,2052,2059,2056,2053,2052,1194
1390,1711439359611168715,2057,2080,2051,2052,2053,2053,1196
1391,1711439359621159939,2056,2046,2072,2058,2053,2056,1197
1392,1711439359631222318,2052,2049,2050,2053,2050,2052,1198
1393,1711439359641187555,2054,2047,2016,2056,2050,2054,1194
1394,1711439359651179210,2053,2045,2020,2052,2050,2050,1193
1395,1711439359661183442,2056,2061,2115,2067,2056,2060,1196
1396,1711439359671186963,2048,2005,2015,2044,2049,2052,1196
1397,1711439359681188509,2060,2032,2026,2057,2054,2056,1196
1398,1711439359691192721,2060,2056,2069,2057,2055,2054,1195
1399,1711439359701196943,2053,2046,2044,2057,2052,2055,1196
1400,1711439359711198671,2050,2054,2034,2049,2056,2050,1196
1401,1711439359721189564,2056,2058,2076,2062,2056,2056,1196
1402,1711439359731187583,2057,2082,2037,2054,2054,2053,1197
1403,1711439359741193258,2051,2043,2034,2057,2054,2055,1195
1404,1711439359751196217,2061,2061,2113,2053,2053,2052,1196
1405,1711439359761198636,2056,2052,2041,2053,2052,2056,1196
1406,1711439359771205904,2049,2049,2042,2042,2047,2048,1195
1407,1711439359781206288,2056,2045,2059,2060,2053,2056,1197
1408,1711439359791209939,2054,2041,2033,2045,2054,2052,1198
1409,1711439359801165655,2053,2043,2024,2056,2054,2052,1197
1410,1711439359811159946,2054,2041,2056,2051,2054,2053,1196
1411,1711439359821175583,2056,2044,2045,2057,2056,2054,1197
1412,1711439359831157556,2053,2062,2057,2050,2055,2054,1197
1413,1711439359841168994,2053,2052,2053,2056,2054,2053,1198
1414,1711439359851161742,2056,2083,2028,2052,2053,2052,1194
1415,1711439359861164361,2053,2042,2037,2058,2056,2052,1195
1416,1711439359871164123,2056,2056,2050,2054,2056,2051,1195
1417,1711439359881165249,2054,2047,2040,2057,2053,2056,1196
1418,1711439359891162706,2061,2064,2058,2048,2050,2054,1196
1419,1711439359901168171,2057,2050,2064,2056,2052,2056,1197
1420,1711439359911171601,2051,2020,2036,2050,2052,2047,1193
1421,1711439359921175212,2060,2044,2017,2062,2056,2054,1196
1422,1711439359931168430,2050,2043,2033,2052,2054,2052,1195
1423,1711439359941104844,2060,2067,2097,2070,2058,2057,1195
1424,1711439359951156991,2053,2039,2056,2054,2052,2051,1197
1425,1711439359961104449,2056,2044,2047,2056,2057,2054,1199
1426,1711439359971160455,2050,2032,2030,2049,2052,2052,1197
1427,1711439359981102472,2066,2069,2124,2072,2060,2057,1197
1428,1711439359991145820,2045,2037,2024,2047,2050,2053,1196
1429,1711439360001155364,2058,2050,2014,2058,2056,2054,1195
1430,1711439360011166932,2056,2072,2057,2049,2053,2053,1195
1431,1711439360021156954,2058,2050,2027,2057,2057,2057,1197
1432,1711439360031150153,2052,2056,2065,2056,2055,2052,1196
1433,1711439360041159427,2056,2056,2056,2060,2055,2056,1195
1434,1711439360051154510,2052,2048,2054,2044,2047,2052,1193
1435,1711439360061197378,2056,2054,2050,2058,2056,2052,1195
1436,1711439360071166033,2056,2045,2064,2053,2052,2054,1196
1437,1711439360081180498,2060,2080,2093,2058,2060,2056,1196
1438,1711439360091158203,2054,2052,2073,2050,2053,2056,1194
1439,1711439360101168209,2051,2046,2025,2051,2052,2049,1197
1440,1711439360111165346,2056,2055,2019,2058,2056,2056,1196
1441,1711439360121175482,2057,2054,2060,2060,2056,2054,1195
1442,1711439360131171858,2053,2039,2058,2050,2053,2053,1196
1443,1711439360141157250,2066,2074,2136,2064,2059,2060,1195
1444,1711439360151161132,2052,2047,2042,2054,2050,2051,1195
1445,1711439360161170426,2052,2048,2028,2058,2053,2052,1198
1446,1711439360171158845,2053,2060,2072,2050,2056,2053,1196
1447,1711439360181164862,2053,2040,2041,2053,2050,2049,1198
1448,1711439360191161037,2064,2080,2063,2050,2049,2054,1196
1449,1711439360201163346,2057,2051,2052,2058,2053,2050,1195
1450,1711439360211160594,2058,2061,2072,2052,2056,2056,1195
1451,1711439360221158804,2050,2040,2015,2056,2052,2053,1197
1452,1711439360231165332,2058,2062,2052,2058,2056,2053,1198
1453,1711439360241106507,2053,2051,2040,2054,2053,2055,1197
1454,1711439360251159667,2058,2056,2089,2055,2056,2053,1196
1455,1711439360261168841,2050,2043,2044,2058,2053,2052,1195
1456,1711439360271163714,2057,2056,2042,2052,2053,2052,1196
1457,1711439360281173880,2058,2051,2037,2061,2056,2054,1196
1458,1711439360291167259,2056,2058,2061,2059,2056,2051,1197
1459,1711439360301162061,2060,2051,2007,2059,2057,2054,1196
1460,1711439360311156363,2054,2041,2048,2046,2050,2052,1196
1461,1711439360321164755,2056,2072,2058,2056,2053,2057,1194
1462,1711439360331170150,2056,2046,2051,2053,2051,2052,1197
1463,1711439360341173712,2055,2054,2053,2059,2056,2056,1196
1464,1711439360351158182,2053,2057,2072,2054,2052,2052,1194
1465,1711439360361165231,2057,2069,2081,2062,2058,2054,1198
1466,1711439360371157418,2052,2050,2056,2046,2049,2047,1196
1467,1711439360381172064,2060,2088,2100,2063,2054,2057,1196
1468,1711439360391149117,2049,2043,2065,2052,2053,2054,1196
1469,1711439360401171189,2055,2047,2026,2060,2054,2056,1197
1470,1711439360411154627,2056,2050,2041,2053,2052,2050,1196
1471,1711439360421187693,2059,2041,2066,2065,2057,2056,1197
1472,1711439360431196606,2059,2056,2068,2054,2052,2050,1196
1473,1711439360441169832,2056,2056,2084,2059,2050,2052,1196
1474,1711439360451161396,2055,2050,2042,2051,2056,2052,1194
1475,1711439360461161530,2056,2091,2092,2061,2053,2054,1197
1476,1711439360471211223,2052,2054,2061,2056,2056,2056,1196
1477,1711439360481160154,2053,2056,2051,2060,2054,2057,1197
1478,1711439360491163987,2063,2066,2094,2060,2058,2057,1196
1479,1711439360501167789,2055,2052,2042,2053,2056,2056,1196
1480,1711439360511153872,2057,2056,2047,2056,2056,2056,1196
1481,1711439360521195467,2057,2057,2074,2059,2058,2053,1194
1482,1711439360531151775,2053,2048,2036,2046,2049,2051,1196
1483,1711439360541166040,2052,2056,2038,2060,2053,2053,1197
1484,1711439360551156182,2052,2050,2043,2051,2053,2052,1198
1485,1711439360561159794,2053,2072,2064,2058,2053,2051,1200
1486,1711439360571172636,2052,2050,2066,2045,2052,2053,1197
1487,1711439360581165845,2052,2014,2056,2048,2053,2052,1197
1488,1711439360591155937,2058,2053,2064,2052,2056,2054,1197
1489,1711439360601157534,2058,2052,2019,2058,2052,2055,1197
1490,1711439360611154111,2054,2047,2069,2054,2052,2054,1195
1491,1711439360621176283,2055,2053,2044,2057,2053,2051,1198
1492,1711439360631149408,2053,2056,2060,2053,2052,2050,1197
1493,1711439360641185000,2052,2047,2037,2059,2062,2056,1197
1494,1711439360651169810,2050,2027,2037,2049,2053,2053,1193
1495,1711439360661189457,2062,2056,2076,2060,2056,2058,1197
1496,1711439360671178828,2056,2052,2060,2059,2055,2057,1196
1497,1711439360681156793,2058,2064,2072,2065,2054,2056,1195
1498,1711439360691163271,2056,2053,2048,2047,2053,2053,1196
1499,1711439360701171032,2051,2044,2043,2056,2054,2053,1196
1500,1711439360711159621,2056,2036,2030,2049,2049,2053,1195
1501,1711439360721161368,2056,2028,2012,2052,2056,2057,1196
1502,1711439360731154487,2055,2037,2018,2045,2055,2052,1195
1503,1711439360741170015,2051,2044,2013,2052,2048,2054,1195
1504,1711439360751159145,2050,2046,2025,2057,2051,2050,1196
1505,1711439360761201742,2058,2078,2100,2059,2056,2049,1196
1506,1711439360771278424,2056,2046,2037,2049,2058,2052,1196
1507,1711439360781193902,2056,2053,2104,2062,2053,2056,1197
1508,1711439360791165243,2058,2044,2052,2047,2051,2051,1195
1509,1711439360801167512,2061,2080,2142,2069,2058,2054,1197
1510,1711439360811159328,2053,2044,2020,2045,2050,2051,1197
1511,1711439360821196002,2052,2052,2072,2056,2057,2053,1198
1512,1711439360831153312,2053,2042,2040,2049,2052,2053,1199
1513,1711439360841167578,2053,2056,2056,2060,2056,2052,1196
1514,1711439360851163091,2058,2098,2092,2056,2053,2060,1194
1515,1711439360861168617,2056,2063,2062,2065,2056,2054,1197
1516,1711439360871189076,2056,2060,2087,2060,2059,2052,1196
1517,1711439360881155015,2056,2052,2045,2058,2054,2050,1197
1518,1711439360891151351,2052,2053,2049,2045,2053,2054,1196
1519,1711439360901162599,2056,2047,2025,2063,2054,2056,1195
1520,1711439360911150156,2056,2019,2064,2047,2048,2052,1196
1521,1711439360921180937,2056,2026,2015,2054,2053,2050,1197
1522,1711439360931170608,2056,2047,2057,2052,2053,2054,1195
1523,1711439360941162725,2061,2066,2101,2060,2053,2054,1195
1524,1711439360951156134,2054,2050,2034,2066,2056,2056,1198
1525,1711439360961180612,2058,2064,2124,2060,2053,2056,1197
1526,1711439360971165031,2054,2046,2090,2047,2050,2052,1196
1527,1711439360981110486,2056,2080,2056,2062,2053,2054,1196
1528,1711439360991161010,2050,2052,2037,2050,2060,2052,1196
1529,1711439361001169202,2056,2056,2060,2059,2054,2052,1196
1530,1711439361011164493,2038,2038,2022,2042,2046,2042,1192
1531,1711439361021179706,2052,2043,2058,2056,2060,2057,1196
1532,1711439361031171988,2060,2041,2022,2045,2053,2052,1196
1533,1711439361041175656,2052,2053,2044,2052,2056,2052,1196
1534,1711439361051161875,2066,2072,2170,2068,2058,2056,1194
1535,1711439361061184183,2058,2064,2024,2060,2056,2058,1195
1536,1711439361071172087,2052,2053,2057,2042,2052,2053,1196
1537,1711439361081163667,2056,2046,2035,2056,2054,2056,1196
1538,1711439361091160310,2033,2047,2034,2052,2052,2053,1197
1539,1711439361101168989,2053,2058,2056,2058,2056,2057,1196
1540,1711439361111183870,2061,2072,2060,2056,2054,2051,1193
1541,1711439361121186897,2054,2041,2028,2055,2053,2056,1199
1542,1711439361131163575,2056,2053,2028,2052,2057,2052,1197
1543,1711439361141167374,2056,2048,2041,2060,2053,2056,1196
1544,1711439361151160728,2056,2057,2056,2054,2052,2056,1198
1545,1711439361161168605,2053,2053,2043,2052,2052,2062,1197
1546,1711439361171165588,2058,2057,2033,2052,2056,2052,1195
1547,1711439361181105124,2056,2060,2105,2058,2054,2052,1198
1548,1711439361191174046,2052,2043,2056,2047,2049,2050,1195
1549,1711439361201164364,2057,2048,2056,2062,2053,2054,1198
1550,1711439361211162820,2056,2058,2040,2056,2058,2057,1198
1551,1711439361221176069,2068,2113,2120,2057,2053,2056,1197
1552,1711439361231179405,2049,2045,2028,2051,2052,2054,1194
1553,1711439361241156123,2056,2057,2064,2058,2053,2055,1195
1554,1711439361251175205,2053,2061,2106,2061,2048,2052,1195
1555,1711439361261115313,2051,2049,2029,2057,2056,2056,1195
1556,1711439361271173932,2062,2086,2108,2053,2058,2058,1196
1557,1711439361281161353,2053,2048,2047,2056,2054,2056,1194
1558,1711439361291155379,2054,2086,2037,2061,2060,2055,1197
1559,1711439361301111012,2054,2040,2022,2058,2053,2056,1196
1560,1711439361311153094,2060,2062,2075,2049,2056,2052,1197
1561,1711439361321114068,2050,2043,2034,2056,2052,2051,1196
1562,1711439361331176164,2053,2054,2056,2050,2052,2054,1197
1563,1711439361341103704,2054,2049,2052,2060,2055,2051,1197
1564,1711439361351177406,2056,2056,2047,2050,2053,2056,1198
1565,1711439361361168054,2054,2052,2043,2060,2052,2053,1200
1566,1711439361371169016,2058,2088,2053,2055,2052,2056,1197
1567,1711439361381173897,2052,2052,2051,2059,2054,2053,1197
1568,1711439361391167251,2054,2052,2046,2039,2048,2050,1196
1569,1711439361401174367,2060,2066,2107,2068,2053,2056,1197
1570,1711439361411159644,2058,2058,2062,2064,2058,2054,1198
1571,1711439361421166107,2054,2051,2030,2056,2053,2052,1196
1572,1711439361431184347,2055,2049,2027,2053,2059,2052,1198
1573,1711439361441104571,2056,2052,2031,2060,2059,2057,1194
1574,1711439361451154110,2056,2049,2024,2044,2053,2052,1193
1575,1711439361461103608,2061,2048,2041,2054,2050,2052,1195
1576,1711439361471151553,2054,2053,2054,2052,2053,2052,1197
1577,1711439361481164000,2051,2046,2042,2053,2050,2054,1196
1578,1711439361491172037,2054,2051,2045,2052,2056,2054,1193
1579,1711439361501158979,2056,2053,2044,2060,2053,2056,1196
1580,1711439361511158226,2056,2048,2024,2051,2047,2050,1194
1581,1711439361521160490,2056,2090,2065,2060,2053,2052,1197
1582,1711439361531178540,2053,2056,2047,2046,2052,2049,1196
1583,1711439361541159557,2052,2034,2014,2052,2056,2054,1199
1584,1711439361551163857,2054,2044,2037,2054,2052,2052,1195
1585,1711439361561164257,2052,2046,2050,2056,2054,2054,1197
1586,1711439361571155637,2056,2049,2069,2052,2053,2053,1196
1587,1711439361581178598,2056,2052,2078,2056,2052,2053,1198
1588,1711439361591160618,2056,2057,2079,2053,2056,2056,1196
1589,1711439361601171350,2056,2059,2044,2057,2055,2053,1196
1590,1711439361611171170,2062,2058,2054,2051,2050,2057,1195
1591,1711439361621175098,2056,2048,2047,2060,2056,2059,1198
1592,1711439361631157770,2051,2046,2055,2053,2051,2052,1195
1593,1711439361641166969,2056,2042,2036,2057,2052,2054,1195
1594,1711439361651161526,2060,2058,2059,2049,2059,2053,1193
1595,1711439361661166898,2052,2024,2038,2056,2058,2054,1197
1596,1711439361671160594,2056,2044,2035,2052,2051,2050,1198
1597,1711439361681169283,2059,2058,2060,2061,2058,2056,1195
1598,1711439361691157616,2056,2053,2050,2049,2052,2053,1197
1599,1711439361701170494,2053,2054,2056,2060,2055,2051,1196
1600,1711439361711158147,2055,2056,2072,2052,2052,2053,1196
1601,1711439361721175274,2056,2056,2036,2057,2054,2053,1197
1602,1711439361731155009,2054,2040,2030,2050,2050,2054,1197
1603,1711439361741167917,2049,2042,2010,2055,2052,2056,1194
1604,1711439361751168878,2050,2046,2036,2050,2051,2051,1196
1605,1711439361761168077,2054,2065,2065,2064,2058,2056,1198
1606,1711439361771210970,2056,2051,2046,2050,2051,2049,1196
1607,1711439361781192669,2040,2047,2036,2052,2051,2052,1197
1608,1711439361791160288,2052,2044,2040,2046,2053,2050,1196
1609,1711439361801111670,2054,2045,2004,2057,2056,2054,1197
1610,1711439361811151368,2056,2050,2047,2045,2052,2054,1195
1611,1711439361821181824,2056,2052,2052,2059,2057,2056,1197
1612,1711439361831155064,2060,2061,2077,2059,2057,2056,1196
1613,1711439361841160817,2058,2064,2092,2062,2056,2053,1197
1614,1711439361851157609,2058,2061,2119,2054,2056,2053,1194
1615,1711439361861163392,2054,2052,2047,2064,2055,2052,1196
1616,1711439361871164574,2059,2050,2043,2054,2056,2058,1197
1617,1711439361881167750,2051,2042,2040,2055,2050,2053,1196
1618,1711439361891151965,2057,2052,2080,2048,2053,2054,1196
1619,1711439361901158418,2056,2044,2041,2057,2053,2052,1197
1620,1711439361911153056,2058,2060,2060,2055,2053,2053,1196
1621,1711439361921189135,2051,2045,2034,2053,2053,2049,1196
1622,1711439361931172057,2055,2054,2048,2050,2050,2052,1196
1623,1711439361941164070,2061,2077,2124,2067,2057,2056,1194
1624,1711439361951162445,2053,2050,2040,2053,2051,2053,1196
1625,1711439361961168989,2057,2068,2058,2059,2059,2058,1198
1626,1711439361971167816,2056,2046,2053,2056,2056,2057,1198
1627,1711439361981180573,2064,2070,2120,2065,2056,2057,1197
1628,1711439361991176034,2060,2056,2080,2057,2056,2053,1195
1629,1711439362001178829,2054,2058,2034,2057,2052,2056,1198
1630,1711439362011162854,2057,2054,2049,2051,2051,2052,1195
1631,1711439362021176956,2053,2049,2059,2056,2056,2054,1196
1632,1711439362031174872,2058,2093,2056,2052,2054,2053,1196
1633,1711439362041161142,2056,2066,2052,2058,2057,2056,1196
1634,1711439362051156984,2050,2041,2028,2045,2050,2052,1196
1635,1711439362061162286,2059,2050,2060,2060,2056,2056,1197
1636,1711439362071157115,2056,2053,2061,2053,2055,2054,1196
1637,1711439362081105241,2056,2040,2038,2055,2056,2056,1196
1638,1711439362091162618,2056,2050,2034,2052,2053,2053,1197
1639,1711439362101163080,2056,2068,2030,2058,2053,2051,1194
1640,1711439362111164363,2055,2050,2040,2056,2056,2060,1196
1641,1711439362121169385,2056,2063,2099,2064,2053,2052,1195
1642,1711439362131177343,2061,2076,2105,2058,2056,2056,1197
1643,1711439362141185642,2053,2054,2031,2058,2054,2053,1196
1644,1711439362151164596,2055,2057,2077,2047,2050,2056,1195
1645,1711439362161167503,2056,2057,2084,2064,2053,2050,1197
1646,1711439362171162963,2053,2037,2028,2045,2045,2051,1195
1647,1711439362181192008,2054,2044,2015,2058,2056,2055,1197
1648,1711439362191163546,2061,2061,2032,2056,2053,2054,1197
1649,1711439362201159096,2054,2052,2072,2057,2054,2056,1195
1650,1711439362211151961,2052,2043,2033,2053,2056,2054,1197
1651,1711439362221165321,2064,2106,2095,2067,2058,2056,1196
1652,1711439362231168709,2052,2041,2030,2055,2049,2052,1197
1653,1711439362241167959,2053,2042,2014,2062,2052,2050,1197
1654,1711439362251170775,2052,2041,2043,2050,2054,2050,1196
1655,1711439362261162919,2051,2050,2049,2056,2054,2056,1198
1656,1711439362271159431,2060,2080,2049,2053,2056,2053,1195
1657,1711439362281171859,2059,2066,2109,2066,2056,2057,1197
1658,1711439362291171689,2057,2058,2043,2051,2054,2053,1199
1659,1711439362301165677,2049,2042,2029,2061,2052,2053,1197
1660,1711439362311161278,2056,2050,2054,2049,2055,2053,1194
1661,1711439362321168795,2056,2053,2044,2056,2056,2051,1196
1662,1711439362331178426,2057,2062,2112,2054,2056,2053,1197
1663,1711439362341103411,2058,2058,2099,2072,2059,2058,1196
1664,1711439362351155858,2059,2060,2020,2051,2053,2055,1196
1665,1711439362361158574,2054,2047,2065,2060,2054,2056,1197
1666,1711439362371155178,2056,2053,2043,2050,2052,2054,1193
1667,1711439362381195467,2053,2043,2015,2060,2052,2053,1197
1668,1711439362391164539,2057,2033,1990,2045,2056,2056,1196
1669,1711439362401169221,2055,2050,2054,2056,2052,2053,1195
1670,1711439362411156683,2064,2093,2112,2056,2057,2057,1197
1671,1711439362421164371,2054,2056,2074,2061,2057,2057,1196
1672,1711439362431185277,2060,2068,2114,2055,2056,2056,1197
1673,1711439362441159060,2054,2068,2064,2062,2054,2053,1196
1674,1711439362451160444,2053,2056,2045,2052,2054,2056,1195
1675,1711439362461169344,2056,2038,2063,2060,2055,2054,1196
1676,1711439362471166408,2055,2052,2072,2054,2056,2050,1195
1677,1711439362481198008,2052,2044,2043,2046,2050,2049,1196
1678,1711439362491181061,2057,2048,2034,2056,2053,2053,1196
1679,1711439362501173756,2053,2047,2042,2062,2052,2052,1196
1680,1711439362511160778,2056,2064,2053,2047,2053,2052,1196
1681,1711439362521164065,2058,2061,2066,2066,2057,2052,1197
1682,1711439362531167744,2051,2021,2028,2049,2049,2052,1197
1683,1711439362541156911,2058,2037,2035,2060,2056,2053,1195
1684,1711439362551150998,2056,2059,2065,2052,2053,2053,1198
1685,1711439362561113285,2056,2052,2069,2056,2056,2055,1198
1686,1711439362571150268,2058,2068,2113,2061,2057,2056,1196
1687,1711439362581166404,2054,2047,2064,2061,2051,2052,1197
1688,1711439362591167868,2053,2038,2020,2047,2052,2050,1198
1689,1711439362601177619,2059,2045,2012,2050,2049,2050,1194
1690,1711439362611186861,2052,2046,2028,2050,2051,2052,1198
1691,1711439362621193305,2056,2050,2056,2057,2054,2053,1197
1692,1711439362631845545,2057,2047,2054,2059,2052,2050,1197
1693,1711439362641182684,2060,2094,2048,2057,2056,2057,1197
1694,1711439362651163862,2056,2049,2053,2051,2054,2051,1196
1695,1711439362661167411,2058,2050,2032,2056,2052,2052,1196
1696,1711439362671222933,2052,2052,2048,2051,2050,2052,1195
1697,1711439362681170399,2062,2085,2108,2064,2056,2053,1196
1698,1711439362691169507,2054,2077,2048,2048,2050,2051,1193
1699,1711439362701177135,2052,2062,2060,2064,2055,2052,1196
1700,1711439362711158614,2060,2060,2088,2057,2056,2056,1196
1701,1711439362721190625,2057,2050,2043,2052,2052,2054,1199
1702,1711439362731157683,2056,2056,2052,2052,2053,2056,1199
1703,1711439362741167044,2052,2056,2062,2058,2051,2052,1198
1704,1711439362751164750,2060,2051,2057,2052,2053,2056,1198
1705,1711439362761168839,2053,2051,2040,2056,2053,2053,1198
1706,1711439362771176888,2057,2059,2065,2049,2050,2050,1196
1707,1711439362781168780,2055,2056,2085,2053,2057,2057,1195
1708,1711439362791160613,2057,2052,2058,2038,2054,2056,1196
1709,1711439362801164843,2056,2046,2044,2057,2053,2054,1197
1710,1711439362811158830,2053,2045,2041,2052,2056,2055,1195
1711,1711439362821165976,2052,2047,2042,2060,2056,2047,1195
1712,1711439362831163671,2052,2046,2021,2050,2052,2049,1197
1713,1711439362841170818,2057,2085,2064,2053,2052,2052,1196
1714,1711439362851172222,2060,2047,1998,2060,2054,2052,1194
1715,1711439362861180881,2052,2052,2040,2058,2058,2054,1194
1716,1711439362871188559,2056,2060,2096,2055,2052,2053,1197
1717,1711439362881103842,2053,2054,2039,2053,2058,2056,1196
1718,1711439362891155517,2056,2052,2073,2061,2055,2057,1194
1719,1711439362901161521,2052,2033,2053,2058,2058,2056,1196
1720,1711439362911155859,2050,2037,2015,2046,2053,2055,1197
1721,1711439362921180494,2053,2053,2054,2057,2056,2056,1197
1722,1711439362931173189,2057,2056,2067,2050,2051,2054,1195
1723,1711439362941166645,2046,2044,2040,2053,2048,2049,1196
1724,1711439362951160331,2059,2060,2116,2065,2060,2056,1196
1725,1711439362961167848,2055,2038,2037,2051,2049,2050,1197
1726,1711439362971172950,2062,2052,2029,2053,2060,2053,1198
1727,1711439362981165955,2053,2044,2046,2061,2049,2054,1195
1728,1711439362991213962,2064,2068,2103,2053,2056,2055,1198
1729,1711439363001170607,2065,2096,2116,2069,2061,2058,1197
1730,1711439363011157589,2050,2037,2013,2050,2049,2056,1195
1731,1711439363021194378,2059,2075,2100,2068,2056,2057,1196
1732,1711439363031164969,2056,2049,2036,2046,2053,2049,1195
1733,1711439363041173545,2059,2065,2120,2057,2052,2053,1199
1734,1711439363051168832,2061,2080,2142,2064,2059,2062,1195
1735,1711439363061177168,2050,2056,2101,2057,2056,2051,1195
1736,1711439363071157962,2048,2090,2165,2050,2050,2050,1195
1737,1711439363081167601,2060,2065,2102,2075,2058,2059,1197
1738,1711439363091164180,2053,2056,2082,2060,2056,2051,1196
1739,1711439363101165991,2046,2058,2091,2064,2057,2056,1195
1740,1711439363111161058,2067,2057,2058,2045,2057,2057,1196
1741,1711439363121211627,2057,2058,2066,2056,2054,2048,1195
1742,1711439363131181046,2053,2051,2052,2043,2050,2049,1197
1743,1711439363141168155,2065,2078,2188,2073,2069,2060,1195
1744,1711439363151163552,2057,2046,2080,2047,2056,2060,1194
1745,1711439363161172449,2036,2094,2065,2059,2048,2056,1198
1746,1711439363171168166,2045,2043,2061,2045,2032,2046,1193
1747,1711439363181188999,2067,2046,2036,2058,2052,2052,1198
1748,1711439363191157116,2055,2039,2010,2062,2052,2052,1196
1749,1711439363201174551,2050,2056,2052,2060,2056,2047,1190
1750,1711439363211175431,2063,2058,2085,2048,2054,2048,1197
1751,1711439363221181712,2081,2053,2037,2052,2047,2052,1197
1752,1711439363231182350,2049,2032,2003,2045,2052,2056,1196
1753,1711439363241163285,2060,2052,2069,2056,2053,2053,1196
1754,1711439363251178787,2073,2068,2176,2069,2061,2051,1196
1755,1711439363261174705,2048,2047,2027,2058,2047,2056,1196
1756,1711439363271174682,2049,2072,2069,2065,2053,2050,1195
1757,1711439363281171692,2058,2086,2050,2056,2059,2052,1196
1758,1711439363291176470,2052,2056,2074,2047,2053,2052,1196
1759,1711439363301180076,2064,2085,2125,2064,2065,2068,1197
1760,1711439363311183951,2056,2059,2051,2043,2043,2050,1197
1761,1711439363321169787,2053,2037,2000,2053,2044,2049,1198
1762,1711439363331184056,2049,2051,2056,2048,2045,2053,1195
1763,1711439363341180955,2056,2048,2059,2061,2056,2044,1194
1764,1711439363351195695,2050,2042,2068,2047,2038,2049,1196
1765,1711439363361163702,2058,2050,2032,2046,2049,2049,1198
1766,1711439363371201863,2053,2052,2045,2056,2056,2057,1199
1767,1711439363381183519,2058,2048,2042,2056,2046,2050,1193
1768,1711439363391166900,2052,2052,2032,2057,2058,2044,1194
1769,1711439363401171648,2047,2028,2013,2045,2047,2049,1194
1770,1711439363411171124,2052,2049,2048,2043,2052,2049,1197
1771,1711439363421177385,2069,2078,2138,2062,2050,2052,1195
1772,1711439363431174165,2054,2052,2026,2045,2056,2050,1197
1773,1711439363441181338,2061,2065,2121,2060,2054,2057,1193
1774,1711439363451185053,2046,2017,2024,2048,2052,2051,1194
1775,1711439363461188408,2054,2049,2056,2060,2047,2050,1195
1776,1711439363471209541,2068,2077,2132,2061,2062,2057,1196
1777,1711439363481173779,2055,2057,2088,2062,2057,2062,1196
1778,1711439363491200596,2052,2041,2024,2045,2052,2056,1195
1779,1711439363501181751,2052,2041,2008,2061,2059,2056,1195
1780,1711439363511207435,2052,2059,2047,2061,2055,2052,1196
1781,1711439363521171473,2056,2060,2097,2060,2055,2058,1195
1782,1711439363531167992,2069,2072,2100,2075,2062,2057,1195
1783,1711439363541174975,2054,2043,2042,2056,2059,2056,1196
1784,1711439363551177558,2057,2066,2117,2063,2053,2052,1195
1785,1711439363561190854,2061,2079,2176,2077,2064,2065,1197
1786,1711439363571230890,2053,2054,2044,2046,2049,2050,1196
1787,1711439363581174132,2062,2056,2059,2060,2052,2051,1194
1788,1711439363591165560,2052,2044,2028,2043,2047,2054,1194
1789,1711439363601173454,2052,2049,2016,2058,2048,2047,1193
1790,1711439363611165183,2056,2048,2041,2048,2053,2056,1195
1791,1711439363621173839,2048,2059,2040,2064,2052,2046,1193
1792,1711439363631173385,2058,2052,2026,2052,2053,2056,1196
1793,1711439363641169133,2056,2053,2041,2060,2056,2050,1196
1794,1711439363651214020,2057,2049,2066,2049,2054,2053,1194
1795,1711439363661181885,2064,2069,2068,2063,2061,2058,1196
1796,1711439363671179648,2059,2069,2119,2057,2056,2056,1194
1797,1711439363681177741,2056,2057,2077,2057,2057,2056,1195
1798,1711439363691185375,2058,2066,2069,2057,2056,2057,1195
1799,1711439363701189341,2053,2047,2037,2045,2053,2052,1197
1800,1711439363711178464,2055,2068,2041,2051,2056,2051,1196
1801,1711439363721182099,2051,2027,2008,2053,2051,2056,1195
1802,1711439363731189593,2049,2042,2025,2053,2052,2049,1196
1803,1711439363741188928,2056,2045,2031,2060,2054,2056,1196
1804,1711439363751191300,2045,2034,2003,2040,2048,2045,1192
1805,1711439363761202783,2051,2046,2052,2055,2052,2053,1197
1806,1711439363771200074,2052,2054,2068,2041,2052,2050,1197
1807,1711439363781198348,2061,2068,2102,2061,2056,2064,1198
1808,1711439363791210652,2053,2065,2060,2053,2058,2052,1196
1809,1711439363801166451,2051,2068,2063,2054,2052,2052,1195
1810,1711439363811159754,2046,2034,2031,2048,2054,2052,1197
1811,1711439363821163299,2057,2044,2038,2057,2056,2052,1196
1812,1711439363831162304,2053,2046,2025,2050,2048,2047,1193
1813,1711439363841166349,2053,2041,1996,2052,2053,2056,1196
1814,1711439363851158489,2056,2064,2072,2054,2056,2056,1196
1815,1711439363861168890,2065,2070,2109,2063,2058,2060,1197
1816,1711439363871160719,2057,2060,2090,2053,2053,2052,1196
1817,1711439363881160154,2049,2074,2020,2056,2057,2056,1197
1818,1711439363891160432,2063,2050,2008,2061,2049,2052,1197
1819,1711439363901164879,2049,2048,2026,2064,2055,2053,1197
1820,1711439363911190092,2056,2050,2033,2052,2053,2050,1195
1821,1711439363921180037,2057,2065,2065,2064,2059,2056,1197
1822,1711439363931170934,2055,2050,2051,2050,2053,2052,1195
1823,1711439363941105315,2058,2052,2056,2061,2056,2056,1197
1824,1711439363951157799,2058,2048,2045,2052,2053,2053,1198
1825,1711439363961164080,2060,2082,2056,2058,2055,2052,1199
1826,1711439363971169810,2056,2067,2120,2064,2051,2056,1195
1827,1711439363981161488,2063,2061,2051,2072,2062,2057,1198
1828,1711439363991160714,2054,2041,2038,2049,2054,2058,1199
1829,1711439364001161924,2052,2037,1963,2050,2052,2052,1199
1830,1711439364011160645,2037,2045,2014,2048,2050,2050,1196
1831,1711439364021167250,2061,2075,2120,2057,2056,2053,1197
1832,1711439364031154651,2062,2042,2056,2051,2058,2060,1198
1833,1711439364041167860,2057,2057,2045,2063,2050,2057,1196
1834,1711439364051157988,2058,2045,2044,2047,2051,2060,1194
1835,1711439364061172089,2063,2075,2162,2075,2062,2061,1196
1836,1711439364071369335,2056,2043,2029,2048,2049,2051,1195
1837,1711439364081170163,2059,2073,2140,2073,2056,2048,1194
1838,1711439364091160512,2071,2091,2077,2056,2056,2060,1197
1839,1711439364101173730,2053,2047,2041,2061,2054,2053,1197
1840,1711439364111170362,2060,2040,2019,2053,2054,2051,1196
1841,1711439364121191078,2057,2074,2081,2062,2050,2053,1197
1842,1711439364131159377,2052,2048,2004,2049,2047,2051,1198
1843,1711439364141163355,2062,2072,2099,2069,2061,2060,1197
1844,1711439364151158054,2053,2049,2056,2051,2053,2053,1195
1845,1711439364161166852,2058,2097,2084,2059,2054,2053,1199
1846,1711439364171156639,2062,2057,2051,2056,2052,2056,1196
1847,1711439364181167002,2058,2051,2045,2058,2057,2057,1197
1848,1711439364191151978,2049,2042,2015,2041,2052,2056,1196
1849,1711439364201170198,2062,2049,2037,2052,2050,2050,1198
1850,1711439364211158050,2054,2046,2057,2053,2054,2052,1196
1851,1711439364221188467,2066,2075,2100,2064,2057,2058,1197
1852,1711439364231175448,2053,2072,2058,2053,2052,2052,1198
1853,1711439364241160434,2069,2056,2090,2059,2056,2056,1197
1854,1711439364251168131,2046,2050,2035,2042,2048,2051,1194
1855,1711439364261170957,2052,2048,2031,2061,2056,2058,1196
1856,1711439364271155041,2060,2074,2056,2050,2052,2053,1197
1857,1711439364281169442,2048,2052,2063,2059,2054,2052,1197
1858,1711439364291158368,2052,2037,2045,2056,2049,2056,1195
1859,1711439364301169772,2050,2034,2027,2056,2055,2054,1195
1860,1711439364311157254,2053,2037,1999,2051,2053,2051,1196
1861,1711439364321165101,2056,2053,2057,2060,2054,2056,1199
1862,1711439364331161101,2056,2055,2068,2047,2056,2049,1198
1863,1711439364341159197,2048,2040,2011,2059,2052,2050,1197
1864,1711439364351155779,2056,2043,2015,2046,2050,2051,1197
1865,1711439364361113504,2057,2085,2093,2065,2061,2060,1197
1866,1711439364371163695,2054,2050,2055,2053,2053,2050,1197
1867,1711439364381171182,2058,2050,2031,2056,2052,2053,1194
1868,1711439364391146416,2047,2053,2058,2053,2054,2052,1195
1869,1711439364401164015,2058,2061,2044,2057,2052,2052,1197
1870,1711439364411157500,2058,2072,2025,2058,2056,2054,1195
1871,1711439364421179879,2038,2024,2025,2058,2052,2053,1194
1872,1711439364431169395,2059,2058,2073,2064,2056,2062,1196
1873,1711439364441171380,2056,2045,2006,2056,2055,2050,1198
1874,1711439364451169534,2054,2048,2034,2051,2051,2049,1195
1875,1711439364461175868,2052,2061,2066,2056,2055,2053,1197
1876,1711439364471158139,2062,2054,2126,2058,2060,2056,1196
1877,1711439364481170425,2051,2040,2034,2058,2058,2056,1197
1878,1711439364491161796,2059,2042,2045,2052,2056,2056,1195
1879,1711439364501164582,2050,2049,2042,2058,2053,2052,1196
1880,1711439364511158958,2048,2053,2050,2056,2056,2053,1196
1881,1711439364521174543,2042,2054,2092,2056,2054,2050,1195
1882,1711439364531153656,2056,2060,2075,2054,2054,2052,1196
1883,1711439364541110229,2057,2061,2056,2059,2054,2053,1195
1884,1711439364551158035,2054,2036,2009,2049,2049,2051,1197
1885,1711439364561160108,2070,2090,2063,2070,2056,2058,1197
1886,1711439364571174189,2049,2039,2034,2052,2048,2050,1196
1887,1711439364581167164,2052,2042,2051,2060,2056,2056,1195
1888,1711439364591162693,2051,2050,2044,2037,2050,2048,1197
1889,1711439364601190604,2053,2077,2154,2066,2056,2054,1197
1890,1711439364611172344,2047,2050,2051,2051,2052,2059,1195
1891,1711439364621181132,2059,2056,2088,2064,2053,2054,1198
1892,1711439364631167923,2067,2080,2091,2068,2056,2056,1196
1893,1711439364641168364,2053,2052,2034,2048,2052,2050,1198
1894,1711439364651166027,2050,2044,2046,2050,2053,2051,1196
1895,1711439364661166017,2054,2047,2065,2064,2057,2055,1196
1896,1711439364671214515,2057,2056,2036,2052,2050,2050,1196
1897,1711439364681170025,2065,2072,2123,2064,2061,2062,1196
1898,1711439364691167319,2054,2047,2038,2047,2053,2050,1196
1899,1711439364701168641,2062,2062,2099,2064,2057,2053,1197
1900,1711439364711161314,2054,2046,2048,2045,2052,2051,1196
1901,1711439364721212297,2060,2106,2072,2050,2051,2053,1195
1902,1711439364731167969,2055,2054,2065,2058,2059,2054,1197
1903,1711439364741156783,2052,2048,2046,2058,2051,2053,1199
1904,1711439364751149677,2062,2079,2160,2064,2056,2057,1198
1905,1711439364761156382,2046,2046,2038,2057,2054,2050,1196
1906,1711439364771170732,2065,2077,2157,2060,2061,2060,1196
1907,1711439364781167876,2042,2049,2025,2057,2050,2052,1197
1908,1711439364791165490,2057,2060,2040,2052,2050,2049,1197
1909,1711439364801172445,2052,2036,1960,2061,2048,2052,1195
1910,1711439364811173908,2062,2074,2094,2053,2052,2058,1197
1911,1711439364821178698,2057,2052,2043,2056,2053,2053,1197
1912,1711439364831161369,2048,2046,2036,2050,2052,2053,1195
1913,1711439364841166530,2062,2042,2034,2064,2054,2053,1195
1914,1711439364851161117,2056,2044,2031,2048,2054,2056,1194
1915,1711439364861164434,2056,2066,2046,2045,2050,2052,1197
1916,1711439364871163161,2061,2056,2072,2050,2050,2047,1192
1917,1711439364881105763,2053,2046,2026,2053,2054,2053,1195
1918,1711439364891151795,2050,2045,2025,2058,2059,2047,1193
1919,1711439364901166928,2073,2055,2042,2060,2056,2058,1198
1920,1711439364911159671,2050,2055,2073,2053,2057,2060,1196
1921,1711439364921194929,2058,2049,2059,2053,2052,2052,1198
1922,1711439364931163008,2049,2052,2064,2060,2052,2048,1197
1923,1711439364941168539,2032,2043,1988,2057,2050,2052,1197
1924,1711439364951194096,2076,2084,2041,2048,2049,2052,1196
1925,1711439364961170273,2081,2052,2043,2061,2057,2058,1197
1926,1711439364971159768,2029,2058,2080,2058,2052,2044,1194
1927,1711439364981172497,2056,2046,2064,2056,2049,2049,1197
1928,1711439364991158756,2075,2058,2066,2050,2057,2061,1198
1929,1711439365001166763,2056,2050,2034,2067,2053,2048,1194
1930,1711439365011157618,2052,2053,2013,2069,2056,2060,1196
1931,1711439365021171938,2056,2043,2021,2053,2051,2049,1197
1932,1711439365031154416,2053,2057,2101,2048,2054,2053,1196
1933,1711439365041114085,2057,2061,2086,2070,2059,2058,1194
1934,1711439365051156637,2048,2051,2039,2056,2057,2056,1195
1935,1711439365061171589,2045,2068,2136,2067,2054,2048,1195
1936,1711439365071162918,2074,2054,2045,2057,2056,2061,1197
1937,1711439365081174080,2033,2047,2028,2053,2047,2045,1194
1938,1711439365091161751,2046,2057,2037,2057,2052,2052,1196
1939,1711439365101163172,2061,2051,2070,2051,2054,2056,1196
1940,1711439365111159302,2056,2049,2024,2058,2052,2047,1194
1941,1711439365121179215,2046,2048,2007,2037,2046,2045,1193
1942,1711439365131164219,2056,2081,2089,2052,2053,2054,1196
1943,1711439365141166592,2044,2044,2035,2056,2049,2048,1195
1944,1711439365151152879,2059,2066,2107,2060,2059,2056,1198
1945,1711439365161179236,2066,2044,1997,2055,2049,2052,1197
1946,1711439365171162818,2040,2053,2092,2059,2057,2062,1195
1947,1711439365181171224,2066,2116,2247,2072,2063,2062,1195
1948,1711439365191163726,2042,2041,2030,2061,2053,2047,1195
1949,1711439365201164806,2066,2041,2014,2056,2049,2050,1196
1950,1711439365211160114,2077,2044,2024,2051,2050,2053,1193
1951,1711439365221165935,2040,2044,2033,2056,2053,2052,1198
1952,1711439365231180846,2061,2056,1973,2052,2053,2050,1198
1953,1711439365241158164,2053,2045,2013,2051,2050,2056,1196
1954,1711439365251164296,2059,2046,2025,2064,2057,2052,1195
1955,1711439365261170658,2048,2049,2032,2056,2060,2048,1195
1956,1711439365271161576,2065,2059,2068,2059,2060,2057,1194
1957,1711439365281190638,2044,2046,2025,2052,2054,2052,1198
1958,1711439365291164057,2056,2056,2046,2053,2053,2056,1197
1959,1711439365301179690,2056,2056,2067,2057,2053,2053,1195
1960,1711439365311162961,2052,2056,2021,2052,2053,2056,1197
1961,1711439365321166768,2056,2067,2116,2059,2053,2057,1196
1962,1711439365331165452,2058,2052,2056,2056,2052,2049,1196
1963,1711439365341178119,2051,2053,2041,2056,2054,2054,1196
1964,1711439365351167002,2065,2055,2056,2054,2050,2050,1197
1965,1711439365361168483,2047,2049,2068,2071,2060,2058,1198
1966,1711439365371163481,2064,2052,2011,2053,2051,2056,1194
1967,1711439365381169391,2050,2045,2050,2058,2050,2050,1195
1968,1711439365391165691,2054,2049,2042,2057,2053,2053,1196
1969,1711439365401167212,2052,2046,2023,2075,2056,2051,1197
1970,1711439365411158040,2052,2043,2058,2051,2054,2052,1196
1971,1711439365421166588,2066,2060,2051,2070,2053,2056,1197
1972,1711439365431192112,2044,2034,1986,2050,2050,2051,1197
1973,1711439365441157273,2043,2052,2050,2057,2054,2060,1196
1974,1711439365451154465,2048,2063,2019,2047,2051,2044,1192
1975,1711439365461160306,2056,2050,2024,2063,2053,2059,1196
1976,1711439365471179336,2050,2067,2108,2058,2058,2052,1194
1977,1711439365481185357,2051,2050,2040,2048,2048,2049,1195
1978,1711439365491172387,2059,2054,2044,2052,2058,2060,1194
1979,1711439365501161099,2050,2047,2053,2052,2050,2048,1196
1980,1711439365511159474,2044,2068,2079,2057,2056,2055,1197
1981,1711439365521162259,2036,2008,1980,2046,2052,2053,1195
1982,1711439365531156283,2064,2049,2060,2064,2059,2054,1196
1983,1711439365541163257,2056,2047,2034,2053,2054,2059,1197
1984,1711439365551157031,2056,2056,2072,2060,2051,2051,1197
1985,1711439365561174798,2050,2046,2034,2050,2056,2056,1198
1986,1711439365571170437,2058,2064,2110,2063,2060,2056,1195
1987,1711439365581165794,2056,2052,2047,2062,2054,2054,1198
1988,1711439365591161643,2053,2044,2015,2057,2048,2050,1196
1989,1711439365601158344,2053,2049,2034,2057,2052,2056,1196
1990,1711439365611162882,2056,2043,2029,2047,2049,2048,1196
1991,1711439365621194561,2049,2043,2069,2055,2053,2053,1197
1992,1711439365631161685,2068,2077,2081,2058,2061,2059,1197
1993,1711439365641278754,2046,2049,2046,2050,2060,2050,1196
1994,1711439365651172355,2058,2054,2097,2061,2059,2059,1195
1995,1711439365661178016,2057,2075,2107,2064,2056,2056,1196
1996,1711439365671228316,2050,2068,2060,2044,2050,2050,1196
1997,1711439365681182712,2061,2068,2060,2084,2058,2058,1196
1998,1711439365691163398,2061,2088,2070,2063,2061,2048,1198
1999,1711439365701166774,2047,2037,2013,2048,2052,2051,1198
2000,1711439365711164616,2059,2050,2002,2041,2045,2049,1196
2001,1711439365721185972,2050,2040,2040,2056,2050,2050,1195
2002,1711439365731188625,2068,2066,2064,2061,2054,2055,1197
2003,1711439365741182891,2042,2097,2102,2054,2052,2052,1195
2004,1711439365751174440,2059,2039,2015,2047,2053,2058,1197
2005,1711439365761177154,2069,2059,2022,2052,2054,2057,1197
2006,1711439365771203792,2048,2062,2056,2058,2052,2047,1193
2007,1711439365781176920,2054,2047,2041,2052,2053,2053,1197
2008,1711439365791168088,2056,2048,2016,2060,2048,2051,1197
2009,1711439365801169410,2049,2044,2044,2045,2053,2057,1197
2010,1711439365811168525,2050,2120,2297,2076,2065,2068,1196
2011,1711439365821178877,2049,2053,2044,2057,2056,2048,1195
2012,1711439365831179967,2058,2047,2004,2058,2050,2049,1194
2013,1711439365841163609,2052,2052,2028,2061,2063,2061,1197
2014,1711439365851160339,2057,2052,2046,2056,2047,2049,1196
2015,1711439365861162713,2041,2040,2036,2048,2055,2050,1195
2016,1711439365871160035,2062,2040,2002,2046,2053,2063,1197
2017,1711439365881212619,2059,2053,2067,2051,2052,2052,1195
2018,1711439365891172168,2064,2056,2081,2060,2050,2056,1195
2019,1711439365901171174,2051,2050,2033,2052,2047,2052,1194
2020,1711439365911166431,2064,2064,2057,2052,2056,2055,1195
2021,1711439365921182475,2064,2060,2042,2080,2057,2058,1194
2022,1711439365931226771,2048,2045,2027,2045,2047,2054,1196
2023,1711439365941182321,2043,2070,2138,2072,2068,2050,1198
2024,1711439365951174201,2064,2049,2029,2049,2053,2052,1198
2025,1711439365961175241,2040,2044,2044,2053,2056,2054,1196
2026,1711439365971215529,2043,2048,2030,2049,2049,2046,1195
2027,1711439365981187093,2061,2045,2068,2062,2059,2061,1195
2028,1711439365991187312,2057,2060,2030,2049,2049,2052,1197
2029,1711439366001173169,2069,2053,2057,2059,2058,2055,1195
2030,1711439366011172088,2048,2033,1980,2053,2047,2044,1192
2031,1711439366021188949,2049,2052,2054,2061,2055,2056,1197
2032,1711439366031198964,2058,2052,2053,2050,2047,2052,1195
2033,1711439366041179152,2060,2024,2060,2056,2052,2053,1197
2034,1711439366051172190,2072,2073,2179,2057,2062,2062,1193
2035,1711439366061169326,2048,2029,2028,2050,2058,2059,1200
2036,1711439366071148202,2064,2069,2133,2069,2058,2060,1197
2037,1711439366081178743,2052,2045,2052,2053,2056,2053,1197
2038,1711439366091157188,2027,2051,2117,2059,2054,2047,1194
2039,1711439366101160608,2064,2056,2116,2059,2057,2058,1198
2040,1711439366111157564,2052,2012,2016,2056,2047,2048,1195
2041,1711439366121158169,2056,2042,2062,2069,2054,2052,1196
2042,1711439366131156408,2051,2045,2029,2054,2048,2047,1196
2043,1711439366141165631,2053,2052,2038,2051,2053,2050,1193
2044,1711439366151161114,2051,2044,2002,2060,2056,2057,1197
2045,1711439366161170438,2051,2046,2030,2053,2052,2055,1197
2046,1711439366171152461,2057,2076,2141,2084,2061,2065,1196
2047,1711439366181178231,2051,2044,2005,2054,2052,2052,1194
2048,1711439366191162449,2064,2089,2101,2060,2056,2054,1196
2049,1711439366201160658,2056,2053,2086,2053,2052,2056,1197
2050,1711439366211174381,2062,2078,2098,2060,2056,2050,1195
2051,1711439366221163429,2051,2050,1981,2061,2056,2054,1196
2052,1711439366231174838,2060,2076,2133,2060,2056,2057,1196
2053,1711439366241158334,2046,2048,2036,2056,2052,2054,1197
2054,1711439366251163248,2071,2046,1989,2058,2051,2051,1193
2055,1711439366261163882,2042,2030,2042,2062,2056,2053,1196
2056,1711439366271157070,2061,2040,2049,2044,2049,2051,1197
2057,1711439366281166233,2041,2045,2032,2045,2047,2050,1197
2058,1711439366291157296,2064,2061,2101,2065,2057,2062,1196
2059,1711439366301173264,2041,2035,2029,2040,2046,2044,1195
2060,1711439366311198032,2049,2058,2041,2047,2047,2035,1192
2061,1711439366321178241,2064,2053,2020,2058,2054,2053,1195
2062,1711439366331163942,2050,2046,2013,2045,2048,2049,1196
2063,1711439366341170690,2058,2080,2067,2049,2050,2056,1197
2064,1711439366351151019,2052,2024,2067,2075,2057,2058,1198
2065,1711439366361162799,2047,2040,2042,2055,2049,2050,1197
2066,1711439366371155956,2057,2056,2097,2060,2056,2058,1196
2067,1711439366381156942,2050,2047,2038,2051,2049,2050,1195
2068,1711439366391152955,2070,2065,2125,2064,2056,2058,1196
2069,1711439366401162740,2051,2064,2046,2064,2061,2056,1196
2070,1711439366411155276,2052,2058,2064,2066,2053,2052,1193
2071,1711439366421162846,2056,2042,2000,2058,2056,2052,1197
2072,1711439366431168281,2055,2041,2010,2050,2057,2065,1197
2073,1711439366441157991,2059,2061,2062,2062,2051,2056,1196
2074,1711439366451148142,2056,2056,2050,2054,2049,2052,1195
2075,1711439366461162968,2058,2066,2034,2054,2060,2063,1197
2076,1711439366471188598,2053,2058,2090,2054,2052,2054,1197
2077,1711439366481169558,2057,2052,2059,2062,2053,2052,1196
2078,1711439366491165733,2042,2050,2042,2053,2058,2058,1197
2079,1711439366501172150,2068,2084,2076,2065,2056,2054,1195
2080,1711439366511156428,2053,2040,2051,2046,2049,2044,1191
2081,1711439366521163145,2060,2067,2134,2064,2060,2057,1196
2082,1711439366531156223,2070,2066,2062,2058,2054,2052,1198
2083,1711439366541159393,2046,2053,2041,2059,2056,2060,1195
2084,1711439366551157702,2057,2057,2080,2056,2051,2050,1196
2085,1711439366561158296,2044,2085,2083,2057,2060,2058,1198
2086,1711439366571151394,2062,2047,2042,2050,2054,2055,1197
2087,1711439366581152910,2040,2045,2014,2052,2046,2047,1195
2088,1711439366591162825,2068,2040,1998,2053,2057,2061,1196
2089,1711439366601160253,2072,2124,2338,2100,2072,2062,1196
2090,1711439366611158963,2044,2041,2045,2049,2047,2049,1193
2091,1711439366621168045,2073,2084,2200,2067,2061,2062,1197
2092,1711439366631176989,2067,2050,2066,2049,2053,2052,1195
2093,1711439366641166418,2056,2043,2038,2048,2056,2062,1197
2094,1711439366651179380,2000,2043,2045,2044,2050,2044,1192
2095,1711439366661175053,2062,2047,2052,2061,2060,2068,1196
2096,1711439366671174484,2056,2062,2061,2076,2052,2042,1194
2097,1711439366681106245,2066,2056,1968,2059,2056,2056,1196
2098,1711439366691162133,2049,2056,2052,2056,2058,2056,1196
2099,1711439366701167006,2053,2044,2040,2047,2052,2048,1196
2100,1711439366711168352,2063,2091,2121,2077,2061,2059,1194
2101,1711439366721165339,2048,2036,2028,2044,2049,2052,1196
2102,1711439366731154357,2057,2063,2072,2051,2056,2057,1195
2103,1711439366741169944,2056,2056,2057,2061,2056,2057,1195
2104,1711439366751158823,2065,2060,2073,2056,2053,2053,1195
2105,1711439366761167355,2050,2039,2001,2047,2049,2056,1200
2106,1711439366771171126,2059,2051,2033,2045,2054,2056,1197
2107,1711439366781161356,2052,2020,2037,2054,2053,2056,1198
2108,1711439366791156018,2050,2052,2124,2069,2060,2054,1199
2109,1711439366801178020,2055,2048,2066,2064,2056,2056,1196
2110,1711439366811164953,2046,2038,2031,2047,2051,2042,1193
2111,1711439366821169226,2058,2041,2070,2058,2050,2048,1197
2112,1711439366831167986,2038,2072,2184,2058,2055,2054,1198
2113,1711439366841175857,2063,2058,2001,2073,2056,2057,1195
2114,1711439366851155935,2049,2051,2033,2053,2053,2052,1194
2115,1711439366861163886,2060,2097,2080,2061,2054,2058,1195
2116,1711439366871154498,2061,2061,2028,2070,2056,2057,1197
2117,1711439366881104609,2058,2058,2091,2056,2056,2051,1194
2118,1711439366891162351,2064,2080,2080,2068,2056,2061,1197
2119,1711439366901170462,2053,2053,2061,2046,2045,2054,1196
2120,1711439366911178954,2057,2058,2047,2068,2056,2055,1198
2121,1711439366921167130,2050,2050,2020,2053,2056,2059,1194
2122,1711439366931165640,2049,2089,2077,2059,2052,2060,1198
2123,1711439366941168079,2056,2072,2120,2062,2052,2050,1200
2124,1711439366951172441,2061,2055,2056,2055,2058,2064,1196
2125,1711439366961172534,2053,2056,2054,2061,2050,2048,1199
2126,1711439366971169901,2058,2078,2120,2073,2061,2060,1196
2127,1711439366981167208,2066,2047,2015,2052,2060,2065,1199
2128,1711439366991178947,2052,2050,2081,2060,2052,2046,1193
2129,1711439367001183840,2062,2056,2008,2064,2057,2054,1197
2130,1711439367011186841,2048,2075,1992,2047,2053,2053,1197
2131,1711439367021177484,2047,2045,2040,2052,2050,2049,1197
2132,1711439367031204108,2064,2054,2058,2069,2057,2052,1198
2133,1711439367041180650,2062,2092,2205,2067,2060,2062,1194
2134,1711439367051172156,2056,2061,2072,2082,2056,2053,1194
2135,1711439367061166548,2061,2041,2042,2057,2049,2052,1196
2136,1711439367071174049,2066,2078,2157,2077,2068,2061,1197
2137,1711439367081162687,2041,2057,2071,2048,2054,2050,1197
2138,1711439367091123023,2062,2083,2036,2070,2047,2052,1196
2139,1711439367101174873,2049,2033,2020,2046,2050,2047,1193
2140,1711439367111175399,2064,2071,2100,2062,2061,2059,1195
2141,1711439367121176355,2053,2058,2066,2057,2057,2056,1194
2142,1711439367131186593,2072,2046,2032,2051,2050,2051,1196
2143,1711439367141182338,2071,2067,2125,2060,2053,2053,1195
2144,1711439367151191732,2040,2051,2042,2065,2052,2047,1196
2145,1711439367161176623,2045,2047,2042,2056,2052,2053,1198
2146,1711439367171193294,2061,2082,2128,2068,2058,2052,1197
2147,1711439367181183236,2036,2062,2030,2047,2059,2054,1197
2148,1711439367191211855,2061,2041,2025,2045,2045,2053,1197
2149,1711439367201175789,2053,2057,2066,2076,2056,2056,1196
2150,1711439367211166593,2058,2039,2037,2040,2053,2052,1196
2151,1711439367221170426,2066,2064,2130,2072,2066,2062,1197
2152,1711439367231169236,2049,2043,2024,2035,2040,2047,1194
2153,1711439367241174563,2069,2062,2110,2064,2059,2057,1197
2154,1711439367251166860,2061,2072,2124,2062,2060,2056,1194
2155,1711439367261172517,2050,2058,2080,2050,2056,2057,1195
2156,1711439367271170828,2061,2062,2090,2052,2056,2052,1198
2157,1711439367281170311,2033,2022,2013,2043,2044,2051,1196
2158,1711439367291177522,2062,2040,2042,2053,2054,2052,1195
2159,1711439367301179770,2067,2040,2020,2060,2054,2045,1192
2160,1711439367311182410,2047,2032,1988,2052,2049,2052,1196
2161,1711439367321170779,2065,2056,2054,2068,2061,2053,1199
2162,1711439367331179753,2051,2052,2036,2046,2052,2058,1197
2163,1711439367341181662,2054,2052,2042,2058,2046,2045,1193
2164,1711439367351173398,2052,2047,2059,2046,2052,2052,1197
2165,1711439367361178364,2056,2053,2057,2050,2056,2052,1200
2166,1711439367371178849,2059,2042,2042,2050,2050,2056,1199
2167,1711439367381186219,2061,2049,2078,2052,2052,2050,1196
2168,1711439367391184520,2052,2046,2030,2052,2054,2062,1196
2169,1711439367401187270,2059,2051,2046,2054,2049,2052,1194
2170,1711439367411190262,2048,2068,2088,2057,2056,2056,1197
2171,1711439367421195247,2057,2049,2050,2052,2056,2051,1196
2172,1711439367431175588,2053,2060,2072,2054,2056,2054,1197
2173,1711439367441112641,2062,2055,2040,2053,2054,2057,1195
2174,1711439367451158968,2064,2045,2041,2046,2052,2049,1195
2175,1711439367461160707,2056,2036,2029,2056,2053,2052,1198
2176,1711439367471158967,2057,2055,2040,2066,2056,2056,1195
2177,1711439367481186503,2057,2061,2017,2053,2052,2052,1195
2178,1711439367491218419,2048,2016,2031,2048,2056,2049,1196
2179,1711439367501106974,2057,2037,2026,2052,2056,2054,1197
2180,1711439367511151539,2052,2053,2035,2062,2055,2049,1196
2181,1711439367521102213,2076,2065,2125,2060,2051,2064,1193
2182,1711439367531155054,2045,2064,2048,2044,2050,2045,1193
2183,1711439367541158937,2060,2073,2058,2057,2053,2052,1195
2184,1711439367551150673,2060,2085,2068,2056,2052,2056,1197
2185,1711439367561102821,2053,2054,2064,2056,2053,2053,1196
2186,1711439367571148457,2053,2059,2090,2055,2057,2060,1197
2187,1711439367581162974,2044,2069,2138,2062,2055,2056,1196
2188,1711439367591161355,2053,2045,2046,2056,2053,2056,1198
2189,1711439367601158913,2055,2050,2026,2061,2053,2051,1196
2190,1711439367611155710,2057,2035,2086,2049,2051,2051,1196
2191,1711439367621178035,2061,2049,2109,2052,2053,2055,1198
2192,1711439367631165912,2058,2052,2032,2061,2053,2054,1196
2193,1711439367641183837,2054,2047,2046,2050,2052,2050,1196
2194,1711439367651178940,2054,2056,2057,2057,2057,2050,1195
2195,1711439367671204195,2075,2057,2032,2052,2056,2058,1196
2196,1711439367681112744,2056,2050,2055,2061,2058,2054,1196
2197,1711439367691174016,2053,2041,2017,2061,2056,2056,1195
2198,1711439367701179422,2060,2049,2020,2049,2054,2054,1195
2199,1711439367711172662,2037,2052,2021,2066,2049,2051,1194
2200,1711439367721173518,2059,2051,2069,2053,2048,2052,1195
2201,1711439367731177632,2046,2047,2037,2056,2051,2052,1198
2202,1711439367741174529,2052,2035,2022,2046,2048,2050,1194
2203,1711439367751162145,2051,2040,2029,2052,2055,2052,1194
2204,1711439367761170428,2057,2053,2038,2056,2054,2054,1197
2205,1711439367771177047,2065,2046,2044,2053,2051,2052,1198
2206,1711439367781854777,2072,2070,2077,2080,2061,2056,1196
2207,1711439367791151669,2060,2054,2040,2048,2052,2056,1196
2208,1711439367801104789,2052,2048,2042,2052,2053,2047,1193
2209,1711439367811159987,2050,2044,2021,2062,2054,2051,1195
2210,1711439367821167258,2048,2040,1936,2050,2053,2057,1196
2211,1711439367831186053,2041,2055,2018,2054,2046,2047,1193
2212,1711439367841175454,2057,2053,2076,2055,2053,2052,1195
