seq,time,data[0],data[1],data[2],data[3],data[4],data[5],data[6]
201,1710922394934024760,2057,2026,1987,2048,2050,2040,1189
202,1710922394944026141,2072,2079,1986,2078,2084,2076,1197
203,1710922394954021791,2040,2004,1960,2033,2019,2029,1194
204,1710922394964015518,2060,2076,2168,2060,2128,2066,1195
205,1710922394974026928,2037,2040,2081,2059,2012,2047,1192
206,1710922394984016075,2037,2021,1972,2064,2072,2036,1194
207,1710922394994015713,2042,2029,1976,2046,2041,2041,1194
208,1710922395004019619,2047,1990,1772,2062,2037,2058,1197
209,1710922395014016091,2044,2008,1984,2040,2052,2045,1192
210,1710922395024014065,2042,2031,1998,2033,2066,2054,1197
211,1710922395034013362,2075,2102,2196,2084,2095,2055,1196
212,1710922395044013451,2052,2051,2005,2064,2067,2049,1198
213,1710922395054008520,2104,2161,2216,2079,2074,2080,1197
214,1710922395064020991,2041,2028,2043,2044,2066,2056,1197
215,1710922395074018976,2060,2084,2141,2051,2072,2052,1198
216,1710922395084018173,2044,2057,2083,2055,2052,2042,1195
217,1710922395094015617,2049,2022,2037,2029,2021,2034,1195
218,1710922395104012619,2052,2006,1908,2070,2073,2095,1196
219,1710922395114012929,2024,2035,2109,2045,2025,2025,1194
220,1710922395124015752,2068,2111,2328,2077,2069,2045,1194
221,1710922395134020219,2052,2052,2158,2073,2085,2057,1196
222,1710922395144015449,2040,2064,1974,2055,1984,2042,1194
223,1710922395154015838,2080,2088,2068,2064,2052,2035,1194
224,1710922395164016968,2047,2030,2120,2070,2027,2048,1196
225,1710922395174024450,2045,2049,1991,2034,2020,2044,1193
226,1710922395184024059,2067,2118,2385,2054,2049,2047,1195
227,1710922395194016012,2058,2037,2024,2036,2038,2064,1194
228,1710922395204017523,2024,1986,1945,2043,2054,2025,1191
229,1710922395214024354,2088,2116,2205,2076,2084,2088,1197
230,1710922395224025054,2042,1988,1826,2044,2038,2032,1194
231,1710922395234021716,2041,2028,1963,2032,2010,2056,1198
232,1710922395244015232,2044,1993,1998,2042,2056,2042,1194
233,1710922395254013818,2081,2095,2371,2089,2045,2078,1199
234,1710922395264013696,2041,2013,1896,2072,2083,2049,1196
235,1710922395274067536,2045,1988,1771,2073,2044,2025,1194
236,1710922395284060571,2040,2015,1954,2045,2017,2031,1192
237,1710922395294018610,2063,2116,2257,2064,2062,2070,1196
238,1710922395304061661,2035,2021,2078,2057,2061,2089,1196
239,1710922395314074784,2066,2068,2155,2056,2017,2032,1193
240,1710922395324067107,2095,2134,2183,2076,2072,2077,1196
241,1710922395334060404,2062,2025,1919,2041,2051,2056,1193
242,1710922395344017180,2035,2005,1989,2086,2056,2058,1195
243,1710922395354017188,2078,2044,1961,2050,2084,2018,1192
244,1710922395364013390,2056,2052,2145,2047,2033,2047,1193
245,1710922395374059736,2076,2084,2104,2073,2060,2091,1196
246,1710922395384056909,2076,2015,1828,2059,2054,2041,1194
247,1710922395394056256,2029,2020,1925,2032,2056,2010,1195
248,1710922395404057607,2055,2052,2112,2071,2088,2120,1196
249,1710922395414055010,2064,2061,2012,2074,2058,2022,1193
250,1710922395424055770,2059,2053,2040,2058,1999,2035,1193
251,1710922395434048635,2069,2060,2008,2056,2080,2065,1196
252,1710922395444051289,2055,1984,1868,2064,2080,2052,1195
253,1710922395454051758,2060,2043,1949,2048,2045,2046,1196
254,1710922395464050153,2017,2022,2044,2038,2062,2105,1195
255,1710922395474057475,2028,1986,1851,2037,2034,2015,1193
256,1710922395484049288,2029,2010,1937,2038,2089,2057,1196
257,1710922395494055448,2058,2032,2120,2041,2074,2045,1194
258,1710922395504049886,2046,2066,2209,2047,2052,2048,1195
259,1710922395514040687,2063,2046,2187,2050,2067,2073,1195
260,1710922395524059642,2047,2025,1926,2044,2029,2025,1192
261,1710922395534047537,2064,2022,1913,2053,2099,2077,1193
262,1710922395544047505,2043,2008,1852,2033,2048,2033,1193
263,1710922395554046121,2060,2059,2007,2040,2056,2072,1196
264,1710922395564046440,2060,2068,2088,2067,2064,2037,1193
265,1710922395574053722,2072,2064,1993,2069,2039,2078,1196
266,1710922395584051977,2064,2040,1984,2049,1976,2044,1192
267,1710922395594049551,2054,2057,2026,2060,2058,2059,1196
268,1710922395604046864,2017,2005,1979,2052,2038,2025,1192
269,1710922395614044448,2053,2017,1819,2030,2041,2065,1196
270,1710922395624041912,2032,2004,1887,2019,2038,2032,1194
271,1710922395634047992,2054,2069,2114,2043,2062,2062,1197
272,1710922395644037801,2066,2073,2196,2053,2038,2061,1196
273,1710922395654041917,2048,2009,1912,2036,2036,2040,1194
274,1710922395664040072,2042,2030,1973,2045,2038,2036,1194
275,1710922395674040561,2068,2109,2200,2062,2084,2064,1198
276,1710922395684038546,2080,2082,1942,2064,2050,2046,1192
277,1710922395694038644,2033,2004,1954,2048,2040,2065,1197
278,1710922395704038633,2039,2017,1996,2038,1997,2029,1193
279,1710922395714036758,2044,2020,1921,2044,2064,2039,1192
280,1710922395724037798,2059,2047,1998,2068,2052,2056,1196
281,1710922395734034670,2064,2081,2136,2053,2052,2061,1195
282,1710922395744050359,2065,2064,2115,2070,2064,2045,1195
283,1710922395754036821,2032,1999,1880,2053,2036,2020,1193
284,1710922395764037441,2041,1993,1795,2064,2088,2104,1197
285,1710922395774034574,2048,2068,2181,2049,2050,2048,1196
286,1710922395784039983,2058,2070,2173,2072,2052,2037,1195
287,1710922395794035743,2072,2079,1920,2059,2042,2040,1193
288,1710922395804039268,2045,2045,1992,2063,2061,2074,1194
289,1710922395814034377,2064,2116,2282,2066,2053,2058,1195
290,1710922395824035868,2060,2048,2050,2077,2056,2040,1195
291,1710922395834048460,2070,2072,2000,2059,2077,2108,1196
292,1710922395844033661,2058,2032,2050,2061,2053,2027,1194
293,1710922395854037006,2020,2003,1952,2041,2030,2026,1197
294,1710922395864037826,2055,2061,2287,2060,2072,2092,1197
295,1710922395874037834,2046,2020,1967,2045,2030,2032,1194
296,1710922395884039185,2088,2160,2466,2073,2052,2060,1196
297,1710922395894043051,2060,2056,2010,2072,2182,2072,1197
298,1710922395904028391,2053,2100,2138,2062,2052,2087,1195
299,1710922395914040913,2053,2051,1969,2057,2050,2037,1196
300,1710922395924041593,2076,2073,2179,2049,2046,2031,1193
301,1710922395934041732,2053,2047,2004,2058,2060,2085,1196
302,1710922395944040999,2028,2029,2076,2031,2020,2005,1194
303,1710922395954042430,2054,2025,1986,2053,2059,2106,1194
304,1710922395964041888,2064,2042,1945,2052,2044,2043,1194
305,1710922395974027278,2073,2085,2217,2080,2054,2059,1196
306,1710922395984054227,2064,2041,2093,2064,2064,2072,1196
307,1710922395994041892,2040,2030,1948,2052,2035,2038,1193
308,1710922396004043785,2056,2072,2110,2052,2061,2070,1196
309,1710922396014026771,2050,2010,1981,2041,2030,2033,1192
310,1710922396024027089,2066,2088,2223,2069,2056,2057,1196
311,1710922396034039171,2051,2027,2016,2046,2049,2058,1196
312,1710922396044049168,2056,2018,1985,2052,2057,2040,1196
313,1710922396054024580,2056,2056,2072,2052,2032,2035,1194
314,1710922396064027154,2018,2048,2052,2052,2051,2060,1196
315,1710922396074029436,2073,2080,2100,2053,2040,2036,1194
316,1710922396084039233,2074,2102,2116,2053,2061,2064,1196
317,1710922396094051024,2084,2141,2046,2068,2060,2075,1197
318,1710922396104025985,2054,2054,2049,2061,2054,2046,1195
319,1710922396114030672,2048,2008,1926,2036,2037,2035,1194
320,1710922396124028667,2041,2026,1976,2036,2050,2053,1196
321,1710922396134027583,2035,2028,2002,2051,2040,2069,1196
322,1710922396144029265,2053,2047,2014,2056,2053,2033,1192
323,1710922396154028021,2065,2064,2052,2048,2046,2061,1196
324,1710922396164027448,2055,2038,2072,2053,2051,2052,1196
325,1710922396174030051,2057,2061,2043,2050,2061,2054,1195
326,1710922396184032003,2030,2017,1988,2042,2045,2052,1197
327,1710922396194026952,2046,1996,1896,2040,2041,2029,1193
328,1710922396204024726,2028,2056,2051,2065,2054,2048,1194
329,1710922396214029433,2119,2073,2010,2066,2052,2064,1197
330,1710922396224028370,2044,2016,1930,2047,2057,2043,1193
331,1710922396234024561,2052,2032,2125,2042,2044,2046,1193
332,1710922396244025752,2062,2053,2030,2075,2073,2059,1195
333,1710922396254031031,2085,2129,2320,2082,2085,2064,1199
334,1710922396264010129,2050,2024,1951,2056,2049,2056,1198
335,1710922396274028462,2081,2037,1988,2056,2051,2031,1192
336,1710922396284077754,2076,2049,2054,2084,2077,2089,1196
337,1710922396294033078,2052,2059,2088,2077,2053,2038,1192
338,1710922396304039689,2102,2051,2030,2101,2081,2114,1197
339,1710922396314028686,2037,2042,2012,2050,2025,2029,1192
340,1710922396324027362,2048,2032,1926,2053,2038,2042,1192
341,1710922396334028814,2050,2045,2058,2059,2056,2058,1195
342,1710922396344029082,2117,2107,2060,2089,2074,2072,1198
343,1710922396354027758,2017,2013,1990,2048,2046,2054,1197
344,1710922396364029089,2077,2060,1997,2057,2057,2049,1198
345,1710922396374028697,2050,2060,2105,2040,2050,2047,1192
346,1710922396384030609,2028,2007,1960,2043,2060,2062,1194
347,1710922396394036849,2053,2024,2013,2044,2037,2056,1194
348,1710922396404029153,2073,2103,2152,2056,2060,2052,1198
349,1710922396414025995,2053,2021,1864,2040,2045,2042,1196
350,1710922396424027115,2062,2088,2076,2061,2060,2059,1196
351,1710922396434042503,2074,2070,1987,2068,2063,2068,1197
352,1710922396444030189,2039,2017,1936,2064,2050,2041,1194
353,1710922396454030958,2056,2026,1960,2023,2059,2062,1196
354,1710922396464025245,2061,2065,2015,2050,2046,2053,1197
355,1710922396474029692,2097,2095,2146,2088,2065,2057,1196
356,1710922396484083653,2064,2067,1975,2061,2070,2075,1197
357,1710922396494051020,2056,2044,1990,2099,2048,2048,1197
358,1710922396504032513,2065,2113,2251,2035,2058,2054,1199
359,1710922396514030418,2027,2011,1929,2010,2033,2041,1193
360,1710922396524026118,2044,2036,2059,2050,2050,2052,1197
361,1710922396534027979,2041,2040,2048,2060,2063,2054,1196
362,1710922396544026465,2041,2041,1965,2019,2031,2040,1193
363,1710922396554059456,2077,2093,2144,2082,2084,2076,1197
364,1710922396564026181,2058,2032,2009,2069,2061,2060,1195
365,1710922396574026149,2038,2006,1700,2038,2028,2033,1193
366,1710922396584032390,2039,2015,1950,2072,2028,2085,1197
367,1710922396594035525,2057,2118,2322,2081,2046,2033,1194
368,1710922396604096849,2042,2030,1999,2074,2054,2040,1193
369,1710922396614057493,2064,2093,2116,2041,2044,2057,1195
370,1710922396624028857,2048,2042,1986,2040,2043,2044,1195
371,1710922396634026371,2051,2045,2070,2045,2054,2048,1197
372,1710922396644014847,2056,2046,2039,2061,2060,2048,1197
373,1710922396653996420,2062,2069,2135,2070,2066,2068,1195
374,1710922396664056162,2060,2065,2068,2059,2042,2049,1198
375,1710922396674023529,2073,2075,2126,2069,2082,2060,1194
376,1710922396684055888,2068,2082,2138,2073,2012,2069,1196
377,1710922396694062209,2056,2066,2053,2064,2068,2061,1196
378,1710922396704030487,2058,2046,1986,2032,2026,2031,1193
379,1710922396714056926,2041,2028,2032,2044,2042,2027,1192
380,1710922396724054239,2055,2068,2012,2061,2026,2064,1201
381,1710922396734051483,2026,1998,1974,2034,2011,2028,1192
382,1710922396744055198,2059,2094,2248,2068,2039,2033,1195
383,1710922396754054084,2073,2029,1992,2056,2073,2057,1197
384,1710922396764038602,2023,1994,2021,2048,2040,2026,1192
385,1710922396774051576,2069,2034,2009,2047,2004,2068,1197
386,1710922396784069809,2050,2057,2226,2063,2072,2057,1197
387,1710922396794052985,2075,2121,2291,2063,2073,2036,1193
388,1710922396804038647,2070,1981,1838,2050,2053,2048,1195
389,1710922396814059244,2049,2008,1828,2047,2052,2073,1196
390,1710922396824048973,2049,2016,1948,2045,2062,2040,1192
391,1710922396834046977,2012,1962,1748,2036,2056,2054,1196
392,1710922396844060061,2022,2028,1950,2021,2037,2028,1192
393,1710922396854041364,2026,1992,1946,2030,2008,2044,1193
394,1710922396864041071,2041,2024,1944,2025,1985,2041,1193
395,1710922396874042172,2059,1988,1881,2053,2056,2052,1195
396,1710922396884042692,2045,2032,1983,2092,2041,2028,1194
397,1710922396894041418,2040,2033,2004,2053,2075,2073,1196
398,1710922396904050753,2058,2027,1903,2096,2065,2048,1196
399,1710922396914041424,2027,1984,1850,2042,2056,2029,1192
400,1710922396924040852,2060,2067,2100,2065,2107,2112,1196
401,1710922396934038526,2041,2025,1948,2098,2090,2036,1192
402,1710922396944040057,2053,2047,1944,2038,2050,2041,1193
403,1710922396954039864,2040,2019,1869,2034,2009,2047,1194
404,1710922396964039002,2046,2046,1964,2060,2099,2044,1194
405,1710922396974036956,2066,2056,2031,2080,2065,2066,1194
406,1710922396984039739,2041,2098,1912,2045,2064,2046,1192
407,1710922396994039989,2056,2057,2118,2040,2042,2027,1193
408,1710922397004044676,2065,2063,2028,2053,2042,2052,1196
409,1710922397014043863,2036,2006,1960,2062,2080,2061,1196
410,1710922397024039784,2060,2037,2041,2040,2005,2035,1193
411,1710922397034038450,2061,2032,2049,2056,2047,2080,1197
412,1710922397044045191,2053,2051,2068,2054,2038,2072,1198
413,1710922397054034348,2067,2003,1864,2052,2057,2056,1196
414,1710922397064047813,2050,2025,1954,2019,2085,2038,1195
415,1710922397074036550,2061,2096,2072,2013,2020,2053,1198
416,1710922397084038451,2053,2034,2032,2152,2077,2055,1198
417,1710922397094050172,2056,2047,2076,2027,2020,2048,1197
418,1710922397104049519,2011,2017,1921,2052,2038,2023,1194
419,1710922397114034499,2082,2076,2005,2047,2052,2109,1196
420,1710922397124034097,2026,2013,1898,2023,2047,2027,1195
421,1710922397134033915,2050,2008,1882,2072,2048,2056,1193
422,1710922397144038612,2029,2009,2011,2036,2042,2053,1196
423,1710922397154051064,2041,2029,2048,2038,2066,2054,1197
424,1710922397164030844,2068,2077,2224,2078,2060,2045,1194
425,1710922397174030261,2051,2059,2013,2078,2058,2053,1197
426,1710922397184030801,2036,2009,1834,2053,2077,2076,1198
427,1710922397194237431,2057,2100,2361,2031,2041,2032,1192
428,1710922397204028393,2064,2076,2092,2058,2024,2044,1194
429,1710922397214015897,2096,2197,2675,2136,2072,2094,1196
430,1710922397224024823,2044,2036,1901,2099,2024,2033,1194
431,1710922397234024180,2044,2024,1997,2066,2018,2045,1195
432,1710922397244022174,2047,2043,2026,2092,2067,2058,1195
433,1710922397254025560,2053,2028,1941,2060,2033,2049,1196
434,1710922397264027432,2042,2012,1877,2083,2050,2018,1193
435,1710922397274022991,2056,2024,1958,2062,2042,2063,1195
436,1710922397284022739,2044,2036,2016,2065,2010,2068,1197
437,1710922397294071962,2040,2024,1947,2064,2019,2004,1192
438,1710922397304060548,2005,2010,1822,2085,2047,2096,1196
439,1710922397314058091,2084,2176,2363,2112,2119,2053,1197
440,1710922397324031881,2046,2052,2027,2040,2060,2060,1198
441,1710922397334021770,2054,2032,1974,2064,2051,2074,1195
442,1710922397344023501,2055,2020,1903,1983,1992,2057,1196
443,1710922397354030523,2052,2036,2013,2048,1973,2015,1192
444,1710922397364057072,2047,2056,1990,2108,2104,2136,1196
445,1710922397374026502,2050,2008,2054,2066,2030,2021,1192
446,1710922397384018615,2053,2035,2016,2047,2042,2067,1195
447,1710922397394083286,2060,2040,2021,2041,2057,2026,1192
448,1710922397404007692,2051,2035,2040,2068,2040,2092,1196
449,1710922397414023580,2046,2048,2058,2064,2017,2032,1193
450,1710922397424059496,2094,2117,2328,2071,2077,2082,1196
451,1710922397434021623,2045,2024,1929,2048,2049,2041,1194
452,1710922397444043463,2093,2150,2431,2119,2120,2067,1196
453,1710922397454026038,2076,2072,2129,2068,2021,2081,1197
454,1710922397464057055,2061,2032,2008,2077,2047,2024,1192
455,1710922397474019893,2054,2048,2114,2065,1996,2036,1195
456,1710922397484020012,2076,2093,2020,2105,2100,2077,1195
457,1710922397494055007,2056,2078,2070,1991,2028,2044,1195
458,1710922397504041389,2059,2101,2104,2037,2051,2045,1192
459,1710922397514020509,2058,2059,2103,2020,2015,2092,1196
460,1710922397524050484,2036,2053,2113,2061,2075,2061,1194
461,1710922397533979828,2040,2036,2023,2064,2084,2032,1192
462,1710922397544031043,2112,2184,2495,2106,2065,2081,1198
463,1710922397554022616,2016,2004,1874,2035,2056,2039,1191
464,1710922397564022264,2052,2054,2043,2116,2017,2025,1193
465,1710922397574022953,2061,2040,1987,2064,2005,2042,1193
466,1710922397584032300,2041,2017,1926,2029,2034,2018,1192
467,1710922397594082473,2065,2078,2072,2056,2056,2056,1195
468,1710922397604024572,2053,2047,2009,2040,2012,2035,1194
469,1710922397614069355,2047,2070,2195,2055,2057,2086,1195
470,1710922397624025901,2072,2187,2495,2110,2071,2040,1192
471,1710922397634024106,2046,2043,1928,2114,2076,2054,1197
472,1710922397644047018,2053,2097,2229,2036,2074,2072,1195
473,1710922397654025435,2081,2122,2171,2085,2075,2036,1193
474,1710922397664028019,2037,2042,1988,2054,2060,2054,1196
475,1710922397674027917,2077,2141,2262,2045,2087,2074,1197
476,1710922397684051670,2058,2072,2246,2040,2068,2056,1193
477,1710922397694054153,2057,2078,2075,2040,2053,2050,1196
478,1710922397703968850,2051,2074,2032,2047,2060,2060,1198
479,1710922397714027109,2116,2117,2108,2053,2058,2040,1194
480,1710922397724051944,2037,2024,2120,2076,2046,2085,1195
481,1710922397734037545,2053,2037,1796,2035,2053,2052,1195
482,1710922397744027635,2072,2014,1912,2053,2124,2029,1193
483,1710922397754029607,2065,2056,2085,2064,2082,2072,1197
484,1710922397764002754,2065,2054,2080,2074,2041,2046,1194
485,1710922397774035756,2058,2018,1960,2032,2032,2022,1195
486,1710922397783994726,2090,2070,1969,2124,2110,2132,1197
487,1710922397794038898,2048,2076,2176,2056,2072,2042,1192
488,1710922397804009450,2070,2047,2104,2065,2076,2040,1193
489,1710922397814025761,2054,2043,2120,2068,2099,2095,1196
490,1710922397824037371,2046,2035,2053,2056,1998,2024,1194
491,1710922397834033281,2061,2040,1988,2070,2098,2024,1192
492,1710922397844041536,2066,2021,1960,2054,2117,2116,1196
493,1710922397854010034,2068,2056,2128,2050,2060,2052,1196
494,1710922397864029920,2086,2125,2273,2075,2092,2065,1197
495,1710922397874031682,2074,2064,2022,2057,2035,2069,1198
496,1710922397884020780,2048,2040,2011,2072,2072,2054,1196
497,1710922397894053079,2083,2177,2332,2025,2026,2050,1196
498,1710922397904034382,2018,2014,1906,2081,2074,2050,1197
499,1710922397914007028,2058,2053,2012,1980,2035,2047,1196
500,1710922397924018349,2053,2052,2018,2056,2049,2048,1197
501,1710922397934026482,2065,2060,2029,2072,2056,2073,1195
502,1710922397944041860,2030,2004,1989,2093,2043,2046,1196
503,1710922397954036047,2061,2042,1772,2043,2027,2028,1194
504,1710922397964018964,2048,2017,1972,2037,2138,2073,1195
505,1710922397974018942,2040,2035,1973,2030,2037,2057,1196
506,1710922397984017607,2056,2021,2002,2040,2038,2020,1194
507,1710922397994026843,2076,2040,1992,2043,2044,2112,1196
508,1710922398004040899,2073,2084,2225,2040,2050,2048,1196
509,1710922398014020759,2060,1992,1709,2027,2053,2061,1196
510,1710922398024015056,2050,2009,1952,2039,2040,2035,1193
511,1710922398034023080,2060,2044,2032,2053,2056,2064,1197
512,1710922398044048597,2060,2144,2324,2117,2096,2066,1197
513,1710922398054008058,2062,2017,1998,2061,2072,2064,1197
514,1710922398064018235,2044,2045,2024,1991,2050,2027,1194
515,1710922398074014067,2062,2110,2224,2057,2000,2032,1193
516,1710922398084017732,2042,2033,1970,2048,1996,2075,1197
517,1710922398094042276,2056,2040,2052,2062,2011,2037,1194
518,1710922398104026596,2047,2042,1996,2050,2109,2064,1196
519,1710922398114004402,2074,2070,2088,2052,2054,2044,1193
520,1710922398124012916,2055,2035,1903,2036,2040,2060,1197
521,1710922398134013074,2029,2009,2020,2054,2008,2041,1192
522,1710922398144026890,2025,2021,1949,2056,2046,2049,1197
523,1710922398153976833,2094,2095,2092,2042,2020,2050,1195
524,1710922398164018640,2064,2149,2388,2079,2073,2096,1197
525,1710922398174020743,2065,2032,1925,2068,2022,2017,1195
526,1710922398184017846,2032,2016,2116,2064,2078,2106,1196
527,1710922398194072879,2034,2025,2036,2010,2009,2014,1194
528,1710922398204027811,2047,2009,1882,2046,2056,2072,1196
529,1710922398214023191,2076,2073,2117,2074,2064,2063,1196
530,1710922398224023921,2027,2009,1913,2040,1996,2027,1192
531,1710922398234032736,2054,2061,1948,2085,2012,2066,1196
532,1710922398244022144,2057,2104,2268,2060,2056,2064,1195
533,1710922398254024577,2058,2054,2148,2060,2035,2027,1194
534,1710922398264022722,2056,2034,1884,2024,2031,2058,1194
535,1710922398274022600,2061,2138,2200,2032,2065,2064,1197
536,1710922398284025284,2071,2101,2203,2042,2024,2014,1193
537,1710922398294026845,2074,2060,1981,2021,2062,2116,1195
538,1710922398304022275,2047,2088,2236,2059,2009,2032,1193
539,1710922398314032793,2148,2336,2897,2108,2056,2092,1198
540,1710922398323960194,2078,2035,1928,2068,2050,2056,1197
541,1710922398333969531,2052,2088,2145,2045,2021,2047,1192
542,1710922398344025946,2050,2015,1951,2024,2039,2056,1195
543,1710922398354025202,2069,2073,1976,2066,2072,2065,1194
544,1710922398364018018,2053,2020,1970,2064,2038,2022,1192
545,1710922398374024218,2038,2055,2171,2096,2081,2072,1197
546,1710922398384006472,2059,2012,1889,2064,2071,2021,1193
547,1710922398394004096,2068,2097,2135,2103,2112,2089,1197
548,1710922398403977444,2058,2021,1812,1997,2061,2036,1194
549,1710922398414023340,2069,2049,2044,2033,2019,2020,1192
550,1710922398424027425,2066,2039,2092,2053,2073,2057,1196
551,1710922398434026582,2057,2029,1945,2025,2038,2042,1193
552,1710922398444040066,2086,2056,1943,2106,2088,2084,1197
553,1710922398454018564,2025,1992,1956,2048,2057,2035,1195
554,1710922398464020075,2068,2132,2338,2059,2056,2057,1195
555,1710922398474020194,1996,2002,1975,2026,2072,2038,1195
556,1710922398484002138,2069,2067,2049,2103,2047,2036,1192
557,1710922398494061369,2060,2050,2061,2056,2076,2042,1194
558,1710922398504022543,2069,2108,2268,2094,2064,2059,1198
559,1710922398514020247,2048,2025,1938,2069,2089,2059,1195
560,1710922398524018442,2049,2032,2037,2041,2040,2052,1198
561,1710922398534019453,2057,2068,2178,2056,2075,2046,1193
562,1710922398544031173,2060,2065,2115,2064,2046,2045,1194
563,1710922398554025210,2043,2054,2153,2065,2072,2065,1194
564,1710922398563959895,2085,2088,2204,2065,2092,2045,1193
565,1710922398573981124,2079,2116,2318,2050,2072,2060,1195
566,1710922398583962065,2041,2046,1984,2073,2050,2053,1196
567,1710922398594049020,2067,2122,2574,2092,2047,2041,1194
568,1710922398604030032,2071,2072,2072,2052,2066,2018,1192
569,1710922398614018538,2029,2005,2097,2008,2064,2108,1196
570,1710922398624023596,2040,2015,1844,2052,1988,2036,1194
571,1710922398634016451,2119,2128,2285,2100,2064,2051,1197
572,1710922398644027340,2073,2072,2015,2077,2076,2092,1194
573,1710922398654021577,2030,2040,2001,2020,2056,2052,1196
574,1710922398664020554,2028,2044,2102,2045,2057,2056,1198
575,1710922398674024520,2036,2008,1972,2024,2064,2003,1193
576,1710922398684024949,2040,2013,1918,2058,2076,2114,1197
577,1710922398694049233,2054,2048,2012,2069,2044,2020,1193
578,1710922398704016250,2122,2085,2093,2056,2120,2075,1196
579,1710922398714025305,2062,2024,1992,2041,2031,2045,1193
580,1710922398724021035,2056,2085,2194,2078,2053,2051,1196
581,1710922398734019521,2056,2021,1954,2045,2024,2064,1194
582,1710922398744018978,2067,2065,2036,2060,2037,2053,1195
583,1710922398754025719,2042,2036,1945,2064,2034,2036,1193
584,1710922398763999047,2066,2058,2218,2077,2066,2081,1197
585,1710922398774019213,2084,2044,2014,2042,2068,2033,1193
586,1710922398784022759,2093,2067,2148,2068,2074,2047,1194
587,1710922398794019190,2049,2106,2121,2068,2088,2047,1193
588,1710922398804024358,2056,2056,2045,2046,2043,2065,1196
589,1710922398814032562,2064,2024,2050,2057,2046,2041,1192
590,1710922398824015900,2029,2029,2077,2064,2048,2036,1193
591,1710922398834015798,2047,2002,1835,2047,2049,2100,1197
592,1710922398844014323,2008,1961,1839,2057,1992,2008,1194
593,1710922398854045771,2044,2058,2040,2091,2088,2070,1197
594,1710922398864026072,2008,2037,2059,2037,2046,2041,1194
595,1710922398874014358,2090,2104,2065,2081,2052,2056,1196
596,1710922398884019927,2037,2015,1992,2062,2052,2035,1193
597,1710922398893932971,2046,1992,1872,2060,2059,2068,1196
598,1710922398904023922,2045,2051,1981,2035,2042,2065,1196
599,1710922398914023930,2039,2036,1954,2054,2006,2049,1197
600,1710922398924017215,2038,2046,2048,2090,2048,2057,1197
601,1710922398933975345,2020,1957,1772,2086,2030,2059,1194
602,1710922398944019497,2051,2105,2149,2052,2016,2044,1195
603,1710922398954020096,2066,2038,2025,2056,2057,2079,1197
604,1710922398964021117,2044,2056,1974,2028,2019,2029,1194
605,1710922398974019522,2088,2102,2377,2061,2064,2063,1195
606,1710922398984018919,2055,2034,2028,2064,2077,2048,1195
607,1710922398994018287,2056,2060,2072,2045,2035,2027,1192
608,1710922399004026260,2071,2057,1892,2035,2064,2098,1197
609,1710922399014013174,2056,2005,2015,2030,2007,2037,1194
610,1710922399024015046,2048,2071,2233,2040,2040,2063,1197
611,1710922399034026105,2056,2066,2106,2040,2013,2021,1194
612,1710922399044024270,2020,1978,1798,2066,2033,2052,1195
613,1710922399054024759,2053,2025,1944,2032,2033,2044,1195
614,1710922399064038393,2068,2128,2229,1997,1988,2079,1196
615,1710922399074016831,2047,2032,2009,2082,2076,2032,1192
616,1710922399084021709,2043,2082,2175,2067,2050,2034,1194
617,1710922399094027047,2067,2049,2114,2060,2079,2084,1195
618,1710922399104024851,2030,2101,2186,2104,2066,2027,1194
619,1710922399114035139,2078,2078,2058,2075,2062,2108,1194
620,1710922399124028686,2037,1986,1911,2028,2056,2035,1192
621,1710922399134028774,2060,2044,2041,2050,2021,2060,1196
622,1710922399144027480,2048,2043,2061,2101,2068,2056,1195
623,1710922399154027358,2040,2004,1955,2033,2014,2059,1195
624,1710922399164027006,2094,2095,1987,2093,2059,2069,1196
625,1710922399173997218,2066,2134,2255,2068,2038,2046,1196
626,1710922399184015240,2065,2048,2008,2084,2045,2058,1197
627,1710922399194030368,2062,2046,2073,2017,2046,2015,1194
628,1710922399204029845,2089,2062,2100,2063,2078,2088,1198
629,1710922399214030685,2041,2045,2152,2068,2086,2032,1194
630,1710922399224043617,2047,2032,1777,2064,2042,2056,1196
631,1710922399234028017,2044,2049,1878,2063,2074,2066,1195
632,1710922399244013978,2044,2052,2077,2084,2062,2047,1192
633,1710922399254021741,2094,2178,2539,2095,2088,2103,1195
634,1710922399264015889,2060,2084,2086,2083,2044,2031,1193
635,1710922399274014805,2041,2047,2121,2056,2041,2051,1197
636,1710922399284062364,2095,2131,2114,2139,2060,2046,1193
637,1710922399294015774,2065,2032,1941,2003,2043,2035,1194
638,1710922399304014279,2084,2138,2300,2074,2095,2080,1196
639,1710922399314031591,2061,2072,2042,2060,2084,2019,1193
640,1710922399324071404,2052,2059,2096,2050,2106,2089,1197
641,1710922399334035635,2068,2002,1753,2024,2040,2072,1195
642,1710922399344034812,2080,2058,1936,2053,2039,2061,1199
643,1710922399354018660,2064,2072,2052,2073,2046,2035,1192
644,1710922399364016844,2031,2049,2052,2060,2093,2082,1195
645,1710922399374023124,2041,2031,1972,2033,2056,2021,1192
646,1710922399384008465,2046,2044,2041,2068,2039,2058,1196
647,1710922399394021739,2028,2049,2044,2071,2065,2089,1196
648,1710922399404015195,2058,2053,2182,2045,2072,2036,1194
649,1710922399414019531,2020,1983,1892,2084,2045,2074,1198
650,1710922399424038767,2056,2028,1968,2055,2047,2031,1193
651,1710922399434040248,2036,2019,1989,1997,2033,2066,1194
652,1710922399444015619,2032,2024,1965,2063,2062,2029,1192
653,1710922399454019996,2065,2057,2124,2064,2083,2042,1194
654,1710922399464016308,2072,2082,2097,2020,2070,2069,1196
655,1710922399474034610,2047,2030,2008,2041,2057,2023,1195
656,1710922399484023588,2037,2024,1971,2062,2061,2068,1197
657,1710922399494025601,2054,2032,2027,2075,2067,2024,1198
658,1710922399504018806,2065,2038,2126,2047,2050,2060,1196
659,1710922399514019365,2066,2106,2094,2046,2040,2043,1193
660,1710922399524022519,2029,1958,1878,2024,2044,2080,1196
661,1710922399534033008,2053,2011,1958,1976,2039,2050,1194
662,1710922399544020202,2059,2009,2008,2074,2028,2069,1196
663,1710922399554027925,2066,2046,2080,2082,2056,2047,1193
664,1710922399564018746,2041,2032,2003,2053,2030,2024,1193
665,1710922399574019827,2064,2062,2029,2022,2049,2078,1197
666,1710922399584031266,2061,2124,2401,2101,2064,2057,1195
667,1710922399594030613,2061,2024,1967,2040,2020,2040,1196
668,1710922399604018149,2068,2095,2089,2049,2096,2042,1194
669,1710922399614017786,2034,2001,1832,2084,2096,2051,1197
670,1710922399624019948,2096,2091,2345,2060,2068,2061,1197
671,1710922399634035747,2030,2033,2012,2044,2056,2042,1195
672,1710922399644021078,2008,2062,2112,2042,2044,2043,1196
673,1710922399654017629,2120,2120,2233,2067,2056,2080,1198
674,1710922399664018199,2056,2037,1987,1998,2045,2061,1194
675,1710922399674018227,2070,2089,2156,2029,1985,2026,1193
676,1710922399684033074,2041,2031,1953,2096,2060,2055,1197
677,1710922399694017573,2109,2113,2152,2102,2076,2068,1195
678,1710922399704020346,2025,2019,1978,2098,2060,2053,1196
679,1710922399714015555,2028,2033,2084,2064,2025,2054,1197
680,1710922399724018440,2057,2056,2064,2044,2048,2060,1196
681,1710922399734024940,2052,2056,2036,2046,2029,2028,1190
682,1710922399744033475,2037,2064,2093,2038,2016,2058,1196
683,1710922399754017713,2083,2117,2360,2057,2049,2040,1193
684,1710922399764015137,2047,2035,2025,2074,2045,2038,1193
685,1710922399774015796,2068,2020,1897,2026,2015,2021,1195
686,1710922399784018219,2042,2084,2104,2046,2061,2086,1196
687,1710922399794007458,2019,2052,2066,2074,2076,2063,1197
688,1710922399804018998,2062,2041,2037,2050,1996,2036,1195
689,1710922399814014738,2043,2040,2004,2061,2056,2062,1195
690,1710922399824015067,2061,2037,1935,2047,2012,2030,1192
691,1710922399834063418,2085,2083,1978,2085,2050,2059,1198
692,1710922399844032687,2070,2056,1837,2042,2050,2049,1194
693,1710922399854015583,2040,2018,1939,2035,2009,2008,1195
694,1710922399864011534,2046,2024,1942,2092,2104,2128,1196
695,1710922399874014098,2043,1988,1920,2025,2040,2026,1192
696,1710922399884067667,2036,2025,1988,2075,2028,2036,1195
697,1710922399894027489,2028,2036,1921,2052,2051,2073,1197
698,1710922399904021897,2078,2096,2108,2060,2056,2050,1198
699,1710922399914024501,2048,2024,1912,1994,2037,2048,1196
700,1710922399924017566,2059,2038,1950,2016,2014,2031,1193
701,1710922399934019468,2033,1977,1793,2044,2024,2089,1192
702,1710922399944028944,2044,2051,2014,2060,2030,2056,1197
703,1710922399954020417,2062,2078,2056,2036,2029,2040,1193
704,1710922399964016076,2092,2255,2557,2072,2076,2080,1196
705,1710922399974017958,2061,2050,2036,2018,2030,2028,1195
706,1710922399984011595,2061,2098,2174,2064,2008,2046,1194
707,1710922399994022213,2077,2090,2396,2048,2057,2035,1194
708,1710922400004018975,2022,2054,2079,2135,2134,2116,1197
709,1710922400014014996,2018,1986,1905,2054,2040,2032,1194
710,1710922400024017690,2064,2042,1994,2075,2044,2054,1194
711,1710922400034016135,2060,2054,1949,2051,2039,2064,1197
712,1710922400044016444,2058,2053,1969,2034,2063,2032,1193
713,1710922400054023075,2075,2044,1900,2082,2064,2065,1198
714,1710922400064026050,2054,2028,1981,2059,2050,2044,1194
715,1710922400074017822,2043,2100,2196,2073,2071,2051,1195
716,1710922400084037838,2076,2064,2009,2062,2052,2042,1194
717,1710922400094021946,2007,1974,1976,2045,2069,2072,1196
718,1710922400104021905,2029,2005,1916,2012,2064,2013,1195
719,1710922400114021192,2044,2128,2272,2064,2065,2085,1196
720,1710922400124019858,2064,2077,2109,2060,2077,2045,1192
721,1710922400134017362,2044,2080,2350,2088,2062,2050,1197
722,1710922400144037047,2056,2040,1959,2024,2056,2061,1197
723,1710922400154023370,2060,2051,1984,2042,2022,2021,1194
724,1710922400164018729,2017,2001,2006,2059,2070,2045,1193
725,1710922400174019029,2033,2056,2046,2057,2067,2102,1197
726,1710922400184040508,2060,2082,2136,2013,1992,2023,1192
727,1710922400194021630,2065,2102,2122,2056,2072,2109,1195
728,1710922400204009025,2056,2043,2065,2104,2050,2022,1194
729,1710922400214016407,2069,2092,2273,2065,2057,2060,1196
730,1710922400224020102,2080,2153,2359,2080,2054,2045,1196
731,1710922400234017445,2006,1996,1904,2042,2030,2034,1194
732,1710922400244016713,2045,2027,2002,2052,2068,2061,1196
733,1710922400254019426,2056,2041,2202,2040,2041,2025,1197
734,1710922400264019735,2066,2052,1908,2036,2047,2072,1196
735,1710922400274014594,2065,2070,2065,2064,2044,2030,1193
736,1710922400284024371,2040,2056,2108,2038,2040,2050,1197
737,1710922400294020071,2063,2049,2051,2052,2045,2061,1196
738,1710922400304009249,2056,2104,2260,2057,2043,2027,1194
739,1710922400314016331,2040,2042,2030,2067,2060,2067,1196
740,1710922400324017331,2078,2088,1872,2009,1976,2047,1193
741,1710922400334016638,2056,2034,1955,2067,2048,2061,1194
742,1710922400344018299,2072,2053,1973,2053,2050,2045,1192
743,1710922400354015643,2037,2006,1888,2069,2040,2050,1196
744,1710922400364020831,2060,2068,2114,2112,2081,2064,1195
745,1710922400374020769,2071,2060,2056,2101,2058,2030,1194
746,1710922400384026749,2020,2011,1930,2030,2065,2080,1196
747,1710922400394022419,2052,2072,2051,2083,2077,2043,1194
748,1710922400404022739,2059,2066,2176,2066,2054,2040,1195
749,1710922400414017236,2062,2053,2057,2045,2051,2061,1197
750,1710922400424028205,2023,2032,1983,1988,2048,2053,1195
751,1710922400433979361,2092,2104,1997,2068,2072,2060,1198
752,1710922400444023253,2048,2030,1957,2020,2017,2044,1193
753,1710922400454599864,2066,2079,2286,2014,2056,2063,1197
754,1710922400464023560,2107,2186,2246,2085,2093,2073,1194
755,1710922400474027266,2037,2052,2148,2060,2051,2061,1197
756,1710922400484032013,1963,1920,1666,2018,2019,2040,1192
757,1710922400494034045,2076,2092,2024,2026,2046,2042,1194
758,1710922400504036448,2070,2077,2248,2050,2064,2049,1200
759,1710922400514035605,2067,2136,2226,2082,2059,2073,1196
760,1710922400524030033,2074,2144,2333,2077,2062,2052,1197
761,1710922400534030642,2021,2083,2045,2082,2042,2054,1195
762,1710922400544028617,2056,2060,2128,2005,2002,2044,1194
763,1710922400554025119,2050,2026,2016,2046,2050,2042,1195
764,1710922400564023765,2085,2127,2169,2060,2074,2077,1196
765,1710922400574022350,2091,2027,1964,2068,2053,2032,1193
766,1710922400584023110,2063,2016,1962,2058,2068,2081,1196
767,1710922400594027788,2068,2107,2129,2084,2068,2056,1196
768,1710922400604028287,2047,2043,1965,2024,2049,2040,1193
769,1710922400613978440,2052,2021,1979,2065,2056,2030,1193
770,1710922400624024276,2062,2065,2112,2031,2150,2042,1193
771,1710922400634023613,2068,2081,2214,2042,2053,2062,1197
772,1710922400644025314,2034,2029,1976,1994,2033,2038,1192
773,1710922400654053616,2071,2133,2200,2072,2076,2058,1197
774,1710922400664023819,2056,2038,2083,2047,2036,2056,1196
775,1710922400674021052,2065,2097,2158,2066,2080,2048,1197
776,1710922400684021821,2047,2036,1934,2027,2060,2046,1192
777,1710922400694023393,2041,2010,1940,2068,2060,2063,1198
778,1710922400704018973,2084,2106,2128,2042,2047,2034,1192
779,1710922400714015886,2078,2116,2172,2078,2057,2098,1194
780,1710922400724019270,2052,2032,1951,2049,2027,2025,1192
781,1710922400734015662,2113,2083,2224,2096,2062,2031,1192
782,1710922400744019428,2040,2002,2015,2026,2101,2080,1195
783,1710922400754020528,2056,2052,2093,2023,2040,2045,1196
784,1710922400764018191,2049,2040,2115,2058,2054,2042,1194
785,1710922400774017879,2042,2011,1856,2059,2072,2091,1196
786,1710922400784017267,2057,2050,1960,2019,2045,2037,1193
787,1710922400794020241,2068,2032,1981,2023,2008,2029,1193
788,1710922400804017614,2042,2016,1972,2047,2090,2112,1195
789,1710922400814016190,2056,2042,2035,2044,2026,2021,1196
790,1710922400824016219,2063,2136,2168,2061,2033,2028,1195
791,1710922400834016958,2052,2032,1998,2054,2049,2054,1198
792,1710922400844017207,2054,2017,1961,2056,2040,2040,1192
793,1710922400854018077,2053,2073,2120,2040,2032,2041,1194
794,1710922400864017334,2037,2059,2105,2065,2060,2137,1194
795,1710922400874018535,2082,2088,2122,2092,2052,2040,1193
796,1710922400884040816,2062,2145,2153,2046,2034,2057,1194
797,1710922400894021327,2085,2112,2147,2081,2077,2062,1194
798,1710922400904029260,2069,2083,2140,2102,2055,2051,1196
799,1710922400914036552,2053,2052,2126,2081,2006,2040,1194
800,1710922400924022214,2021,2116,2236,2050,2057,2078,1196
801,1710922400934022393,2064,2069,2009,2108,2061,2044,1192
802,1710922400944022501,2042,2045,2049,2058,2037,2031,1195
803,1710922400954022970,2097,2121,2320,2016,2082,2115,1195
804,1710922400964023049,2059,2069,2032,2046,2088,2041,1192
805,1710922400974021244,2054,2038,2001,2036,2034,2039,1193
806,1710922400984023306,2054,2045,2084,2058,2085,2068,1194
807,1710922400994023936,2070,2120,2315,2036,2066,2050,1196
808,1710922401004024615,2061,2053,2030,2052,2053,2045,1194
809,1710922401014025215,2062,2047,2045,2048,2030,2057,1197
810,1710922401023971090,2041,2064,2090,2049,2052,2052,1194
811,1710922401033993782,2064,2058,2004,2089,2081,2047,1194
812,1710922401043945589,2053,2009,1858,2045,2048,2052,1197
813,1710922401054027022,2054,2028,1986,2054,2032,2049,1196
814,1710922401064026569,2058,2028,1973,2057,2080,2058,1196
815,1710922401074029233,2062,2062,2124,2031,2037,2047,1194
816,1710922401083988264,2032,2021,1937,2020,2042,2045,1192
817,1710922401094040000,2075,2047,2024,2032,2030,2050,1197
818,1710922401104028045,2060,2068,2213,2050,2038,2044,1195
819,1710922401114027593,2042,2024,1993,2051,2041,2047,1194
820,1710922401124026560,2064,2076,2038,2064,2040,2014,1193
821,1710922401134032229,2037,1982,1810,2062,2047,2098,1194
822,1710922401144010516,2045,2013,1920,2069,2065,2040,1193
823,1710922401154010996,2056,2061,2197,2064,2049,2058,1195
824,1710922401164012266,2060,2019,1878,2047,2104,2022,1194
825,1710922401173987117,2041,2011,1965,2044,2072,2077,1198
826,1710922401184029074,2068,2053,2212,2083,2057,2033,1193
827,1710922401194031588,2076,2058,2046,2106,2085,2068,1196
828,1710922401204015897,2046,2012,1889,2037,2037,2047,1193
829,1710922401214032456,2048,1995,1891,2045,2036,2050,1195
830,1710922401224017877,2078,2088,2061,2076,2056,2049,1194
831,1710922401234037012,2044,2057,1992,2100,2088,2043,1193
832,1710922401244018024,2019,2035,2033,2035,2074,2089,1196
833,1710922401254037319,2017,2008,2100,2010,2057,2058,1196
834,1710922401264018532,2028,2037,2013,2053,2048,2031,1194
835,1710922401274074717,2092,2090,1854,2072,2061,2066,1196
836,1710922401284001206,2064,2047,2007,2002,2020,2012,1195
837,1710922401294021613,2061,2057,2061,2040,2032,2045,1193
838,1710922401304018856,2060,2035,1993,2052,2043,2050,1197
839,1710922401314007603,2066,2020,1869,2064,2062,2059,1197
840,1710922401323966754,2062,2088,2222,2053,2042,2041,1193
841,1710922401333981130,2047,2043,2126,2082,2015,2074,1193
842,1710922401344041212,2056,2064,2024,2046,2043,2016,1192
843,1710922401354021463,2053,2008,1948,2059,2005,2052,1196
844,1710922401364043503,2047,2032,2000,2052,2042,2046,1192
845,1710922401374028002,2052,2052,2096,2055,2056,2065,1194
846,1710922401384031928,2085,2136,2334,2077,2057,2083,1196
847,1710922401394022950,2056,2054,1971,2050,2036,2016,1194
848,1710922401404023749,2035,2019,2002,2075,2028,2049,1196
849,1710922401414014650,2064,2049,2098,2046,2060,2040,1194
850,1710922401424025910,2032,1992,1848,2141,2060,2036,1195
851,1710922401434011341,2085,2113,2145,2075,2072,2059,1197
852,1710922401444008664,2054,2036,2007,2065,2058,2047,1193
853,1710922401454008672,2047,2070,2040,2049,2035,2036,1195
854,1710922401464007920,2064,2028,1921,2004,2025,2050,1197
855,1710922401474009561,2064,2051,2014,2118,2061,2056,1195
856,1710922401484022113,2054,2046,1860,2044,2019,2035,1193
857,1710922401494020979,2056,2044,1959,2066,2029,2053,1197
858,1710922401504017652,2057,2080,2137,2057,2052,2036,1194
859,1710922401514048008,2042,2037,1981,2045,2059,2056,1195
860,1710922401524013620,2046,2055,2178,2060,2046,2054,1197
861,1710922401534014411,2049,2050,2022,2053,2032,2024,1189
862,1710922401544020060,2024,2051,2017,2037,2065,2110,1197
863,1710922401554015970,2055,2056,2058,2125,1982,2027,1192
864,1710922401564016129,2075,2122,2376,2072,2083,2101,1194
865,1710922401574018973,2068,2113,2192,2050,2029,2037,1193
866,1710922401584003031,2069,2070,2192,2043,2029,2047,1194
867,1710922401594031844,2060,2018,1970,2038,2073,2063,1197
868,1710922401604021052,2045,2092,2140,2074,2071,2080,1200
869,1710922401614024046,2071,2024,1980,2065,2080,2039,1192
870,1710922401624061606,2057,2056,2015,2057,2045,2025,1194
871,1710922401634016959,2072,2102,2399,2098,2121,2117,1196
872,1710922401644021587,2042,2027,1977,2038,2038,2046,1194
873,1710922401654019191,2051,2021,1931,2035,2089,2060,1196
874,1710922401664022194,2054,2072,2258,2164,2099,2074,1196
875,1710922401674022283,2061,2047,2015,2046,2040,2036,1195
876,1710922401684018504,2052,2058,2080,2068,2046,2045,1192
877,1710922401694024033,2064,2132,2244,2095,2092,2064,1197
878,1710922401704037036,2038,2063,2064,2070,2057,2066,1197
879,1710922401714018379,2065,2024,1885,2048,2036,2066,1194
880,1710922401724027876,2034,2028,2038,2083,2048,2035,1193
881,1710922401734031361,2052,2026,2028,2060,2033,2071,1196
882,1710922401744020208,2040,2053,2092,2078,2078,2082,1196
883,1710922401754017812,2028,2011,2003,2057,2051,2040,1193
884,1710922401764017690,2048,2043,2052,2047,2036,2021,1193
885,1710922401774018320,2056,2049,1986,2053,2044,2064,1196
886,1710922401784036813,2050,2008,1883,2042,2035,2032,1190
887,1710922401794016012,2070,2001,1876,2024,2077,2052,1197
888,1710922401804018806,2045,2052,2065,1985,2046,2034,1194
889,1710922401814022571,2090,2196,2761,2029,2086,2096,1195
890,1710922401824018061,2052,2017,1989,2036,2006,2027,1193
891,1710922401834020995,2042,2070,2011,2046,2085,2082,1196
892,1710922401844020783,2033,2083,2360,2048,2040,2032,1192
893,1710922401854023887,2056,2048,2108,2041,2060,2063,1197
894,1710922401864020078,2044,2047,1978,2066,2055,2043,1192
895,1710922401873998145,2053,2072,2094,2050,2030,2060,1198
896,1710922401884017470,2064,2068,1963,2048,2058,2049,1197
897,1710922401894036084,2056,2054,2033,2072,2036,2070,1196
898,1710922401904033337,2085,2120,2116,2058,2057,2057,1197
899,1710922401914033316,2047,2002,1900,2056,2052,2072,1196
900,1710922401924030639,2046,2030,2018,2040,2048,2044,1193
901,1710922401934027230,2074,2056,2013,2076,2066,2089,1195
902,1710922401944049902,2050,2054,2261,2070,2014,2021,1192
903,1710922401954032117,2044,1992,1882,2043,2068,2084,1196
904,1710922401964036564,2016,1986,1964,2064,2052,2051,1197
905,1710922401974030380,2056,1998,1742,2040,2056,2048,1196
906,1710922401984048022,2044,2046,2056,2048,2030,2036,1193
907,1710922401994040567,2052,2041,2038,2049,2037,2052,1195
908,1710922402004032780,2050,2021,1969,2027,2015,2046,1192
909,1710922402014050231,2046,2100,2227,2047,2040,2018,1192
910,1710922402024029681,2091,2152,2245,2042,2105,2098,1198
911,1710922402034029188,2048,2044,2009,2064,2032,2024,1193
912,1710922402044042882,2065,2077,1978,2032,2042,2044,1194
913,1710922402054031229,2067,2074,2049,2058,2062,2066,1196
914,1710922402064027280,2054,2013,1816,2056,2014,2063,1196
915,1710922402074022339,2059,2045,1992,2030,2026,2040,1193
916,1710922402084022077,2028,2066,2175,2068,2062,2044,1192
917,1710922402094022967,2076,2060,2016,2027,2073,2048,1193
918,1710922402104030129,2048,2055,2126,2033,2032,2029,1194
919,1710922402114024256,2046,2081,2208,2050,2072,2073,1196
920,1710922402124020788,2024,2012,1976,2054,2056,2027,1193
921,1710922402134019554,2056,2028,1976,2077,2076,2056,1196
922,1710922402144022067,2032,2041,2015,2032,2046,2048,1196
923,1710922402154029950,2102,2074,1992,2045,2018,2037,1194
924,1710922402164044907,2068,2050,2056,2029,2079,2107,1195
925,1710922402174021180,2056,2026,1992,2045,2021,2033,1192
926,1710922402184019616,2053,2040,1978,2072,2050,2041,1192
927,1710922402194022219,2036,2000,1940,2056,2038,2092,1194
928,1710922402204018390,2040,2021,1933,2025,2034,2028,1193
929,1710922402214021003,2021,2008,1924,2039,2038,2051,1194
930,1710922402224019189,2060,2081,2194,2074,2036,2019,1193
931,1710922402234018496,2065,2052,2028,2049,2080,2050,1195
932,1710922402244023203,2098,2108,2402,2076,2048,2036,1194
933,1710922402254021067,2043,2052,2235,2069,2094,2106,1197
934,1710922402264033500,2035,2034,2044,2100,2054,2034,1194
935,1710922402274032536,2082,2117,2285,2069,2040,2050,1194
936,1710922402284038395,2051,2072,2088,2060,2051,2065,1197
937,1710922402294085003,2037,2005,1687,2073,2059,2038,1193
938,1710922402304029686,2024,2047,2024,2060,2070,2047,1192
939,1710922402314026738,2105,2104,2137,2052,2045,2057,1194
940,1710922402324025694,2051,2042,2077,2064,2038,2019,1193
941,1710922402334024431,2014,2000,2017,2109,2092,2089,1193
942,1710922402344033857,2054,2052,2060,2038,2042,2040,1192
943,1710922402354024688,2069,2076,2473,2049,2035,2041,1194
944,1710922402364028844,2053,2056,2178,2084,2020,2064,1196
945,1710922402374028012,2056,2042,1967,2027,2068,2044,1193
946,1710922402384033670,2026,2011,1925,2001,2002,2004,1193
947,1710922402394048036,2045,2078,2166,2052,2080,2060,1197
948,1710922402404033707,2070,2058,1893,2081,2080,2072,1196
949,1710922402414035810,2057,2042,2008,2072,2058,2055,1196
950,1710922402424036149,2042,2030,1985,2053,2063,2048,1196
951,1710922402434037149,2041,2009,1928,2060,2042,2052,1195
952,1710922402444047788,2081,2068,2289,2064,2064,2065,1197
953,1710922402454033739,2046,2030,2007,2056,2049,2045,1195
954,1710922402464039007,2066,2080,2191,2080,2056,2052,1197
955,1710922402474038455,2054,2061,2096,2065,2045,2059,1196
956,1710922402484041038,2050,2044,1938,2037,2053,2049,1197
957,1710922402494038091,2061,2078,2080,2015,2075,2066,1197
958,1710922402504031697,2065,2064,2017,2036,2043,2038,1194
959,1710922402514037005,2060,2079,2198,2042,2056,2080,1195
960,1710922402524039860,2048,2055,2077,2069,2052,2041,1194
961,1710922402534038425,2092,2120,2225,2073,2018,2078,1193
962,1710922402544040948,2056,2043,1994,2062,2060,2047,1193
963,1710922402554045174,2063,2040,2024,2053,2049,2029,1192
964,1710922402564041196,2027,2012,1996,2065,2078,2120,1196
965,1710922402574029682,2056,2046,2052,2072,2026,2021,1194
966,1710922402584051842,2082,2154,2417,2074,2077,2089,1196
967,1710922402594050528,2057,2064,2009,2032,2061,2042,1192
968,1710922402604035168,2082,2056,2114,2068,2052,2048,1195
969,1710922402614026710,2010,1994,1985,2013,2037,2062,1196
970,1710922402624050503,2064,2042,2010,2021,2038,2072,1196
971,1710922402634031475,2089,2033,1966,2038,2034,2027,1193
972,1710922402644027597,2072,2107,2278,2073,2079,2117,1197
973,1710922402654031853,2051,2106,2300,2012,2008,2035,1194
974,1710922402664041680,2053,2020,1928,2030,2022,2024,1193
975,1710922402674030347,2031,2054,2072,2061,2047,2059,1195
976,1710922402684034634,2067,2059,2356,2052,2052,2047,1193
977,1710922402694052666,2057,2056,2036,2031,2024,2039,1193
978,1710922402704043677,2050,2031,2004,2048,2057,2068,1197
979,1710922402714024881,2038,2024,2070,2074,1992,2022,1193
980,1710922402724046791,2058,2093,2226,2057,2064,2076,1194
981,1710922402734028524,2044,2065,2186,2061,2052,2038,1191
982,1710922402744029053,2051,2056,2099,2040,2038,2050,1197
983,1710922402754047978,2070,2100,2103,2066,2041,2091,1197
984,1710922402764028710,2047,2090,2256,2033,2042,2034,1195
985,1710922402774030742,2042,2024,1989,2038,2056,2054,1196
986,1710922402784029527,2069,2058,1992,2039,2020,2030,1196
987,1710922402794038003,2081,2074,2120,2050,2040,2046,1194
988,1710922402804041858,2043,2082,2181,2080,2052,2070,1198
989,1710922402814024253,2053,2046,2246,2122,2061,2047,1193
990,1710922402824024091,2034,2054,2020,2052,2057,2049,1197
991,1710922402834027546,2072,2082,2099,2074,2035,2060,1197
992,1710922402844027524,2032,2009,1934,2034,2040,2061,1197
993,1710922402854020219,2066,2085,2073,2030,2056,2030,1193
994,1710922402864096152,2035,2040,2052,2047,2056,2053,1197
995,1710922402874023633,2090,2017,1966,2041,2052,2024,1194
996,1710922402884025855,2067,2069,2110,2131,2114,2088,1197
997,1710922402894030542,2047,2029,1972,2042,2030,2048,1194
998,1710922402904067821,2099,2128,2201,2063,2060,2059,1194
999,1710922402914065826,2058,2027,2004,2040,2080,2050,1195
1000,1710922402924024876,2032,2003,1956,2059,2043,2043,1192
1001,1710922402934026949,2061,2024,1992,2086,2080,2089,1193
1002,1710922402944026917,2034,2052,2016,2050,2045,2043,1194
1003,1710922402954040722,2072,2089,2204,2064,2056,2082,1197
1004,1710922402964030260,2054,2032,2042,2045,2034,2052,1195
1005,1710922402974032362,2003,2000,2000,2040,2044,2083,1195
1006,1710922402984036609,2046,2044,2036,2044,2058,2026,1196
1007,1710922402994030997,2074,2103,2142,2050,2041,2059,1197
1008,1710922403004032177,2032,2000,1908,2026,2049,2036,1193
1009,1710922403014035712,2062,2033,2040,2028,2040,2034,1194
1010,1710922403024025081,2109,2065,2060,2056,2053,2077,1197
1011,1710922403034018777,2033,1994,1942,2035,2037,2034,1194
1012,1710922403044017383,2049,2093,2060,2042,2053,2028,1192
1013,1710922403054017171,2054,2098,2145,2064,2045,2076,1198
1014,1710922403064018272,2041,2099,2134,2069,2035,2026,1192
1015,1710922403074020724,2081,2102,2177,2107,2075,2070,1193
1016,1710922403084017647,2065,2016,1954,2046,2052,2033,1193
1017,1710922403094014950,2045,2040,1940,2064,2044,2075,1197
1018,1710922403104021351,2057,2049,2052,2038,2062,2033,1193
1019,1710922403114021890,2044,2064,2022,2038,2066,2063,1195
1020,1710922403124020335,2057,2056,2121,2038,2007,2049,1195
1021,1710922403134019372,2028,2021,2031,2032,2010,2019,1193
1022,1710922403144017227,2042,2016,1952,2046,2077,2082,1195
1023,1710922403154018938,2060,2044,2026,2037,2057,2033,1192
1024,1710922403164027122,2054,2114,2353,2078,2067,2076,1196
1025,1710922403174021009,2060,2036,2056,2058,2018,2037,1192
1026,1710922403184019044,2017,2043,2116,2037,2043,2009,1193
1027,1710922403194020354,2064,2079,2053,2081,2084,2112,1196
1028,1710922403204022296,2062,2073,2147,2060,2044,2033,1195
1029,1710922403214012206,2049,2048,2054,2042,2031,2054,1197
1030,1710922403224020360,2051,2154,2336,2044,2066,2067,1196
1031,1710922403234015739,2033,2045,2114,2040,2074,2057,1196
1032,1710922403244016720,2061,2028,1890,2052,2074,2050,1195
1033,1710922403254017810,2053,2031,2039,2056,2053,2050,1195
1034,1710922403264022247,2057,2056,2029,2033,2054,2056,1197
1035,1710922403274014089,2055,2025,1851,2061,2055,2059,1197
1036,1710922403284025310,2032,2019,1916,2028,2054,2016,1193
1037,1710922403294018655,2021,1972,1914,2043,2081,2140,1195
1038,1710922403304018393,2048,2040,2024,2029,1973,2017,1193
1039,1710922403314034922,2040,2050,2138,2072,2056,2046,1195
1040,1710922403324017017,2073,2094,2157,2040,2081,2069,1196
1041,1710922403334022226,2045,2042,2009,2051,2028,2009,1192
1042,1710922403344017505,2044,2018,1926,2058,2057,2077,1195
1043,1710922403354016171,2056,2058,2080,2035,2033,2015,1193
1044,1710922403364023092,2053,2057,2088,2052,2040,2042,1194
1045,1710922403374016178,2035,2071,2131,2050,2047,2053,1197
1046,1710922403384032857,2065,2093,2097,2065,2068,2080,1199
1047,1710922403394026183,2046,2043,2027,2026,2040,2025,1192
1048,1710922403404026282,2052,2045,1996,2047,2047,2025,1195
1049,1710922403414023395,2044,1997,1925,2088,2074,2132,1196
1050,1710922403424013384,2047,2017,1956,2022,2008,2019,1194
1051,1710922403434021107,2044,2034,1981,2016,2033,2028,1194
1052,1710922403444018481,2075,2043,1989,2055,2024,2057,1193
1053,1710922403454019100,2081,2108,2013,2061,2051,2064,1196
1054,1710922403464020030,2035,2049,1984,2049,2039,2021,1197
1055,1710922403474017484,2061,2103,2150,2044,2043,2047,1196
1056,1710922403484022682,2046,2090,2200,2083,2091,2065,1197
1057,1710922403494021388,2092,2126,2510,2070,2066,2068,1197
1058,1710922403504021777,2087,2072,2026,2057,2040,2062,1196
1059,1710922403514018198,2038,2033,2009,2059,2064,2038,1193
1060,1710922403524016434,2069,2084,2209,2021,2094,2063,1197
1061,1710922403534016813,2056,2044,1987,2021,2024,2052,1194
1062,1710922403544018334,2077,2086,2144,2050,2057,2061,1197
1063,1710922403554018232,2068,2160,2519,2066,2077,2044,1194
1064,1710922403564011648,2042,2029,2062,2056,2046,2056,1196
1065,1710922403574018820,2064,2041,1946,2029,2047,2037,1193
1066,1710922403584032434,2026,2026,1954,2064,2024,2051,1196
1067,1710922403594019047,2049,2028,2000,2052,2069,2041,1196
1068,1710922403604028043,2061,2040,2013,2072,2026,2025,1194
1069,1710922403614020317,2110,2234,2560,2061,2074,2120,1198
1070,1710922403624019273,2074,2060,2112,2065,2072,2041,1192
1071,1710922403634016036,2054,2088,2042,2078,2061,2070,1197
1072,1710922403644050459,2059,2054,2133,2070,2052,2034,1194
1073,1710922403654018547,2057,2064,2073,2042,2057,2067,1197
1074,1710922403664019567,2042,2171,2681,2080,2066,2032,1192
1075,1710922403674016871,2057,2074,2109,2085,2065,2049,1194
1076,1710922403684018352,2055,2025,1945,2043,2046,2036,1196
1077,1710922403694022688,2057,2056,2220,2064,2068,2057,1195
1078,1710922403704032054,2029,2033,1812,2020,2039,2029,1193
1079,1710922403714017195,2080,2067,2015,2055,2058,2047,1193
1080,1710922403724013045,2077,2053,1944,2069,2050,2061,1196
1081,1710922403734013344,2052,2089,2116,2059,2095,2043,1193
1082,1710922403744013964,2060,2000,1830,2017,2057,2080,1196
1083,1710922403754020585,2028,1986,1922,2082,2024,2000,1192
1084,1710922403763993522,2059,2112,2488,2078,2080,2138,1197
1085,1710922403774027514,2062,2052,1964,2076,2024,2023,1194
1086,1710922403784019939,2089,2048,2048,2049,2044,2036,1194
1087,1710922403793968490,2070,2074,2064,2064,2064,2128,1197
1088,1710922403804001901,2044,2049,2120,2059,2033,2034,1193
1089,1710922403814018951,2058,2068,2072,2072,2037,2045,1194
1090,1710922403824020082,2051,2083,2317,2062,2106,2052,1198
1091,1710922403834018247,2070,2078,2154,2085,2052,2059,1198
1092,1710922403844016743,2036,2041,2030,2083,2046,2037,1193
1093,1710922403854031178,2028,2008,1828,2072,2046,2050,1197
1094,1710922403864006190,2047,1996,1918,2068,2049,2022,1192
1095,1710922403874022018,2054,2041,2016,2048,2038,2047,1192
1096,1710922403884039119,2052,2076,2209,2064,2053,2050,1197
1097,1710922403894055829,2042,2061,2046,2009,2083,2048,1197
1098,1710922403903970335,2040,2042,2026,2043,2048,2042,1195
1099,1710922403914032872,2044,2060,2124,2053,2070,2062,1196
1100,1710922403924022681,2066,2036,1971,2018,2056,2032,1194
1101,1710922403934025875,2054,2003,1901,2024,2032,2043,1192
1102,1710922403944023930,2050,2050,2013,2061,2062,2036,1194
1103,1710922403954028788,2060,2041,2014,2064,2030,2065,1197
1104,1710922403964026271,2072,2014,2129,2050,2034,2050,1197
1105,1710922403974023635,2056,2028,1789,2053,2041,2053,1193
1106,1710922403984022030,2067,2069,2148,2047,2069,2085,1196
1107,1710922403994022429,2049,2031,1976,2064,2060,2036,1192
1108,1710922404004031915,2069,2144,2273,2062,2060,2066,1197
1109,1710922404014018588,2036,2018,1925,2066,2033,2041,1194
1110,1710922404024022234,2056,2064,1985,2039,2025,2029,1191
1111,1710922404034019748,2061,2064,2138,2057,2052,2084,1197
1112,1710922404044020066,2077,2123,2400,2062,2070,2070,1197
1113,1710922404054035564,2058,2043,1971,2030,2046,2024,1193
1114,1710922404064011768,2021,1997,1961,2085,2084,2117,1195
1115,1710922404074029119,2057,2052,2044,1992,2024,2021,1193
1116,1710922404084026031,2029,2012,1838,2051,2034,2043,1193
1117,1710922404094024537,2068,2021,1990,2037,2047,2029,1194
1118,1710922404103996653,2029,2013,1910,2034,2050,2057,1196
1119,1710922404114024093,2041,2021,1985,2050,2050,2037,1192
1120,1710922404124020805,2070,2070,2113,2056,2064,2066,1196
1121,1710922404134019441,2057,2112,2267,2062,2063,2056,1193
1122,1710922404144022956,2053,2053,2065,2053,2043,2044,1194
1123,1710922404154026832,2070,2092,2157,2073,2072,2061,1196
1124,1710922404164024726,2041,2017,1969,2052,2036,2028,1193
1125,1710922404174021739,2053,2104,2152,2061,2104,2128,1198
1126,1710922404184038449,2040,2051,2056,2060,2044,2032,1194
1127,1710922404194029771,2088,2161,2315,2065,2054,2069,1196
1128,1710922404204019389,2061,2128,2351,2060,2060,2041,1194
1129,1710922404213979092,2064,2033,2001,2049,2043,2027,1192
1130,1710922404224023725,2076,2104,2060,2000,2047,2052,1195
1131,1710922404234023472,2042,2034,2001,2091,2023,2020,1193
1132,1710922404244050292,2042,2014,1935,2001,2024,2041,1194
1133,1710922404254021696,2046,2036,2062,2054,2062,2062,1196
1134,1710922404264026053,2076,2097,2106,2061,2075,2068,1197
1135,1710922404274030579,2026,1988,1650,2028,2042,2016,1193
1136,1710922404284036570,2075,2052,1975,2047,2069,2084,1195
1137,1710922404294035957,2045,2028,2018,2048,2084,2039,1191
1138,1710922404304026707,2031,1992,1907,2048,2042,2057,1194
1139,1710922404314027467,2060,2080,2143,2054,2052,2036,1193
1140,1710922404324043276,2073,2093,2116,2067,2052,2060,1196
1141,1710922404334028015,2030,1981,1896,2037,2035,2036,1192
1142,1710922404344028214,2051,2018,1950,2035,2042,2044,1192
1143,1710922404354031488,2031,2050,2036,2045,2047,2042,1194
1144,1710922404364006740,2065,2041,2101,2052,2058,2056,1197
1145,1710922404374029121,2056,2084,2157,2049,2052,2053,1197
1146,1710922404384028798,2056,2102,2196,2069,2060,2047,1196
1147,1710922404394055978,2072,2042,2008,2056,2060,2046,1196
1148,1710922404404030178,2055,2050,2146,2047,2042,2052,1197
1149,1710922404414031088,2057,2076,2313,2057,2052,2043,1194
1150,1710922404424030124,2054,2042,2000,2080,2061,2040,1195
1151,1710922404434030453,2058,2044,1990,2047,2037,2049,1197
1152,1710922404444042014,2045,2032,2004,2056,2039,2019,1196
1153,1710922404454008549,2078,2122,2202,2047,2067,2108,1198
1154,1710922404463959825,2037,1994,1879,2042,2037,2023,1193
1155,1710922404474033833,2074,2106,2260,2076,2077,2070,1197
1156,1710922404484033661,2045,2054,2011,2084,2061,2050,1196
1157,1710922404494057034,2059,2082,2181,2101,2065,2056,1197
1158,1710922404504032866,2044,2057,2045,2049,2053,2040,1194
1159,1710922404514034418,2040,2010,1953,2044,2065,2053,1195
1160,1710922404524034947,2061,2022,1862,2017,2041,2040,1193
1161,1710922404534035767,2060,2116,2170,2061,2093,2112,1196
1162,1710922404544036387,2042,2036,2024,2047,2046,2025,1195
1163,1710922404554035012,2066,2063,2113,2064,2045,2039,1193
1164,1710922404564015985,2087,2061,1994,2084,2072,2085,1197
1165,1710922404574015793,2021,1998,1942,2044,2044,2100,1197
1166,1710922404583999691,2068,2055,2062,2066,2043,2022,1196
1167,1710922404593963450,2056,2052,2088,2034,2056,2114,1197
1168,1710922404604010158,2055,2050,2072,2059,2049,2036,1194
1169,1710922404614019874,2047,2020,1970,2038,2037,2025,1193
1170,1710922404624019612,2083,2104,2160,2060,2059,2068,1196
1171,1710922404634018618,2057,2059,2014,2051,2043,2051,1195
1172,1710922404644021222,2035,2042,1987,2028,2053,2066,1196
1173,1710922404654019657,2076,2148,2331,2048,2044,2058,1196
1174,1710922404664022721,2054,2024,1945,2038,2038,2024,1193
1175,1710922404674020576,2052,2044,2030,2060,2047,2055,1198
1176,1710922404684041835,2046,2033,2019,2041,2029,2041,1193
1177,1710922404694022536,2050,2074,2084,2056,2068,2046,1194
1178,1710922404704041611,2082,2026,1890,2066,2029,2036,1196
1179,1710922404714027092,2060,2032,1949,2059,2083,2066,1192
1180,1710922404724025968,2058,2035,2040,2045,2036,2025,1194
1181,1710922404734024083,2049,2084,2408,2060,2064,2098,1194
1182,1710922404744037436,2052,2038,2017,2063,2051,2034,1193
1183,1710922404753982231,2044,2037,2013,2058,2049,2024,1192
1184,1710922404763957402,2049,2041,2014,2040,1981,2105,1197
1185,1710922404773929106,2052,2045,2049,2042,2021,2026,1193
1186,1710922404784022192,2039,2015,1881,2049,2041,2032,1194
1187,1710922404794010257,2033,2027,1878,2052,2075,2067,1198
1188,1710922404804019663,2049,2038,2000,2040,2049,2044,1193
1189,1710922404814017768,2076,2089,2101,2070,2065,2088,1196
1190,1710922404824018087,2026,2026,2093,2047,2035,2014,1193
1191,1710922404833993188,2060,2050,2096,2059,2118,2097,1197
1192,1710922404844013445,2056,2033,1990,2042,2030,2054,1196
1193,1710922404854022059,2071,2134,2490,2041,2045,2066,1198
1194,1710922404864025695,2054,2056,1975,2040,2044,2028,1192
1195,1710922404874022548,2054,2020,1989,2039,2050,2056,1195
1196,1710922404884026443,2016,1976,1911,2035,2052,2082,1196
1197,1710922404894014038,2048,2055,2108,2058,2058,2028,1194
1198,1710922404904024797,2045,2106,2376,2037,2056,2043,1193
1199,1710922404914022992,2052,2037,1980,2033,2061,2058,1195
1200,1710922404924023241,2064,2040,1968,2056,2048,2057,1195
1201,1710922404934030342,2046,1992,1771,2035,2052,2030,1192
1202,1710922404944025452,2040,2026,1982,2024,2028,2033,1194
1203,1710922404954029047,2056,2057,2019,2047,2032,2028,1192
1204,1710922404964017683,2043,2056,2022,2067,2152,2106,1196
1205,1710922404974019095,2048,2022,1941,2064,2030,2032,1195
1206,1710922404984010076,2036,2041,1992,2071,2056,2039,1194
1207,1710922404994017699,2056,2013,1847,2047,2050,2049,1195
1208,1710922405004025552,2044,2025,1830,2058,2052,2032,1193
1209,1710922405014026372,2043,2096,2282,2062,2077,2085,1197
1210,1710922405024019608,2052,2082,2036,2057,2045,2036,1192
1211,1710922405034023794,2060,2035,1925,2053,2056,2076,1198
1212,1710922405044016709,2043,2026,1934,2049,2027,2008,1195
1213,1710922405054021997,2050,2016,1988,2051,1995,2043,1195
1214,1710922405064025733,2056,2048,2063,2064,2059,2075,1197
1215,1710922405074029398,2057,2042,2009,2056,2051,2052,1196
1216,1710922405084018606,2077,2043,2082,2057,2040,2025,1195
1217,1710922405094006611,2062,2045,2046,2084,2092,2096,1196
1218,1710922405104017571,2044,2047,2053,2046,2039,2037,1194
1219,1710922405114019032,2033,2033,2018,2048,2046,2054,1198
1220,1710922405123960870,2060,2065,2111,2073,2049,2044,1194
1221,1710922405134027114,2028,2015,1903,2046,2045,2030,1190
1222,1710922405144023245,2090,2134,2196,2081,2097,2127,1196
1223,1710922405154023544,2056,2042,2019,2052,2024,2007,1193
1224,1710922405164026708,2018,2009,1842,2041,2052,2051,1196
1225,1710922405174023901,2068,2034,1958,2057,2047,2037,1193
1226,1710922405184033308,2045,2047,2033,2052,2049,2050,1195
1227,1710922405193968473,2082,2080,2025,2070,2053,2067,1194
1228,1710922405204023506,2032,2020,1959,2052,2049,2041,1193
1229,1710922405214026379,2042,2010,1922,2060,2052,2065,1194
1230,1710922405224021239,2055,2054,2104,2044,2050,2044,1195
1231,1710922405234038139,2048,2023,1932,2064,2033,2034,1195
1232,1710922405244024892,2052,2088,2323,2073,2097,2117,1198
1233,1710922405254020171,2050,2011,1938,2047,2019,2010,1195
1234,1710922405264022184,2047,2060,2043,2064,2059,2047,1195
1235,1710922405274021681,2085,2135,2296,2072,2073,2068,1197
1236,1710922405284033872,2059,2039,2051,2047,2048,2046,1195
1237,1710922405294010687,2088,2128,2327,2077,2066,2072,1197
1238,1710922405304024953,2064,2069,1976,2058,2052,2053,1196
1239,1710922405314022556,2044,2054,2006,2058,2045,2043,1194
1240,1710922405324018426,2037,2022,1906,2054,2062,2068,1195
1241,1710922405334026070,2052,2033,1986,2052,2041,2042,1192
1242,1710922405344027140,2044,2092,2128,2059,2051,2041,1194
1243,1710922405354020947,2053,2016,1874,2061,2066,2072,1196
1244,1710922405364020323,2044,2027,1978,2048,2050,2044,1193
1245,1710922405374020313,2068,2045,2000,2049,2036,2044,1194
1246,1710922405384053173,2051,2112,2334,2058,2072,2065,1197
1247,1710922405394023615,2059,2053,2085,2056,2051,2044,1193
1248,1710922405404022993,2075,2037,1869,2047,2046,2053,1197
1249,1710922405414021168,2065,2043,2018,2090,2070,2058,1195
1250,1710922405424022488,2060,2065,2058,2057,2054,2042,1193
1251,1710922405434027276,2084,2121,2292,2088,2091,2099,1196
1252,1710922405444045198,2092,2047,1999,2051,2034,2017,1191
1253,1710922405454024197,2056,2040,2026,2047,2045,2050,1197
1254,1710922405464020668,2035,2077,2168,2054,2053,2042,1195
1255,1710922405474021067,2052,2025,2007,2057,2063,2076,1196
1256,1710922405483975249,2076,2074,2288,2056,2050,2037,1192
1257,1710922405494019061,2042,2040,2064,2056,2049,2044,1194
1258,1710922405504022185,2077,2089,2107,2066,2065,2064,1197
1259,1710922405514021662,2052,2033,1988,2053,2040,2032,1195
1260,1710922405524020218,2047,2080,2124,2064,2081,2093,1197
1261,1710922405534035686,2042,2024,1959,2046,2058,2045,1192
1262,1710922405544025575,2050,2023,1945,2054,2054,2043,1193
1263,1710922405554020894,2078,2138,2339,2078,2088,2085,1196
1264,1710922405564018639,2050,2044,1979,2050,2039,2051,1196
1265,1710922405574021833,2049,2008,1865,2052,2043,2024,1193
1266,1710922405584012363,2037,2037,2039,2052,2060,2064,1196
1267,1710922405593975732,2032,2018,1928,2049,2056,2038,1196
1268,1710922405604026818,2098,2161,2296,2058,2062,2061,1196
1269,1710922405614023209,2062,2020,1781,2066,2088,2041,1194
1270,1710922405624026273,2028,2029,1951,2041,2077,2040,1194
1271,1710922405634032593,2040,2047,2066,2046,2045,2034,1196
1272,1710922405644021772,2072,2046,2050,2064,2056,2088,1197
1273,1710922405653993857,2054,2048,2077,2065,2052,2035,1194
1274,1710922405664024974,2064,2046,1986,2059,2052,2057,1197
1275,1710922405674027557,2049,2037,2018,2062,2062,2071,1197
1276,1710922405683992379,2056,2052,2051,2047,2055,2037,1193
1277,1710922405693990083,2046,2030,1982,2056,2052,2057,1197
1278,1710922405704034666,2036,2010,1966,2057,2052,2043,1194
1279,1710922405714035115,2060,2025,1994,2054,2023,2056,1197
1280,1710922405724015246,2049,2029,1922,2046,2030,2037,1194
1281,1710922405733996259,2041,2052,2020,2056,2044,2057,1194
1282,1710922405744037234,2062,2064,2084,2054,2063,2049,1197
1283,1710922405753978762,2060,2022,1939,2058,2047,2056,1197
1284,1710922405764031250,2056,2049,1972,2061,2050,2053,1195
1285,1710922405774031389,2045,2037,2084,2051,2043,2052,1197
1286,1710922405784051785,2060,2096,2224,2067,2064,2055,1197
1287,1710922405794032828,2064,2041,2000,2053,2082,2044,1192
1288,1710922405804037846,2064,2096,2138,2073,2102,2084,1198
1289,1710922405814039017,2050,2028,2008,2045,2024,2029,1194
1290,1710922405824039646,2013,2004,1960,2048,2046,2046,1193
1291,1710922405834071865,2046,2027,1992,2034,2040,2042,1193
1292,1710922405844010318,2090,2092,2036,2058,2061,2053,1197
1293,1710922405854030975,2013,2019,2068,2049,2054,2073,1196
1294,1710922405864031774,2050,2033,2034,2040,2059,2052,1196
1295,1710922405874018568,2050,2037,1986,2044,2051,2056,1196
1296,1710922405884041610,2042,2039,2032,2046,2045,2054,1196
1297,1710922405894047339,2039,2017,1931,2034,2054,2040,1193
1298,1710922405904037829,2068,2124,2337,2064,2057,2044,1194
1299,1710922405914039651,2053,2062,2156,2056,2052,2060,1196
1300,1710922405924024361,2055,2028,1885,2060,2069,2028,1193
1301,1710922405934039248,2064,2061,1986,2077,2068,2058,1192
1302,1710922405944049405,2046,2049,2024,2043,2046,2046,1191
1303,1710922405954008106,2081,2122,2140,2049,2037,2031,1193
1304,1710922405964023503,2047,2027,2015,2065,2112,2106,1198
1305,1710922405974026226,2043,2027,2006,2053,2042,2025,1193
1306,1710922405984041333,2053,2042,2006,2049,2049,2050,1197
1307,1710922405994044629,2065,2021,1805,2062,2047,2049,1195
1308,1710922406004041821,2068,2106,2223,2085,2100,2064,1196
1309,1710922406014028765,2052,2036,2009,2053,2047,2052,1196
1310,1710922406024066304,2053,2061,2054,2048,2053,2047,1194
1311,1710922406034046385,2044,2024,1898,2054,2050,2046,1194
1312,1710922406044029091,2040,2045,2150,2041,2048,2060,1196
1313,1710922406054024270,2044,2034,2074,2048,2059,2053,1194
1314,1710922406064025831,2057,2070,2092,2054,2040,2045,1195
1315,1710922406074032142,2031,2021,1956,2064,2042,2040,1192
1316,1710922406084059071,2057,2028,2220,2065,2060,2065,1196
1317,1710922406094004616,2057,2026,1840,2053,2025,2049,1196
1318,1710922406104027739,2077,2018,1946,2069,2107,2053,1193
1319,1710922406114024952,2086,1942,1773,2049,2024,2044,1194
1320,1710922406124025491,2065,2020,1989,2040,1980,2034,1194
1321,1710922406134049735,2039,2030,2037,2036,2022,2042,1191
1322,1710922406144029195,2052,2011,1864,2040,2054,2045,1192
1323,1710922406154026398,2033,2000,1897,2051,2037,2045,1192
1324,1710922406164030003,2034,2033,1960,2045,2058,2072,1196
1325,1710922406174026184,2053,2074,2072,2067,2062,2029,1193
1326,1710922406184070206,2040,2045,2092,2044,2070,2057,1197
1327,1710922406194053272,2044,2035,1944,2055,2070,2067,1196
1328,1710922406204026891,2022,2042,1988,2048,2042,2040,1195
1329,1710922406214029464,2061,2094,2225,2052,2050,2040,1194
1330,1710922406224030564,2076,2142,2372,2075,2054,2070,1196
1331,1710922406234029621,2047,2047,2185,2053,2043,2054,1195
1332,1710922406244024079,2061,2068,2102,2033,2025,2016,1193
1333,1710922406254039106,2050,2042,2008,2052,2038,2075,1195
1334,1710922406264025348,2064,2116,2156,2052,2046,2041,1192
1335,1710922406274025046,2044,2043,2054,2047,2046,2036,1194
1336,1710922406284057536,2053,2000,1912,2056,2065,2053,1195
1337,1710922406294029100,2046,2020,1989,2048,2035,2041,1192
1338,1710922406304028017,2040,2013,1924,2043,2038,2065,1195
1339,1710922406314028526,2048,2041,1952,2039,2044,2034,1193
1340,1710922406324028354,2048,2035,2035,2060,2065,2053,1195
1341,1710922406334031408,2068,2077,2083,2058,2055,2044,1189
1342,1710922406344032038,2046,2046,2020,2049,2040,2046,1193
1343,1710922406354032176,2054,2037,2064,2044,2040,2030,1194
1344,1710922406364027235,2059,2092,2208,2057,2051,2067,1196
1345,1710922406374027905,2058,2074,2093,2060,2060,2052,1195
1346,1710922406384045727,2039,2016,2001,2049,2047,2044,1192
1347,1710922406394031168,2050,2038,2044,2056,2053,2048,1194
1348,1710922406404032208,2036,2035,2060,2044,2035,2033,1192
1349,1710922406414028830,2072,2072,2064,2046,2034,2050,1195
1350,1710922406424027897,2056,2044,2010,2048,2042,2036,1196
1351,1710922406434042784,2050,2037,2017,2056,2056,2048,1196
1352,1710922406444040788,2049,2026,1980,2046,2024,2027,1196
1353,1710922406454033883,2067,2045,2013,2066,2068,2124,1197
1354,1710922406463959691,2047,2042,2026,2044,2033,2021,1196
1355,1710922406473991911,2050,2024,2024,2050,2041,2041,1194
1356,1710922406484033938,2057,2044,2040,2052,2056,2053,1197
1357,1710922406494016373,2042,2034,1945,2043,2041,2043,1194
1358,1710922406504016352,2037,2016,1887,2034,2046,2015,1194
1359,1710922406514017072,2070,2101,2231,2076,2091,2154,1196
1360,1710922406524016779,2065,2044,1984,2036,2056,2028,1193
1361,1710922406534034091,2050,2052,2015,2059,2054,2044,1191
1362,1710922406544027336,2052,2015,1991,2046,2046,2052,1197
1363,1710922406554013158,2065,2085,2232,2065,2068,2073,1197
1364,1710922406564019248,2023,1990,1888,2042,2043,2036,1194
1365,1710922406574021129,2069,2071,2168,2053,2066,2103,1195
1366,1710922406584000860,2052,2043,1889,2032,2010,2008,1195
1367,1710922406594030194,2094,2136,2234,2072,2051,2067,1196
1368,1710922406603961692,2051,2050,1919,2051,2066,2088,1196
1369,1710922406613937184,2047,2104,2064,2061,2048,2031,1193
1370,1710922406624020962,2025,2066,2176,2047,2076,2061,1196
1371,1710922406633966867,2047,2048,1967,2056,2064,2039,1193
1372,1710922406644020507,2056,2072,2054,2065,2054,2052,1196
1373,1710922406654029633,2065,2104,2132,2065,2053,2052,1197
1374,1710922406664025424,2066,2081,2267,2070,2069,2077,1196
1375,1710922406674021033,2102,2154,2433,2070,2065,2052,1196
1376,1710922406684058943,2035,2001,1922,2037,2054,2050,1197
1377,1710922406694018916,2053,2026,2100,2052,2044,2045,1193
1378,1710922406704028313,2048,2033,2144,2056,2046,2073,1196
1379,1710922406714024203,2079,2063,2193,2076,2060,2065,1194
1380,1710922406724015785,2048,2032,2002,2037,2042,2050,1196
1381,1710922406734031374,2041,2025,1977,2053,2056,2053,1193
1382,1710922406744020732,2068,2036,2037,2049,2092,2068,1197
1383,1710922406753971005,2053,2050,2034,2057,2039,2037,1194
1384,1710922406764015758,2067,2112,2253,2065,2039,2056,1198
1385,1710922406774019144,2062,2058,2148,2062,2044,2042,1192
1386,1710922406784030654,2050,2044,1934,2054,2060,2092,1197
1387,1710922406794020673,2039,2072,2121,2060,2045,2043,1195
1388,1710922406804025440,2062,2102,2102,2068,2062,2050,1200
1389,1710922406814030679,2061,2056,2048,2062,2055,2057,1197
1390,1710922406824033974,2047,2052,2062,2046,2025,2023,1191
1391,1710922406834016158,2090,2089,2132,2064,2088,2114,1198
1392,1710922406844019543,2029,2020,2098,2043,2046,2020,1193
1393,1710922406854007930,2073,2098,2144,2057,2052,2048,1196
1394,1710922406864007186,2044,2045,2083,2045,2048,2040,1194
1395,1710922406874021612,2072,2104,2318,2065,2060,2066,1196
1396,1710922406884020679,2068,2086,2193,2052,2063,2052,1195
1397,1710922406894043060,2063,2052,2017,2046,2044,2064,1196
1398,1710922406904059189,2049,2061,2108,2052,2046,2040,1195
1399,1710922406914033979,2055,2082,2097,2062,2054,2056,1195
1400,1710922406924033607,2025,2021,1973,2052,2034,2027,1193
1401,1710922406934029738,2052,2013,2085,2050,2085,2088,1196
1402,1710922406944028464,2054,2097,2228,2069,2053,2056,1195
1403,1710922406954046887,2058,2047,2024,2048,2050,2054,1197
1404,1710922406964026517,2051,2072,2154,2044,2052,2054,1196
1405,1710922406974031996,2051,2044,2029,2035,2033,2038,1192
1406,1710922406984069405,2042,1976,1896,2045,2062,2056,1198
1407,1710922406994010131,2062,1992,1797,2045,2061,2021,1194
1408,1710922407004010440,2044,2029,1985,2057,2094,2075,1195
1409,1710922407014004898,2088,2148,2300,2058,2074,2072,1195
1410,1710922407024024784,2054,2056,2032,2058,2056,2050,1196
1411,1710922407034024752,2032,2000,1967,2047,2056,2041,1194
1412,1710922407044023428,2072,2065,2250,2057,2060,2064,1196
1413,1710922407054028396,2057,2033,1982,2053,2046,2051,1196
1414,1710922407064023144,2060,2032,1960,2058,2062,2039,1194
1415,1710922407074026058,2062,2077,2088,2066,2060,2060,1195
1416,1710922407084031908,2038,2033,1989,2049,2052,2052,1196
1417,1710922407093951774,2064,2025,2003,2052,2042,2029,1194
1418,1710922407104051321,2056,2093,2292,2068,2080,2101,1197
1419,1710922407114032343,2027,2025,2036,2056,2046,2040,1193
1420,1710922407124042341,2049,2029,2024,2053,2048,2048,1197
1421,1710922407134029665,2060,2093,2168,2058,2062,2067,1193
1422,1710922407144027069,2086,2077,2053,2048,2052,2056,1197
1423,1710922407154037407,2040,2056,2137,2050,2044,2046,1196
1424,1710922407164038307,2051,1998,1915,2049,2062,2045,1196
1425,1710922407174029188,2077,2108,2160,2060,2073,2075,1195
1426,1710922407184034907,2056,2051,2153,2051,2028,2029,1194
1427,1710922407194034475,2049,1998,1956,2052,2067,2049,1194
1428,1710922407204049782,2061,2047,1994,2046,2057,2060,1197
1429,1710922407214034171,2060,2075,2159,2045,2035,2047,1194
1430,1710922407224025302,2048,2041,2063,2049,2057,2019,1194
1431,1710922407234045439,2064,2027,2014,2050,2064,2068,1197
1432,1710922407244027774,2061,2038,2013,2047,2046,2044,1194
1433,1710922407254049223,2055,2030,1896,2064,2070,2071,1197
1434,1710922407264033501,2048,2009,1920,2057,2062,2070,1196
1435,1710922407274026897,2070,2088,2157,2056,2050,2061,1195
1436,1710922407284032857,2056,2106,2168,2063,2056,2045,1192
1437,1710922407294034368,2075,2058,2109,2062,2068,2067,1196
1438,1710922407304065676,2032,2025,2060,2045,2045,2051,1195
1439,1710922407314027612,2047,2025,1889,2064,2038,2044,1194
1440,1710922407324023052,2044,2035,1935,2061,2058,2040,1192
1441,1710922407334017931,2057,2077,2182,2072,2073,2065,1193
1442,1710922407344076330,2049,2047,2003,2056,2048,2029,1192
1443,1710922407354028527,2064,2044,2098,2057,2049,2088,1196
1444,1710922407364020451,2049,2049,2004,2046,2052,2043,1192
1445,1710922407374016371,2062,2058,2037,2064,2057,2066,1197
1446,1710922407384025076,2064,2065,2098,2064,2056,2072,1195
1447,1710922407394045814,2040,2046,2033,2061,2052,2030,1192
1448,1710922407404030253,2060,2041,2050,2064,2076,2097,1194
1449,1710922407414013910,2047,2029,1915,2053,2033,2023,1192
1450,1710922407424027594,2074,2116,2225,2059,2079,2086,1195
1451,1710922407434022743,2040,2033,2047,2057,2028,2034,1195
1452,1710922407444044934,2047,2030,1969,2058,2068,2069,1195
1453,1710922407453963177,2076,2060,2100,2061,2061,2040,1195
1454,1710922407464016166,2057,2065,2221,2074,2068,2067,1196
1455,1710922407474023408,2065,2061,1995,2060,2065,2068,1193
1456,1710922407484024659,2024,1982,1802,2044,2037,2037,1193
1457,1710922407494043273,2034,1994,1987,2050,2024,2028,1194
1458,1710922407504016680,2080,2086,2074,2055,2045,2059,1196
1459,1710922407514020266,2029,1973,1909,2053,2047,2049,1194
1460,1710922407524021417,2047,2029,1896,2039,2041,2036,1193
1461,1710922407534020744,2017,1988,1953,2046,2048,2035,1191
1462,1710922407544024218,2058,1978,1929,2056,2064,2061,1198
1463,1710922407554018896,2057,2197,1852,2059,2078,2088,1196
1464,1710922407564021510,2053,2162,1883,2058,2078,2049,1195
1465,1710922407574021899,2024,1991,1913,2051,2041,2013,1192
1466,1710922407584031746,2073,2089,2065,2052,2038,2010,1191
1467,1710922407594027596,2073,2093,1882,2074,2074,2100,1197
1468,1710922407604020622,2043,1985,1947,2041,2046,2037,1195
1469,1710922407614019618,2033,1978,1878,2058,2037,2066,1196
1470,1710922407624023273,2049,2018,1846,2052,2040,2041,1195
1471,1710922407634023542,2042,2029,1952,2047,2050,2033,1195
1472,1710922407644033240,2066,2021,2016,2043,2036,2045,1193
1473,1710922407654025533,2056,2061,2053,2064,2080,2068,1198
1474,1710922407664025451,2046,2038,2064,2036,2073,2053,1195
1475,1710922407674026461,2056,2051,2118,2055,2052,2069,1196
1476,1710922407684024406,2048,1976,1828,2052,2056,2049,1195
1477,1710922407694039693,2050,2068,2099,2058,2040,2057,1198
1478,1710922407704026847,2034,2054,2034,2047,2045,2045,1194
1479,1710922407714027397,2056,2029,1992,2062,2047,2064,1195
1480,1710922407724012067,2060,1990,1893,2044,2025,2066,1198
1481,1710922407734028907,2061,2056,2176,2056,2040,2061,1196
1482,1710922407744043693,2058,2056,2116,2052,2061,2080,1196
1483,1710922407754026099,2077,2188,2320,2068,2048,2065,1197
1484,1710922407764030335,2047,2032,1960,2046,2046,2050,1195
1485,1710922407774030593,2062,2040,2038,2066,2068,2061,1196
1486,1710922407783959987,2046,2020,1989,2050,2069,2045,1194
1487,1710922407794053334,2048,2013,1942,2049,2042,2045,1193
1488,1710922407804028384,2047,2044,1969,2054,2044,2042,1193
1489,1710922407814012703,2039,2045,1961,2047,2057,2039,1193
1490,1710922407824013262,2005,1997,1873,2037,2040,2072,1197
1491,1710922407834015636,2045,2019,1927,2058,2036,2040,1193
1492,1710922407844032376,2047,2036,1992,2054,2052,2029,1194
1493,1710922407854029398,2064,2041,2044,2068,2027,2091,1196
1494,1710922407864029887,2050,2074,2029,2057,2042,2032,1193
1495,1710922407874033283,2052,2012,2052,2054,2053,2046,1193
1496,1710922407884039162,2048,2015,1897,2043,2052,2032,1195
1497,1710922407894014052,2026,1983,1887,2042,2062,2084,1198
1498,1710922407904066541,2052,2035,2008,2029,2031,2024,1196
1499,1710922407914016234,2053,2046,2014,2056,2054,2046,1194
1500,1710922407923972178,2058,2050,2044,2052,2058,2050,1195
1501,1710922407934010439,2054,2119,2444,2061,2081,2053,1195
1502,1710922407943973768,2040,2033,1939,2058,2084,2101,1195
1503,1710922407953993965,2054,2083,2018,2057,2064,2046,1196
1504,1710922407963959338,2048,2018,2037,2044,2049,2040,1193
1505,1710922407974036843,2073,2080,2029,2064,2062,2049,1197
1506,1710922407984020150,2063,2036,1868,2053,2044,2042,1195
1507,1710922407994041899,2053,2075,2026,2056,2085,2054,1196
1508,1710922408004019906,2065,2077,2234,2060,2054,2046,1193
1509,1710922408014042667,2050,2048,2032,2045,2032,2043,1192
1510,1710922408024038859,2045,2052,2125,2051,2050,2044,1194
1511,1710922408034021073,2076,2101,2368,2082,2074,2092,1198
1512,1710922408044021502,2029,2016,1948,2050,2045,2024,1195
1513,1710922408054017523,2060,2072,2053,2055,2049,2049,1196
1514,1710922408064016199,2076,2063,2049,2056,2040,2044,1195
1515,1710922408074027730,2057,2104,2245,2068,2057,2075,1196
1516,1710922408084020444,2064,2068,1957,2051,2040,2037,1194
1517,1710922408094019400,2052,2017,1910,2063,2058,2062,1197
1518,1710922408104018157,2046,2030,2003,2056,2060,2044,1193
1519,1710922408114020008,2072,2064,2219,2080,2078,2081,1197
1520,1710922408124016029,2050,2052,2138,2040,2044,2038,1193
1521,1710922408134015125,2052,2021,1941,2056,2053,2047,1192
1522,1710922408144015505,2048,2034,1959,2051,2046,2047,1194
1523,1710922408154017116,2056,2020,1940,2056,2058,2060,1196
1524,1710922408164028787,2061,2045,2064,2053,2044,2040,1195
1525,1710922408174018245,2069,2033,2029,2058,2046,2062,1196
1526,1710922408184019105,2038,2009,1904,2038,2037,2022,1194
1527,1710922408194022380,2081,2061,2051,2053,2060,2096,1198
1528,1710922408204045512,2034,2054,2047,2055,2043,2053,1197
1529,1710922408214032025,2045,2031,1994,2048,2043,2041,1194
1530,1710922408224014049,2053,2038,1964,2052,2040,2042,1193
1531,1710922408234022664,2061,2043,2106,2064,2058,2082,1194
1532,1710922408244018374,2072,2105,2044,2066,2058,2047,1194
1533,1710922408254033311,2073,2129,2217,2076,2035,2070,1197
1534,1710922408264042256,2047,2021,1965,2039,2020,2028,1195
1535,1710922408274020784,2050,2081,2101,2052,2044,2038,1193
1536,1710922408284021503,2037,2019,1926,2054,2041,2059,1196
1537,1710922408294013637,2090,2064,2028,2051,2029,2079,1197
1538,1710922408304016972,2030,2041,1952,2052,2083,2039,1194
1539,1710922408314038271,2046,2022,1936,2049,2055,2046,1193
1540,1710922408324024793,2075,2082,2093,2066,2042,2080,1198
1541,1710922408334021716,2052,2054,2002,2061,2053,2043,1192
1542,1710922408344021213,2078,2085,2152,2070,2065,2076,1195
1543,1710922408354019158,2080,2192,2440,2074,2066,2088,1196
1544,1710922408364049654,2041,2029,1983,2044,2054,2030,1192
1545,1710922408374022120,2050,2068,2066,2059,2058,2040,1193
1546,1710922408384030725,2096,2152,2562,2096,2039,2088,1197
1547,1710922408394021646,2041,2027,1983,2065,2069,2040,1194
1548,1710922408404018608,2082,2057,1993,2059,2056,2092,1197
1549,1710922408414013828,2054,2048,2044,2059,2072,2040,1192
1550,1710922408424021721,2043,2046,2021,2050,2045,2033,1194
1551,1710922408434023463,2050,2049,2028,2052,2053,2051,1197
1552,1710922408444037858,2057,2031,2015,2048,2047,2057,1197
1553,1710922408454020734,2032,2061,2136,2043,2071,2072,1195
1554,1710922408464016425,2050,2077,2092,2047,2020,2039,1194
1555,1710922408474023426,2080,2129,2205,2058,2054,2066,1196
1556,1710922408484012073,2056,2044,2042,2044,2048,2053,1197
1557,1710922408494023663,2064,2064,2038,2060,2040,2069,1195
1558,1710922408504016959,2050,2032,1880,2057,2053,2052,1197
1559,1710922408514017839,2042,2011,1920,2054,2032,2043,1193
1560,1710922408524033667,2085,2135,2361,2062,2056,2065,1198
1561,1710922408534021643,2056,2042,2043,2037,2040,2045,1192
1562,1710922408544018796,2043,2056,2100,2060,2063,2051,1197
1563,1710922408554019376,2062,2083,2172,2066,2053,2057,1197
1564,1710922408564019143,2062,2046,2039,2049,2046,2049,1196
1565,1710922408574021125,2052,2044,2022,2043,2037,2043,1193
1566,1710922408584018199,2066,2084,2173,2072,2081,2081,1197
1567,1710922408594016484,2047,2039,2064,2052,2050,2040,1195
1568,1710922408604023004,2068,2067,2079,2053,2052,2047,1194
1569,1710922408614018554,2016,1989,1941,2047,2082,2078,1197
1570,1710922408624026107,2051,2030,2010,2040,2045,2047,1192
1571,1710922408634020916,2036,2069,2172,2057,2040,2032,1194
1572,1710922408644016926,2065,2056,2048,2052,2056,2054,1197
1573,1710922408654018618,2060,2046,2019,2058,2066,2068,1197
1574,1710922408664018476,2039,2040,1951,2045,2056,2035,1192
1575,1710922408674018535,2031,2000,1940,2049,2052,2061,1195
1576,1710922408684019985,2076,2044,1972,2073,2066,2070,1195
1577,1710922408694020194,2046,2073,2162,2058,2081,2053,1196
1578,1710922408704023359,2060,2057,2077,2055,2064,2068,1195
1579,1710922408714027495,2061,2040,1994,2069,2051,2056,1196
1580,1710922408724031922,2048,2025,1886,2037,2042,2049,1197
1581,1710922408734027301,2042,2023,1953,2048,2058,2049,1194
1582,1710922408744015949,2050,2067,2076,2053,2076,2089,1197
1583,1710922408754011719,2059,2064,1987,2057,2053,2033,1192
1584,1710922408764006367,2054,2101,2232,2056,2032,2053,1195
1585,1710922408774033336,2054,2052,2019,2063,2050,2051,1196
1586,1710922408784018367,2064,2048,2168,2052,2049,2056,1195
1587,1710922408794009738,2057,2050,2012,2064,2052,2038,1194
1588,1710922408804016369,2031,1996,1869,2036,2051,2041,1194
1589,1710922408814043789,2056,2035,1883,2053,2064,2058,1197
1590,1710922408824022628,2032,2001,2113,2042,2034,2036,1193
1591,1710922408834023208,2022,2033,2042,2050,2050,2070,1197
1592,1710922408844007987,2075,2100,1933,2066,2041,2041,1193
1593,1710922408854007845,2014,1944,1810,2032,2041,2029,1195
1594,1710922408864019867,2057,2078,2150,2080,2032,2067,1196
1595,1710922408874018632,2060,1993,1924,2063,2037,2007,1193
1596,1710922408884022398,2106,2110,2261,2088,2115,2138,1195
1597,1710922408894019921,2018,2005,1965,2048,2047,2026,1193
1598,1710922408904022916,2029,2034,2123,2043,2034,2023,1193
1599,1710922408914033835,2030,2070,2058,2041,2004,2108,1196
1600,1710922408924020137,2065,2034,2002,2063,2041,2018,1194
1601,1710922408934020005,2043,2045,2106,2063,2045,2058,1195
1602,1710922408944020815,2072,2113,2089,2074,2017,2048,1197
1603,1710922408954019170,2070,2064,2082,2050,2037,2012,1196
1604,1710922408964019419,2056,2040,2261,2089,2080,2124,1197
1605,1710922408974024988,2037,2022,1994,2047,2047,2028,1192
1606,1710922408984024436,2074,2139,2248,2078,2049,2060,1195
1607,1710922408994024183,2026,1974,1848,2041,2040,2051,1196
1608,1710922409004026676,2071,2063,2054,2058,2055,2046,1193
1609,1710922409014035271,2025,2045,2013,2041,2056,2064,1196
1610,1710922409024038346,2073,2121,2222,2068,2099,2049,1195
1611,1710922409034024487,2098,2184,2256,2082,2072,2068,1197
1612,1710922409044027331,2052,2059,1992,2064,2044,2034,1192
1613,1710922409054041216,2076,2185,2436,2082,2088,2064,1196
1614,1710922409064014123,2073,2131,2095,2074,2055,2058,1195
1615,1710922409074030512,2062,2070,2081,2071,2058,2064,1195
1616,1710922409084029328,2008,2009,1808,2052,1992,2030,1192
1617,1710922409094026913,2048,1992,1806,2044,2037,2041,1192
1618,1710922409104048762,2059,2050,2007,2052,2060,2057,1195
1619,1710922409114027470,2022,2010,1974,2050,2029,2025,1193
1620,1710922409124026486,2049,2045,2002,2042,2031,2060,1195
1621,1710922409134025534,2054,2059,1940,2061,2044,2042,1191
1622,1710922409144025301,2040,2003,1880,2062,2032,2036,1193
1623,1710922409154038765,2063,2059,2169,2060,2048,2085,1196
1624,1710922409164041919,2044,2044,2082,2042,2028,2027,1193
1625,1710922409174038161,2072,2177,2427,2068,2065,2096,1196
1626,1710922409184030715,2050,2045,2015,2049,2046,2021,1192
1627,1710922409194031976,2091,2147,2554,2064,2108,2108,1195
1628,1710922409204045179,2044,2040,2010,2049,2075,2044,1196
1629,1710922409214030580,2053,2054,2001,2060,2045,2046,1193
1630,1710922409224031570,2066,2093,2216,2074,2072,2054,1196
1631,1710922409234031608,2061,2036,2020,2059,2045,2073,1196
1632,1710922409244031987,2030,1990,1889,2053,2026,2031,1194
1633,1710922409254024793,2044,2019,1966,2044,2092,2104,1196
1634,1710922409264035301,2064,2075,2057,2048,2079,2030,1193
1635,1710922409274017155,2060,2062,2276,2065,2073,2088,1195
1636,1710922409284023194,2072,2047,2001,2042,2033,2047,1190
1637,1710922409294025928,2072,2092,1893,2079,2059,2053,1196
1638,1710922409304024293,2031,2033,2121,2046,2061,2078,1195
1639,1710922409314015395,2052,2044,2012,2051,2037,2021,1194
1640,1710922409324011766,2072,2034,1837,2044,2001,2044,1192
1641,1710922409334012547,2031,2035,1937,2056,2058,2081,1195
1642,1710922409343996354,2070,2133,2375,2073,2062,2066,1194
1643,1710922409354013635,2044,2066,2025,2064,2042,2031,1192
1644,1710922409364017059,2038,2034,2030,2044,2036,2035,1193
1645,1710922409374018982,2064,2024,2138,2072,2077,2090,1196
1646,1710922409384020313,2032,2047,2178,2037,2020,2013,1192
1647,1710922409394016975,2066,2049,2017,2073,2067,2053,1196
1648,1710922409404020419,2041,2029,2000,2066,2073,2050,1196
1649,1710922409414039294,2064,2026,1985,2052,2043,2053,1195
1650,1710922409424023522,2059,2076,2018,2069,2065,2065,1195
1651,1710922409434019403,2050,2028,1941,2054,2042,2046,1196
1652,1710922409444018940,2046,2038,2029,2061,2062,2062,1195
1653,1710922409454018989,2076,2089,2072,2055,2032,2062,1193
1654,1710922409464015942,2068,2080,2125,2061,2058,2072,1196
1655,1710922409474024025,2058,2045,2119,2050,2046,2045,1192
1656,1710922409484022059,2066,2093,2080,2068,2058,2058,1194
1657,1710922409494014705,2043,2036,2015,2043,2040,2046,1193
1658,1710922409504020654,2064,2089,2129,2056,2059,2048,1197
1659,1710922409514016304,2061,2050,2094,2059,2049,2036,1193
1660,1710922409524021472,2061,2052,2064,2061,2050,2071,1195
1661,1710922409534016451,2088,2112,2302,2047,2050,2059,1194
1662,1710922409543987074,2051,2021,1987,2051,2055,2066,1197
1663,1710922409553997892,2052,2047,2016,2060,2066,2032,1195
1664,1710922409563978223,2052,2068,2084,2052,2092,2084,1193
1665,1710922409573995275,2062,2056,2045,2033,2056,2040,1192
1666,1710922409583964304,2042,2022,1931,2059,2050,2040,1196
1667,1710922409593935808,2058,2094,2226,2076,2046,2044,1195
1668,1710922409603979901,2069,2068,2104,2056,2068,2097,1196
1669,1710922409613980140,2025,2030,1914,2045,2072,2033,1194
1670,1710922409624021536,2043,2008,1949,2049,2064,2049,1196
1671,1710922409634029149,2040,2033,2048,2067,2039,2041,1194
1672,1710922409644025200,2057,2078,2188,2056,2058,2064,1196
1673,1710922409654024497,2040,2002,1888,2045,2040,2038,1192
1674,1710922409664027030,2059,2049,1986,2064,2048,2057,1196
1675,1710922409674023311,2067,2062,2058,2053,2062,2053,1195
1676,1710922409684039070,2048,2047,2048,2038,2053,2056,1195
1677,1710922409694024821,2073,2056,1990,2064,2079,2060,1196
1678,1710922409704025290,2046,2030,1928,2056,2114,2064,1196
1679,1710922409714061477,2048,2021,1956,2041,2038,2040,1193
1680,1710922409724035877,2017,1996,1988,2053,2044,2012,1194
1681,1710922409734020597,2084,2066,1980,2070,2089,2117,1196
1682,1710922409744023130,2050,2054,2132,2050,2061,2049,1193
1683,1710922409754018339,2056,2052,2056,2054,2042,2042,1193
1684,1710922409764015132,2067,2114,2468,2057,2030,2061,1196
1685,1710922409774022123,2059,2044,1960,2058,2045,2033,1192
1686,1710922409784016511,2043,2009,1945,2046,2044,2055,1197
1687,1710922409794018723,2034,2036,2024,2058,2053,2053,1196
1688,1710922409804017920,2045,2035,2015,2056,2055,2051,1195
1689,1710922409814045842,2051,2036,2032,2033,2037,2044,1193
1690,1710922409824027876,2052,2041,2044,2046,2057,2050,1195
1691,1710922409834028415,2050,2046,1969,2052,2054,2046,1196
1692,1710922409844022082,2018,2035,2146,2056,2062,2097,1194
1693,1710922409854021259,2068,2038,1981,2048,2027,2004,1194
1694,1710922409864015846,2072,2109,2140,2068,2066,2093,1197
1695,1710922409874023559,2057,2078,2074,2030,2044,2047,1195
1696,1710922409884023107,2048,2048,2033,2044,2047,2036,1191
1697,1710922409894034728,2073,2064,2093,2049,2053,2048,1196
1698,1710922409904021591,2041,2064,2066,2053,2053,2056,1195
1699,1710922409914023673,2068,2035,1996,2044,2052,2070,1195
1700,1710922409924020185,2069,2126,2264,2066,2060,2052,1196
1701,1710922409934021446,2058,2052,2021,2046,2050,2049,1193
1702,1710922409944025502,2048,2050,2018,2049,2032,2022,1192
1703,1710922409954023506,2060,2040,1941,2052,2062,2109,1193
1704,1710922409964019197,2050,2040,2056,2037,2072,2035,1192
1705,1710922409974017762,2062,2061,2177,2062,2053,2053,1197
1706,1710922409984061023,2041,2042,2018,2045,2050,2043,1194
1707,1710922409994020143,2045,2020,1898,2048,2038,2059,1196
1708,1710922410004013550,2056,2058,2056,2050,2041,2044,1194
1709,1710922410014013979,2048,2094,2237,2067,2051,2052,1196
1710,1710922410024013245,2053,2003,1960,2048,2046,2065,1196
1711,1710922410034034314,2080,2068,2019,2043,2068,2076,1196
1712,1710922410044050854,2037,2041,2030,2052,2089,2043,1194
1713,1710922410054007250,2044,2048,2051,2051,2056,2039,1195
1714,1710922410064022947,2052,2048,2041,2061,2054,2098,1195
1715,1710922410074024508,2046,2021,1976,2048,2031,2024,1193
1716,1710922410084043864,2051,2047,2035,2062,2061,2053,1196
1717,1710922410094013595,2053,2072,2040,2052,2042,2037,1192
1718,1710922410104016298,2057,2056,2074,2070,2065,2060,1196
1719,1710922410114014002,2053,2041,2046,2049,2054,2049,1195
1720,1710922410124017007,2056,2060,2045,2048,2056,2051,1196
1721,1710922410134015753,2064,2052,2138,2056,2051,2040,1192
1722,1710922410144019317,2049,2037,2015,2070,2028,2087,1197
1723,1710922410154033412,2074,2139,2320,2064,2044,2048,1195
1724,1710922410164015658,2058,2041,2030,2056,2056,2057,1193
1725,1710922410174018311,2036,2040,1949,2041,2050,2079,1197
1726,1710922410184017087,2046,2011,1874,2044,2053,2044,1193
1727,1710922410194009601,2050,2020,1969,2049,2028,2047,1193
1728,1710922410204009940,2056,2064,2124,2054,2063,2072,1195
1729,1710922410214013115,2057,2050,2028,2046,2043,2036,1193
1730,1710922410224015227,2041,2026,2046,2053,2056,2047,1193
1731,1710922410234070319,2040,2029,2072,2045,1994,2032,1194
1732,1710922410244019321,2084,2137,2268,2067,2059,2080,1197
1733,1710922410254018779,2037,2033,1955,2050,2034,2030,1194
1734,1710922410264016483,2067,2058,2069,2072,2068,2088,1195
1735,1710922410274017142,2065,2046,1997,2056,2048,2044,1193
1736,1710922410284035135,2043,2041,1964,2064,2056,2048,1194
1737,1710922410294020536,2076,2069,2080,2068,2045,2072,1196
1738,1710922410304020674,2042,2028,2006,2048,2056,2050,1195
1739,1710922410314019821,2084,2129,2384,2076,2034,2047,1193
1740,1710922410324017525,2066,2042,1967,2056,2061,2061,1196
1741,1710922410334022242,2030,2046,2119,2043,2052,2062,1195
1742,1710922410344016710,2055,2038,1841,2045,2061,2020,1193
1743,1710922410354015857,2078,2080,2121,2076,2048,2065,1194
1744,1710922410364017038,2040,2000,1842,2042,2048,2042,1192
1745,1710922410374014201,2025,2012,1943,2025,2004,2025,1193
1746,1710922410384030951,2072,2095,2178,2064,2042,2038,1193
1747,1710922410394015159,2065,2101,1950,2067,2034,2088,1194
1748,1710922410404016670,2029,2017,2022,2061,2063,2032,1192
1749,1710922410414012200,2045,2041,1966,2028,2031,2037,1194
1750,1710922410424012669,2087,2097,2121,2052,2020,2040,1193
1751,1710922410434030992,2039,2023,2051,2072,2072,2076,1198
1752,1710922410444016844,2081,2149,2330,2076,2080,2092,1197
1753,1710922410454016472,2029,2010,1890,2029,2020,2017,1194
1754,1710922410464020718,2060,2056,2076,2074,2045,2089,1196
1755,1710922410474016899,2051,2062,2068,2040,2028,2002,1193
1756,1710922410484045432,2046,2018,2001,2057,2052,2043,1194
1757,1710922410494009863,2057,2053,2187,2056,2056,2076,1196
1758,1710922410504018467,2079,2134,2148,2046,2057,2050,1197
1759,1710922410514021021,2066,2029,1945,2042,2078,2088,1197
1760,1710922410524019076,2054,2014,1984,2061,2079,2037,1194
1761,1710922410534042889,2049,2044,2060,2060,2060,2053,1194
1762,1710922410544014724,2048,2052,1953,2046,2024,2030,1193
1763,1710922410554022046,2046,2052,2089,2067,2081,2096,1194
1764,1710922410564018448,2070,2084,2058,2063,2003,2059,1195
1765,1710922410574014038,2102,2150,2403,2074,2073,2011,1193
1766,1710922410584002314,2058,2027,1893,2059,2077,2084,1198
1767,1710922410594021759,2048,2031,2007,2035,2040,2055,1195
1768,1710922410604016187,2047,2006,1875,2040,2039,2060,1197
1769,1710922410614015554,2049,2036,2096,2053,2072,2074,1197
1770,1710922410624022055,2050,2040,1989,2049,2045,2045,1193
1771,1710922410634030780,2026,2014,1927,2035,2047,2047,1194
1772,1710922410644020489,2082,2052,2063,2045,2048,2060,1197
1773,1710922410654019766,2040,2046,1959,2048,2063,2039,1193
1774,1710922410664014885,2064,2064,2132,2046,2036,2058,1197
1775,1710922410674013280,2056,2058,2039,2068,1980,2018,1193
1776,1710922410684039138,2054,2053,2074,2046,2051,2052,1196
1777,1710922410694020721,2061,2088,2130,2066,2065,2058,1195
1778,1710922410704013375,2047,2034,2014,2046,2009,2025,1194
1779,1710922410714039473,2044,2053,2141,2058,2039,2044,1195
1780,1710922410724019514,2052,2024,1911,2058,2048,2076,1196
1781,1710922410734017188,2023,2033,2009,2032,2017,2018,1192
1782,1710922410744033777,2042,2037,1919,2037,2031,2056,1194
1783,1710922410754015691,2056,2040,1951,2056,2057,2061,1194
1784,1710922410764031590,2041,2008,1988,2040,2030,2043,1192
1785,1710922410774016961,2040,2020,1932,2053,2057,2050,1196
1786,1710922410784025004,2052,2045,2137,2045,2064,2050,1194
1787,1710922410794023079,2061,2032,2040,2038,2040,2038,1192
1788,1710922410804017377,2031,2034,1973,2053,2033,2070,1195
1789,1710922410814018788,2076,2065,2112,2083,2090,2062,1196
1790,1710922410824019227,2047,2034,2000,2036,2034,2042,1194
1791,1710922410834019325,2035,2018,2024,2056,2060,2037,1194
1792,1710922410844045554,2056,2089,2036,2041,2040,2043,1193
1793,1710922410853937998,2042,2028,2124,2070,2060,2052,1197
1794,1710922410864020463,2045,2053,2159,2050,2054,2048,1196
1795,1710922410874021062,2044,2020,2000,2063,2052,2043,1193
1796,1710922410884024137,2060,2078,2010,2043,2010,2093,1194
1797,1710922410894031018,2070,2053,2032,2024,2031,2047,1192
1798,1710922410904031637,2050,2040,2045,2041,2062,2057,1198
1799,1710922410914029452,2057,2045,2025,2048,2072,2045,1193
1800,1710922410924038978,2050,2029,1974,2051,2063,2057,1197
1801,1710922410934026393,2068,2010,1866,2076,2040,2034,1192
1802,1710922410944026621,2056,2030,1943,2076,2081,2078,1196
1803,1710922410954030667,2045,2029,2040,2053,2042,2046,1192
1804,1710922410964032279,2042,2062,2061,2077,2088,2052,1195
1805,1710922410974030504,2077,2075,2098,2060,2044,2077,1195
1806,1710922410984096517,2047,2043,1988,2048,2038,2017,1192
1807,1710922410994049497,2056,2037,1913,2042,2033,2018,1192
1808,1710922411004029718,2042,2070,1971,2062,2068,2040,1194
1809,1710922411014032281,2045,2030,2046,2058,2072,2052,1197
1810,1710922411024027821,2054,2055,2045,2045,2047,2051,1195
1811,1710922411034029051,2059,2053,2058,2052,2033,2024,1196
1812,1710922411044028709,2061,2089,2168,2068,2080,2121,1196
1813,1710922411054028998,2041,2038,2045,2035,2028,2028,1197
1814,1710922411064027784,2047,2032,2000,2047,2050,2048,1194
1815,1710922411074027632,2057,2066,2034,2046,2045,2034,1194
1816,1710922411084028152,2056,2042,2043,2061,2101,2104,1199
1817,1710922411094035304,2052,2024,1962,2028,2020,2027,1193
1818,1710922411104028078,2064,2057,2014,2054,2055,2049,1196
1819,1710922411114029569,2051,2056,2143,2048,2032,2049,1196
1820,1710922411124030610,2036,2024,2066,2045,2034,2029,1194
1821,1710922411134030809,2057,2040,1979,2056,2038,2065,1196
1822,1710922411144012081,2051,2043,2010,2053,2044,2033,1194
1823,1710922411154029753,2046,1999,1912,2069,2049,2074,1195
1824,1710922411164012379,2063,2016,1906,2056,2031,2062,1196
1825,1710922411174015433,2046,2030,1949,2041,2036,2034,1194
1826,1710922411184033465,2122,2132,2146,2067,2093,2052,1197
1827,1710922411194015640,2068,2018,1813,2044,2066,2071,1194
1828,1710922411204033452,2028,2025,2022,2040,2050,2040,1193
1829,1710922411214015837,2048,2044,2005,2046,2043,2040,1194
1830,1710922411224033349,2072,2093,2051,2045,2050,2050,1193
1831,1710922411234016986,2046,2041,2055,2057,2066,2047,1194
1832,1710922411244017065,2056,2033,2038,2027,2024,2042,1193
1833,1710922411254018666,2048,2068,2127,2066,2041,2051,1197
1834,1710922411264017763,2079,2058,2086,2047,2037,2045,1194
1835,1710922411274019634,2044,2026,1939,2029,2023,2024,1194
1836,1710922411284018872,2016,2022,2008,2023,2076,2062,1196
1837,1710922411294043346,2078,2073,1938,2056,2085,2072,1194
1838,1710922411304018618,2068,2033,2011,2035,2056,2033,1193
1839,1710922411314023185,2052,2038,2106,2032,2015,2014,1192
1840,1710922411324020428,2063,2032,2049,2087,2072,2096,1196
1841,1710922411334018583,2047,2045,1973,2083,1993,1991,1192
1842,1710922411344043699,2017,2036,1983,2122,2086,2017,1194
1843,1710922411354016205,2050,2097,2248,2064,2121,2116,1197
1844,1710922411364018187,2062,2088,2160,2058,2061,2071,1195
1845,1710922411374017454,2060,2047,2227,2043,2061,2056,1196
1846,1710922411384022963,2086,2069,2092,2004,2081,2081,1196
1847,1710922411394044522,2056,2066,2048,2057,2090,2029,1192
1848,1710922411404016347,2043,2030,1978,2024,2019,2024,1193
1849,1710922411414015945,2094,2158,2306,2050,2020,2093,1196
1850,1710922411424019670,2076,2062,2075,2078,2058,2048,1197
1851,1710922411434019227,2070,2082,2138,2043,2038,2057,1198
1852,1710922411444016732,2064,2096,2307,2059,2032,2072,1195
1853,1710922411454044232,2043,2042,2026,2032,2054,2038,1197
1854,1710922411464019503,2036,2049,2072,2039,2028,2061,1196
1855,1710922411474018289,2104,2157,2268,2099,2053,2082,1196
1856,1710922411484018809,2046,2053,2025,2066,2038,2017,1193
1857,1710922411494021392,2073,2053,2016,2071,2060,2059,1199
1858,1710922411504017172,2037,2056,2028,2044,2082,2045,1197
1859,1710922411514017671,2045,2042,2080,2026,2040,2048,1197
1860,1710922411524021017,2056,2108,2126,2112,2070,2066,1196
1861,1710922411534018390,2056,2045,1938,2047,2041,2044,1193
1862,1710922411544019190,2056,2090,2312,2076,2058,2096,1196
1863,1710922411554019058,2086,2088,2096,2068,2060,2043,1192
1864,1710922411564019377,2048,2054,2166,2059,2055,2038,1194
1865,1710922411574017422,2083,2082,2108,2058,2061,2068,1194
1866,1710922411584052406,2040,2046,2100,2045,2020,2047,1193
1867,1710922411594035392,2062,2049,2072,2028,2038,2060,1196
1868,1710922411604015654,2062,2045,2019,2029,2057,2072,1196
1869,1710922411614024749,2034,2021,2004,2050,2031,2042,1192
1870,1710922411624015971,2061,2053,2094,2056,2059,2055,1194
1871,1710922411634019085,2046,2044,2105,2057,1991,2057,1196
1872,1710922411644017130,2056,2036,2130,2041,2041,2069,1197
1873,1710922411654022148,2021,2021,1986,2045,2008,2027,1194
1874,1710922411664052964,2058,2052,2030,2024,2047,2042,1194
1875,1710922411674018637,2079,2101,2120,2093,2087,2105,1197
1876,1710922411684016532,2048,2052,2056,2041,2039,2031,1193
1877,1710922411694016931,2088,2088,2029,2063,2061,2081,1196
1878,1710922411704017821,2064,2076,2129,2073,2016,2030,1194
1879,1710922411714018591,2061,2065,2059,2066,2040,2035,1192
1880,1710922411724018179,2048,2036,2096,2097,2036,2036,1194
1881,1710922411734016915,2049,2035,2028,2064,2047,2041,1189
1882,1710922411744018726,2024,2009,2006,2102,2063,2100,1196
1883,1710922411754016630,2062,2072,2073,2068,2068,2040,1194
1884,1710922411764016699,2039,2034,1983,2033,2052,2045,1193
1885,1710922411774016678,2041,2005,1891,2022,2044,2036,1194
1886,1710922411784017798,2100,2060,2020,2036,2082,2079,1194
1887,1710922411794027655,2071,2098,2209,2058,2064,2062,1195
1888,1710922411804014218,2060,2072,2017,2052,2049,2050,1196
1889,1710922411814019036,2057,2046,2044,2058,2037,2047,1194
1890,1710922411824016148,2057,2064,2128,2072,2046,2035,1193
1891,1710922411834019072,2066,2074,2074,2050,2088,2066,1196
1892,1710922411844023479,2047,2008,1850,2054,2061,2062,1196
1893,1710922411854027555,2034,2024,1994,2062,2042,2026,1193
1894,1710922411864018697,2056,2043,2020,2042,2042,2075,1195
1895,1710922411874018304,2047,2034,2029,2032,2017,2032,1193
1896,1710922411884029865,2054,2040,1990,2053,2052,2064,1196
1897,1710922411894037157,2068,2065,2055,2027,2058,2072,1197
1898,1710922411904026625,2060,2052,2001,2038,2081,2047,1192
1899,1710922411914014991,2058,2036,2016,2080,2052,2060,1197
1900,1710922411924017515,2072,2084,2098,2076,2040,2053,1196
1901,1710922411934015560,2052,2063,2022,2046,2041,2042,1192
1902,1710922411944015979,2049,2044,2062,2049,2055,2061,1197
1903,1710922411954030093,2058,2067,2169,2047,2047,2053,1196
1904,1710922411964020865,2043,2030,2029,2069,2102,2081,1196
1905,1710922411974017016,2064,2041,2115,2044,2076,2033,1194
1906,1710922411984023005,2066,2064,2126,2085,2064,2061,1196
1907,1710922411994020318,2056,2043,2038,2046,2041,2042,1194
1908,1710922412004037580,2077,2092,2120,2047,2060,2047,1197
1909,1710922412014034292,2065,2109,2173,2063,2064,2042,1194
1910,1710922412024026536,2053,2003,1916,2022,2045,2088,1197
1911,1710922412034017447,2045,2021,2011,2040,2033,2032,1193
1912,1710922412044017996,2056,2068,2131,2053,2058,2046,1195
1913,1710922412054040998,2072,2090,2101,2036,2017,2053,1196
1914,1710922412064013504,2068,2105,2198,2048,2072,2041,1195
1915,1710922412074018211,2065,2056,2040,2056,2054,2052,1198
1916,1710922412084019944,2076,2032,2113,2052,2047,2044,1194
1917,1710922412094020693,2066,2061,2045,2046,2056,2066,1197
1918,1710922412104055928,2046,2018,1992,2005,2048,2058,1195
1919,1710922412114014498,2069,2076,2077,2064,2039,2054,1196
1920,1710922412124021260,2056,2040,2038,2041,2041,2042,1192
1921,1710922412134018843,2045,2065,2051,2102,2052,2030,1190
1922,1710922412144019112,2033,2054,2004,1992,2045,2044,1195
1923,1710922412154045160,2085,2107,2200,2073,2038,2066,1195
1924,1710922412164046671,2057,2046,1996,2045,2014,2049,1196
1925,1710922412174023776,2052,2075,1990,2057,2056,2040,1195
1926,1710922412184018474,2074,2081,2086,2091,2070,2069,1197
1927,1710922412194021478,2061,2045,2036,2074,2045,2045,1196
1928,1710922412204029521,2063,2037,2101,2088,2064,2050,1196
1929,1710922412214026104,2052,2033,1990,2082,2048,2057,1194
1930,1710922412224019420,2073,2076,2085,2040,2072,2052,1196
1931,1710922412234020289,2061,2102,2115,2064,2079,2060,1197
1932,1710922412244020318,2050,2028,1992,2072,2050,2048,1197
1933,1710922412254030556,2068,2078,2312,2066,2089,2059,1197
1934,1710922412264021176,2037,2038,2064,2021,2061,2050,1196
1935,1710922412274021114,2058,2066,2072,2059,2068,2044,1195
1936,1710922412284022124,2051,2042,2044,2053,2052,2067,1197
1937,1710922412294026712,2064,2036,2023,2038,2045,2035,1192
1938,1710922412304020799,2056,2027,2005,2080,2082,2056,1196
1939,1710922412314030125,2064,2060,2177,2056,2056,2056,1197
1940,1710922412324020675,2037,2046,2020,2050,2035,2042,1192
1941,1710922412334020965,2082,2112,2140,2021,2056,2042,1190
1942,1710922412344022817,2050,2039,2006,2024,2064,2057,1196
1943,1710922412354072048,2052,2047,2041,2044,2027,2044,1193
1944,1710922412364016942,2056,2041,1979,2045,2039,2060,1198
1945,1710922412374020718,2047,2072,2132,2040,2047,2032,1195
1946,1710922412384028952,2056,2031,1938,2084,2068,2060,1196
1947,1710922412394021506,2069,2098,2218,2060,2036,2040,1192
1948,1710922412404032024,2044,2046,1973,2052,2046,2059,1195
1949,1710922412414020150,2062,2033,1972,2062,2033,2064,1196
1950,1710922412424022663,2056,2047,2029,2079,2084,2048,1197
1951,1710922412434022872,2052,2049,2035,2056,2051,2066,1197
1952,1710922412444023651,2043,2032,2001,2048,2049,2043,1193
1953,1710922412454040993,2039,2058,1991,2038,2059,2040,1195
1954,1710922412464042184,2043,2003,1896,2088,2066,2042,1194
1955,1710922412474031842,2044,2033,2020,2007,2029,2033,1194
1956,1710922412484026370,2040,2041,2036,2046,2053,2067,1195
1957,1710922412494045415,2063,2037,1973,2121,2060,2047,1193
1958,1710922412504036306,2049,2013,1957,2038,2043,2065,1194
1959,1710922412514036064,2057,2097,2157,2042,2025,2029,1192
1960,1710922412524015854,2072,2052,2084,2046,2105,2100,1196
1961,1710922412534015482,2050,2020,1972,2029,2040,2018,1192
1962,1710922412544009509,2039,2033,2161,2057,2024,2072,1196
1963,1710922412554014526,2114,2183,2620,2083,2057,2067,1196
1964,1710922412564034482,2040,2032,1977,2046,2052,2056,1194
1965,1710922412574017600,2062,2079,2065,2047,2016,2036,1193
1966,1710922412584054117,2037,2030,2067,2048,2052,2061,1195
1967,1710922412594048304,2045,2052,2018,2057,2045,2041,1192
1968,1710922412604020439,2065,2080,2114,2054,2061,2038,1194
1969,1710922412614020518,2056,2052,2028,2057,2046,2094,1194
1970,1710922412624019134,2069,2090,2134,2045,2053,2060,1196
1971,1710922412634015505,2048,2056,2041,2052,2036,2041,1195
1972,1710922412644016676,2056,2071,2190,2060,2033,2084,1197
1973,1710922412654038115,2042,2039,2059,2056,2062,2041,1193
1974,1710922412664017154,2049,2041,2046,2034,2038,2041,1195
1975,1710922412674016000,2056,2041,2002,2067,2054,2046,1193
1976,1710922412684023352,2053,2089,2159,2056,2045,2040,1195
1977,1710922412694039240,2061,2059,2189,2061,2062,2073,1197
1978,1710922412704033959,2068,2078,2084,2076,2064,2056,1196
1979,1710922412714027595,2052,2044,2013,2000,2039,2049,1196
1980,1710922412724013797,2078,2095,2193,2082,2053,2080,1196
1981,1710922412734013275,2058,2025,2043,2034,2034,1996,1192
1982,1710922412744014676,2050,2046,2059,2065,2049,2044,1192
1983,1710922412754090568,2057,2060,2025,2056,2043,2064,1194
1984,1710922412764014432,2047,2039,1946,2040,2032,2027,1193
1985,1710922412774022325,2058,2013,1884,2073,2065,2110,1196
1986,1710922412784022745,2047,2033,1986,2032,2033,2029,1192
1987,1710922412794035668,2059,2054,2008,2074,2070,2057,1196
1988,1710922412804012021,2058,2071,2104,2096,2040,2052,1194
1989,1710922412814020385,2075,2117,2301,2144,2069,2068,1199
1990,1710922412824017989,2053,2076,2067,2072,2070,2067,1196
1991,1710922412834021244,2060,2085,2105,2030,2040,2042,1194
1992,1710922412844013748,2057,2056,2072,2053,2044,2054,1194
1993,1710922412854019276,2072,2145,2257,2074,2085,2050,1198
1994,1710922412864036819,2053,2060,2137,2064,2053,2059,1197
1995,1710922412874022359,2052,2056,2048,2057,2053,2045,1194
1996,1710922412884027417,2052,2038,2042,2061,2039,2053,1197
1997,1710922412894041121,2063,2040,1896,2077,2060,2051,1196
1998,1710922412904019870,2084,2064,2012,2042,2053,2051,1197
1999,1710922412914080613,2070,2048,2046,2050,2050,2059,1197
2000,1710922412924019566,2061,2047,2036,2042,2054,2052,1196
2001,1710922412934018472,2052,2040,2013,2064,2059,2028,1192
2002,1710922412944018892,2062,2082,2080,2045,2055,2046,1193
2003,1710922412954017978,2069,2069,2065,2050,2056,2057,1198
2004,1710922412964022014,2051,2024,2002,2064,2075,2058,1197
2005,1710922412974019708,2072,2057,2106,2052,2057,2053,1197
2006,1710922412983999368,2036,2051,2059,2036,2045,2061,1195
2007,1710922412994020807,2055,2065,2044,2044,2054,2068,1194
2008,1710922413004017679,2059,2053,2064,2026,2036,2046,1194
2009,1710922413014101025,2041,2040,2053,2052,2058,2042,1193
2010,1710922413024018618,2057,2044,1992,2083,2067,2047,1193
2011,1710922413034023145,2061,2085,2014,2045,2061,2058,1195
2012,1710922413044020428,2060,2057,2048,2053,2052,2064,1195
2013,1710922413054015757,2072,2049,2069,2049,2059,2050,1196
2014,1710922413064020926,2049,2054,2002,2027,2064,2054,1196
2015,1710922413074072332,2056,2067,2168,2052,2056,2043,1193
2016,1710922413084016604,2049,2064,2052,2064,2064,2054,1195
2017,1710922413094016592,2064,2065,2051,2038,2035,2080,1195
2018,1710922413104019076,2064,2072,2072,2047,2050,2044,1194
2019,1710922413114014555,2058,2049,2063,2034,2038,2042,1193
2020,1710922413124020565,2037,2045,2116,2059,2065,2066,1195
2021,1710922413134015554,2068,2036,1985,2059,2052,2073,1193
2022,1710922413144018759,2037,2026,1969,2043,2049,2045,1194
2023,1710922413154019398,2057,2081,2112,2037,2067,2061,1195
2024,1710922413164018905,2053,2042,2068,2040,2052,2044,1193
2025,1710922413174063218,2059,2048,2050,2073,2056,2038,1193
2026,1710922413184057676,2059,2050,2016,2052,2065,2068,1197
2027,1710922413194059357,2060,2044,1970,2045,2056,2077,1194
2028,1710922413204018538,2028,2024,1956,2048,2040,2029,1196
2029,1710922413214064153,2054,2111,2210,2062,2073,2064,1197
2030,1710922413224991980,2046,2040,2033,2053,2041,2030,1193
2031,1710922413234055975,2060,2063,2032,2060,2056,2061,1197
2032,1710922413244017550,2104,2258,2460,2066,2089,2054,1196
2033,1710922413254018109,2044,2030,2032,2056,2048,2047,1195
2034,1710922413264014812,2036,2038,2027,2104,2047,2029,1193
2035,1710922413274063212,2060,2032,1944,2098,2062,2093,1197
2036,1710922413284058250,2035,2038,1980,2128,2063,2056,1195
2037,1710922413294055584,2064,2038,1918,1941,1949,2024,1192
2038,1710922413304056454,2089,2240,2741,2101,2091,2102,1196
2039,1710922413314053387,2037,2008,1916,2037,2049,2018,1193
2040,1710922413324055579,2053,2041,2172,2032,2021,2042,1194
2041,1710922413334052441,2140,2301,3125,2115,2068,2126,1196
2042,1710922413344053562,2040,1994,1962,2063,2074,2000,1193
2043,1710922413354052589,2037,2040,2031,2056,2038,2025,1192
2044,1710922413364050843,2039,1985,1940,2064,2086,2117,1196
2045,1710922413374061652,2046,2036,2002,2064,2044,2024,1192
2046,1710922413384050770,2058,1992,1693,2112,2063,2059,1196
2047,1710922413394048124,2064,2001,1889,2073,2089,2106,1197
2048,1710922413404048302,2044,2043,2008,2015,2031,2027,1193
2049,1710922413414046257,2054,2062,2076,2009,2053,2026,1194
2050,1710922413424046686,2050,2068,1926,2039,2056,2084,1195
2051,1710922413434055181,2037,1997,1976,1975,2027,2053,1196
2052,1710922413444045210,2037,2012,1956,2052,2042,2025,1193
2053,1710922413454065336,2069,2072,2068,2027,2053,2096,1197
2054,1710922413464044826,2064,2088,2161,2065,2022,2040,1194
2055,1710922413474044213,2045,2019,1964,2008,2062,2047,1193
2056,1710922413484045424,2058,2038,2043,2092,2063,2050,1196
2057,1710922413494044320,2051,2056,2025,2092,2060,2058,1197
2058,1710922413504044749,2072,2117,2057,2040,2061,2050,1196
2059,1710922413514045409,2038,2026,1939,2060,2041,2056,1195
2060,1710922413524042852,2019,2030,1842,2064,2062,2037,1192
2061,1710922413534041758,2057,2061,2253,2067,2072,2071,1192
2062,1710922413544034854,2053,2100,2165,2100,2049,2086,1195
2063,1710922413554037437,2102,2160,2418,2084,2089,2070,1196
2064,1710922413564035482,2033,1998,1902,2025,2017,2029,1193
2065,1710922413574038576,2051,2064,2160,2054,2064,2042,1194
2066,1710922413584054976,2069,2050,1969,2021,2054,2054,1196
2067,1710922413594038272,2037,2056,2037,2068,2068,2070,1196
2068,1710922413604040064,2046,2010,1993,2060,1981,2056,1195
2069,1710922413614037647,2037,2028,1921,2024,2049,2047,1192
2070,1710922413624039079,2072,2073,2148,2065,2061,2058,1196
2071,1710922413634040089,2054,2039,1907,2035,2045,2041,1194
2072,1710922413644036080,2072,2074,2028,2062,2065,2062,1196
2073,1710922413654039555,2053,2070,2093,2027,2055,2070,1197
2074,1710922413664039373,2077,2120,2305,2068,2050,2059,1196
2075,1710922413674040283,2046,2030,1981,2094,1968,2017,1195
2076,1710922413684046052,2075,2092,2206,2083,2042,2071,1197
2077,1710922413694034879,2058,2021,2020,2061,2061,2056,1197
2078,1710922413704040569,2037,2030,1975,2028,2025,2050,1197
2079,1710922413714041038,2071,2045,1988,2058,2030,2073,1200
2080,1710922413724041998,2045,2069,2090,2044,2036,2036,1194
2081,1710922413734044661,2053,2037,2149,2080,2073,2072,1195
2082,1710922413744043197,2068,2040,2015,2061,2056,2058,1197
2083,1710922413754042665,2052,2062,2123,2056,2067,2049,1195
2084,1710922413764027965,2060,2070,2104,2089,2050,2056,1197
2085,1710922413774027723,2061,2040,2064,2048,2076,2052,1196
2086,1710922413784042670,2050,2034,2006,2045,2049,2037,1194
2087,1710922413794028371,2052,2032,2024,2063,2056,2055,1196
2088,1710922413804025885,2047,2029,1917,2075,2051,2041,1192
2089,1710922413814026163,2060,2032,1909,2057,2054,2075,1199
2090,1710922413824023096,2038,2032,2006,2089,2064,2049,1195
2091,1710922413834041500,2053,2042,2012,2068,2060,2045,1194
2092,1710922413844026489,2032,2043,2054,2047,2048,2041,1193
2093,1710922413854030595,2075,2128,2165,2094,2089,2038,1193
2094,1710922413864025403,2057,2078,2128,2057,2060,2051,1196
2095,1710922413874026144,2056,2053,2043,2053,2052,2044,1193
2096,1710922413885115798,2064,2092,2148,2090,2057,2074,1197
2097,1710922413894022333,2057,2089,2232,2092,2032,2036,1194
2098,1710922413904029675,2041,2028,1987,2029,2037,2042,1193
2099,1710922413914039964,2057,2064,2057,2043,2045,2053,1196
2100,1710922413924026717,2042,2016,1952,2059,2056,2029,1194
2101,1710922413934029069,2022,1995,1879,2058,2085,2105,1195
2102,1710922413944047332,2049,2038,1988,2029,2042,2048,1195
2103,1710922413954029087,2049,2057,2047,2058,2050,2050,1195
2104,1710922413964028073,2052,2034,2001,2057,2048,2040,1192
2105,1710922413974036898,2051,2044,2024,2071,2065,2079,1195
2106,1710922413984027778,2049,2024,2005,2038,2049,2062,1194
2107,1710922413994028499,2053,2045,2026,2074,2052,2042,1195
2108,1710922414004028697,2056,2054,2058,2046,2074,2060,1197
2109,1710922414014024027,2047,2045,1998,2036,2032,2032,1193
2110,1710922414024024566,2063,2037,1992,2036,2040,2044,1192
2111,1710922414034029414,2055,2036,1991,2136,2062,2074,1197
2112,1710922414044049080,2046,2041,2057,2047,2027,2025,1194
2113,1710922414054027667,2061,2040,2013,2064,2064,2082,1197
2114,1710922414064031362,2040,2016,2024,2067,2048,2036,1193
2115,1710922414074026972,2064,2024,1889,2047,2053,2053,1196
2116,1710922414084027342,2044,2045,2016,2078,2047,2062,1197
2117,1710922414094028923,2057,2101,2201,2046,2015,2053,1195
2118,1710922414104027729,2044,2032,1982,2046,2030,2034,1193
2119,1710922414114028709,2052,2044,2021,2060,2057,2048,1196
2120,1710922414124025732,2060,2073,2017,2051,2041,2062,1196
2121,1710922414134027233,2056,2057,2043,2049,2052,2059,1195
2122,1710922414144026540,2042,2018,1937,2084,2069,2054,1197
2123,1710922414154030606,2044,2036,2085,2045,2033,2037,1193
2124,1710922414164025626,2046,2034,2074,2036,2059,2045,1192
2125,1710922414174027657,2058,2042,2026,2056,2080,2061,1195
2126,1710922414184029519,2047,2050,2010,2045,2044,2040,1193
2127,1710922414194029517,2070,2081,2221,2061,2029,2050,1194
2128,1710922414204027342,2047,2048,2116,2018,2052,2050,1198
2129,1710922414214027150,2059,2053,2068,2052,2040,2037,1193
2130,1710922414224024293,2074,2133,2266,2021,2036,2040,1195
2131,1710922414234025022,2068,2053,1985,2016,2068,2056,1195
2132,1710922414244028879,2056,2081,1991,2037,2060,2064,1197
2133,1710922414254028286,2069,2106,2245,2087,2051,2063,1197
2134,1710922414264022964,2041,2007,1936,2066,2008,2042,1195
2135,1710922414274023122,2048,2024,1977,2058,2065,2052,1197
2136,1710922414284027018,2037,2011,1928,2075,2058,2062,1196
2137,1710922414294042446,2053,2032,1912,2040,2044,2042,1193
2138,1710922414304033417,2056,2073,2152,2068,2058,2037,1193
2139,1710922414314024919,2066,2068,2085,2025,2081,2079,1196
2140,1710922414324024046,2058,2061,2109,2040,2053,2050,1196
2141,1710922414334024516,2043,2060,2053,2043,2045,2033,1191
2142,1710922414344026578,2073,2068,2032,2040,2057,2077,1195
2143,1710922414354030473,2039,2038,2052,2083,2032,2020,1193
2144,1710922414364029731,2060,2061,2115,2057,2066,2044,1192
2145,1710922414374026272,2064,2060,2012,2025,2009,2060,1195
2146,1710922414384031581,2056,2056,2164,2032,2059,2051,1195
2147,1710922414394029535,2059,2064,2070,2075,2058,2036,1193
2148,1710922414404020376,2071,2084,2080,2074,2048,2043,1193
2149,1710922414414031646,2027,2031,1987,2045,2051,2070,1196
2150,1710922414424021224,2055,2038,2100,2061,2053,2054,1195
2151,1710922414434028697,2062,2050,2144,2053,2047,2052,1195
2152,1710922414444029196,2066,2075,2101,2075,2080,2083,1195
2153,1710922414454039675,2068,2024,1956,2030,2046,2048,1199
2154,1710922414464030866,2076,2057,1964,2049,2056,2075,1196
2155,1710922414474031816,2046,2022,1954,2064,2042,2031,1193
2156,1710922414484037406,2064,2057,2012,2056,2067,2061,1195
2157,1710922414494062021,2055,2114,2216,2106,2068,2062,1196
2158,1710922414504057440,2022,2010,2120,2045,2060,2045,1193
2159,1710922414514031970,2050,2040,1935,2034,2048,2048,1195
2160,1710922414524023563,2057,2044,2024,2047,2047,2048,1195
2161,1710922414534054560,2055,2053,2081,2062,2058,2056,1193
2162,1710922414544057313,2059,2052,2027,2049,2048,2052,1195
2163,1710922414554056490,2059,2051,2035,2021,2034,2051,1195
2164,1710922414564055146,2058,2084,2203,2051,2060,2034,1192
2165,1710922414574052730,2045,2021,2028,2045,2058,2081,1194
2166,1710922414584038922,2041,2029,1972,2040,2029,2027,1193
2167,1710922414594057586,2072,2100,2237,2072,2065,2057,1196
2168,1710922414604050371,2049,2036,2001,2016,2030,2056,1195
2169,1710922414614049287,2072,2036,1985,2035,2036,2063,1197
2170,1710922414624050217,2042,2029,2032,2056,2057,2051,1195
2171,1710922414634049764,2054,2047,2044,2040,2053,2033,1193
2172,1710922414644050334,2076,2058,2056,2104,2081,2078,1196
2173,1710922414654050533,2050,2029,1961,2047,2051,2040,1193
2174,1710922414664049319,2052,2040,2019,2053,2065,2052,1196
2175,1710922414674060959,2058,2073,2086,2084,2047,2042,1194
2176,1710922414684050287,2044,2054,1979,2059,2052,2066,1195
2177,1710922414693995342,2064,2058,2104,2038,2041,2059,1197
2178,1710922414704048050,2051,2033,1992,2060,2045,2038,1192
2179,1710922414714046164,2066,2048,2072,2061,2052,2060,1196
2180,1710922414724050582,2052,2088,2296,2040,2036,2040,1193
2181,1710922414734049087,2062,2052,2036,2060,2060,2056,1193
2182,1710922414744055768,2042,2037,1948,2037,2042,2036,1192
2183,1710922414754044515,2055,2052,2026,2061,2045,2046,1192
2184,1710922414764043071,2051,2081,2159,2061,2065,2046,1192
2185,1710922414774043660,2058,2024,2040,2043,2053,2069,1193
2186,1710922414784055631,2044,2042,2040,2050,2050,2025,1192
2187,1710922414794001857,2068,2056,2036,2032,2061,2072,1194
2188,1710922414804043796,2049,2020,1927,2036,2050,2036,1192
2189,1710922414814043494,2047,2041,2146,2072,2036,2046,1193
2190,1710922414824052699,2090,2108,2346,2090,2079,2070,1196
2191,1710922414834078897,2064,2093,2136,2088,2085,2044,1193
2192,1710922414844045953,2049,2053,1985,2030,2042,2120,1197
2193,1710922414854042746,2052,2044,2028,2050,2052,2016,1194
2194,1710922414864045970,2040,2009,1909,1996,2031,2056,1195
2195,1710922414874046018,2057,2060,2018,2033,2068,2073,1196
2196,1710922414884048952,2076,2072,2024,2101,2081,2065,1196
2197,1710922414894050253,2047,2078,2440,2090,2056,2062,1197
2198,1710922414904047947,2051,2045,2010,2050,2084,2048,1197
2199,1710922414914046743,2068,2019,1930,2066,2056,2056,1196
2200,1710922414924047693,2064,2116,2180,2079,2052,2058,1195
2201,1710922414934030930,2044,2031,1950,2040,2037,2043,1191
2202,1710922414944031730,2040,2036,1973,2060,2063,2032,1196
2203,1710922414954049341,2040,2042,2015,2056,2069,2080,1198
2204,1710922414964032808,2112,2150,2278,2116,2061,2040,1193
2205,1710922414974030854,2059,2115,2402,2061,2034,2048,1196
2206,1710922414984050238,2036,2029,2003,2026,2067,2064,1196
2207,1710922414994029708,2047,2044,2054,2008,2036,2045,1191
2208,1710922415004034094,2069,2068,2079,2062,2097,2060,1195
2209,1710922415014031719,2069,2109,2147,2098,2100,2089,1194
2210,1710922415024032318,2037,2093,1981,2093,2076,2056,1193
2211,1710922415034032747,2040,2100,2116,2169,2056,2076,1197
2212,1710922415044034989,2064,2079,2170,2024,2052,2051,1198
