seq,time,data[0],data[1],data[2],data[3],data[4],data[5],data[6]
201,1710922205099905758,2069,2133,2376,2052,2066,2072,1193
202,1710922205109908391,2050,2014,1887,2031,1991,2036,1192
203,1710922205119907058,2040,2038,2012,2104,2037,2047,1192
204,1710922205129915673,2092,2142,2520,2039,2021,2080,1194
205,1710922205139906374,2026,2014,1932,1989,1997,2031,1192
206,1710922205149904269,2057,2035,1886,2088,2094,2072,1194
207,1710922205159904788,2040,2024,1973,2064,2051,2050,1197
208,1710922205169906771,2045,2030,1886,2108,2064,2040,1193
209,1710922205179904796,2056,2043,2056,2078,2019,2073,1195
210,1710922205189907570,2052,2064,2099,2064,2039,2041,1196
211,1710922205199905455,2060,2047,2061,2012,2070,2069,1196
212,1710922205209905614,2044,2014,1949,2034,2036,2058,1195
213,1710922205219905854,2040,2021,1912,2057,2037,2036,1194
214,1710922205229906132,2054,2042,2093,2054,2036,2041,1194
215,1710922205239906853,2053,2045,2048,2078,2044,2051,1196
216,1710922205249906782,2056,2050,2057,2056,2053,2049,1195
217,1710922205259907311,2049,2002,1896,2050,2054,2053,1196
218,1710922205269907731,2052,2064,2060,2047,2038,2049,1196
219,1710922205279909112,2053,2075,2119,2058,2057,2056,1196
220,1710922205289908410,2086,2160,2446,2067,2064,2065,1194
221,1710922205299909060,2057,2040,2009,2052,2056,2056,1197
222,1710922205309909850,2056,2048,2054,2062,2058,2052,1196
223,1710922205319909518,2056,2050,2040,2063,2060,2053,1195
224,1710922205329910719,2028,2046,2049,2072,2050,2050,1194
225,1710922205339915617,2062,2088,2114,2062,2062,2061,1194
226,1710922205349922750,2052,2071,2077,2044,2052,2050,1195
227,1710922205359919201,2057,2075,2105,2027,2045,2059,1194
228,1710922205369926735,2045,2042,2042,1969,2041,2048,1194
229,1710922205379921343,2052,2048,2054,2073,2060,2056,1193
230,1710922205389919458,2067,2066,2043,2017,2039,2056,1195
231,1710922205399919067,2047,2045,2054,2024,2046,2047,1192
232,1710922205409919055,2060,2056,2069,2064,2064,2051,1193
233,1710922205419920617,2057,2044,2036,1992,2037,2084,1195
234,1710922205429938059,2043,2040,2033,2000,2033,2069,1196
235,1710922205439922367,2047,2042,2024,1967,2040,2053,1194
236,1710922205449923519,2061,2079,2103,2088,2073,2049,1195
237,1710922205459922595,2051,2056,2054,2045,2037,2040,1192
238,1710922205469926983,2056,2040,2040,2120,2076,2059,1195
239,1710922205479927693,2056,2048,2056,2006,2042,2052,1196
240,1710922205489919175,2056,2052,2061,2069,2064,2052,1194
241,1710922205499923332,2048,2050,2051,2062,2056,2049,1195
242,1710922205509923762,2057,2064,2073,2082,2076,2056,1192
243,1710922205519923600,2053,2047,2046,2078,2058,2059,1194
244,1710922205529922768,2057,2049,2035,2006,2057,2026,1191
245,1710922205539925872,2044,2047,2040,2010,2008,2005,1192
246,1710922205549925089,2072,2060,2047,2106,2056,2060,1197
247,1710922205559924486,2052,2061,2075,2059,2062,2055,1194
248,1710922205569935056,2054,2046,2046,2075,2074,2061,1196
249,1710922205579929354,2058,2054,2068,2037,2047,2053,1194
250,1710922205589926256,2059,2072,2094,2042,2069,2037,1194
251,1710922205599924883,2049,2056,2052,2022,2060,2040,1192
252,1710922205609925573,2080,2102,2168,2009,1985,2059,1197
253,1710922205619939017,2038,2045,2032,2053,2057,2031,1192
254,1710922205629923527,2041,1948,1849,2057,2042,2064,1195
255,1710922205639924457,2023,2004,1951,2020,1916,1993,1192
256,1710922205649926861,2089,2093,2081,2080,2162,2125,1194
257,1710922205659929104,2050,2012,2121,2036,2056,2032,1191
258,1710922205669937799,2060,2032,2048,2091,2089,2048,1193
259,1710922205679943398,2064,2105,2263,1956,2154,2084,1195
260,1710922205689927186,2076,2072,2096,2018,1968,2040,1193
261,1710922205699930261,2040,2023,1952,2050,1945,2033,1194
262,1710922205709931311,2056,2079,2224,2096,2072,2033,1190
263,1710922205719999880,2056,2060,2058,2069,2075,2037,1194
264,1710922205729934976,2056,2046,2020,2052,2032,2048,1194
265,1710922205739934353,2053,2004,1893,2060,2079,2065,1195
266,1710922205749948639,2035,2028,1839,2025,2089,2033,1192
267,1710922205759937437,2049,2042,2044,2061,2057,2050,1195
268,1710922205769909703,2050,2044,2025,2036,2010,2056,1197
269,1710922205779912157,2058,2098,2080,2106,2030,2078,1196
270,1710922205789931842,2056,2063,2033,2028,2010,2038,1193
271,1710922205799913286,2060,2020,1954,2024,2053,2059,1196
272,1710922205809913536,2037,2025,2009,2030,2012,2047,1193
273,1710922205819910218,2046,2014,1947,2052,2056,2069,1195
274,1710922205829915737,2049,2043,1937,2012,2026,2037,1196
275,1710922205839913511,2045,2067,2084,2068,2029,2028,1196
276,1710922205849911817,2068,2041,1990,2124,2056,2060,1195
277,1710922205859941443,2047,2041,2036,2056,2089,2040,1193
278,1710922205869911013,2078,2092,2044,2064,2092,2062,1196
279,1710922205879914128,2042,2042,2032,2060,2054,2044,1193
280,1710922205889943132,2050,2056,1999,2048,2042,2022,1193
281,1710922205899918804,2073,2024,1925,2044,2052,2084,1196
282,1710922205909914275,2049,2037,2118,2105,2041,2048,1197
283,1710922205919912199,2068,2056,2216,2120,2165,2052,1194
284,1710922205929913461,2089,2078,1995,2043,2107,2078,1195
285,1710922205939918199,2072,2106,2053,2038,2087,2047,1194
286,1710922205949910242,2011,2006,1963,2049,2056,2023,1192
287,1710922205959908197,2084,2037,2040,2077,2047,2052,1196
288,1710922205969903527,2074,2093,2103,2098,2083,2066,1194
289,1710922205979870193,2037,2040,2069,2062,1998,2013,1190
290,1710922205989908323,2084,2164,2524,2090,2112,2162,1196
291,1710922205999907921,2056,2024,1940,2065,2083,2029,1193
292,1710922206009904845,2045,2025,2053,2048,2081,2069,1195
293,1710922206019936733,2065,2015,1856,2052,2072,2047,1194
294,1710922206029909180,2044,2021,1980,2053,2049,2054,1198
295,1710922206039933996,2066,2084,2066,2108,2076,2057,1194
296,1710922206049911552,2084,2093,2216,2088,2103,2052,1196
297,1710922206059914517,2077,2097,2022,2085,2082,2074,1194
298,1710922206069920066,2037,2031,2029,2034,2024,2030,1193
299,1710922206079939301,2088,2079,2187,2204,2079,2070,1196
300,1710922206089903503,2056,2081,2061,2047,2058,2068,1194
301,1710922206099911055,2065,2051,2040,2053,2046,2056,1193
302,1710922206109908549,2064,2043,1992,1984,2074,2065,1194
303,1710922206119907546,2060,1989,1832,2074,2059,2082,1194
304,1710922206129932412,2051,2073,2024,1968,2036,2019,1192
305,1710922206139906331,2060,2051,2096,2056,2047,2042,1191
306,1710922206149905468,2043,2015,1902,2092,2053,2067,1193
307,1710922206159902572,2038,2008,2001,2035,2026,2034,1192
308,1710922206169902881,2046,2042,2038,2028,2021,2057,1195
309,1710922206179940331,2060,2046,2072,2016,2036,2046,1193
310,1710922206189920903,2047,2002,1960,2144,2085,2054,1196
311,1710922206199901855,2026,2040,2048,2080,2056,2038,1192
312,1710922206209910481,2075,2066,2081,2058,2036,2049,1197
313,1710922206219912443,2056,2072,2152,2067,2049,2059,1197
314,1710922206229910218,2065,2104,2230,2053,2115,2064,1196
315,1710922206239909966,2047,2028,2022,2095,2044,2073,1195
316,1710922206249903292,2048,2062,2106,2027,2010,2036,1192
317,1710922206259904173,2033,2028,1985,1988,2045,2037,1193
318,1710922206269904161,2084,2050,1992,2043,2068,2080,1196
319,1710922206279936652,2044,2034,1948,2045,2038,2031,1192
320,1710922206289885744,2104,2097,2092,2037,2058,2072,1197
321,1710922206299911942,2036,2016,1968,2055,2038,2076,1194
322,1710922206309911270,2040,2055,2035,2076,2026,2030,1192
323,1710922206319909935,2065,2028,1932,2087,2080,2077,1196
324,1710922206329912820,2044,2022,1913,2054,2005,2041,1192
325,1710922206339911908,2050,2036,2113,2018,1992,2036,1193
326,1710922206349928878,2048,2032,2030,2089,2141,2056,1195
327,1710922206359912206,2052,2021,1917,2014,2033,2021,1195
328,1710922206369909078,2030,1988,1856,2048,2029,2049,1193
329,1710922206379914788,2045,2012,1995,2065,2057,2045,1191
330,1710922206389906000,2029,2026,2020,2106,2060,2037,1194
331,1710922206399907251,2052,2056,2088,2030,2039,2039,1191
332,1710922206409909945,2065,2075,2114,2060,2094,2065,1195
333,1710922206419911888,2081,2014,1960,2068,1989,2040,1193
334,1710922206429906957,2066,2134,2456,2150,2113,2116,1197
335,1710922206439912036,2044,2046,2125,2112,2052,2049,1196
336,1710922206449922053,2093,2038,1901,2068,2090,2068,1196
337,1710922206459911652,2047,2024,2026,2045,2063,2065,1195
338,1710922206469908354,2043,2047,2104,2060,2053,2028,1193
339,1710922206480381701,2086,2080,2250,2101,2040,2072,1196
340,1710922206489945864,2026,2022,1976,2122,2065,2052,1196
341,1710922206499943537,2032,2010,1876,2045,2040,2036,1192
342,1710922206509918108,2061,2068,1996,2154,2145,2082,1194
343,1710922206519916183,2046,2006,1984,2068,2049,2035,1192
344,1710922206529917294,2061,2069,2108,2096,2080,2058,1192
345,1710922206539923946,2067,2090,2252,2062,2059,2059,1194
346,1710922206549916480,2053,2033,2032,1988,2081,2043,1192
347,1710922206559917771,2082,2052,2002,2040,2024,2064,1196
348,1710922206569917460,2101,2185,2446,2100,2076,2062,1194
349,1710922206579928389,2065,2134,2482,2058,2056,2061,1194
350,1710922206589938217,2045,2041,1986,2034,2016,2046,1195
351,1710922206599921483,2051,2029,2050,2064,2084,2064,1196
352,1710922206609917795,2059,2022,1985,2041,2052,2029,1192
353,1710922206619917233,2055,2101,2104,2056,2014,2016,1194
354,1710922206629913945,2050,2032,1945,2049,2060,2084,1198
355,1710922206639917341,2047,1998,1957,2045,1985,2028,1194
356,1710922206649916027,2042,2026,1913,1964,1990,2035,1194
357,1710922206659945842,2036,2081,2140,2028,2060,2047,1191
358,1710922206669922668,2073,2049,2002,2068,2043,2069,1196
359,1710922206679948094,2042,2059,2085,2064,2001,2029,1192
360,1710922206689932353,2054,2029,1998,2033,2021,2029,1193
361,1710922206699916802,2058,2044,2181,2061,2063,2090,1194
362,1710922206709916891,2048,2024,1976,2025,2034,2029,1190
363,1710922206719918593,2056,2070,2226,2047,2076,2072,1196
364,1710922206729926497,2064,2052,1982,2088,2084,2053,1196
365,1710922206739920625,2085,2132,2106,2056,2061,2072,1196
366,1710922206749953526,2035,2056,2068,2029,2036,2021,1194
367,1710922206759923377,2047,2021,1946,2083,2044,2051,1195
368,1710922206769925721,2050,2033,2036,2074,2057,2020,1192
369,1710922206779921701,2058,2069,2065,2033,2030,2036,1193
370,1710922206789923083,2057,2085,2185,2120,2086,2074,1194
371,1710922206799920677,2057,2010,1845,1934,2021,2056,1196
372,1710922206809920275,2023,2017,1924,2052,1997,2029,1193
373,1710922206819923841,2034,2053,2077,2101,2046,2081,1196
374,1710922206829922777,2048,2082,2268,2013,2047,2049,1197
375,1710922206839948565,2062,2052,2086,2072,2082,2059,1195
376,1710922206849926091,2060,1981,1917,2014,2062,2039,1193
377,1710922206859925770,2065,2104,2362,2084,2120,2060,1195
378,1710922206869926991,2037,2073,2116,2057,2059,2026,1195
379,1710922206879963729,2052,2042,2015,2128,2050,2062,1194
380,1710922206889935775,2076,2129,2296,2081,2058,2044,1192
381,1710922206899934481,2065,2112,2287,2031,2056,2073,1198
382,1710922206909929070,2044,2076,2108,2045,2037,2057,1195
383,1710922206919925793,2037,2047,1989,2040,2046,2034,1193
384,1710922206929925260,2040,2034,1962,2045,2040,2040,1192
385,1710922206939925920,2049,2123,2274,2045,2076,2065,1196
386,1710922206949925077,2053,2059,2101,2050,2076,2053,1197
387,1710922206959938591,2048,2010,1948,2071,2061,2038,1193
388,1710922206969927490,2061,2043,2104,2091,2107,2126,1194
389,1710922206979954950,2060,2045,2050,2063,2057,2047,1189
390,1710922206989936654,2042,2077,2124,2049,2045,2040,1193
391,1710922206999876539,2057,2145,2217,2023,2007,2046,1193
392,1710922207009915141,2037,2038,1968,2025,2044,2021,1192
393,1710922207019915441,2058,2103,2177,2075,2070,2031,1194
394,1710922207029920007,2088,2133,2254,2050,2033,2058,1196
395,1710922207039929114,2041,2010,2038,2059,2018,2040,1192
396,1710922207049917621,2046,2004,2015,2000,2041,2049,1196
397,1710922207059923961,2076,2045,1970,2060,2100,2049,1195
398,1710922207069915344,2057,2064,2050,2070,2017,2050,1195
399,1710922207079942324,2071,2083,2072,2066,2095,2100,1195
400,1710922207089912466,2060,2064,2012,2107,2075,2072,1196
401,1710922207099921302,2082,2202,2414,2032,2041,2041,1194
402,1710922207109916752,2058,2020,1937,2036,2062,2059,1193
403,1710922207119917172,2045,2015,1960,2056,2056,2054,1197
404,1710922207129918412,2040,2030,2002,2082,2040,2044,1193
405,1710922207139943328,2047,2089,2151,2032,2047,2041,1193
406,1710922207149886179,2056,1993,1867,2196,2101,2058,1194
407,1710922207159915533,2060,2098,2122,2064,2075,2041,1193
408,1710922207169915753,2061,2079,2072,2056,2034,2037,1192
409,1710922207179946719,2049,2046,1963,2088,2079,2060,1195
410,1710922207189921521,2073,2077,2044,2041,1998,2056,1194
411,1710922207199914386,2044,2024,1977,2056,2047,2081,1193
412,1710922207209927379,2064,2048,1908,2036,2054,2047,1193
413,1710922207219918151,2074,2117,2179,2066,2064,2046,1193
414,1710922207229919041,2026,2033,2012,2126,2084,2062,1197
415,1710922207239917247,2069,2040,2008,2073,2038,2045,1193
416,1710922207249922135,2037,2051,2076,2102,2069,2052,1196
417,1710922207259918827,2076,2096,2050,2053,2050,2094,1193
418,1710922207269918886,2045,2071,2088,2029,2034,2046,1192
419,1710922207279958309,2088,2094,2143,2060,2049,2072,1197
420,1710922207289937910,2032,1998,1909,2060,2037,2033,1192
421,1710922207299914464,2026,2021,1926,2066,2041,2028,1194
422,1710922207309918490,2042,2020,1916,2055,2058,2067,1193
423,1710922207319915023,2051,2024,1939,2077,2015,2059,1193
424,1710922207329918177,2010,1970,1881,2023,2063,2066,1195
425,1710922207339924889,2027,1992,1949,2049,2012,2044,1193
426,1710922207349922403,2057,2024,2037,2034,2041,2048,1199
427,1710922207359915248,2037,2045,2000,2080,2052,2034,1194
428,1710922207369919355,2058,2070,2117,2056,2061,2025,1192
429,1710922207379923591,2036,2039,2124,1969,2047,2059,1196
430,1710922207389923059,2041,1984,1787,1993,2043,2066,1194
431,1710922207399921024,2037,2032,2067,2059,2030,2032,1192
432,1710922207409914901,2043,2024,1956,2082,2080,2057,1195
433,1710922207419911945,2061,2076,2013,2012,2077,2052,1197
434,1710922207429916291,2060,2113,2104,2052,2052,2033,1193
435,1710922207439916821,2052,1993,1892,2127,2047,2056,1195
436,1710922207449942519,2054,2058,2140,2070,2074,2056,1195
437,1710922207459935033,2035,2024,1943,2058,2036,2052,1196
438,1710922207469915605,2064,2052,2012,2041,2031,2044,1193
439,1710922207479918749,2057,2046,2040,2077,2070,2065,1193
440,1710922207489920803,2041,2044,2034,1993,2022,2032,1193
441,1710922207499917626,2068,2147,2385,2094,2016,2044,1192
442,1710922207509876656,2034,2022,2024,2013,2009,2016,1191
443,1710922207519859854,2068,2079,2174,2104,2072,2074,1194
444,1710922207529873698,2051,2085,2116,2080,2072,2034,1190
445,1710922207539850223,2045,2019,1953,2108,2058,2054,1196
446,1710922207549916618,2078,2109,2201,2078,2092,2033,1192
447,1710922207559914802,2049,2037,2034,2047,2049,2067,1195
448,1710922207569913289,2052,2050,2040,2000,2008,1996,1192
449,1710922207579917435,2074,2042,1996,2093,2124,2134,1196
450,1710922207589938654,2042,2038,2013,2076,2016,2025,1194
451,1710922207600093978,2052,2047,2214,2074,2072,2087,1196
452,1710922207609930927,2060,2085,2236,2073,2057,2058,1195
453,1710922207619920065,2064,2008,1972,2055,2054,2054,1196
454,1710922207629920565,2056,2027,1977,1986,2017,2037,1193
455,1710922207639920473,2038,2081,2104,2082,2045,2020,1193
456,1710922207649930151,2035,2022,1957,2051,2123,2127,1194
457,1710922207659883100,2050,2050,2024,2004,2026,2014,1193
458,1710922207669916923,2058,2047,1998,2066,2075,2066,1195
459,1710922207679922062,2056,2053,1822,2059,2047,2050,1195
460,1710922207689928823,2041,2040,2034,2003,2059,2028,1194
461,1710922207699917621,2045,2028,2017,2010,2050,2043,1193
462,1710922207709912920,2070,2088,2130,2043,2054,2048,1191
463,1710922207719920464,2056,2054,2117,2066,2073,2086,1194
464,1710922207729920522,2060,2081,2241,2056,2064,2044,1193
465,1710922207739949075,2065,2116,2194,2087,2073,2065,1196
466,1710922207749921121,2039,2015,1940,2014,2060,2075,1193
467,1710922207759924927,2046,2061,2277,2045,2024,2050,1194
468,1710922207769916981,2035,2036,2026,2022,2026,2034,1193
469,1710922207779920507,2064,2009,1952,2043,2038,2056,1193
470,1710922207789947616,2065,1997,1825,2153,2067,2048,1195
471,1710922207799928640,2088,2090,2140,2061,2098,2080,1194
472,1710922207809918789,2062,2068,2177,2026,2044,2065,1196
473,1710922207819917215,2056,2054,2028,2085,2084,2077,1194
474,1710922207829918927,2050,2021,1925,2068,2054,2044,1194
475,1710922207839919056,2066,2132,2348,2044,2056,2056,1194
476,1710922207849921630,2056,2044,1994,2058,2032,2058,1196
477,1710922207859919795,2059,2040,2133,2112,2053,2073,1195
478,1710922207869917429,2041,2038,2041,2040,2068,2043,1193
479,1710922207879921767,2052,2072,2120,2039,2052,2032,1192
480,1710922207889943817,2062,2057,2162,2048,2016,2050,1196
481,1710922207899919169,2068,2012,1972,2052,2052,2052,1197
482,1710922207909922744,2052,2040,1985,2058,2052,2052,1196
483,1710922207919921892,2047,2039,2067,2047,2069,2075,1195
484,1710922207929921008,2076,2046,1960,2000,2067,2037,1192
485,1710922207939921428,2042,2037,2044,2001,2037,2045,1193
486,1710922207949926066,2066,2078,2004,2045,2036,2046,1193
487,1710922207959922778,2038,2040,1988,2034,2028,2076,1194
488,1710922207969918900,2042,2040,2049,2048,2047,2032,1192
489,1710922207979924279,2033,2040,1962,2040,2056,2030,1193
490,1710922207989925690,2034,1990,1944,2015,2070,2060,1194
491,1710922207999923505,2088,2112,2294,2066,2069,2067,1194
492,1710922208009917963,2039,2058,2005,2064,2058,2020,1193
493,1710922208019915056,2058,2111,2257,2056,2021,2061,1196
494,1710922208029920125,2066,2001,1954,2096,2075,2073,1197
495,1710922208039917949,2042,1987,1876,2001,2016,2031,1193
496,1710922208049925914,2050,2052,2036,2052,2055,2045,1192
497,1710922208059927675,2065,1940,1664,2034,2054,2056,1196
498,1710922208069922444,2088,2093,2148,2033,2047,2040,1192
499,1710922208079923205,2056,2072,2135,2143,2114,2096,1194
500,1710922208089945936,2033,2056,2068,2040,2050,2025,1193
501,1710922208099926108,2068,2057,2032,2115,2082,2078,1194
502,1710922208109918181,2061,2083,2094,2066,2045,2043,1192
503,1710922208119919312,2051,2068,2106,2045,2043,2056,1196
504,1710922208129926916,2047,2037,2081,2049,2082,2085,1195
505,1710922208139918328,2071,2092,2165,2038,2024,2060,1195
506,1710922208149914820,2078,2104,2104,2074,2085,2130,1195
507,1710922208159917233,2037,2020,1982,2030,2024,2035,1192
508,1710922208169919406,2068,2084,2100,2117,2065,2056,1196
509,1710922208179918714,2048,2057,2047,2077,2025,2044,1192
510,1710922208189914524,2062,2091,2152,2053,2058,2047,1192
511,1710922208199911508,2040,2029,2028,2004,2044,2061,1196
512,1710922208209917327,2085,2156,2440,2085,2117,2077,1195
513,1710922208219907117,2078,2144,2435,2107,2068,2088,1194
514,1710922208229906986,2028,2082,2166,1999,2064,2027,1193
515,1710922208239921121,2005,2008,2040,2041,2048,2058,1195
516,1710922208249912734,2062,2009,1960,2023,2028,2062,1195
517,1710922208259907111,2081,2121,2277,2080,2061,2058,1194
518,1710922208269902211,2031,1957,1732,2057,2042,2020,1193
519,1710922208279923480,2045,2011,1922,2120,2057,2057,1196
520,1710922208289934089,2072,2046,1945,2005,2076,2074,1195
521,1710922208299904903,2050,2113,2249,2079,2040,2052,1196
522,1710922208309899200,2050,2032,2088,2055,2040,2028,1191
523,1710922208319909148,2057,2053,2064,2018,2056,2068,1195
524,1710922208329910801,2062,2038,2077,2052,2056,2064,1194
525,1710922208339902323,2056,2010,1863,2073,2075,2045,1192
526,1710922208349914174,2040,2033,1908,2108,2012,2011,1194
527,1710922208359910045,2052,2028,1970,2004,2025,2043,1192
528,1710922208369909423,2047,2108,2129,2072,2024,2059,1196
529,1710922208379930351,2031,2005,1925,2028,2045,2056,1197
530,1710922208389911494,2052,2059,2174,2089,2068,2049,1196
531,1710922208399909589,2089,2084,1982,1993,2057,2084,1196
532,1710922208409910810,2045,2038,1987,2041,2039,2035,1194
533,1710922208419905339,2040,2013,1904,2044,2012,2026,1195
534,1710922208429901591,2056,2043,1982,2120,2098,2049,1198
535,1710922208439902230,2056,2036,2013,2060,2057,2056,1195
536,1710922208449907609,2030,2044,2128,2107,2076,2046,1193
537,1710922208459921724,2068,2062,2076,2132,2084,2047,1193
538,1710922208469918197,2058,2088,2042,2065,2109,2052,1197
539,1710922208479927674,2053,2014,1839,2134,2044,2037,1193
540,1710922208489927271,2084,2117,2158,2100,2072,2061,1196
541,1710922208499920548,2048,2028,2024,2057,2052,2049,1196
542,1710922208509924283,2046,2109,2186,2083,2044,2052,1195
543,1710922208519922739,2054,1993,1797,2072,2034,2029,1194
544,1710922208529923229,2037,2015,1856,2134,2070,2072,1194
545,1710922208539917887,2047,2049,1982,1973,2045,2043,1193
546,1710922208549919099,2066,2091,2093,2010,2029,2039,1192
547,1710922208559929106,2027,2011,1941,2058,2050,2089,1197
548,1710922208569920769,2056,2088,2168,2108,2062,2048,1196
549,1710922208579926960,2044,2047,1990,2050,2052,2047,1194
550,1710922208589921959,2075,2102,2051,1960,2072,2064,1195
551,1710922208599920816,2057,2104,2125,2026,2068,2064,1196
552,1710922208609917097,2064,2046,1992,2030,2042,2049,1195
553,1710922208619913289,2064,2029,1925,2064,2047,2038,1194
554,1710922208629913629,2042,2013,1932,2041,2051,2064,1197
555,1710922208639913777,2054,2060,1996,2104,2032,2062,1195
556,1710922208649919477,2060,2043,1998,2037,2036,2036,1194
557,1710922208659924365,2069,2037,1954,2105,2058,2056,1196
558,1710922208669916549,2045,2059,2083,2114,2075,2033,1193
559,1710922208679921858,2069,2033,1949,2078,2077,2080,1198
560,1710922208689938508,2047,2022,1968,2018,2026,2048,1193
561,1710922208699983212,2075,2065,2079,2094,2072,2058,1196
562,1710922208709916674,2056,2020,1956,2019,2041,2042,1189
563,1710922208719916543,2046,2063,2102,2011,2043,2038,1194
564,1710922208729916783,2061,2079,2109,2115,2073,2088,1195
565,1710922208739917201,2061,2027,2015,2066,2092,2074,1197
566,1710922208749917541,2057,2024,1887,2012,2066,2083,1194
567,1710922208759918922,2047,2024,2019,2077,2041,2032,1193
568,1710922208769918781,2058,2082,2164,2060,2057,2038,1192
569,1710922208779919191,2056,2063,2068,2114,2056,2051,1194
570,1710922208789917786,2060,2021,1954,2042,2040,2059,1195
571,1710922208799924047,2065,2072,2076,2076,2049,2028,1192
572,1710922208809920689,2056,2066,2082,2090,2062,2052,1194
573,1710922208819922772,2053,2041,1956,2081,2061,2077,1196
574,1710922208829922291,2055,2045,2049,2054,2047,2022,1191
575,1710922208839922549,2070,2086,2065,2064,2060,2056,1196
576,1710922208849923981,2072,2078,2162,2046,2046,2030,1194
577,1710922208859921775,2040,2037,2005,2044,2064,2062,1195
578,1710922208869931332,2047,2021,2137,2042,2047,2041,1192
579,1710922208879923426,2058,2056,2085,2107,2094,2089,1196
580,1710922208889931460,2059,2058,2034,2025,2055,2029,1193
581,1710922208899921981,2044,2064,2095,2067,2082,2050,1196
582,1710922208909902132,2068,1994,1884,2036,2058,2074,1194
583,1710922208919922429,2036,2024,1929,1982,2028,2015,1193
584,1710922208929922118,2091,2154,2552,2076,2069,2084,1196
585,1710922208939923168,2060,2077,2076,2045,2027,2030,1192
586,1710922208949906566,2064,2082,2106,2060,2092,2100,1195
587,1710922208959907045,2074,2137,2086,2152,2045,2025,1193
588,1710922208969906844,2051,2037,2027,2015,2029,2025,1192
589,1710922208979897675,2070,2073,2090,2102,2048,2076,1195
590,1710922208989924615,2084,2108,2045,2117,2089,2061,1196
591,1710922208999925956,2033,1996,1902,2104,2046,2039,1191
592,1710922209009926696,2033,2005,1901,1937,2023,2044,1194
593,1710922209019909613,2050,2018,1898,2088,2061,2040,1192
594,1710922209029931783,2072,2124,2131,2065,2067,2051,1195
595,1710922209039909279,2063,2057,2120,2021,2034,2040,1192
596,1710922209049908016,2051,2022,1944,2035,2050,2065,1195
597,1710922209059907964,2064,2058,2047,2137,2069,2064,1197
598,1710922209069910438,2052,2041,1990,2046,2056,2060,1192
599,1710922209079911649,2058,2076,2137,2085,2025,2026,1192
600,1710922209089911287,2072,2170,2545,2068,2089,2089,1196
601,1710922209099910986,2052,2033,1991,2040,2034,2044,1194
602,1710922209109938526,2077,2161,2228,2088,2057,2060,1194
603,1710922209119911494,2048,2030,1963,2004,2054,2071,1196
604,1710922209129933774,2049,2042,2040,2042,2037,2037,1190
605,1710922209139906812,2047,2026,1952,2128,2079,2062,1197
606,1710922209149908585,2031,2020,2014,2023,2016,2049,1195
607,1710922209159906509,2042,2049,2126,2005,2052,2057,1195
608,1710922209169906859,2046,2037,1961,2004,2025,2017,1192
609,1710922209179913440,2069,2081,2112,2031,2045,2060,1194
610,1710922209189913459,2057,2118,2136,2212,2082,2064,1196
611,1710922209199906615,2058,2082,2203,2031,2058,2059,1195
612,1710922209209906172,2041,2021,2036,2072,2066,2014,1194
613,1710922209219932491,2062,2015,1961,2065,2066,2093,1196
614,1710922209229907021,2040,2037,2005,1969,2052,2024,1194
615,1710922209239914655,2054,2056,2067,2046,2044,2051,1195
616,1710922209249907581,2060,2062,2057,2078,2085,2059,1195
617,1710922209259906356,2050,2024,1888,2064,2061,2040,1193
618,1710922209269906316,2047,2008,1894,2052,2064,2053,1197
619,1710922209279928016,2046,2024,1964,2060,2049,2041,1195
620,1710922209289916352,2059,2053,2010,2054,2032,2052,1196
621,1710922209299905030,2057,2031,2022,2073,2069,2084,1195
622,1710922209309906310,2067,2080,2216,1932,2034,2050,1192
623,1710922209319949702,2081,2081,2095,1946,2058,2050,1194
624,1710922209329915675,2056,2036,1963,2081,2040,2077,1195
625,1710922209339912739,2042,2052,1973,2068,2056,2042,1193
626,1710922209349908189,2070,2050,1996,2022,2060,2053,1195
627,1710922209359909209,2049,2034,2051,2139,2058,2047,1194
628,1710922209369906774,2043,2040,2010,1972,2037,2017,1192
629,1710922209379909779,2068,2070,2017,2064,2069,2091,1195
630,1710922209389912863,2052,2066,2051,2040,2035,2024,1192
631,1710922209399910468,2056,2064,2148,2045,2052,2076,1194
632,1710922209409908612,2052,2060,2152,2053,2063,2050,1194
633,1710922209419922939,2079,2112,2157,2100,2079,2085,1193
634,1710922209429909441,2047,2059,2012,2198,2030,2034,1192
635,1710922209439937924,2081,2105,2216,2039,2038,2068,1195
636,1710922209449918567,2056,2016,1870,2095,2047,2058,1196
637,1710922209459913485,2052,2010,2024,2065,2063,2060,1197
638,1710922209469911541,2062,2076,2154,2088,2084,2066,1195
639,1710922209479913513,2051,2051,2086,2025,2070,2075,1198
640,1710922209489920535,2033,2060,2166,1972,2024,2033,1192
641,1710922209499900076,2049,2045,2031,1988,2034,2036,1192
642,1710922209509897960,2060,2032,1993,2064,2036,2053,1195
643,1710922209519911004,2097,2226,2519,2185,2096,2089,1197
644,1710922209529909699,2035,2014,1953,2037,2049,2024,1193
645,1710922209539926460,2095,2053,2029,2054,2058,2056,1193
646,1710922209549911521,2026,2040,1969,2058,2058,2074,1195
647,1710922209559910648,2040,2034,2012,2045,2044,2028,1194
648,1710922209569909925,2045,2016,1938,2058,2056,2037,1192
649,1710922209579916155,2042,2049,1996,2030,2041,2050,1197
650,1710922209589921945,2072,2079,2067,2066,2084,2069,1194
651,1710922209599912767,2068,2045,2005,2115,2040,2029,1191
652,1710922209609908848,2044,2058,2083,2056,2052,2077,1195
653,1710922209619909278,2053,2015,2033,2050,2067,2067,1197
654,1710922209629924946,2062,2102,2124,2061,2068,2041,1195
655,1710922209639910327,2053,2057,2145,2056,2040,2060,1195
656,1710922209649909345,2064,2101,2211,2060,2072,2058,1195
657,1710922209659905646,2068,2104,2134,2072,2040,2073,1196
658,1710922209669905735,2047,2048,1988,2110,2064,2020,1192
659,1710922209679909530,2053,2044,2042,2056,2046,2051,1195
660,1710922209689914339,2058,2056,2092,2120,2069,2050,1195
661,1710922209699905821,2073,2068,2128,2037,2092,2082,1197
662,1710922209709913234,2033,1981,2015,2037,2001,2002,1192
663,1710922209719907973,2059,2041,2019,2088,2056,2075,1198
664,1710922209729910306,2064,2077,2076,2084,2044,2041,1194
665,1710922209739935953,2042,2011,1998,2046,2066,2068,1198
666,1710922209749934239,2042,2010,1925,2024,2027,2033,1192
667,1710922209759913047,2081,2203,2556,2128,2096,2080,1195
668,1710922209769907306,2042,2063,2056,2047,2032,2036,1193
669,1710922209779915770,2053,2133,2225,2099,2056,2057,1195
670,1710922209789914396,2064,2107,2203,2064,2029,2035,1190
671,1710922209799915678,2028,1972,1870,2029,2060,2061,1194
672,1710922209809910717,2040,2073,2137,2024,2046,2044,1192
673,1710922209819905256,2079,2072,2064,2047,2048,2057,1197
674,1710922209829906045,2034,2048,2050,2024,2086,2061,1196
675,1710922209839913689,2048,2041,2052,2090,2074,2044,1193
676,1710922209849911404,2044,2051,2130,2076,2053,2097,1197
677,1710922209859909448,2039,2012,2010,2005,2024,2024,1191
678,1710922209869909427,2076,2075,2170,2064,2053,2052,1194
679,1710922209879915697,2057,2034,2033,2037,2047,2057,1193
680,1710922209889884848,2053,2062,2094,2068,2057,2043,1189
681,1710922209899922518,2044,2068,2156,2056,2050,2056,1194
682,1710922209909918008,2043,2056,2164,2003,2061,2060,1194
683,1710922209919854687,2057,2088,2165,2030,2058,2046,1193
684,1710922209929858453,2050,2040,1978,2075,2052,2056,1195
685,1710922209939912214,2052,2053,1965,2046,2045,2040,1192
686,1710922209949910911,2027,1980,1809,2083,2060,2024,1194
687,1710922209959910097,2057,2082,2196,1985,2019,2057,1196
688,1710922209969915386,2076,2139,2250,2104,2060,2052,1195
689,1710922209979913521,2046,2018,1968,2051,2057,2051,1196
690,1710922209989921074,2032,2024,1965,2041,2050,2040,1193
691,1710922209999911856,2089,2088,2068,2064,2058,2064,1196
692,1710922210009908117,2047,2043,2074,2068,2068,2040,1196
693,1710922210019910361,2064,2093,2184,2086,2074,2098,1197
694,1710922210029911411,2035,2029,1994,2078,2052,2060,1196
695,1710922210039913704,2060,2083,2022,2038,2036,2047,1191
696,1710922210049914574,2057,2063,2041,2040,2031,2045,1193
697,1710922210059912880,2063,2092,2251,2094,2054,2059,1197
698,1710922210069874426,2061,2044,1998,2077,2098,2077,1196
699,1710922210079909030,2056,2084,2133,2052,2045,2046,1192
700,1710922210089920511,2052,2066,2112,2074,2056,2045,1193
701,1710922210099915551,2041,2033,2164,2033,2002,2032,1193
702,1710922210109912974,2046,2021,1996,2061,2095,2080,1194
703,1710922210119915759,2059,2097,2114,2047,2049,2038,1194
704,1710922210129919033,2049,2037,1944,2046,2052,2057,1196
705,1710922210139916868,2046,2033,2036,2053,2038,2049,1195
706,1710922210149882090,2060,2058,1993,2028,2047,2044,1193
707,1710922210159906035,2077,2144,2152,1993,2067,2073,1197
708,1710922210169917977,2064,2089,2148,2068,2058,2049,1196
709,1710922210179921091,2093,2169,2317,2066,2014,2077,1195
710,1710922210189886544,2056,2040,1984,2052,2065,2052,1197
711,1710922210199919114,2045,2052,2135,2047,2024,2029,1193
712,1710922210209922229,2060,2061,2084,2094,2069,2058,1197
713,1710922210219920986,2049,2027,2020,2071,2060,2047,1193
714,1710922210229915614,2058,2034,1967,2045,2035,2040,1196
715,1710922210239916254,2049,2034,1912,2040,2082,2059,1196
716,1710922210249919469,2042,2022,2005,2045,2090,2074,1195
717,1710922210259920319,2056,2050,2029,2053,2060,2038,1192
718,1710922210269920148,2121,2245,2588,2102,2097,2102,1195
719,1710922210279921940,2041,2025,1987,2110,2047,2049,1194
720,1710922210289922340,2059,2044,2036,2030,2034,2034,1191
721,1710922210299924762,2035,2042,2012,2088,2062,2073,1196
722,1710922210309912228,2089,2168,2636,2076,2056,2049,1194
723,1710922210319940040,2057,2081,2161,2095,2057,2056,1196
724,1710922210329933476,2040,2053,2064,2026,2074,2060,1196
725,1710922210339912004,2081,2162,2224,2042,2068,2100,1197
726,1710922210349912333,2043,2042,2056,2022,2042,2023,1190
727,1710922210359920067,2049,2035,1964,2052,2036,2044,1192
728,1710922210369904847,2059,2104,2262,2029,2065,2069,1197
729,1710922210379929301,2051,2030,2074,2020,2024,2052,1195
730,1710922210389910485,2060,2031,1886,2140,2048,2048,1197
731,1710922210399913028,2060,2062,2045,2058,2060,2083,1195
732,1710922210409911164,2040,2032,2000,2052,2060,2041,1195
733,1710922210419898919,2056,2086,2076,2112,2073,2060,1196
734,1710922210429908957,2068,2088,2160,2013,2009,2004,1195
735,1710922210439910970,2054,2058,2113,2056,2093,2077,1196
736,1710922210449906790,2030,2008,2010,2039,2036,2024,1194
737,1710922210459909053,2036,1965,1916,2023,2041,2049,1196
738,1710922210469925693,2053,2064,2042,2070,2069,2048,1196
739,1710922210479891427,2062,2088,2096,2042,2053,2090,1197
740,1710922210489876689,2047,2026,1868,2068,2080,2065,1196
741,1710922210499910781,2049,2066,2100,1975,2037,2041,1192
742,1710922210509906813,2049,2043,2093,2047,2035,2049,1195
743,1710922210519913615,2036,2016,1911,2062,2067,2070,1195
744,1710922210529912772,2037,2002,1921,2080,2042,2033,1194
745,1710922210539906689,2054,2045,2021,2034,2032,2040,1194
746,1710922210549904804,2064,2076,2240,2071,2092,2088,1195
747,1710922210559910684,2067,2038,2003,2049,2034,2047,1194
748,1710922210569866829,2052,2038,1986,2000,2043,2066,1194
749,1710922210579905111,2062,2039,2078,2070,2065,2081,1197
750,1710922210589911963,2063,2049,2152,2068,2042,2031,1195
751,1710922210599906942,2064,2066,2097,2034,2070,2072,1197
752,1710922210609970211,2052,2036,2011,2043,2052,2040,1193
753,1710922210619918552,2061,2078,2094,2073,2082,2077,1196
754,1710922210629909784,2048,2034,1958,2045,2054,2056,1196
755,1710922210639912408,2075,2109,2291,2024,2073,2068,1195
756,1710922210649911855,2058,2073,2104,2047,2043,2052,1194
757,1710922210659908147,2057,2029,1942,2060,2050,2017,1194
758,1710922210669885743,2065,2053,2126,2044,2047,2051,1197
759,1710922210679917873,2072,2123,2148,2034,2050,2058,1194
760,1710922210689903324,2062,2100,2228,2085,2073,2082,1197
761,1710922210699911227,2044,2023,1951,2032,2025,2036,1194
762,1710922210709915054,2072,2123,2266,2021,2052,2045,1192
763,1710922210719930762,2045,2017,1965,2021,2014,2044,1193
764,1710922210729923127,2049,2089,2120,2039,2044,2057,1196
765,1710922210739914850,2057,2046,1987,2037,2042,2038,1194
766,1710922210749909017,2040,2022,1941,2051,2050,2058,1198
767,1710922210759907133,2036,2064,1914,2046,2040,2026,1193
768,1710922210769912351,2068,2136,2212,2046,2060,2065,1196
769,1710922210779922679,2052,2040,2041,2034,2044,2051,1196
770,1710922210789904504,2064,2066,2096,2075,2053,2058,1195
771,1710922210799908530,2080,2079,2072,2112,2078,2061,1193
772,1710922210809909812,2043,2026,2024,2059,2072,2072,1196
773,1710922210819919508,2072,2112,2117,2072,2077,2064,1194
774,1710922210829911953,2072,2129,2105,2042,2062,2052,1195
775,1710922210839913946,2045,2040,2015,2023,2047,2041,1193
776,1710922210849907382,2070,2121,2355,2096,2082,2059,1196
777,1710922210859906549,2044,2009,1923,2149,2050,2046,1192
778,1710922210869906908,2047,2050,2070,2044,2053,2044,1192
779,1710922210879905204,2064,2048,2056,2028,2057,2046,1193
780,1710922210889907117,2013,2001,1957,2035,2029,2035,1193
781,1710922210899862490,2024,1972,1845,2048,2072,2040,1192
782,1710922210909911813,2047,2006,2034,2088,2064,2053,1194
783,1710922210919908194,2064,2017,1963,2021,2056,2044,1194
784,1710922210929909436,2042,2038,2023,2057,2059,2066,1193
785,1710922210939914735,2049,2061,2017,2037,2033,2038,1194
786,1710922210949907900,2025,2060,2039,2099,2076,2060,1194
787,1710922210959904112,2107,2075,2014,2005,2048,2069,1196
788,1710922210969906295,2037,2036,2109,1992,2043,2030,1195
789,1710922210979911283,2078,2109,2140,2075,2027,2083,1196
790,1710922210989923204,2037,2005,1923,2038,2006,2025,1193
791,1710922210999908966,2040,2019,2043,2080,2082,2073,1195
792,1710922211009917471,2070,2024,1841,2070,2040,2054,1196
793,1710922211019911618,2034,2040,2049,2013,2049,2037,1193
794,1710922211029878956,2056,2068,2022,1958,2036,2064,1197
795,1710922211039912869,2045,2040,2137,2037,2060,2059,1193
796,1710922211049915372,2061,2085,2031,2076,2047,2049,1195
797,1710922211059899271,2021,1975,1928,1952,2030,2034,1195
798,1710922211069919658,2084,2114,2364,2062,2064,2070,1196
799,1710922211079921240,2056,2025,1877,2028,2027,2020,1193
800,1710922211089916860,2052,2067,2069,1982,2028,2046,1192
801,1710922211099912651,2041,2040,2084,2032,2032,2042,1194
802,1710922211109913882,2061,2059,2024,2069,2052,2050,1193
803,1710922211119917798,2050,2075,2130,2044,2044,2060,1195
804,1710922211129912798,2044,2001,1906,2004,2037,2037,1193
805,1710922211139907796,2045,1983,1982,2023,1981,2036,1192
806,1710922211149940497,2056,2045,2068,2032,2056,2082,1196
807,1710922211159929596,2057,2068,2088,2055,2052,2044,1194
808,1710922211169905148,2064,2060,2047,2053,2057,2056,1195
809,1710922211179909365,2057,2041,2080,2064,2070,2086,1194
810,1710922211189915425,2042,2006,1973,2047,2032,2039,1192
811,1710922211199913610,2011,2003,1941,2044,2037,2046,1192
812,1710922211209913279,2059,2021,1917,2060,2064,2065,1193
813,1710922211219911473,2052,2008,1921,2066,2050,2037,1191
814,1710922211229918676,2056,2088,2221,2072,2097,2081,1197
815,1710922211239907433,2061,2009,1991,2054,2036,2047,1194
816,1710922211249910087,2042,2019,1924,2043,2046,2054,1196
817,1710922211259903364,2047,2038,2030,2050,2056,2041,1193
818,1710922211269912149,2018,2016,2030,2008,2043,2058,1196
819,1710922211279912468,2049,2044,2172,2049,2049,2049,1196
820,1710922211289918798,2034,2024,1970,2060,2050,2045,1193
821,1710922211299919770,2078,2159,2393,2095,2055,2092,1196
822,1710922211309868170,2047,2020,1938,2010,2024,2033,1192
823,1710922211319911211,2064,2059,2032,2041,2056,2056,1195
824,1710922211329907964,2042,2026,1960,1994,2018,2034,1191
825,1710922211339906249,2056,2044,1917,2060,2076,2077,1197
826,1710922211349910646,2047,2060,2144,2040,2066,2041,1194
827,1710922211359868345,2089,2085,1838,2080,2068,2045,1192
828,1710922211369908930,2053,2024,1976,2049,2082,2066,1197
829,1710922211379914059,2043,2016,2037,2077,2050,2041,1191
830,1710922211389935668,2092,2104,2158,2082,2072,2072,1193
831,1710922211399919617,2042,2048,2064,2096,2044,2036,1193
832,1710922211409919225,2027,2067,2214,2048,1982,2029,1194
833,1710922211419911609,2065,2076,2122,2028,2065,2077,1197
834,1710922211429909124,2097,2104,2256,2018,2041,2050,1197
835,1710922211439913901,2069,2072,2216,1933,2072,2056,1197
836,1710922211449914351,2025,2012,1930,1984,2044,2029,1192
837,1710922211459935409,2046,2018,1896,2024,2058,2036,1194
838,1710922211469913777,2040,2027,1887,2042,2070,2072,1196
839,1710922211479918214,2033,2030,2008,2008,2036,2023,1193
840,1710922211489917551,2082,2025,1996,2055,2047,2046,1193
841,1710922211499927099,2042,2053,2203,2063,2046,2061,1195
842,1710922211509903252,2059,2065,2015,2073,2035,2048,1193
843,1710922211519908801,2064,2037,2001,2022,2029,2048,1196
844,1710922211529911987,2067,2019,1956,1978,2040,2047,1193
845,1710922211539907917,2092,2053,2085,2034,2048,2048,1194
846,1710922211549923716,2024,2003,1937,2028,2063,2074,1195
847,1710922211559916801,2051,2008,1904,2068,2043,2039,1192
848,1710922211569914316,2061,2039,1961,2076,2107,2066,1197
849,1710922211579913182,2037,2054,2101,2081,2061,2041,1194
850,1710922211589883124,2059,2019,1957,2061,2053,2057,1196
851,1710922211599917368,2052,2027,2005,2045,2056,2046,1193
852,1710922211609918528,2073,2094,2152,2059,2092,2095,1197
853,1710922211619902597,2058,2065,2069,2065,2029,2002,1193
854,1710922211629917674,2066,2137,2166,2080,2102,2069,1197
855,1710922211639913525,2040,2021,1946,2040,2024,2045,1192
856,1710922211649905940,2063,2062,2148,2051,2034,2039,1194
857,1710922211659920005,2044,2040,1990,2074,2056,2060,1197
858,1710922211669908873,2064,2085,2116,2116,2037,2018,1194
859,1710922211679921486,2104,2232,2745,2076,2058,2102,1196
860,1710922211689917206,2058,2040,2018,2057,2037,2032,1194
861,1710922211699915442,2070,2093,2125,2066,2064,2073,1195
862,1710922211709926822,2046,2094,2256,2096,2080,2091,1195
863,1710922211719930869,2045,2038,1944,2036,2050,2011,1195
864,1710922211729905839,2056,2040,2013,2034,2059,2044,1193
865,1710922211739906690,2058,2058,2081,2088,2052,2066,1197
866,1710922211749907240,2026,2002,1922,2045,2045,2040,1191
867,1710922211759924992,2068,2049,2062,2019,2029,2032,1194
868,1710922211769912327,2064,2046,2020,2097,2060,2056,1197
869,1710922211779919910,2034,2030,1954,2025,2047,2030,1192
870,1710922211789912715,2063,2046,2008,1982,2025,2027,1192
871,1710922211799905831,2065,2104,1961,1959,2086,2093,1195
872,1710922211809922571,2045,2008,1838,2047,2018,2008,1192
873,1710922211819912722,2061,2031,1926,2105,2053,2071,1197
874,1710922211829918752,2081,2048,2090,2117,2090,2064,1196
875,1710922211839905455,2026,2008,1989,2051,2085,2088,1196
876,1710922211849906466,2042,2015,2007,2078,2033,2014,1192
877,1710922211859906274,2083,2070,1986,2102,2088,2098,1195
878,1710922211869907476,2041,1997,1908,2116,2051,2044,1193
879,1710922211879908456,2101,2049,1958,2134,2062,2056,1196
880,1710922211889940155,2077,2032,1897,2078,2040,2077,1197
881,1710922211899906039,2092,2048,1955,2034,2011,2053,1195
882,1710922211909905657,2045,2067,2091,2090,2052,2081,1194
883,1710922211919910325,2053,2026,2021,2041,2062,2052,1196
884,1710922211929916204,2037,2045,2014,2041,2042,2044,1192
885,1710922211939922766,2059,2034,2029,2058,2052,2052,1195
886,1710922211949912705,2064,2034,1941,2051,2047,2044,1195
887,1710922211959910149,2069,2155,2280,2068,2084,2122,1194
888,1710922211969910750,2062,2092,2168,2128,2032,2005,1191
889,1710922211979911048,2053,2032,2031,2033,2056,2044,1194
890,1710922211989922008,2059,2076,2033,2027,2113,2091,1196
891,1710922211999908371,2082,2129,2382,2072,2085,2044,1194
892,1710922212009913680,2057,2075,2020,2045,2049,2054,1196
893,1710922212019914400,2041,2071,2061,2088,2081,2052,1196
894,1710922212029914008,2072,2109,2290,2097,2058,2031,1193
895,1710922212039926611,2017,2004,2015,2092,2065,2031,1196
896,1710922212049913164,2084,2133,2144,2100,2058,2067,1196
897,1710922212059911890,2059,2005,1840,2074,2042,2034,1193
898,1710922212069919514,2056,2041,2032,1997,2037,2049,1196
899,1710922212079916176,2042,2018,1947,2109,2031,2066,1196
900,1710922212089922346,2043,2040,1989,1994,2012,2008,1193
901,1710922212099915682,2050,2104,2198,2074,2088,2069,1195
902,1710922212109914018,2040,2021,1969,2040,2048,2030,1192
903,1710922212119915820,2056,2068,2221,2080,2070,2043,1192
904,1710922212129925838,2066,2109,2215,2040,2089,2095,1196
905,1710922212139924845,2031,2005,1961,2057,2024,2024,1192
906,1710922212149914744,2054,2029,2030,2076,2066,2067,1197
907,1710922212159926245,2062,2056,2041,2053,2037,2018,1194
908,1710922212169902179,2060,2122,2327,2120,2088,2075,1195
909,1710922212179921834,2028,1989,1919,2099,2001,2044,1193
910,1710922212189920040,2060,2019,1938,2037,2069,2069,1193
911,1710922212199920449,2054,2033,1974,2013,2056,2053,1195
912,1710922212209919145,2036,2026,1970,1941,1998,1990,1194
913,1710922212219921248,2081,2048,2011,2019,2031,2110,1197
914,1710922212229905557,2046,2080,2036,2056,2033,2024,1192
915,1710922212239922779,2088,2088,2142,2132,2084,2111,1196
916,1710922212249919781,2045,1996,1890,2050,2065,2064,1195
917,1710922212259924018,2032,2026,2031,2006,2039,2034,1193
918,1710922212269905271,2058,2076,2285,2028,1984,2060,1196
919,1710922212279931891,2041,2025,1963,2095,2057,2065,1195
920,1710922212289937330,2051,2056,2120,2053,2046,2033,1192
921,1710922212299898605,2042,2008,1806,2063,2068,2063,1197
922,1710922212309925836,2057,2038,1957,2032,2020,2027,1193
923,1710922212319898843,2056,2042,1958,2001,2053,2057,1196
924,1710922212329908761,2053,2098,2257,2088,2032,2005,1192
925,1710922212339932404,2069,2088,2176,2072,2108,2136,1197
926,1710922212349928495,2052,2067,2072,2049,2025,2013,1192
927,1710922212359908226,2073,2136,2219,2053,2076,2120,1198
928,1710922212369905549,2053,2038,1994,2078,2034,2025,1192
929,1710922212379928792,2031,2029,1998,2052,2040,2036,1192
930,1710922212389948369,2050,2076,2140,2120,2073,2068,1195
931,1710922212399910265,2037,2000,1888,2063,2048,2047,1194
932,1710922212409909643,2062,2089,2152,2032,2007,2044,1193
933,1710922212419906545,2081,1979,1712,2058,2074,2057,1195
934,1710922212429913557,2050,2018,1992,2030,2035,2011,1194
935,1710922212439916372,2059,2065,2053,2052,2031,2043,1192
936,1710922212449908034,2031,2063,2176,2054,2036,2065,1199
937,1710922212459916520,2037,2045,2038,2111,2059,2041,1194
938,1710922212469916618,2083,2066,2066,2057,2035,2024,1196
939,1710922212479917769,2073,2061,2057,2123,2081,2096,1195
940,1710922212489917918,2060,2036,2030,2065,2044,2032,1191
941,1710922212499935480,2046,2057,2046,2062,2052,2049,1196
942,1710922212509939948,2060,2040,2041,2109,2049,2065,1192
943,1710922212519915419,2073,2049,2036,2086,2047,2040,1192
944,1710922212529914347,2060,2060,2061,2152,2082,2106,1195
945,1710922212539915176,2040,2061,2124,2040,2027,2029,1192
946,1710922212549916378,2047,2040,1941,2126,2054,2038,1192
947,1710922212559909654,2046,2089,2074,2065,2049,2045,1192
948,1710922212569907117,2065,2073,2046,1976,2045,2052,1194
949,1710922212579911285,2046,2044,1998,2080,2044,2033,1192
950,1710922212589915150,2084,2054,2062,2077,2068,2081,1194
951,1710922212599922643,2089,2052,2017,2086,2048,2034,1191
952,1710922212609909808,2015,2056,2062,2056,2047,2077,1197
953,1710922212619884078,2058,2034,2078,2120,2030,2009,1192
954,1710922212629908172,2054,2017,2062,2107,2087,2065,1197
955,1710922212639909032,2050,1979,1823,2073,2062,2052,1196
956,1710922212649914963,2048,2047,2074,2049,2037,2043,1194
957,1710922212659913819,2042,2062,2003,2014,2054,2067,1193
958,1710922212669908237,2084,2097,2141,1977,2012,2056,1196
959,1710922212679913346,2047,2040,2006,2025,2063,2052,1193
960,1710922212689910549,2077,2069,2069,2054,2054,2047,1193
961,1710922212699891642,2058,2032,1900,2082,2073,2062,1196
962,1710922212709910857,2027,2043,1998,2038,2042,2030,1189
963,1710922212719912649,2047,2081,2040,2069,2058,2038,1193
964,1710922212729909022,2030,2011,1963,2069,2042,2041,1193
965,1710922212739908449,2061,2064,2087,2055,2060,2065,1195
966,1710922212749915581,2118,2114,2109,2139,2083,2077,1196
967,1710922212759911903,2053,2057,2053,2022,2051,2068,1196
968,1710922212769909006,2047,2076,2047,2050,2056,2045,1193
969,1710922212779909707,2036,2082,2204,2045,2056,2042,1193
970,1710922212789872064,2060,2032,2042,2012,2010,2033,1195
971,1710922212799906157,2057,2089,2148,2028,2064,2056,1195
972,1710922212809912137,2056,2022,1940,2076,2040,2069,1197
973,1710922212819906816,2036,2029,2017,2089,2037,2030,1192
974,1710922212829909430,2056,2052,2025,2047,2044,2040,1193
975,1710922212839913636,2058,2041,1954,2084,2067,2067,1196
976,1710922212849911131,2057,2072,2172,2015,2000,2013,1193
977,1710922212859911870,2047,2028,2042,2008,2024,2043,1194
978,1710922212869909605,2059,2140,2219,2062,2064,2069,1195
979,1710922212879938148,2041,2036,1992,1928,2008,2024,1194
980,1710922212889918139,2092,2214,2674,2113,2100,2104,1196
981,1710922212899912166,2029,2016,2000,2104,2049,2027,1193
982,1710922212909915481,2043,2067,2078,2098,2084,2072,1194
983,1710922212919909268,2056,2060,2026,2077,2079,2048,1196
984,1710922212929910950,2047,2030,2198,2000,2069,2072,1196
985,1710922212939909085,2021,1999,1924,1957,2043,2016,1193
986,1710922212949906139,2065,2098,2168,1986,2038,2041,1192
987,1710922212959913391,2052,2031,2148,1997,2044,2075,1197
988,1710922212969908751,2055,2030,1973,2018,2032,2040,1195
989,1710922212979909321,2036,2023,2000,2001,2067,2061,1196
990,1710922212989913177,2091,2064,2104,2017,2044,2057,1195
991,1710922212999908938,2029,2039,1971,1940,2056,2025,1193
992,1710922213009917242,2077,2042,1956,1988,2040,2040,1193
993,1710922213019909837,2041,2022,2003,2064,2066,2086,1198
994,1710922213029907391,2052,2049,2072,2051,2048,2044,1193
995,1710922213039909203,2060,2046,1958,2070,2021,2069,1195
996,1710922213049915094,2033,2027,1990,2056,2051,2058,1194
997,1710922213059925722,2054,2104,2293,2068,2067,2069,1196
998,1710922213069910903,2030,2005,1902,1907,2009,2036,1194
999,1710922213079910340,2047,2020,1968,2021,2053,2048,1196
1000,1710922213089933273,2070,2060,1938,2024,2041,2044,1192
1001,1710922213099915127,2082,2031,2013,2053,2068,2075,1196
1002,1710922213109903574,2021,1989,1922,2037,2046,2035,1190
1003,1710922213119910596,2068,2028,2067,2052,2052,2036,1194
1004,1710922213129910023,2045,2067,2319,2064,2056,2052,1196
1005,1710922213139907578,2069,2032,1889,1982,2035,2053,1196
1006,1710922213149929758,2049,2057,2045,2022,2071,2054,1196
1007,1710922213159923104,2052,2069,2101,2036,2045,2045,1193
1008,1710922213169914087,2053,2019,1910,2034,2037,2028,1193
1009,1710922213179915527,2056,2051,2004,2069,2056,2080,1195
1010,1710922213189946596,2078,2069,2066,2074,2083,2060,1195
1011,1710922213199914954,2051,2024,1969,2047,2052,2061,1195
1012,1710922213209885136,2064,2040,1953,2050,2080,2081,1197
1013,1710922213219908199,2030,2028,1967,2031,2029,2043,1193
1014,1710922213229920130,2080,2086,2098,2080,2069,2061,1194
1015,1710922213239912815,2048,2009,1918,2075,2035,2036,1193
1016,1710922213249912483,2064,2082,2063,2056,2051,2064,1196
1017,1710922213259910628,2061,2067,2194,2061,2044,2060,1196
1018,1710922213269906740,2072,2061,2133,2056,2057,2060,1196
1019,1710922213279911588,2052,2025,2002,2045,2075,2082,1194
1020,1710922213289913280,2037,2048,2036,2066,2037,2025,1193
1021,1710922213299916414,2056,2028,2018,2076,2066,2068,1195
1022,1710922213309910512,2060,2085,2112,2049,2056,2037,1192
1023,1710922213319911603,2088,2100,2178,2084,2062,2060,1196
1024,1710922213329912683,2052,2062,2073,2084,2077,2063,1195
1025,1710922213339924405,2053,2054,1988,2004,2028,2030,1193
1026,1710922213349912060,2079,2092,2102,2065,2079,2123,1195
1027,1710922213359912129,2056,2013,1936,2057,2054,2042,1192
1028,1710922213369911015,2044,2001,1977,2066,2074,2054,1194
1029,1710922213379910623,2051,2018,1921,2069,2034,2056,1194
1030,1710922213389916313,2096,2192,2542,1892,2046,2056,1194
1031,1710922213399916141,2047,2065,2122,2084,2061,2044,1191
1032,1710922213409913545,2041,2074,2349,2048,2020,2038,1195
1033,1710922213419914365,2056,2033,2080,2036,2042,2033,1194
1034,1710922213429915116,2047,2020,2068,2050,2033,2043,1195
1035,1710922213439927047,2064,2093,2180,2059,2091,2075,1196
1036,1710922213449925393,2077,2104,2217,2064,2056,2074,1194
1037,1710922213459915683,2021,2008,1941,2052,2073,2052,1194
1038,1710922213469915762,2082,2076,2056,1948,2046,2048,1195
1039,1710922213479928034,2085,2118,2404,2120,2072,2094,1195
1040,1710922213489936609,2056,2072,2052,2089,2057,2041,1194
1041,1710922213499914005,2052,1991,1801,2028,2064,2042,1193
1042,1710922213509922540,2023,2009,1965,2028,2033,2050,1194
1043,1710922213519923350,2052,2050,2005,2030,2006,2041,1192
1044,1710922213529937316,2062,2068,2077,2072,2018,2044,1192
1045,1710922213539934098,2059,2034,2000,2071,2044,2057,1196
1046,1710922213549930931,2064,2080,2200,1994,2048,2048,1193
1047,1710922213559929337,2052,2031,2010,2021,2020,2006,1192
1048,1710922213569928644,2080,2105,2201,2093,2070,2086,1196
1049,1710922213579930166,2065,1994,1883,2033,2040,2033,1194
1050,1710922213589940273,2066,2057,1944,2088,2030,2073,1196
1051,1710922213599900888,2050,2033,1930,2033,2038,2049,1194
1052,1710922213609928559,2045,2033,1993,2068,2062,2064,1196
1053,1710922213619928718,2063,2068,2112,2084,2032,2054,1193
1054,1710922213629931041,2054,2071,2153,2062,2072,2078,1195
1055,1710922213639946048,2036,2068,2176,2073,2042,2021,1193
1056,1710922213649919477,2058,2107,2209,2070,2061,2060,1195
1057,1710922213659919476,2026,2044,2025,2001,2035,2026,1193
1058,1710922213669919233,2052,2068,2058,2136,2045,2037,1193
1059,1710922213679949370,2056,2082,2148,1996,2070,2072,1196
1060,1710922213689930031,2032,2042,2152,2012,2003,2034,1193
1061,1710922213699921134,2043,1995,2046,2007,2044,2030,1195
1062,1710922213709935289,2072,2056,2126,2098,2052,2056,1194
1063,1710922213719922303,2064,2054,2087,2012,2088,2072,1197
1064,1710922213729921521,2084,2136,2368,2064,2077,2073,1196
1065,1710922213739938451,2064,2032,1943,2056,2021,2013,1192
1066,1710922213749942799,2056,2030,2049,2051,2080,2066,1196
1067,1710922213759919142,2051,2061,2081,1977,2038,2028,1192
1068,1710922213769920013,2038,2070,2265,2045,2088,2100,1196
1069,1710922213779931894,2032,2018,2012,1960,2032,2020,1194
1070,1710922213789920000,2064,2093,2294,1944,2028,2050,1192
1071,1710922213799910060,2050,2017,2046,2042,2076,2057,1196
1072,1710922213809919777,2051,2037,2014,2044,2032,2036,1192
1073,1710922213819917792,2097,2131,2370,2072,2086,2056,1195
1074,1710922213829919394,2076,2076,2028,2122,2045,2074,1196
1075,1710922213839933700,2065,2058,2125,2052,2063,2088,1197
1076,1710922213849920544,2046,2005,1886,2004,1951,2002,1193
1077,1710922213859918979,2052,2066,2093,2096,2090,2096,1196
1078,1710922213869917035,2059,2069,2136,2052,2043,2039,1192
1079,1710922213879912435,2047,2038,2119,2049,2056,2053,1195
1080,1710922213889921360,2048,2072,2015,2044,2054,2045,1193
1081,1710922213899924706,2068,2087,2095,2046,2042,2045,1192
1082,1710922213909916057,2050,2077,2103,2098,2132,2066,1194
1083,1710922213919910887,2061,2065,2003,2019,2015,2040,1193
1084,1710922213929920083,2077,2107,2324,2115,2075,2058,1193
1085,1710922213939927997,2036,1993,1908,2081,2085,2063,1194
1086,1710922213949923828,2047,2040,2065,1997,2024,2034,1194
1087,1710922213959920850,2027,1996,1852,2064,2042,2033,1195
1088,1710922213969917223,2044,2015,1960,1940,2058,2081,1194
1089,1710922213979918183,2040,2070,1989,2032,1997,2041,1194
1090,1710922213989918142,2069,2043,2014,2079,2040,2038,1194
1091,1710922213999920124,2028,2062,2012,1999,2013,2041,1191
1092,1710922214009911817,2063,2047,2086,2122,2026,2040,1192
1093,1710922214019922737,2051,2028,1973,2024,2041,2034,1192
1094,1710922214029920160,2068,2067,1919,2061,2064,2058,1193
1095,1710922214039919959,2021,1997,1872,2075,2024,2016,1192
1096,1710922214049922723,2038,2025,1964,2026,2031,2059,1197
1097,1710922214059911320,2060,2030,1839,2064,2037,2032,1192
1098,1710922214069918423,2036,2036,1952,2137,2064,2067,1197
1099,1710922214079917329,2060,2043,2069,2045,2044,2034,1193
1100,1710922214089926175,2033,2040,2042,2028,2027,2018,1193
1101,1710922214099926825,2076,2073,2117,2105,2092,2096,1195
1102,1710922214109921162,2090,2157,2346,2137,2064,2063,1193
1103,1710922214119919298,2043,2010,1946,2027,2074,2058,1195
1104,1710922214129920689,2060,2059,2072,2040,2036,2036,1194
1105,1710922214139916059,2072,2058,1929,1952,2000,2037,1192
1106,1710922214149926157,2042,2068,2057,2037,2074,2061,1195
1107,1710922214159928169,2053,2077,2053,2088,2029,2006,1195
1108,1710922214169937817,2078,2082,2184,1985,2008,2055,1194
1109,1710922214179921033,2055,1997,1833,2105,2085,2050,1194
1110,1710922214189936893,2036,2009,1950,2059,2021,2016,1193
1111,1710922214199918496,2034,2028,2060,2015,2034,2061,1194
1112,1710922214209946819,2022,2023,1969,1984,2062,2037,1193
1113,1710922214219925998,2049,2026,2002,1976,1997,2046,1193
1114,1710922214229920636,2040,2032,1984,2045,2069,2053,1194
1115,1710922214239920986,2056,2052,2042,2104,2053,2053,1195
1116,1710922214249923188,2056,2056,2120,2085,2049,2032,1192
1117,1710922214259914922,2032,2008,1906,2004,2032,2047,1193
1118,1710922214269920240,2054,2033,1977,2116,2048,2048,1195
1119,1710922214279913627,2053,2081,2109,2052,2060,2047,1193
1120,1710922214289920629,2073,2136,2551,2052,2066,2069,1194
1121,1710922214299916820,2057,2070,2133,2175,2052,2046,1193
1122,1710922214309926237,2056,2040,2039,2033,2072,2047,1192
1123,1710922214319910997,2074,2113,2206,2058,2061,2048,1195
1124,1710922214329910334,2037,2029,2004,2026,2041,2039,1193
1125,1710922214339917307,2098,2197,2646,2129,2067,2073,1194
1126,1710922214349915151,2054,2028,1993,2101,2078,2039,1193
1127,1710922214359918737,2049,2059,1952,2136,2077,2053,1194
1128,1710922214369922542,2048,2029,2013,2024,2042,2052,1196
1129,1710922214379919245,2040,2054,2043,2090,2045,2038,1194
1130,1710922214389924023,2073,2045,1972,2012,2013,2071,1196
1131,1710922214399916547,2041,2084,2065,2025,2040,2040,1194
1132,1710922214409925604,2070,1998,1973,2066,2049,2072,1197
1133,1710922214419927546,2045,2047,2129,2104,2038,2034,1192
1134,1710922214429918197,2080,2068,2119,2082,2054,2072,1197
1135,1710922214439914939,2043,2009,1949,2009,2047,2034,1194
1136,1710922214449918976,2064,2060,2105,2078,2065,2017,1193
1137,1710922214459915689,2051,2033,1955,2067,2051,2050,1196
1138,1710922214469928952,2066,2084,2158,2073,2062,2056,1195
1139,1710922214479932859,2052,2032,2002,2028,2046,2037,1193
1140,1710922214489917107,2084,2073,2000,2012,2062,2096,1195
1141,1710922214499909391,2074,2074,2128,2045,2041,2051,1195
1142,1710922214509912937,2040,2045,2009,2040,2022,2052,1192
1143,1710922214519922985,2031,2083,2197,2082,2072,2065,1195
1144,1710922214529915159,2047,2029,1991,1965,2040,2025,1191
1145,1710922214539907633,2043,2083,2172,2051,2044,2046,1193
1146,1710922214549907862,2034,2050,2048,2042,2042,2020,1192
1147,1710922214559908302,2071,2138,2244,2134,2125,2134,1196
1148,1710922214569911917,2058,2040,2025,1974,2026,2000,1193
1149,1710922214579933938,2070,2072,2173,2061,2056,2068,1194
1150,1710922214589923988,2001,2008,2037,2005,2022,2031,1193
1151,1710922214599905361,2056,2062,2081,2050,2088,2086,1195
1152,1710922214609894229,2032,2031,2036,2015,2030,1996,1192
1153,1710922214619931248,2052,2128,2578,2085,2079,2064,1195
1154,1710922214629913503,2038,1985,1847,2004,2049,2054,1198
1155,1710922214639911748,2051,2070,2124,2020,2061,2024,1193
1156,1710922214649908080,2100,2103,2153,2080,2086,2109,1196
1157,1710922214659911345,2081,2167,2178,2128,2049,2047,1195
1158,1710922214669914911,2044,1997,1852,1970,2035,2038,1192
1159,1710922214679917454,2064,2121,2224,2036,2034,2031,1193
1160,1710922214689898056,2046,2049,2098,2092,2042,2024,1193
1161,1710922214699911320,2065,2052,2190,2070,2110,2069,1196
1162,1710922214709937578,2069,2095,2160,2107,2061,2050,1194
1163,1710922214719916938,2062,2048,2038,2050,2043,2057,1196
1164,1710922214729902610,2059,2018,1998,2050,2053,2045,1192
1165,1710922214739911986,2039,2060,2085,2073,2005,2046,1192
1166,1710922214749906996,2054,2053,2052,2008,2030,2054,1196
1167,1710922214759905271,2021,2152,2304,2013,2032,2026,1192
1168,1710922214769907264,2068,2056,2010,2086,2014,2021,1193
1169,1710922214779920447,2050,2044,1992,2056,2049,2052,1195
1170,1710922214789903594,2049,2046,2103,2030,2044,2024,1192
1171,1710922214799912620,2049,2016,1967,2044,2071,2092,1195
1172,1710922214809909383,2047,2024,1958,2066,2050,2025,1193
1173,1710922214819912568,2057,2045,2038,2074,2045,2052,1194
1174,1710922214829919830,2061,2061,2067,2003,2057,2058,1195
1175,1710922214839910120,2053,2060,2153,2013,2012,2040,1192
1176,1710922214849915760,2053,2046,1980,2060,2116,2160,1196
1177,1710922214859908755,2043,2021,2030,2042,2002,1995,1192
1178,1710922214869903605,2053,2056,2050,2054,2053,2049,1197
1179,1710922214879909043,2042,2021,1920,2031,2033,2046,1193
1180,1710922214889913721,2044,2006,1903,2172,2061,2046,1193
1181,1710922214899896658,2038,1994,1872,2001,2034,2050,1197
1182,1710922214909929538,2014,2036,2008,2044,2029,2020,1190
1183,1710922214919901384,2076,2077,2024,2056,2041,2086,1196
1184,1710922214929917323,2063,2038,1971,2079,2060,2033,1193
1185,1710922214939910609,2064,2073,2100,2176,2057,2066,1195
1186,1710922214949905838,2076,2101,2196,2116,2061,2047,1191
1187,1710922214959915496,2051,2020,1914,2069,2051,2051,1196
1188,1710922214969912339,2036,2000,1918,2056,2050,2032,1192
1189,1710922214979909051,2048,2036,2004,2097,2119,2096,1195
1190,1710922214989915252,2049,2026,1933,2054,2056,2028,1193
1191,1710922214999925890,2033,2037,1944,1918,2012,2035,1193
1192,1710922215009911121,2072,2116,2168,2037,2042,2081,1196
1193,1710922215019907533,2037,2064,2111,2044,2031,2049,1196
1194,1710922215029907712,2064,2070,2072,2076,2043,2032,1195
1195,1710922215039911699,2054,2021,2005,2072,2060,2034,1194
1196,1710922215049929390,2042,2040,1997,2120,2062,2062,1197
1197,1710922215059905995,2047,2041,2034,2099,2056,2046,1194
1198,1710922215069907176,2033,2008,1867,2000,2032,2060,1195
1199,1710922215079906894,2041,2028,1937,2042,2052,2040,1192
1200,1710922215089911773,2056,2037,2029,2004,2034,2018,1190
1201,1710922215099912322,2092,2164,2341,2055,2054,2102,1193
1202,1710922215109912451,2053,2064,2076,1987,2043,2036,1192
1203,1710922215119905346,2060,2080,2099,2072,2069,2047,1192
1204,1710922215129905175,2075,2072,2056,2056,2090,2108,1195
1205,1710922215139909412,2045,2027,1989,2027,2037,2031,1192
1206,1710922215149978281,2046,2074,2089,2014,1987,2031,1193
1207,1710922215159910582,2061,2067,2252,2041,2056,2078,1197
1208,1710922215169909858,2014,1992,1850,1912,1992,2008,1194
1209,1710922215179907152,2069,2021,1792,2056,2037,2046,1194
1210,1710922215189930455,2057,1982,1709,2036,2051,2070,1195
1211,1710922215199903252,2059,2041,1995,2018,2056,2045,1192
1212,1710922215209910195,2044,2001,1946,2047,2050,2036,1193
1213,1710922215219909281,2053,2047,2037,2058,2058,2046,1195
1214,1710922215229909581,2057,2076,2196,2033,2056,2062,1197
1215,1710922215239910000,2047,2060,2156,2002,2032,2050,1195
1216,1710922215249919888,2074,2092,1946,2106,2082,2034,1192
1217,1710922215259911180,2082,2158,2365,2051,2072,2077,1196
1218,1710922215269911780,2040,2073,2091,2062,2054,2042,1193
1219,1710922215279911849,2079,2118,2230,2152,2069,2068,1194
1220,1710922215289941153,2088,2071,2100,2093,2047,2057,1193
1221,1710922215299912598,2042,2045,2075,2101,2077,2079,1196
1222,1710922215309912706,2044,2042,2100,2085,2051,2035,1189
1223,1710922215319913006,2049,2040,2089,2046,2025,2037,1193
1224,1710922215329913326,2058,2122,2296,2072,2062,2088,1194
1225,1710922215339913063,2045,2044,2020,2059,2045,2036,1194
1226,1710922215349914816,2035,2024,1978,2062,2045,2031,1191
1227,1710922215359915044,2065,2054,2047,2044,2084,2097,1195
1228,1710922215369925072,2042,2049,1880,2082,2071,2085,1194
1229,1710922215379914241,2056,2063,2056,2101,2045,2036,1191
1230,1710922215389932905,2070,2096,2204,2138,2080,2068,1194
1231,1710922215399913507,2043,2098,2152,2080,2053,2023,1192
1232,1710922215409916170,2059,2044,2008,1989,2048,2069,1194
1233,1710922215419917261,2041,2025,1979,2064,2069,2046,1193
1234,1710922215429918111,2048,2032,2020,2063,2026,2029,1192
1235,1710922215439923731,2014,2009,2032,2096,2080,2080,1193
1236,1710922215449918490,2040,2005,2004,2056,2034,2017,1191
1237,1710922215459918899,2078,2058,1952,2039,2053,2101,1193
1238,1710922215469920211,2016,2005,1993,2012,2025,2012,1192
1239,1710922215479854706,2072,2076,2145,2091,2112,2088,1196
1240,1710922215489875063,2049,2031,1946,2045,2032,2020,1192
1241,1710922215499920037,2076,2076,2206,2106,2086,2062,1195
1242,1710922215509920356,2100,2196,2570,2042,2078,2056,1192
1243,1710922215519921327,2041,2031,2024,2033,2041,2040,1192
1244,1710922215529921075,2047,2051,2046,2047,2061,2056,1194
1245,1710922215539927035,2053,2060,2057,2041,2041,2059,1196
1246,1710922215549902397,2039,2060,2037,2037,2046,2041,1192
1247,1710922215559904700,2061,2076,2169,2064,2046,2025,1193
1248,1710922215569904338,2061,2064,1947,2021,2047,2054,1194
1249,1710922215579898165,2058,2042,2046,1965,2020,2020,1191
1250,1710922215589931447,2058,2100,2113,2084,2020,2044,1194
1251,1710922215599887252,2069,2074,2052,2064,2038,2065,1196
1252,1710922215609905495,2055,2012,1960,2032,2040,2027,1192
1253,1710922215619907007,2054,2048,2038,2060,2060,2046,1194
1254,1710922215629907025,2052,2083,2081,2045,2019,2046,1193
1255,1710922215639886977,2052,2052,2208,2006,2021,2073,1195
1256,1710922215649905881,2054,2109,2245,2102,2036,2043,1193
1257,1710922215659905740,2052,2053,2025,2058,2060,2049,1194
1258,1710922215669905248,2036,2026,1966,2074,2044,2042,1192
1259,1710922215679926677,2031,2042,2067,1952,2029,2028,1192
1260,1710922215689927628,2035,2005,1830,2002,2052,2050,1194
1261,1710922215699908620,2054,2104,2180,2001,2053,2036,1193
1262,1710922215709904210,2031,2037,2001,2072,2049,2028,1192
1263,1710922215719905061,2072,2072,2048,2068,2050,2092,1195
1264,1710922215729904889,2042,2033,2005,2034,2045,2032,1194
1265,1710922215739890220,2045,2080,2141,2067,2040,2032,1193
1266,1710922215749929784,2044,2053,2106,2042,2046,2040,1194
1267,1710922215759910035,2078,2154,2292,2120,2068,2066,1195
1268,1710922215769908851,2056,2056,2050,2065,2038,2047,1192
1269,1710922215779910744,2056,2029,2116,1984,2072,2047,1193
1270,1710922215789932695,2053,2016,1940,2019,2061,2080,1196
1271,1710922215799898598,2061,2035,2009,2038,1999,2032,1193
1272,1710922215809905180,2071,2152,2213,2066,2066,2069,1196
1273,1710922215819903194,2075,2133,2373,2108,2072,2068,1195
1274,1710922215829906099,2047,2051,2139,2066,2028,2018,1193
1275,1710922215839910025,2069,2104,2197,2034,2044,2053,1194
1276,1710922215849909403,2054,2081,2146,2014,2066,2052,1194
1277,1710922215859908821,2033,2029,2122,2046,2071,2077,1195
1278,1710922215869907216,2061,2068,2126,2043,2006,2032,1193
1279,1710922215879910491,2068,2104,2226,2070,2081,2082,1195
1280,1710922215889909989,2050,2047,2100,2047,2068,2087,1195
1281,1710922215899908254,2039,2028,2000,2053,2043,2057,1194
1282,1710922215909907342,2051,2083,2168,2039,2021,2037,1190
1283,1710922215919905887,2046,2028,1997,2080,2086,2070,1196
1284,1710922215929904924,2045,2044,1961,2082,2035,2044,1193
1285,1710922215939903470,2048,2022,1957,2044,2065,2051,1195
1286,1710922215949905904,2047,2051,1908,2048,2047,2056,1195
1287,1710922215959909670,2070,2052,2116,2075,2050,2046,1195
1288,1710922215969911381,2063,2045,2002,2004,2030,2048,1195
1289,1710922215979905109,2058,2056,2064,2045,2056,2054,1195
1290,1710922215989940865,2050,2024,1960,1942,2002,2028,1194
1291,1710922215999911708,2059,2102,2304,2012,2067,2059,1195
1292,1710922216009918009,2036,2036,2038,2029,2047,2049,1195
1293,1710922216019916825,2048,2031,2012,2056,2032,2029,1192
1294,1710922216029905062,2058,2030,2004,2047,2130,2119,1195
1295,1710922216039903848,2025,2003,2047,2057,2036,2017,1193
1296,1710922216049905190,2061,2041,2093,2053,2058,2052,1196
1297,1710922216059908795,2066,2029,1834,2042,2081,2078,1196
1298,1710922216069911169,2047,2000,1995,2100,2066,2047,1192
1299,1710922216079902571,2052,2024,2016,2107,2027,2040,1192
1300,1710922216089906176,2072,2097,2233,2067,2043,2035,1193
1301,1710922216099912327,2051,2065,2073,2027,2045,2088,1196
1302,1710922216109909360,2042,2041,2036,1921,1982,2044,1192
1303,1710922216119905211,2097,2077,2050,2072,2072,2058,1198
1304,1710922216129902084,2060,2072,2152,2043,2075,2086,1194
1305,1710922216139905048,2051,2063,2106,2111,2048,2027,1193
1306,1710922216149905578,2052,2066,2149,2088,2051,2055,1196
1307,1710922216159898673,2024,2022,2064,2037,2033,2040,1193
1308,1710922216169898532,2033,2004,1906,2035,2012,2040,1193
1309,1710922216179903500,2049,2018,1960,2076,2052,2056,1196
1310,1710922216189905833,1991,1996,2025,2052,2036,2028,1192
1311,1710922216199898328,2064,2061,2056,2072,2030,2039,1193
1312,1710922216209896102,2042,2017,2082,2036,2061,2060,1197
1313,1710922216219904698,2029,1973,1822,1999,2041,2035,1195
1314,1710922216229906840,2072,2052,2062,2056,2014,2052,1196
1315,1710922216239897812,2052,2032,2000,2085,2085,2072,1197
1316,1710922216249904233,2085,2192,2481,2097,2070,2072,1194
1317,1710922216259917216,2043,2029,1936,2081,2044,2044,1193
1318,1710922216269907266,2072,2028,1995,2096,2068,2056,1195
1319,1710922216279911252,2043,2029,1982,2072,2058,2040,1194
1320,1710922216289903797,2054,2041,2027,2064,2035,2042,1194
1321,1710922216299912542,2061,2073,2051,2081,2074,2082,1196
1322,1710922216309939542,2043,2046,2043,1975,2031,2036,1190
1323,1710922216319932859,2053,2046,2049,2079,2057,2060,1196
1324,1710922216329907980,2045,2015,1948,2056,2057,2046,1192
1325,1710922216339908500,2082,2048,2067,2050,2056,2052,1195
1326,1710922216349904170,2051,2037,2042,2053,2061,2051,1194
1327,1710922216359904059,2047,2037,2072,2060,2064,2059,1195
1328,1710922216369901813,2058,2047,2040,2012,2039,2026,1192
1329,1710922216379905469,2054,2071,2112,2076,2052,2042,1193
1330,1710922216389903284,2064,2072,2053,2037,2030,2067,1197
1331,1710922216399909784,2040,2005,1917,2062,2047,2076,1195
1332,1710922216409928539,2058,2062,2030,2008,2033,2029,1195
1333,1710922216419897368,2040,1998,1813,2048,2076,2053,1195
1334,1710922216429912556,2072,2060,2124,1964,2036,2064,1198
1335,1710922216439911473,2042,2036,2054,2040,2058,2034,1195
1336,1710922216449909948,2060,2066,2008,2055,2094,2096,1194
1337,1710922216459909357,2053,2031,1984,2093,2077,2056,1196
1338,1710922216469915136,2041,1996,1904,2092,2019,2062,1195
1339,1710922216479874939,2060,2049,2069,1985,2003,2040,1194
1340,1710922216489911396,2060,2045,2090,2034,2041,2053,1194
1341,1710922216499908349,2063,2128,2245,2069,2029,2085,1195
1342,1710922216509910953,2044,2072,2130,2020,2040,2043,1190
1343,1710922216519901664,2068,2072,2176,2035,2065,2046,1192
1344,1710922216529904749,2071,2093,2104,2072,2056,2069,1196
1345,1710922216539909646,2092,2164,2400,2090,2077,2061,1197
1346,1710922216549907271,2043,2033,1970,2037,2024,2032,1192
1347,1710922216559907721,2026,2040,2062,2088,1997,2036,1194
1348,1710922216569906447,2046,2052,2089,2036,2046,2042,1194
1349,1710922216579913209,2057,2002,1980,2006,2045,2064,1198
1350,1710922216589908859,2064,2114,2398,2058,2081,2078,1197
1351,1710922216599909569,2036,2027,2052,2056,2055,2046,1192
1352,1710922216610751794,2064,2042,2054,2052,2028,2062,1195
1353,1710922216619937910,2038,2041,2040,2039,2059,2021,1193
1354,1710922216629910437,2071,2018,1912,2021,2070,2057,1194
1355,1710922216639911507,2055,2025,1964,2097,2052,2041,1194
1356,1710922216649911707,2074,2037,2169,2070,2033,2044,1192
1357,1710922216659912637,2060,2050,2044,2052,2059,2085,1196
1358,1710922216669935640,2052,2008,1877,2020,2040,2056,1196
1359,1710922216679916983,2062,2049,1974,2057,2046,2056,1193
1360,1710922216689912563,2052,2028,1959,2048,2041,2046,1194
1361,1710922216699912783,2056,2089,2042,2087,2031,2052,1195
1362,1710922216709913933,2049,2073,2070,2099,2059,2049,1194
1363,1710922216719920224,2080,2122,2380,2095,2100,2089,1194
1364,1710922216729909102,2055,2052,2028,2045,2066,2021,1194
1365,1710922216739927846,2083,2140,2324,2082,2060,2077,1196
1366,1710922216749917225,2047,2021,1956,2052,2051,2037,1192
1367,1710922216759917634,2050,2014,1877,2046,2073,2070,1195
1368,1710922216769887737,2061,2125,2180,2113,2060,2044,1192
1369,1710922216779918293,2047,2015,2069,2012,2056,2036,1192
1370,1710922216789885860,2062,2084,2041,2052,2044,2054,1194
1371,1710922216799917589,2036,2024,2008,2064,2084,2041,1193
1372,1710922216809919712,2049,2047,2018,2050,2039,2041,1194
1373,1710922216819919751,2075,2093,2056,2052,2102,2085,1197
1374,1710922216829918316,2054,2050,2047,2058,2073,2066,1197
1375,1710922216839917825,2043,2058,2003,2056,2054,2035,1192
1376,1710922216849918024,2068,2096,2206,2081,2092,2092,1194
1377,1710922216859919525,2046,2036,2018,2057,2059,2032,1192
1378,1710922216869918893,2040,2029,2077,2064,2056,2054,1194
1379,1710922216879885618,2056,2056,2134,2084,2045,2067,1194
1380,1710922216889905285,2054,2080,2098,1989,2042,2057,1194
1381,1710922216899931723,2056,2016,1918,2054,2040,2049,1194
1382,1710922216909924649,2068,2072,2165,2006,1999,2035,1191
1383,1710922216919921091,2082,2133,2078,2112,2088,2083,1196
1384,1710922216929925608,2034,2051,2072,2111,2066,2041,1192
1385,1710922216939920848,2056,2063,1913,2040,2048,2047,1192
1386,1710922216949902051,2069,2128,2192,2056,2075,2050,1197
1387,1710922216959925604,2052,2029,1978,2018,2043,2033,1192
1388,1710922216969907188,2059,2050,2086,2053,2056,2068,1196
1389,1710922216979905093,2054,2042,2036,2039,2052,2041,1193
1390,1710922216989910052,2027,2036,2041,2045,2038,2066,1195
1391,1710922216999910661,2042,2024,1980,2088,2078,2025,1193
1392,1710922217009914177,2050,2003,1803,2045,2079,2052,1196
1393,1710922217019905939,2040,1997,1873,2033,2034,2034,1194
1394,1710922217029903704,2086,2026,1775,2092,2068,2093,1197
1395,1710922217039906649,2069,2077,2172,1974,2039,2039,1192
1396,1710922217049919311,2077,2049,2096,1994,2076,2077,1195
1397,1710922217059903120,2033,1984,1910,2049,2020,2018,1194
1398,1710922217069940689,2080,2088,2118,2163,2136,2148,1197
1399,1710922217079920089,2044,2028,2025,2050,2042,2038,1195
1400,1710922217089933353,2025,2037,2044,2024,2005,2050,1196
1401,1710922217099928943,2081,2130,2112,2120,2064,2066,1195
1402,1710922217109921959,2057,2069,2134,2066,2045,2049,1193
1403,1710922217119919643,2071,2036,1976,2108,2040,2054,1197
1404,1710922217129917658,2048,2029,1986,2072,2040,2070,1196
1405,1710922217139923247,2062,2053,2088,2012,2034,2034,1193
1406,1710922217149920661,2059,2028,1958,2034,2018,2065,1195
1407,1710922217159927874,2044,2025,2065,2022,2022,2053,1194
1408,1710922217169922131,2056,2040,2030,2046,2028,2040,1191
1409,1710922217179919325,2044,2035,1933,2052,2051,2024,1193
1410,1710922217189920566,2069,2051,1966,2113,2069,2076,1197
1411,1710922217199925284,2068,2084,2086,2052,2071,2065,1195
1412,1710922217209931233,2069,2096,2226,2122,2075,2081,1196
1413,1710922217219917426,2057,2036,1992,2056,2036,2021,1191
1414,1710922217229916444,2067,2038,1978,2072,2086,2065,1196
1415,1710922217239914919,2048,2074,2080,2052,2068,2046,1193
1416,1710922217249913946,2053,2083,1967,2060,2032,2060,1195
1417,1710922217259943971,2092,2108,2178,2120,2047,2047,1193
1418,1710922217269912952,2064,2032,1906,2130,2044,2061,1195
1419,1710922217279918381,2053,2038,2066,2146,2069,2058,1194
1420,1710922217289922076,2056,2052,2005,2116,2044,2044,1193
1421,1710922217300062421,2054,2012,1921,2067,1997,2047,1193
1422,1710922217310117274,2052,2004,1850,2047,2065,2065,1193
1423,1710922217319916392,2052,2064,2110,2073,2062,2048,1196
1424,1710922217329918194,2093,2206,2496,2042,2071,2081,1196
1425,1710922217339915077,2065,2100,2339,2061,2064,2040,1191
1426,1710922217349917801,2038,2034,2024,2008,2020,2038,1193
1427,1710922217359920364,2050,2028,2029,2045,2101,2091,1195
1428,1710922217369943617,2065,2057,1941,1981,2044,2036,1192
1429,1710922217379915743,2053,2057,2038,2008,2033,2058,1194
1430,1710922217389909199,2042,2028,2088,2040,2032,2041,1193
1431,1710922217399913607,2055,2037,1902,2073,2103,2076,1196
1432,1710922217409928203,2034,2040,2000,2018,2048,2050,1195
1433,1710922217419910098,2056,2028,1995,2057,2031,2047,1193
1434,1710922217429909605,2042,2026,2060,2092,2069,2037,1193
1435,1710922217439908001,2068,2117,2176,2150,2062,2050,1194
1436,1710922217449909292,2061,2089,2112,2053,2051,2040,1194
1437,1710922217459916214,2061,2128,2446,2050,2125,2114,1197
1438,1710922217469916183,2029,2009,1999,2045,2030,2016,1194
1439,1710922217479914558,2068,2096,2187,2080,2068,2066,1195
1440,1710922217489909738,2066,2060,1995,2100,2069,2078,1196
1441,1710922217499912622,2052,2023,1991,2000,2032,2024,1193
1442,1710922217509906870,2060,2121,2182,2033,2058,2053,1194
1443,1710922217519910897,2047,2062,2021,2016,2037,2027,1191
1444,1710922217529907919,2025,2032,2041,2042,2052,2053,1195
1445,1710922217539907918,2058,2056,2036,2106,2061,2066,1193
1446,1710922217549862050,2046,2075,2084,2039,2040,2054,1195
1447,1710922217559907745,2080,2043,2001,2052,2051,2052,1196
1448,1710922217569873038,2041,2010,1956,1987,2034,2041,1192
1449,1710922217579910217,2050,2009,1984,2068,2044,2047,1193
1450,1710922217589906128,2042,2019,2058,2058,2039,2032,1193
1451,1710922217599905446,2036,2059,2095,2080,2042,2054,1196
1452,1710922217609934560,2064,2128,2154,2059,2058,2065,1197
1453,1710922217619925361,2057,2056,2060,2039,2045,2042,1193
1454,1710922217629912005,2018,2033,2049,1981,2047,2042,1193
1455,1710922217639910841,2092,2172,2392,2064,2060,2059,1194
1456,1710922217649908886,2068,2067,2089,2093,2059,2046,1193
1457,1710922217659907352,2064,2113,2339,2047,2046,2040,1192
1458,1710922217669909955,2056,2038,1999,2028,2054,2038,1194
1459,1710922217679915235,2063,2052,2089,2041,2050,2068,1196
1460,1710922217689897038,2042,2032,1988,1986,2018,2021,1193
1461,1710922217699906996,2041,1972,1838,2047,2061,2072,1195
1462,1710922217709915992,2051,2008,1904,2030,2040,2040,1190
1463,1710922217719908506,2060,2033,1992,2069,2047,2055,1194
1464,1710922217729916361,2083,2105,2254,2133,2097,2036,1192
1465,1710922217739906640,2045,2033,1982,2052,2049,2047,1192
1466,1710922217749911559,2050,2026,1970,2034,2046,2050,1197
1467,1710922217759907279,2068,2109,2142,2028,2049,2050,1196
1468,1710922217769907629,2058,2000,1848,2043,2047,2075,1196
1469,1710922217779913198,2033,2028,2013,2083,2024,2020,1192
1470,1710922217789911734,2058,1989,1848,2033,2063,2044,1193
1471,1710922217799909308,2060,2022,1979,2037,2078,2082,1196
1472,1710922217809931038,2050,2049,2040,2052,2036,2041,1193
1473,1710922217819920627,2060,2049,2034,2109,2061,2056,1195
1474,1710922217829916999,2065,2095,2133,1994,2082,2070,1198
1475,1710922217839915114,2022,2056,2056,2035,2020,2029,1192
1476,1710922217849905134,2057,2009,2018,2031,2053,2069,1196
1477,1710922217859920572,2041,2012,1953,2041,2040,2034,1193
1478,1710922217869923146,2060,2013,1970,2085,2059,2068,1196
1479,1710922217879922873,1995,1968,1856,2060,2063,2019,1192
1480,1710922217889920608,2028,1960,1832,1949,2064,2075,1196
1481,1710922217899925897,2050,2076,2065,2090,2046,2040,1194
1482,1710922217909909264,2053,2072,2196,2112,2068,2056,1195
1483,1710922217919909664,2058,2050,2121,2102,2093,2042,1194
1484,1710922217929909812,2053,2042,2045,2067,2051,2068,1194
1485,1710922217939910393,2080,2082,2052,2073,2072,2072,1195
1486,1710922217949909950,2064,2005,1952,2051,2051,2056,1197
1487,1710922217959913736,2053,2004,1831,2069,2065,2060,1195
1488,1710922217969911882,2066,2050,2016,2040,2065,2046,1190
1489,1710922217979912111,2050,2041,2056,2045,2046,2058,1194
1490,1710922217989909665,2057,2120,2232,2056,2085,2067,1197
1491,1710922217999921766,2056,2032,2041,2057,2031,2060,1196
1492,1710922218009909001,2063,2080,2104,2046,2090,2060,1196
1493,1710922218019913990,2070,2116,2347,2048,2085,2069,1195
1494,1710922218029908928,2061,2088,2096,1990,2045,2043,1193
1495,1710922218039909569,2046,2078,1982,2142,2045,2028,1194
1496,1710922218049905960,2068,2065,1941,2040,2078,2066,1197
1497,1710922218059913253,2073,2083,2066,2032,2060,2050,1195
1498,1710922218069910556,2056,2034,2020,2068,2047,2027,1193
1499,1710922218079905816,2044,2001,2022,1973,2036,2088,1196
1500,1710922218089931865,2032,2036,1979,1998,2052,2055,1194
1501,1710922218099907487,2060,2052,2078,2009,2020,2036,1192
1502,1710922218109909199,2064,2043,1980,2059,2089,2097,1194
1503,1710922218119909849,2041,2008,1818,2047,2033,2038,1192
1504,1710922218129910409,2044,2050,2054,2124,2047,2069,1196
1505,1710922218139910698,2028,2062,2093,2047,2010,2058,1196
1506,1710922218149913412,2064,2041,2130,2031,2066,2048,1196
1507,1710922218159909093,2045,2050,2042,2088,2057,2047,1193
1508,1710922218169909131,2082,2064,2260,2054,2041,2064,1194
1509,1710922218179912156,2065,2056,2112,2029,2043,2038,1192
1510,1710922218189912916,2057,1986,1830,2100,2079,2047,1192
1511,1710922218199907835,2034,2009,2021,2067,2058,2070,1196
1512,1710922218209910769,2018,2065,2141,2028,2041,2022,1194
1513,1710922218219909085,2028,2040,2018,2070,2065,2070,1197
1514,1710922218229904856,2044,2015,1977,2052,2042,2035,1191
1515,1710922218239910244,2072,2069,2024,2053,2057,2076,1195
1516,1710922218249907027,2044,1997,1927,2073,2034,2027,1192
1517,1710922218259910602,2050,2101,2171,2030,2053,2048,1195
1518,1710922218269911162,2045,2042,1998,2013,2047,2081,1195
1519,1710922218279911542,2059,2055,2016,2052,2033,2044,1194
1520,1710922218289920928,2073,2102,2101,2081,2072,2072,1195
1521,1710922218299911139,2078,2104,2158,2056,2059,2056,1196
1522,1710922218309911929,2066,2054,2132,2022,2038,2054,1193
1523,1710922218319963586,2075,2160,2281,2053,2068,2074,1196
1524,1710922218329909752,2048,2056,2031,1994,2040,2035,1193
1525,1710922218339910502,2047,2036,2001,2008,2065,2058,1194
1526,1710922218349906905,2042,2047,1968,2090,2049,2033,1193
1527,1710922218359909538,2046,2050,2033,2060,2054,2036,1192
1528,1710922218369906371,2029,2025,2112,2050,2040,2046,1192
1529,1710922218379905668,2057,2033,1993,2049,2047,2037,1192
1530,1710922218389904725,2065,2079,2134,2070,2056,2050,1195
1531,1710922218399912248,2073,2113,2242,2054,2098,2104,1195
1532,1710922218409925382,2047,2041,2018,1992,2013,2025,1194
1533,1710922218419908289,2044,2042,2008,2101,2038,2052,1196
1534,1710922218429906613,2045,2059,2242,2044,2064,2071,1197
1535,1710922218439907254,2026,1990,1923,2001,2046,2056,1195
1536,1710922218449954331,2045,2051,2011,2047,2040,2041,1193
1537,1710922218459957516,2025,1977,1827,2052,2040,2065,1195
1538,1710922218469953658,2044,2038,2012,2026,2012,2026,1192
1539,1710922218479910645,2042,2026,1891,2064,2045,2046,1192
1540,1710922218489910985,2042,2045,2008,2063,2054,2048,1194
1541,1710922218499968051,2024,2046,2035,1950,2016,2027,1192
1542,1710922218509907015,2031,2040,1940,2013,2013,2052,1194
1543,1710922218519949815,2042,2002,1892,2020,2022,2040,1192
1544,1710922218529909567,2035,2025,2121,2033,2058,2032,1193
1545,1710922218539948640,2053,2072,2002,2085,2048,2060,1194
1546,1710922218549953487,2072,2101,2355,2039,2065,2052,1195
1547,1710922218559895076,2068,2076,2088,2023,2050,2068,1195
1548,1710922218569949006,2072,2032,1968,2006,2045,2032,1193
1549,1710922218579950588,2040,2001,1803,2037,2027,2036,1192
1550,1710922218589961759,2041,2006,1960,2029,2047,2052,1195
1551,1710922218599955715,2057,2048,2081,2084,2061,2056,1193
1552,1710922218609955935,2053,2009,1941,2020,2033,2033,1193
1553,1710922218619949140,2094,2105,2244,2069,2065,2084,1195
1554,1710922218629951394,2038,2023,1938,2080,2071,2047,1195
1555,1710922218639951863,2046,2044,1962,2084,2054,2048,1197
1556,1710922218649952543,2059,2106,2217,2119,2037,2042,1194
1557,1710922218659955137,2069,2100,2085,2096,2075,2075,1196
1558,1710922218669953362,2077,2129,2136,2072,2058,2057,1193
1559,1710922218679954253,2052,2085,2044,2065,2076,2056,1193
1560,1710922218689953940,2068,2082,2188,2096,2053,2048,1193
1561,1710922218699939482,2038,2050,2123,2078,2056,2032,1192
1562,1710922218709943959,2038,2004,1945,2029,2041,2038,1190
1563,1710922218719941654,2056,2072,2101,2032,2095,2067,1194
1564,1710922218729939459,2038,2045,2024,2069,2059,2034,1193
1565,1710922218739938615,2052,2082,2248,2037,2064,2047,1193
1566,1710922218749938244,2022,2024,2020,2013,2018,2025,1192
1567,1710922218759935607,2084,2057,2057,2031,2068,2070,1195
1568,1710922218769936618,2050,2024,1988,2173,2056,2036,1192
1569,1710922218779934623,2017,2027,1932,1992,2022,2025,1192
1570,1710922218789934451,2088,2090,2002,2086,2101,2044,1192
1571,1710922218799932136,2043,2031,1930,2069,2054,2053,1195
1572,1710922218809937234,2032,2045,2036,2027,2044,2039,1194
1573,1710922218819931312,2060,2039,1946,2056,2054,2049,1194
1574,1710922218829875194,2048,2040,2091,2037,2058,2045,1194
1575,1710922218839931369,2040,2052,2128,2057,2067,2056,1196
1576,1710922218849931328,2041,2037,2084,2040,2060,2040,1191
1577,1710922218859931917,2034,1981,1872,2040,2024,2036,1193
1578,1710922218869930584,2053,2032,2068,2079,2047,2068,1193
1579,1710922218879927366,2062,2074,2124,2037,2061,2031,1189
1580,1710922218889930291,2062,2096,2273,2026,2084,2072,1196
1581,1710922218899929538,2053,2038,1936,2025,2088,2054,1195
1582,1710922218909927994,2047,2064,2155,2058,2047,2026,1190
1583,1710922218919930728,2060,2060,2170,2044,2052,2082,1196
1584,1710922218929927951,2035,2010,2002,2009,2020,2033,1191
1585,1710922218939865311,2056,2048,2073,2049,2081,2094,1196
1586,1710922218949927137,2044,2032,1992,2062,2052,2005,1192
1587,1710922218959923930,2061,2080,2106,2116,2087,2121,1195
1588,1710922218969922316,2078,2117,2185,2081,2051,2039,1192
1589,1710922218979922935,2062,2042,2024,2044,2037,2044,1195
1590,1710922218989922704,2065,2040,1972,2072,2064,2090,1196
1591,1710922218999924997,2054,2042,1922,2078,2057,2056,1196
1592,1710922219009927671,2063,2025,1922,2112,2073,2077,1196
1593,1710922219019920425,2050,2044,2059,2056,2027,2053,1195
1594,1710922219029948999,2080,2078,2196,2160,2043,2032,1196
1595,1710922219039923479,2032,2020,1956,2056,2069,2053,1194
1596,1710922219049923558,2030,2062,2125,2026,2027,2025,1193
1597,1710922219059930039,2043,2072,2115,2146,2070,2039,1193
1598,1710922219069918886,2086,2085,2107,2072,2063,2044,1194
1599,1710922219079919186,2082,2038,1932,2017,2020,2065,1196
1600,1710922219089921068,2064,2133,2242,2072,2087,2037,1194
1601,1710922219099920055,2065,2047,2021,2063,2056,2050,1197
1602,1710922219109918160,2037,2086,2096,2054,2097,2051,1194
1603,1710922219119917547,2050,2042,1959,2038,2041,2079,1195
1604,1710922219129917877,2049,2040,2089,2056,2036,2033,1192
1605,1710922219139917845,2022,2100,2185,2046,2068,2055,1196
1606,1710922219149918315,2084,2132,2229,2029,2069,2049,1197
1607,1710922219159921540,2045,2049,2025,2002,2040,2041,1192
1608,1710922219169916078,2047,2036,2029,2075,2065,2058,1196
1609,1710922219179918292,2037,2060,2105,2034,2072,2058,1194
1610,1710922219189920174,2057,2047,2181,2049,2045,2034,1191
1611,1710922219199910615,2038,2027,1972,2034,2053,2049,1194
1612,1710922219209917025,2079,2092,2287,2076,2046,2056,1196
1613,1710922219219916653,2031,2017,1965,1972,2066,2047,1192
1614,1710922219229917735,2082,2101,2172,2108,2052,2064,1196
1615,1710922219239920207,2026,1951,1939,2157,2049,2063,1196
1616,1710922219249918543,2059,2001,1865,2030,2037,2027,1191
1617,1710922219259915726,2047,2084,2192,2039,2044,2038,1193
1618,1710922219269916046,2069,2111,2126,2071,2034,2029,1192
1619,1710922219279919240,2086,2152,2316,2030,2099,2116,1193
1620,1710922219289926223,2036,2024,1913,2008,2026,2016,1192
1621,1710922219299912926,2029,2064,2142,2047,2060,2046,1193
1622,1710922219309916622,2085,2156,2263,2053,2056,2107,1194
1623,1710922219319905139,2044,2091,2093,2053,2043,2005,1190
1624,1710922219329915487,2069,2056,2049,2047,2020,2044,1193
1625,1710922219339918622,2072,2094,2072,2030,2045,2121,1196
1626,1710922219349917829,2034,2056,2038,2031,2011,2038,1192
1627,1710922219359915303,2047,1978,1800,2052,2041,2050,1195
1628,1710922219369915132,2043,2106,2236,2078,2062,2042,1192
1629,1710922219379920590,2041,2026,1931,2052,2040,2036,1192
1630,1710922219389928194,2053,2037,2014,2126,2022,2047,1192
1631,1710922219399916380,2096,2106,2002,2056,2061,2065,1196
1632,1710922219409917772,2056,2045,1986,2072,2053,2084,1196
1633,1710922219419915466,2052,2040,2020,2042,2044,2040,1190
1634,1710922219429914473,2052,2096,2173,2029,2064,2045,1193
1635,1710922219439917257,2044,2050,2072,1968,2046,2034,1192
1636,1710922219449926984,2073,2093,2213,2087,2089,2083,1193
1637,1710922219459923516,2043,2056,2064,2159,2056,2045,1193
1638,1710922219469919717,2057,2048,2143,2066,2058,2056,1195
1639,1710922219479921309,2044,2051,1996,2067,2076,2049,1194
1640,1710922219489920748,2045,2060,2163,2027,2056,2055,1195
1641,1710922219499901159,2077,2057,1999,2074,2041,2038,1193
1642,1710922219509915665,2062,2033,2054,2002,2083,2092,1193
1643,1710922219519916355,2097,2096,2242,2047,2097,2057,1195
1644,1710922219529916083,2047,2013,1918,2004,2017,2040,1192
1645,1710922219539920962,2048,2044,1943,2069,2058,2047,1191
1646,1710922219549919908,2057,2026,1936,2056,2059,2076,1195
1647,1710922219559916380,2050,2116,2228,2115,2043,2043,1192
1648,1710922219569917821,2092,2132,2257,2028,2069,2077,1195
1649,1710922219579920616,2034,2048,2031,2073,2041,2008,1193
1650,1710922219589923429,2046,2026,2000,2024,2044,2037,1192
1651,1710922219599920914,2040,2017,1949,2008,2061,2058,1192
1652,1710922219609915562,2112,2103,2124,2041,2068,2058,1194
1653,1710922219619922885,2042,2042,2028,2093,2042,2036,1193
1654,1710922219629900802,2057,2060,2070,2070,2088,2074,1196
1655,1710922219639938762,2085,2084,2008,2097,2062,2065,1194
1656,1710922219649921899,2042,2068,2050,2056,2054,2039,1191
1657,1710922219659917088,2065,2080,2062,2063,2010,2054,1194
1658,1710922219669919833,2056,2032,2086,2062,2078,2069,1195
1659,1710922219679920192,2047,2081,2100,2065,2053,2027,1194
1660,1710922219689919209,2094,2056,2017,2030,2047,2034,1192
1661,1710922219699919559,2112,2183,2511,2137,2145,2104,1196
1662,1710922219709919086,2050,2034,1993,2025,2028,2029,1190
1663,1710922219719916801,2046,2047,2033,2112,2040,2039,1192
1664,1710922219729915948,2068,2034,1923,2077,2076,2094,1195
1665,1710922219739922168,2098,2050,1988,2034,2044,2054,1194
1666,1710922219749917589,2044,2056,2098,2025,2068,2070,1195
1667,1710922219759920162,2060,2064,2054,2038,2064,2064,1193
1668,1710922219769955448,2065,2089,2141,2056,2051,2068,1197
1669,1710922219779931631,2108,2205,2402,2090,2110,2084,1197
1670,1710922219789920820,2046,2033,2079,2024,2037,2037,1194
1671,1710922219799920027,2072,2064,2045,2064,2063,2024,1193
1672,1710922219809918533,2068,2180,2272,2011,2052,2053,1197
1673,1710922219819956684,2034,2056,2064,2048,2061,2060,1197
1674,1710922219829955139,2083,2078,2088,2093,2012,2046,1193
1675,1710922219839957683,2056,2034,2008,2082,2041,2052,1195
1676,1710922219849941851,2038,2042,2113,1979,2020,2026,1194
1677,1710922219859913807,2105,2152,2361,2106,2089,2094,1194
1678,1710922219869964502,2040,2052,2045,2108,2065,2032,1193
1679,1710922219879943962,2074,2055,2074,2080,2093,2072,1195
1680,1710922219889964139,2030,2012,1961,1984,2028,2057,1195
1681,1710922219899944430,2056,2069,2056,2041,2028,2047,1196
1682,1710922219909901348,2069,2033,1958,2042,2052,2069,1194
1683,1710922219919944177,2056,2046,2056,2075,2039,2062,1195
1684,1710922219929967029,2046,2073,2053,2027,2026,2028,1193
1685,1710922219939967038,2042,2035,2052,2021,2113,2090,1195
1686,1710922219949937871,2044,2020,1990,2105,2037,2024,1193
1687,1710922219959947629,2059,2077,2232,2067,2058,2052,1194
1688,1710922219969945193,2056,2060,2064,2054,2094,2053,1194
1689,1710922219979947025,2053,2099,2197,2034,2048,2037,1193
1690,1710922219989965308,2061,2120,2226,2016,2059,2047,1192
1691,1710922219999946011,2015,2016,1970,1985,2010,2058,1194
1692,1710922220009946621,2062,2056,2052,2040,2018,2020,1195
1693,1710922220019970444,2057,2155,2260,2065,2071,2082,1197
1694,1710922220029948682,2048,2088,2117,2020,2066,2064,1198
1695,1710922220039961585,2057,2024,1973,1944,2001,2011,1192
1696,1710922220049933882,2061,2061,1897,2053,2015,2056,1197
1697,1710922220059940253,2017,2009,1874,2070,2048,2042,1189
1698,1710922220069936384,2067,2054,2018,2029,2000,2041,1192
1699,1710922220079935561,2066,2086,2152,2069,2101,2077,1196
1700,1710922220089932994,2032,2036,2036,2047,2045,2037,1193
1701,1710922220099933264,2053,2088,2089,2053,2054,2021,1192
1702,1710922220109930717,2060,2061,1970,2044,2056,2068,1192
1703,1710922220119934053,2051,2003,1902,2021,2016,2027,1192
1704,1710922220129892903,2056,2075,2118,2088,2053,2035,1194
1705,1710922220139928119,2064,2033,1994,2147,2104,2074,1194
1706,1710922220149905355,2056,2063,2101,2080,2053,2054,1195
1707,1710922220159925592,2026,2036,1962,2031,2023,2048,1196
1708,1710922220169928586,2116,2041,2094,2142,2086,2109,1195
1709,1710922220179928384,2037,2013,1922,2033,1979,2008,1193
1710,1710922220189929676,2040,2056,1984,2000,2002,1994,1193
1711,1710922220199926439,2028,2064,2107,2102,2096,2121,1197
1712,1710922220209922029,2050,2061,1994,2054,2068,2042,1193
1713,1710922220219927608,2033,2021,1942,2023,2017,2060,1194
1714,1710922220229927887,2079,2138,2215,2093,2060,2064,1194
1715,1710922220239924810,2072,2093,2114,2066,1979,2044,1194
1716,1710922220249935649,2036,2040,2040,1968,2008,2014,1193
1717,1710922220259927473,2082,2072,2061,2028,2082,2089,1196
1718,1710922220269921411,2015,1994,1922,2026,2064,2042,1194
1719,1710922220279921409,2061,2053,2005,2044,2041,2029,1192
1720,1710922220289927630,2061,2053,1998,2064,2096,2093,1198
1721,1710922220299944560,2046,2051,2043,2009,2017,2026,1192
1722,1710922220309945551,2125,2203,2450,2088,2133,2113,1194
1723,1710922220319935380,2065,2089,2182,2088,2045,2019,1190
1724,1710922220329931662,2035,2029,2047,2129,2056,2064,1196
1725,1710922220339932212,2025,2035,2065,1997,2038,2061,1193
1726,1710922220349946908,2042,2040,2036,2029,2036,2040,1193
1727,1710922220359926338,2058,2050,2000,2052,2044,2042,1192
1728,1710922220369929072,2100,2084,2111,1980,2070,2072,1194
1729,1710922220379921567,2056,2049,2092,2038,2061,2056,1195
1730,1710922220389924591,2091,2056,2005,2080,2043,2068,1194
1731,1710922220399930801,2053,2088,2096,2024,2055,2056,1194
1732,1710922220409932794,2053,2028,1968,2028,2030,2045,1194
1733,1710922220419920649,2045,2026,1944,1997,2025,2040,1192
1734,1710922220429923514,2069,2056,2056,2052,2067,2065,1199
1735,1710922220439923392,2049,2033,2009,2005,2031,2031,1193
1736,1710922220449925415,2037,2050,2101,2036,2065,2077,1195
1737,1710922220460151803,2037,2040,2003,2046,2041,2045,1192
1738,1710922220469920022,2041,2038,2015,2072,2077,2081,1194
1739,1710922220479916013,2018,1973,1816,2013,2027,2041,1193
1740,1710922220489918186,2053,1977,1704,2043,2056,2065,1194
1741,1710922220499941449,2072,2062,2044,2007,2062,2041,1193
1742,1710922220509934404,2047,2037,2131,2043,2065,2099,1195
1743,1710922220519955784,2020,2028,2026,2078,2054,2000,1192
1744,1710922220529920425,2066,2084,2481,2085,2129,2138,1194
1745,1710922220539919773,2049,2052,2041,1967,1997,2008,1192
1746,1710922220549916596,2054,1983,1901,1975,2050,2076,1193
1747,1710922220559960918,2077,2110,2172,2059,2058,2084,1196
1748,1710922220569955547,2040,2038,2118,2034,2014,2026,1192
1749,1710922220579930027,2056,2032,2002,2076,2072,2078,1196
1750,1710922220589917282,2042,2066,2053,2015,2050,2039,1193
1751,1710922220599928472,2030,2037,2015,1976,2060,2041,1194
1752,1710922220609969037,2069,2008,2018,1989,2067,2054,1195
1753,1710922220619914062,2059,2046,2186,1982,2023,2060,1196
1754,1710922220629906927,2034,2008,1984,2026,2056,2049,1196
1755,1710922220639905153,2072,2117,2126,2116,2126,2116,1192
1756,1710922220649902276,2047,2041,2014,2052,2024,2025,1193
1757,1710922220659941339,2064,2060,2101,2042,2044,2049,1196
1758,1710922220669959993,2058,2053,2112,2069,2078,2091,1194
1759,1710922220679902943,2033,2017,1975,2068,2041,2032,1194
1760,1710922220689905167,2029,2036,2092,2004,2025,2021,1192
1761,1710922220699907239,2036,2024,1909,2069,2097,2091,1196
1762,1710922220709926354,2067,2072,2064,2052,2062,2034,1192
1763,1710922220719909550,2040,2009,2057,2060,2065,2074,1197
1764,1710922220729946449,2061,2029,2012,2066,2036,2025,1193
1765,1710922220739921361,2056,2041,2031,2068,2047,2041,1190
1766,1710922220749944152,2074,2084,2277,2021,2028,2069,1195
1767,1710922220759941266,2038,2041,2012,2099,2029,2029,1192
1768,1710922220769939701,2070,2080,2113,2022,2034,2045,1194
1769,1710922220779922007,2065,2046,2045,2029,2043,2084,1196
1770,1710922220789905093,2028,2021,2021,2042,2050,2033,1191
1771,1710922220799920381,2059,2090,2167,2070,2093,2058,1195
1772,1710922220809927263,2062,2076,2127,2080,2088,2079,1197
1773,1710922220819926430,2051,2025,1976,2005,2078,2086,1195
1774,1710922220829921349,2068,2091,2131,2106,2068,2045,1193
1775,1710922220839922400,2031,2014,1993,2056,2041,2049,1195
1776,1710922220849935824,2062,2083,2092,2060,2048,2045,1193
1777,1710922220859935503,2045,2068,2336,2084,2076,2056,1195
1778,1710922220869930632,2057,2032,2008,2037,2041,2041,1193
1779,1710922220879933406,2056,2067,2190,2132,2085,2062,1194
1780,1710922220889921241,2030,2039,2033,2047,2041,2036,1194
1781,1710922220899941379,2064,2051,2038,2117,2060,2049,1194
1782,1710922220909924294,2043,2044,2036,2076,2106,2062,1193
1783,1710922220919912010,2037,2080,2124,2061,2051,2035,1193
1784,1710922220929911017,2068,2016,1849,2012,2040,2041,1192
1785,1710922220939905776,2100,2264,2747,2059,2090,2112,1195
1786,1710922220949910664,2010,2018,2015,2061,2050,2021,1194
1787,1710922220959906224,2056,2050,2021,2037,2060,2055,1195
1788,1710922220969921833,2066,2002,1919,2056,2069,2049,1193
1789,1710922220979922793,2048,2032,1905,2077,2034,2032,1195
1790,1710922220989920287,2064,2036,1996,2053,2071,2040,1193
1791,1710922220999913243,2073,2106,2144,2061,2074,2096,1197
1792,1710922221009910706,2066,2061,2100,2053,2015,2050,1196
1793,1710922221019905395,2053,2100,2203,2060,2065,2061,1193
1794,1710922221029920151,2056,2074,2066,2056,2065,2054,1196
1795,1710922221039916844,2049,2036,1933,2052,2080,2056,1195
1796,1710922221049919518,2048,2042,2035,2044,2014,2028,1192
1797,1710922221059917012,2006,2037,1887,2042,2041,2041,1194
1798,1710922221069911921,2115,2140,2328,2165,2098,2124,1193
1799,1710922221079905187,2028,1993,1921,2043,2028,2063,1195
1800,1710922221089908603,2024,2047,2091,2061,2061,2024,1193
1801,1710922221099910464,2074,2182,2510,2156,2104,2101,1197
1802,1710922221109915583,2049,2061,2045,2015,1978,2028,1193
1803,1710922221119907706,2033,2015,1892,2037,2077,2040,1194
1804,1710922221129906563,2064,2071,2076,2124,2070,2058,1196
1805,1710922221139906632,2055,2074,2130,2029,2070,2046,1192
1806,1710922221149906631,2036,2029,2082,2064,2086,2047,1192
1807,1710922221159909616,2059,2035,2015,2027,2042,2044,1194
1808,1710922221169907560,2060,2044,2013,2084,2010,2045,1194
1809,1710922221179909663,2099,2109,2192,2075,2063,2093,1196
1810,1710922221189912727,2054,2062,2002,1970,2029,2049,1196
1811,1710922221199909290,2024,2032,1957,1961,2045,2055,1195
1812,1710922221209906534,2057,2061,2089,2116,2084,2032,1194
1813,1710922221219919687,1998,1994,2035,2050,2093,2072,1195
1814,1710922221229909286,2050,2092,2252,2138,2060,2045,1194
1815,1710922221239909865,2054,2001,1961,2041,2041,2034,1193
1816,1710922221249914684,2056,2093,2232,2022,2046,2055,1195
1817,1710922221259907348,2060,2058,2122,2002,2047,2056,1193
1818,1710922221269906846,2058,2045,1992,2066,1976,2015,1193
1819,1710922221279931412,2052,2047,1994,2065,2076,2089,1193
1820,1710922221289908677,2037,2057,2106,2034,2032,2038,1192
1821,1710922221299914938,2072,2018,1896,2056,2050,2062,1193
1822,1710922221309911119,2074,2040,2032,2090,2039,2058,1195
1823,1710922221319905507,2049,2093,2038,2132,2052,2075,1194
1824,1710922221329913571,2060,2042,2006,2072,2008,2016,1192
1825,1710922221339906446,2074,2162,2511,2078,2099,2127,1193
1826,1710922221349915844,2050,2058,2031,1999,2037,2022,1192
1827,1710922221359917916,2067,2052,2114,1949,2031,2081,1195
1828,1710922221369909990,2034,2034,2018,2000,2070,2044,1193
1829,1710922221379909226,2053,2040,1956,2102,2034,2044,1194
1830,1710922221389911189,2076,2064,2144,2102,2083,2060,1195
1831,1710922221399902822,2050,2015,2020,2015,2008,2033,1192
1832,1710922221409919522,2091,2036,2019,2056,2056,2036,1194
1833,1710922221419906066,2088,2074,2127,2087,2074,2102,1195
1834,1710922221429905884,2048,2054,2062,2050,2032,2018,1193
1835,1710922221439908448,2077,2075,2235,2076,2045,2045,1193
1836,1710922221449916982,2064,2020,1897,2066,2045,2059,1196
1837,1710922221459915098,2045,2088,2076,2019,2045,2050,1193
1838,1710922221469906981,2033,2036,1891,2044,2065,2049,1195
1839,1710922221479904235,2033,2023,2037,2033,2058,2064,1196
1840,1710922221489908261,2085,2131,2146,2084,2050,2038,1192
1841,1710922221499924971,2012,1997,1995,2035,2063,2044,1192
1842,1710922221509906866,2042,2020,1980,2055,2065,2074,1194
1843,1710922221519925029,2044,2024,1987,2018,1978,2020,1192
1844,1710922221529904830,2040,2081,2229,2070,2027,2033,1191
1845,1710922221539906502,2060,2059,2002,2108,2058,2064,1196
1846,1710922221549915437,2066,2152,2188,2063,2034,2031,1192
1847,1710922221559908793,2038,2028,2029,2076,2047,2056,1194
1848,1710922221569906076,2068,2031,1980,2047,2070,2046,1194
1849,1710922221579906166,2047,2025,2024,2028,2021,2030,1192
1850,1710922221589923587,2063,2178,2315,2088,2072,2059,1195
1851,1710922221599904640,2104,2240,2789,2004,2041,2063,1194
1852,1710922221609911011,2087,2004,1824,1997,2007,2047,1192
1853,1710922221619908385,2062,2120,2201,2037,2004,2073,1195
1854,1710922221629907873,2037,2056,2032,2035,2052,2038,1193
1855,1710922221639910215,2045,2031,1953,2027,2047,2072,1193
1856,1710922221649912509,2057,2062,2044,2036,2044,2033,1192
1857,1710922221659907297,2088,2102,2241,2012,2064,2046,1192
1858,1710922221669907587,2037,2024,2113,2040,2063,2098,1195
1859,1710922221679910942,2071,2085,2042,2061,2077,2053,1193
1860,1710922221689917012,2056,2109,2264,2012,2034,2054,1194
1861,1710922221699903125,2044,2019,1948,2069,2064,2049,1194
1862,1710922221709907792,2068,2052,2027,2072,2047,2059,1194
1863,1710922221719904585,2036,2046,2074,2084,2064,2049,1194
1864,1710922221729903672,2049,2062,2108,2033,2088,2044,1193
1865,1710922221739913549,2064,2001,1829,2058,2043,2048,1195
1866,1710922221749911835,2039,1954,1820,2014,2047,2047,1194
1867,1710922221759904580,2052,2077,2082,2080,2069,2056,1194
1868,1710922221769906042,2078,2096,2027,2041,2056,2069,1195
1869,1710922221779908444,2041,1996,1984,2156,2077,2042,1193
1870,1710922221789906881,2074,2065,2120,2029,2051,2069,1195
1871,1710922221799910415,2052,2066,2098,2090,2062,2044,1191
1872,1710922221809907800,2056,2030,1980,2095,2044,2037,1193
1873,1710922221819855449,2033,2012,1945,2040,2034,2040,1192
1874,1710922221829908929,2067,2034,1959,2129,2106,2088,1197
1875,1710922221839911283,2056,2036,1968,2079,1995,2021,1192
1876,1710922221849882496,2106,2073,1985,2024,2032,2060,1195
1877,1710922221859911380,2024,2030,1994,2114,2057,2035,1192
1878,1710922221869910146,2039,2056,2078,2064,2026,2064,1194
1879,1710922221879910376,2051,2084,2047,2142,2093,2054,1194
1880,1710922221889912628,2097,2112,2208,2038,2072,2077,1196
1881,1710922221899912217,2065,2082,2129,2058,2049,2050,1194
1882,1710922221909882940,2050,2056,2253,2045,2072,2061,1194
1883,1710922221919905010,2076,2073,1968,2044,2036,2041,1193
1884,1710922221929914578,2038,2023,1987,2068,2037,2029,1194
1885,1710922221939912432,2092,2108,2192,1985,2064,2074,1197
1886,1710922221949912381,2064,2034,1995,2050,2089,2053,1195
1887,1710922221959915726,2015,1971,2080,2028,2056,2047,1194
1888,1710922221969892971,2080,2164,2386,2076,2082,2105,1196
1889,1710922221979912898,2054,2078,2084,2027,2025,2036,1194
1890,1710922221989924719,2032,2003,2037,2031,2051,2045,1193
1891,1710922221999914679,2054,2057,2148,2062,2061,2064,1195
1892,1710922222009912934,2053,2097,2115,2028,2074,2088,1193
1893,1710922222019915738,2030,2012,2015,2089,2031,2033,1192
1894,1710922222029916308,2048,2045,2066,2141,2040,2069,1192
1895,1710922222039915826,2075,2111,2228,2041,2064,2064,1196
1896,1710922222049916236,2018,2008,1914,2027,2025,2016,1191
1897,1710922222059917045,2065,2224,2648,2122,2124,2124,1195
1898,1710922222069882188,2048,2031,2013,2052,2034,2017,1194
1899,1710922222079918636,2035,2112,2317,2076,2056,2029,1193
1900,1710922222089919987,2075,2046,1982,2046,2084,2089,1196
1901,1710922222099918584,2032,2025,2008,2070,2042,2043,1193
1902,1710922222109919624,2075,2032,1888,2024,2041,2040,1188
1903,1710922222119918922,2047,2045,2014,2020,2094,2056,1197
1904,1710922222129919261,2044,2038,2004,2055,2032,2033,1190
1905,1710922222139901456,2098,2048,1989,2151,2071,2058,1195
1906,1710922222149902286,2045,2109,2264,2002,2042,2052,1194
1907,1710922222159903046,2044,2040,2072,2037,2036,2044,1192
1908,1710922222169922883,2079,2030,2008,2045,2037,2049,1197
1909,1710922222179928622,2080,2095,2113,2096,2089,2097,1195
1910,1710922222189928251,2067,2069,2100,2028,2034,2036,1192
1911,1710922222199929140,2085,2148,2270,2104,2064,2072,1196
1912,1710922222209959487,2069,2072,2064,2049,2028,2034,1193
1913,1710922222219904180,2036,2110,2398,2160,2046,2024,1192
1914,1710922222229904731,2125,2228,2633,2106,2097,2164,1196
1915,1710922222239908346,2048,2043,2007,2031,2037,2001,1193
1916,1710922222249906842,2040,2037,2024,2029,2040,2037,1194
1917,1710922222259906981,2047,2067,2076,2072,2040,2058,1197
1918,1710922222269924082,2045,2047,2029,2056,2053,2050,1197
1919,1710922222279907710,2074,2042,1994,2030,2043,2049,1196
1920,1710922222289907859,2046,2029,2007,2017,2026,2065,1194
1921,1710922222299903009,2040,2042,2120,2021,2077,2051,1194
1922,1710922222309996014,2047,2022,1972,2075,2034,2032,1188
1923,1710922222319934936,2052,2052,2062,2051,2045,2058,1196
1924,1710922222329935617,2062,2040,2108,2057,2049,2036,1193
1925,1710922222339932709,2021,2033,2056,2021,2065,2064,1194
1926,1710922222349915747,2064,2086,1971,1994,2020,2032,1194
1927,1710922222359933338,2065,2067,1976,2091,2085,2076,1194
1928,1710922222369938407,2049,2028,1944,2037,2039,2041,1194
1929,1710922222379931212,2058,2053,2082,2008,2043,2057,1196
1930,1710922222389933485,2081,2102,1985,2066,2041,2044,1192
1931,1710922222399915620,2043,1980,2046,2066,2109,2094,1197
1932,1710922222409970542,2049,2044,1993,2044,2025,2011,1193
1933,1710922222419934774,2065,2047,2051,2011,2037,2038,1192
1934,1710922222429915395,2082,2093,2036,2069,2058,2066,1196
1935,1710922222439916727,2043,2057,2041,2070,2069,2057,1196
1936,1710922222449917406,2070,2058,2057,2103,2065,2042,1192
1937,1710922222459918928,1992,2016,2039,1996,2072,2058,1196
1938,1710922222469961258,2069,2079,2176,2058,2038,2047,1192
1939,1710922222479936489,2044,2041,1994,2030,2027,2026,1192
1940,1710922222489920358,2072,2146,2214,2055,2094,2106,1196
1941,1710922222499919534,2028,2037,2010,2009,2065,2028,1192
1942,1710922222509921237,2034,2009,2003,2060,2060,2076,1194
1943,1710922222519922388,2047,2091,2084,2092,2066,2050,1195
1944,1710922222529916284,2044,2064,2069,2081,2050,2053,1195
1945,1710922222539913879,2065,2066,2106,2042,2056,2081,1196
1946,1710922222549922894,2066,2056,2052,2073,2072,2045,1193
1947,1710922222559919758,2038,2029,2028,2050,2068,2066,1195
1948,1710922222569918664,2046,2050,2133,2078,2064,2036,1193
1949,1710922222579940314,2085,2066,2040,2099,2004,2013,1192
1950,1710922222589915866,2052,2034,2032,2072,2074,2088,1197
1951,1710922222599917768,2043,2026,2017,2079,2026,2038,1192
1952,1710922222609954217,2088,2043,1961,2042,2072,2058,1196
1953,1710922222619955808,2028,2022,1976,2022,2062,2035,1192
1954,1710922222629944425,2113,2252,2509,2104,2090,2061,1196
1955,1710922222639932381,2050,2037,1905,2107,2061,2051,1194
1956,1710922222649919676,2065,2037,1952,2056,2044,2037,1193
1957,1710922222659918863,2071,2041,2037,2024,2053,2080,1197
1958,1710922222669936655,2085,2074,2229,2105,2084,2020,1192
1959,1710922222679924031,2035,2020,1936,2008,2074,2052,1197
1960,1710922222689927515,2052,2066,2147,1995,2004,2047,1193
1961,1710922222699924328,2062,2060,2107,2054,2077,2044,1192
1962,1710922222709915480,2036,2041,2039,2032,2044,2047,1193
1963,1710922222719946227,2018,2064,2232,1999,2053,2064,1195
1964,1710922222729922330,2056,2052,1976,2026,2092,2049,1194
1965,1710922222739927850,2049,2030,1917,2068,2030,2030,1193
1966,1710922222749925815,2080,2136,2171,2068,2019,2068,1196
1967,1710922222759921124,2037,2022,1970,2072,2047,2056,1196
1968,1710922222769948846,2065,2076,2064,2037,2046,2046,1194
1969,1710922222779921392,2064,2052,2056,2022,2065,2051,1195
1970,1710922222789917744,2056,2059,2149,2011,2058,2070,1195
1971,1710922222799922733,2072,2116,2286,2128,2074,2029,1194
1972,1710922222809915948,2046,2042,1927,2021,2074,2064,1196
1973,1710922222819933220,2042,2044,2088,1981,1984,2032,1193
1974,1710922222829928870,2042,1993,1889,1958,2060,2061,1196
1975,1710922222839924541,2039,2041,1981,1976,2046,2060,1193
1976,1710922222849885065,2047,2058,2080,2060,2021,2035,1193
1977,1710922222859912916,2040,2046,1949,2042,2045,2086,1197
1978,1710922222869904699,2037,1980,1916,2010,1965,2013,1193
1979,1710922222879908806,2042,2001,1931,2040,2025,2036,1195
1980,1710922222889930236,2066,2067,2085,2093,2071,2072,1196
1981,1710922222899902842,2060,2085,2099,2096,2093,2050,1196
1982,1710922222909917168,2089,2082,2012,2035,2052,2106,1194
1983,1710922222919911225,2058,2072,2117,2066,2068,2048,1195
1984,1710922222929908499,2064,2084,2112,2055,2053,2065,1193
1985,1710922222939910472,2029,2030,2017,2036,2020,2035,1193
1986,1710922222949910901,2074,2048,2025,2068,2072,2070,1194
1987,1710922222959912734,2061,2070,2251,2072,2061,2049,1196
1988,1710922222969909746,2052,2064,1969,2065,2075,2064,1195
1989,1710922222979910086,2057,2088,2196,2052,2031,2008,1193
1990,1710922222989911707,2054,2040,2040,2052,2056,2081,1196
1991,1710922222999908941,2076,2081,2140,2029,2064,2030,1192
1992,1710922223009904792,2064,2120,2248,2073,2032,2042,1194
1993,1710922223019911223,2038,2036,2038,2045,2085,2076,1196
1994,1710922223029909208,2040,2015,1988,2032,2033,2034,1193
1995,1710922223039910940,2045,2051,2091,2056,2104,2068,1195
1996,1710922223049910688,2024,2048,1973,2042,2035,2060,1197
1997,1710922223059902180,2093,2148,2389,2056,2058,2053,1196
1998,1710922223069909423,2066,2068,2121,2070,2051,2054,1193
1999,1710922223079910143,2034,2017,1981,2049,2034,2030,1194
2000,1710922223089910923,2017,2032,2013,2113,2086,2071,1195
2001,1710922223099910462,2048,2043,1991,2078,2025,2031,1192
2002,1710922223109913686,2064,2023,2028,2088,2090,2104,1194
2003,1710922223119910198,2049,2024,2066,2029,2040,2029,1192
2004,1710922223129914024,2049,2029,1982,2096,2048,2078,1195
2005,1710922223139907360,2061,2040,1949,2049,2056,2040,1192
2006,1710922223149917518,2041,2056,2066,2050,2027,2032,1194
2007,1710922223159909372,2029,2005,2028,2088,2100,2057,1196
2008,1710922223169909691,2044,2027,1932,1956,2009,2043,1193
2009,1710922223179909389,2076,2175,2347,2072,2078,2049,1196
2010,1710922223189913756,2074,2058,2035,2031,2061,2053,1195
2011,1710922223199908204,2053,2064,2268,2106,2074,2076,1196
2012,1710922223209906310,2044,2033,1908,2077,2038,2041,1194
2013,1710922223219910076,2065,2065,2075,2084,2096,2048,1194
2014,1710922223229910385,2056,2068,2063,2081,2028,2032,1194
2015,1710922223239912137,2032,1991,1883,2024,2071,2045,1193
2016,1710922223249913368,2056,2064,2089,2059,2074,2059,1196
2017,1710922223259910571,2042,2045,2081,2047,2052,2035,1192
2018,1710922223269910289,2054,2049,2045,2056,2053,2054,1196
2019,1710922223279942740,2058,2055,2053,2041,2048,2034,1192
2020,1710922223289907010,2051,2000,1953,1999,2093,2103,1194
2021,1710922223299900838,2061,2113,2244,2089,2046,2032,1192
2022,1710922223309908071,2056,2026,2000,2080,2070,2051,1193
2023,1710922223319909411,2054,2051,2056,2052,2056,2048,1193
2024,1710922223329904641,2054,2056,2064,2058,2057,2054,1194
2025,1710922223339910611,2024,2005,1967,2021,2012,2025,1192
2026,1710922223349913606,2065,2028,1952,2153,2124,2182,1197
2027,1710922223359914926,2058,2068,2061,2000,2004,2019,1192
2028,1710922223369914334,2048,2051,2053,2072,2044,2048,1195
2029,1710922223379914504,2039,2034,2048,2040,2034,2040,1194
2030,1710922223389905856,2050,2040,2054,2078,2035,2055,1197
2031,1710922223399915343,2043,2044,1998,2065,2065,2047,1190
2032,1710922223409915902,2041,2026,2035,2040,2030,2030,1194
2033,1710922223419915781,2138,2121,1910,2068,2081,2134,1197
2034,1710922223429913184,2030,2040,2091,1990,2018,2013,1193
2035,1710922223439915858,2056,2078,2179,2069,2064,2060,1194
2036,1710922223449914806,2051,2049,1946,2058,2040,2041,1193
2037,1710922223459913511,2057,2066,2089,2036,2057,2058,1198
2038,1710922223469916596,2056,2069,2114,2082,2059,2046,1193
2039,1710922223479932364,2074,2090,2070,2040,2052,2036,1193
2040,1710922223489927043,2050,2053,2009,1994,2077,2095,1196
2041,1710922223499909709,2061,2040,1944,2054,2045,1999,1192
2042,1710922223509920338,2060,2056,2090,2125,2076,2051,1194
2043,1710922223519919666,2048,2032,1969,2051,2094,2083,1195
2044,1710922223529920285,2058,2018,1997,2053,2042,2045,1192
2045,1710922223539933880,2070,2036,2063,2010,2017,2042,1193
2046,1710922223549920523,2094,2068,1973,2097,2086,2077,1193
2047,1710922223559910143,2045,2049,2175,1982,2025,2036,1196
2048,1710922223569909249,2079,2103,2210,2080,2037,2060,1195
2049,1710922223579925870,2046,2022,2015,2021,2056,2084,1196
2050,1710922223589900390,2022,2062,2038,2024,2019,2033,1191
2051,1710922223599914606,2080,2065,2120,2077,2048,2080,1196
2052,1710922223609907501,2048,2040,2056,2048,2060,2045,1194
2053,1710922223619910104,2052,2069,1995,2000,2021,2041,1192
2054,1710922223629907238,2044,2066,2078,2034,2112,2100,1195
2055,1710922223639929539,2079,2114,2285,2030,2040,2046,1192
2056,1710922223649912165,2068,2050,2020,2083,2065,2065,1193
2057,1710922223659909529,2049,2041,1985,2051,2058,2050,1194
2058,1710922223669892345,2064,2073,2186,2085,2024,2029,1193
2059,1710922223679922661,2026,2022,2074,2044,2107,2116,1195
2060,1710922223689913312,2035,2006,1884,1916,2020,2031,1192
2061,1710922223699900947,2052,2044,2059,2059,2066,2049,1193
2062,1710922223709910604,2038,2048,2000,2080,2074,2083,1193
2063,1710922223719911284,2049,2061,2160,2047,2023,2040,1192
2064,1710922223729919789,2058,2026,1875,2016,2025,2045,1192
2065,1710922223739908106,2049,2047,1970,2047,2045,2064,1194
2066,1710922223749921490,2034,2028,1885,2068,2066,2057,1195
2067,1710922223759892022,2064,2038,1863,2069,2070,2068,1195
2068,1710922223769908483,2037,2025,1893,2008,2011,2042,1191
2069,1710922223779921055,2049,2013,1933,2075,2056,2040,1192
2070,1710922223789879545,2049,2090,2140,2087,2089,2058,1194
2071,1710922223799899292,2021,2042,2008,2051,2081,2054,1194
2072,1710922223809910782,2043,2072,2124,2072,2052,2052,1194
2073,1710922223819906963,2045,2037,1930,2009,2070,2044,1194
2074,1710922223829906621,2060,2046,1889,2032,2047,2040,1192
2075,1710922223839856365,2056,2047,2001,2017,2060,2072,1196
2076,1710922223849901829,2141,2160,2511,2077,2065,2042,1192
2077,1710922223859910465,2056,2033,2044,2040,2061,2076,1195
2078,1710922223869910473,2050,2037,2049,2068,2036,2053,1193
2079,1710922223879870176,2041,1988,1931,2031,2059,2055,1194
2080,1710922223889918447,2068,2057,2043,1981,2056,2063,1196
2081,1710922223899921000,2052,2041,1993,2052,2057,2053,1194
2082,1710922223909908445,2072,2053,2018,2060,2033,2045,1190
2083,1710922223919905528,2043,2077,2021,2058,2053,2060,1196
2084,1710922223929903533,2016,1993,1948,2004,2032,2026,1192
2085,1710922223939907378,2052,2013,1886,2045,2078,2058,1194
2086,1710922223949912898,2047,2052,2032,2123,2064,2050,1195
2087,1710922223959897077,2060,2065,2053,2115,2065,2037,1193
2088,1710922223969912094,2064,2085,2072,2162,2056,2064,1196
2089,1710922223979908767,2050,2027,2040,2000,2031,2018,1192
2090,1710922223989908895,2045,1989,1821,1970,2040,2052,1194
2091,1710922223999849231,2028,2046,2102,2105,2067,2035,1192
2092,1710922224009906187,2057,2044,1938,2001,2047,2076,1197
2093,1710922224019906497,2033,2042,2046,2034,2028,2022,1192
2094,1710922224029907328,2062,2085,2097,2026,2058,2057,1196
2095,1710922224039942903,2074,2063,2161,1987,2013,2047,1194
2096,1710922224049858262,2036,2045,2053,2022,2052,2044,1192
2097,1710922224059906612,2057,2006,1860,1999,2052,2022,1195
2098,1710922224069911160,2047,2096,2046,2077,2077,2100,1195
2099,1710922224079910707,2045,2057,2128,2050,2024,2025,1192
2100,1710922224089922579,2075,2074,2163,2041,2045,2052,1196
2101,1710922224099884415,2052,2056,2116,2076,2068,2079,1195
2102,1710922224109912327,2035,2052,2090,2020,2034,2047,1192
2103,1710922224119907767,2047,2054,2098,2086,2042,2039,1191
2104,1710922224129908487,2052,2024,1990,2096,2073,2047,1193
2105,1710922224139942951,2043,2000,1928,2056,2029,2041,1192
2106,1710922224149929654,2057,2042,2073,2134,2094,2074,1197
2107,1710922224159904255,2085,2173,2193,2053,2069,2084,1195
2108,1710922224169912669,2027,2029,1922,2045,2040,2021,1192
2109,1710922224179915323,2046,2055,2088,2096,2062,2080,1196
2110,1710922224189920082,2044,2036,1970,1996,2020,2013,1192
2111,1710922224199914459,2056,2046,2069,2092,2073,2040,1194
2112,1710922224209912384,2101,2138,2200,2125,2114,2110,1195
2113,1710922224219897855,2056,2086,2141,2092,2090,2074,1196
2114,1710922224229905749,2072,2113,2148,2057,2040,2038,1194
2115,1710922224239906028,2052,2056,1960,2116,2108,2077,1196
2116,1710922224249891089,2036,2029,1993,2042,2042,2035,1192
2117,1710922224259912618,2062,2152,2361,2112,2067,2061,1197
2118,1710922224269910863,2054,2038,2012,2041,2038,2067,1200
2119,1710922224279911003,2058,2048,2015,2039,2068,2043,1193
2120,1710922224289919066,2031,2029,2037,2039,2032,2030,1193
2121,1710922224299923303,2068,2027,2088,2011,2011,2077,1196
2122,1710922224309904987,2034,2034,2327,2049,2045,2069,1195
2123,1710922224319909685,2028,2007,1889,2048,2018,2037,1191
2124,1710922224329907680,2063,2062,2079,2000,2057,2052,1194
2125,1710922224339905514,2053,2048,2036,2084,2049,2077,1194
2126,1710922224349928728,2062,2029,1976,2004,2028,2042,1192
2127,1710922224359917454,2059,2028,2004,2056,2066,2056,1196
2128,1710922224369908426,2040,1976,1868,1992,2082,2072,1197
2129,1710922224379910128,2036,2035,2007,2064,2043,2035,1193
2130,1710922224389834844,2067,2054,2089,2051,2045,2042,1194
2131,1710922224399906329,2092,2130,2132,2048,2019,2044,1192
2132,1710922224409909072,2052,2030,2042,2057,2074,2052,1196
2133,1710922224419908280,2045,2073,2209,2005,2054,2053,1195
2134,1710922224429906795,2056,2002,1977,2036,2088,2056,1196
2135,1710922224439907596,2057,2114,2264,1992,2053,2047,1192
2136,1710922224449907003,2069,2139,2273,2023,2074,2056,1196
2137,1710922224459906541,2049,2085,2200,2116,2081,2064,1194
2138,1710922224469914605,2060,2070,2028,2040,2047,2056,1193
2139,1710922224479914644,2041,2036,2014,2042,2016,2033,1192
2140,1710922224489866141,2062,2050,2011,2050,2019,2063,1193
2141,1710922224499920873,2046,2026,2000,2053,2018,2021,1193
2142,1710922224509912356,2049,2008,1902,2050,2102,2076,1194
2143,1710922224519905110,2071,2056,1906,2024,2046,2047,1193
2144,1710922224529910961,2041,2029,1963,2021,2027,2040,1192
2145,1710922224539907854,2057,2027,2056,2059,2013,2014,1193
2146,1710922224549931257,2076,2113,2265,1918,2000,2116,1194
2147,1710922224559922900,2015,2014,2033,2037,2021,2010,1194
2148,1710922224569920694,2058,2064,2080,2098,2061,2054,1194
2149,1710922224579912638,2027,2027,2029,2034,2038,2029,1193
2150,1710922224589906805,2054,2136,2486,2027,2028,2074,1195
2151,1710922224599922263,2089,2120,2136,2128,2076,2089,1192
2152,1710922224609925538,2075,2058,2038,2035,2030,2021,1193
2153,1710922224619907833,2064,2053,2062,2064,2050,2057,1195
2154,1710922224629907271,2022,1991,1920,2025,1994,2017,1193
2155,1710922224639906107,2060,2113,2075,2008,2080,2082,1195
2156,1710922224649910425,2091,2133,2201,2108,2068,2049,1196
2157,1710922224659914681,2058,2065,2090,2053,2065,2053,1195
2158,1710922224669907827,2040,2035,2008,2108,2059,2044,1193
2159,1710922224679912344,2062,2087,2235,2128,2051,2089,1196
2160,1710922224689912754,2026,2009,2053,1982,2036,2041,1192
2161,1710922224699911320,2055,2068,2145,2026,2038,2056,1197
2162,1710922224709910266,2047,2040,2046,2068,2090,2071,1197
2163,1710922224719907701,2048,2046,2047,2061,2037,2047,1192
2164,1710922224729910003,2062,2050,2115,2046,2059,2084,1194
2165,1710922224739910734,2061,2075,2149,2056,2063,2028,1193
2166,1710922224749907776,2076,2099,2194,2018,2059,2032,1193
2167,1710922224759896434,2059,2026,1969,2056,2052,2064,1197
2168,1710922224769910890,2013,1985,2100,2017,2043,2037,1194
2169,1710922224779912812,2060,2009,2052,2095,2060,2028,1192
2170,1710922224789930144,2041,2005,1869,2041,2057,2081,1195
2171,1710922224799914022,2033,2038,2072,2065,2052,2032,1193
2172,1710922224809910494,2048,2028,1848,2134,2065,2064,1197
2173,1710922224819905844,2070,2033,2051,1968,2038,2072,1197
2174,1710922224829906514,2016,2045,2051,1955,2034,2026,1193
2175,1710922224839906443,2054,2037,2059,2100,2112,2050,1197
2176,1710922224849920869,2064,2014,1990,2084,2065,2049,1195
2177,1710922224859911700,2053,2042,2024,1996,2041,2057,1197
2178,1710922224869911178,2034,2012,1932,2000,2072,2033,1192
2179,1710922224879909514,2048,2056,2088,2033,2027,2066,1197
2180,1710922224889914601,2042,2072,2091,2065,2077,2067,1194
2181,1710922224899910533,2076,2103,2124,2068,2053,2053,1196
2182,1710922224909910040,2061,2024,2015,2029,2038,2059,1195
2183,1710922224919910941,2104,2085,2124,2061,2021,2052,1195
2184,1710922224929914136,2039,2029,1854,2068,2085,2080,1193
2185,1710922224939908764,2027,2063,2077,2173,2068,2029,1194
2186,1710922224949908954,2033,2003,1932,2010,2053,2050,1194
2187,1710922224959907138,2065,2045,2023,2007,2052,2053,1194
2188,1710922224969920723,2073,2116,2124,2056,2037,2045,1193
2189,1710922224979910161,2039,2045,1997,2112,2112,2090,1196
2190,1710922224989910060,2044,2017,1928,2044,2045,2040,1194
2191,1710922224999935287,2058,2068,2128,2049,2030,2067,1195
2192,1710922225009908745,2028,2085,2042,1997,2008,2053,1197
2193,1710922225019908905,2059,1987,1986,2049,2059,2049,1197
2194,1710922225029914063,2047,2077,2082,2077,2076,2045,1192
2195,1710922225039908000,2049,2033,1937,2092,2034,2057,1194
2196,1710922225049907458,2056,2060,2025,1994,2032,2048,1195
2197,1710922225059904291,2071,2052,2041,2054,2067,2082,1196
2198,1710922225069918205,2042,2082,2189,2052,2025,2023,1194
2199,1710922225079936349,2144,2142,2324,2024,2064,2078,1196
2200,1710922225089907954,2064,2119,2188,2064,2078,2077,1194
2201,1710922225099906529,2046,2044,2177,2077,2061,2028,1192
2202,1710922225109906909,2066,2050,2077,2059,2024,2032,1192
2203,1710922225119920463,2033,2034,2053,2106,2101,2088,1195
2204,1710922225129906867,2056,2104,2184,2120,2041,2033,1192
2205,1710922225139907647,2073,2080,2088,2027,2075,2075,1195
2206,1710922225149907866,2036,2030,2054,2036,2058,2053,1195
2207,1710922225159908466,2052,2024,1970,2116,2093,2071,1194
2208,1710922225169909166,2039,2044,2030,2056,2061,2035,1192
2209,1710922225179918793,2062,2047,2100,2043,2056,2069,1194
2210,1710922225189906388,2033,2026,2024,2034,2037,2042,1191
2211,1710922225199912579,2037,2001,1949,2061,2000,2051,1194
2212,1710922225209919270,2020,2025,1862,2021,2036,2024,1192
