seq,time,data[0],data[1],data[2],data[3],data[4],data[5],data[6]
201,1710922774994460948,2057,2042,2042,2051,2080,2058,1194
202,1710922775004457369,2053,2040,1961,2073,2044,2044,1192
203,1710922775014457917,2056,2052,1972,2045,2037,2060,1194
204,1710922775024474277,2054,2048,2022,2132,2094,2047,1193
205,1710922775034456902,2046,2053,2200,2049,2077,2047,1193
206,1710922775044456128,2058,2032,1957,2048,2097,2068,1196
207,1710922775054458611,2045,2031,2059,2046,2083,2049,1196
208,1710922775064456655,2054,2064,2054,2057,2060,2042,1193
209,1710922775074458607,2053,2040,2038,2047,2081,2050,1195
210,1710922775084457332,2052,2047,1984,2056,2069,2056,1195
211,1710922775094454235,2061,2100,2196,2104,2024,2058,1197
212,1710922775104453371,2040,2058,2140,1971,2008,2040,1193
213,1710922775114458308,2060,2049,2016,2152,2120,2071,1196
214,1710922775124458516,2063,2084,2054,2034,2100,2053,1196
215,1710922775134456801,2047,2029,1995,2054,2056,2047,1194
216,1710922775144454575,2046,2054,2090,2086,2034,2050,1195
217,1710922775154456727,2058,2044,2032,1996,2000,2057,1198
218,1710922775164454561,2048,2041,2010,2038,2056,2033,1192
219,1710922775174456653,2042,2030,2008,2081,2016,2054,1198
220,1710922775184458284,2060,2087,2280,2037,2040,2052,1196
221,1710922775194457861,2064,2121,2325,2054,2056,2058,1196
222,1710922775204460894,2044,2040,2022,2062,2061,2046,1193
223,1710922775214454581,2064,2076,2099,2058,2050,2056,1195
224,1710922775224453537,2056,2073,2097,2047,2107,2048,1195
225,1710922775234456791,2048,2056,2207,2050,2073,2054,1195
226,1710922775244457130,2075,2050,2052,2043,2057,2063,1195
227,1710922775254456416,2053,2036,1974,2070,2055,2046,1192
228,1710922775264459059,2049,2047,1897,2049,2079,2063,1195
229,1710922775274452975,2061,2065,2012,2035,2064,2038,1194
230,1710922775284455058,2047,2040,1990,2057,2053,2049,1196
231,1710922775294457991,2054,2045,2019,2020,2033,2049,1197
232,1710922775304475402,2052,2048,2051,2045,2060,2053,1195
233,1710922775314454240,2072,2129,2438,2075,2064,2064,1196
234,1710922775324455991,2036,2033,2009,2040,2044,2024,1194
235,1710922775334455128,2064,2041,2042,2054,2050,2080,1196
236,1710922775344457089,2072,2070,2066,2066,2056,2030,1193
237,1710922775354452508,2048,2036,2043,2061,2053,2068,1196
238,1710922775364454240,2057,2085,2106,2067,2044,2042,1193
239,1710922775374455840,2062,2073,2164,1994,2021,2067,1196
240,1710922775384455868,2046,2046,2075,2009,2044,2045,1192
241,1710922775394456738,2040,2048,2016,2029,2052,2051,1194
242,1710922775404460052,2046,2035,2026,2023,2091,2067,1194
243,1710922775414462856,2069,2072,2085,2114,2068,2064,1197
244,1710922775424460339,2056,2036,2025,2046,2034,2038,1195
245,1710922775434459526,2082,2150,2330,2112,2088,2089,1194
246,1710922775444459834,2040,2020,1985,2051,2075,2054,1193
247,1710922775454460142,2054,2058,2120,2044,2087,2046,1192
248,1710922775464467264,2062,2086,2296,2076,2064,2060,1196
249,1710922775474457844,2067,2030,1933,2013,2012,2031,1190
250,1710922775484456509,2064,2064,2020,2131,2080,2058,1194
251,1710922775494454674,2041,2028,2024,1988,2036,2046,1197
252,1710922775504454972,2062,2073,2110,2040,2065,2056,1197
253,1710922775514459028,2036,2042,1960,2047,2043,2032,1192
254,1710922775524458756,2039,2012,1940,2057,2088,2096,1197
255,1710922775534458803,2056,2056,2076,2038,2058,2042,1193
256,1710922775544489129,2063,2088,2194,2077,2053,2043,1193
257,1710922775554461004,2068,2061,1922,2058,2066,2060,1196
258,1710922775564440853,2056,2058,2081,2029,2059,2061,1195
259,1710922775574460649,2075,2104,2188,2088,2069,2072,1196
260,1710922775584442653,2045,2032,2001,2060,2087,2045,1191
261,1710922775594439665,2064,2026,1926,2042,2059,2051,1195
262,1710922775604475231,2044,2012,1813,2053,2045,2057,1197
263,1710922775614358958,2078,2072,2040,2018,2052,2069,1196
264,1710922775624445130,2040,2028,1994,2021,2019,2034,1194
265,1710922775634449005,2052,2048,1997,2056,2024,2047,1193
266,1710922775644475433,2056,2057,2042,2051,2057,2068,1194
267,1710922775654433872,2049,2039,1964,2054,2045,2049,1196
268,1710922775664439260,2060,2071,2143,2060,2067,2063,1194
269,1710922775674445049,2048,2040,2049,2037,2050,2056,1194
270,1710922775684447942,2058,2065,2154,2085,2083,2068,1197
271,1710922775694465483,2056,2046,2032,2056,2058,2051,1195
272,1710922775704467025,2058,2037,1993,2057,2090,2065,1196
273,1710922775714445542,2048,2030,1988,2062,2057,2052,1195
274,1710922775724446501,2074,2114,2364,2053,2064,2053,1196
275,1710922775734446209,2052,2045,1998,2071,2075,2068,1197
276,1710922775744450545,2066,2088,2144,2069,2052,2046,1195
277,1710922775754471182,2062,2049,2036,2094,2064,2066,1196
278,1710922775764440602,2032,2032,2068,2049,2061,2042,1192
279,1710922775774448315,2062,2080,2229,2072,2058,2063,1196
280,1710922775784446029,2051,2064,2025,2056,2042,2033,1192
281,1710922775794449042,2060,2058,2104,2063,2092,2090,1196
282,1710922775804448549,2045,2035,2056,2035,2034,2029,1194
283,1710922775814450000,2068,2090,2277,2054,2073,2084,1195
284,1710922775824444658,2050,2055,2012,2044,2066,2047,1196
285,1710922775834398198,2053,2072,2112,2055,2065,2048,1197
286,1710922775844447920,2058,2048,2024,2057,2065,2054,1197
287,1710922775854448469,2041,2036,2031,2036,2038,2044,1192
288,1710922775864453156,2034,2040,2076,2030,2026,2043,1195
289,1710922775874459976,2059,2063,2036,2041,2041,2042,1192
290,1710922775884448282,2050,2044,2089,2060,2051,2060,1197
291,1710922775894472246,2060,2088,2118,2044,2072,2052,1195
292,1710922775904442738,2056,2080,2084,2049,2054,2041,1196
293,1710922775914449358,2046,2036,2045,2078,2080,2050,1195
294,1710922775924444217,2044,2040,1960,2015,2061,2057,1196
295,1710922775934445898,2056,2045,2051,2048,2050,2024,1193
296,1710922775944444573,2058,2062,2047,2005,2068,2064,1194
297,1710922775954446524,2057,2039,1962,2025,2022,2044,1193
298,1710922775964447816,2053,2026,1932,2079,2044,2045,1191
299,1710922775974473001,2032,2028,2025,2048,2033,2038,1193
300,1710922775984463090,2081,2092,2166,2070,2074,2078,1193
301,1710922775994456225,2043,2038,2011,2048,2053,2041,1192
302,1710922776004442918,2056,2068,2098,2066,1996,2052,1196
303,1710922776014442545,2049,2056,2022,2037,2050,2048,1196
304,1710922776024443485,2056,2036,2000,2082,2068,2042,1193
305,1710922776034442621,2051,2050,2103,2052,2048,2065,1195
306,1710922776044446717,2056,2067,2106,2062,2056,2051,1197
307,1710922776054446584,2064,2093,2145,2069,2042,2063,1197
308,1710922776064442695,2048,2048,2107,2080,2052,2051,1195
309,1710922776074443535,2053,2058,2089,2044,2057,2045,1192
310,1710922776084450546,2043,2033,2068,2054,2053,2056,1198
311,1710922776094454221,2056,2088,2156,2044,2040,2037,1193
312,1710922776104447646,2060,2052,2002,2044,2044,2088,1196
313,1710922776114448917,2045,2040,2005,2086,2079,2035,1194
314,1710922776124446170,2071,2098,2258,2052,2050,2053,1194
315,1710922776134447470,2040,2014,1953,2052,2050,2047,1192
316,1710922776144469379,2047,2010,1921,2060,2055,2048,1195
317,1710922776154463286,2052,2035,2054,2047,2043,2045,1192
318,1710922776164442845,2059,2052,2014,2046,2053,2046,1193
319,1710922776174449846,2060,2064,2084,2052,2045,2070,1195
320,1710922776184442831,2049,2025,1988,2063,2064,2047,1191
321,1710922776194473528,2057,2027,1878,2089,2059,2058,1194
322,1710922776204435724,2049,2024,1955,2067,2041,2045,1193
323,1710922776214448736,2044,2036,2072,2036,2061,2050,1196
324,1710922776224448062,2045,2049,2044,2080,2058,2046,1192
325,1710922776234446508,2061,2104,2173,2050,2061,2056,1196
326,1710922776244447387,2060,2063,2044,2057,2063,2049,1196
327,1710922776254442386,2057,2057,2016,2036,2056,2046,1192
328,1710922776264449588,2056,2036,1905,2074,2058,2052,1195
329,1710922776274446219,2054,2047,1985,2032,2072,2047,1192
330,1710922776284465594,2049,2035,2040,2062,2058,2057,1196
331,1710922776294442618,2053,2058,2168,2129,2033,2058,1195
332,1710922776304451443,2050,2027,2029,2073,2041,2050,1196
333,1710922776314445499,2066,2045,2056,2032,2051,2048,1196
334,1710922776324447631,2050,2036,2015,1997,2066,2056,1195
335,1710922776334444053,2054,2056,2066,2049,2057,2072,1196
336,1710922776344436707,2064,2039,1998,2045,2038,2042,1192
337,1710922776354453296,2029,2013,1932,2030,2009,2050,1196
338,1710922776364443606,2068,2044,1960,2113,2058,2056,1196
339,1710922776374443313,2056,2068,2141,2019,2040,2056,1195
340,1710922776384454102,2057,2084,1952,2072,2061,2051,1193
341,1710922776394451905,2053,2044,2062,2064,2039,2052,1197
342,1710922776404441423,2031,2026,2016,2034,2041,2045,1192
343,1710922776414448034,2064,2055,1973,2126,2033,2056,1194
344,1710922776424443413,2060,2099,2281,2091,2055,2056,1193
345,1710922776434443111,2079,2145,2292,2088,2085,2067,1196
346,1710922776444449651,2057,2052,2053,2045,2047,2051,1195
347,1710922776454457774,2061,2038,1985,2045,2046,2046,1192
348,1710922776464401526,2052,2058,1963,2114,2073,2048,1194
349,1710922776474444866,2056,2053,2024,2069,2032,2059,1196
350,1710922776484455564,2053,2026,1968,2041,2028,2044,1193
351,1710922776494437007,2068,2046,2036,2052,2054,2055,1198
352,1710922776504445932,2046,2072,2180,2069,2056,2047,1193
353,1710922776514450478,2040,2070,2162,2040,2040,2046,1194
354,1710922776524447110,2073,2095,2139,2072,2042,2051,1194
355,1710922776534442459,2045,2028,2032,2104,2032,2069,1194
356,1710922776544442417,2046,2029,2012,2014,2027,2035,1193
357,1710922776554451893,2056,2072,2129,2044,2044,2053,1195
358,1710922776564442022,2078,2164,2342,2081,2064,2064,1195
359,1710922776574442030,2040,2009,1893,2051,2045,2040,1192
360,1710922776584468568,2058,2072,2112,2060,2068,2062,1194
361,1710922776594476812,2038,2056,2033,2052,2062,2033,1194
362,1710922776604459206,2055,2088,2166,2023,2069,2068,1194
363,1710922776614449096,2048,2053,2122,2018,2026,2039,1193
364,1710922776624447661,2049,2056,2002,2058,2037,2048,1196
365,1710922776634443741,2056,2043,2021,2064,2064,2046,1194
366,1710922776644446063,2050,2056,1993,2046,2046,2048,1193
367,1710922776654451612,2075,2124,2270,2090,2085,2081,1196
368,1710922776664454686,2041,2040,2072,2033,2036,2038,1192
369,1710922776674447310,2047,2065,2169,2049,2077,2056,1195
370,1710922776684447729,2064,2047,1990,2086,2064,2059,1195
371,1710922776694441785,2069,2093,2117,2064,2061,2065,1196
372,1710922776704438948,2044,2028,1949,2120,2073,2049,1197
373,1710922776714447171,2080,2092,2220,2110,2094,2073,1196
374,1710922776724442711,2031,2032,2092,2066,2047,2042,1194
375,1710922776734446185,2069,2046,1918,2054,2080,2069,1194
376,1710922776744447656,2048,2056,2170,2028,2043,2034,1193
377,1710922776754448826,2052,2056,2079,2021,2065,2052,1196
378,1710922776764450708,2074,2069,2084,2028,2010,2059,1195
379,1710922776774449223,2064,2082,2050,2122,2053,2065,1196
380,1710922776784459200,2040,2026,1949,2046,2040,2032,1192
381,1710922776794445882,2064,2068,2143,2041,2058,2062,1196
382,1710922776804454217,2064,2094,2155,2056,2072,2056,1195
383,1710922776814451519,2057,2082,2244,2061,2052,2050,1194
384,1710922776824451206,2037,2036,2211,2053,2052,2047,1193
385,1710922776834450583,2052,2045,2109,2056,2061,2052,1196
386,1710922776844450862,2052,2060,1975,2050,2040,2050,1197
387,1710922776854454437,2076,2034,1864,2072,2096,2057,1193
388,1710922776864452932,2053,2048,1988,2054,2053,2047,1194
389,1710922776874452459,2084,2120,2036,2066,2068,2061,1194
390,1710922776884462616,2067,2089,2092,2074,2076,2080,1195
391,1710922776894467753,2059,2065,1970,2071,2089,2036,1193
392,1710922776904454456,2060,2064,2037,2034,2044,2055,1197
393,1710922776914397286,2065,2089,2135,2070,2064,2052,1195
394,1710922776924452308,2040,2050,1977,2070,2059,2052,1195
395,1710922776934445544,2048,2036,2015,2043,2042,2047,1195
396,1710922776944479065,2057,2018,1865,2038,2065,2057,1195
397,1710922776954459757,2043,2024,1902,2085,2072,2052,1196
398,1710922776964456709,2047,2025,1996,2075,2047,2043,1194
399,1710922776974442669,2072,2081,2004,2114,2064,2049,1194
400,1710922776984463507,2061,2042,1885,2057,2040,2061,1194
401,1710922776994456612,2052,2039,1960,2058,2043,2053,1196
402,1710922777004448284,2057,2039,1941,2040,2053,2063,1196
403,1710922777014439406,2046,2040,2045,2049,2015,2036,1193
404,1710922777024442339,2052,2018,1952,2041,2059,2080,1196
405,1710922777034441957,2050,2046,1928,2034,2049,2040,1195
406,1710922777044469707,2057,2045,1973,2030,2037,2052,1196
407,1710922777054452131,2056,2053,2059,2064,2050,2048,1195
408,1710922777064444925,2064,1993,1769,2066,2050,2070,1197
409,1710922777074440054,2048,2060,2107,2056,2061,2052,1196
410,1710922777084446044,2070,2106,2245,2070,2052,2051,1197
411,1710922777094459597,2056,2047,2028,2041,2045,2048,1195
412,1710922777104440590,2047,2046,2036,2052,2050,2052,1197
413,1710922777114441539,2067,2059,1759,2050,2044,2035,1193
414,1710922777124432710,2050,2009,1883,2046,2029,2088,1193
415,1710922777134436485,2045,2037,2011,2093,2052,2037,1193
416,1710922777144451222,2057,2051,2032,2057,2046,2050,1195
417,1710922777154450167,2067,2061,2022,2044,2043,2052,1195
418,1710922777164450756,2049,2025,1918,2034,2028,2056,1196
419,1710922777174447328,2061,2070,2144,2051,2061,2056,1195
420,1710922777184436986,2056,2052,2080,2036,2052,2061,1195
421,1710922777194457834,2037,2027,1992,2036,2047,2038,1195
422,1710922777204443735,2066,2083,2208,2057,2080,2079,1196
423,1710922777214444704,2050,2034,1924,2019,2036,2037,1194
424,1710922777224441898,2060,2096,2169,2054,2043,2050,1197
425,1710922777234445071,2068,2129,2357,2060,2042,2068,1197
426,1710922777244466901,2056,2042,2050,2046,2062,2052,1196
427,1710922777254447502,2046,2057,2150,2038,2040,2036,1194
428,1710922777264446358,2061,2052,2087,2055,2050,2051,1196
429,1710922777274446456,2039,2002,1946,2046,2032,2040,1195
430,1710922777284471060,2050,2068,2186,2043,2052,2052,1197
431,1710922777294488512,2079,2146,2356,2061,2056,2058,1196
432,1710922777304458012,2053,2043,1986,2051,2055,2053,1197
433,1710922777314445255,2072,2081,2030,2081,2066,2064,1197
434,1710922777324443229,2067,2080,2136,2064,2059,2053,1196
435,1710922777334445432,2057,2057,2046,2056,2056,2044,1193
436,1710922777344493100,2076,2084,2137,2092,2070,2074,1197
437,1710922777354443234,2069,2064,2204,2080,2075,2075,1197
438,1710922777364445686,2050,2043,2126,2069,2069,2046,1193
439,1710922777374449361,2062,2005,1876,2052,2044,2048,1196
440,1710922777384440703,2040,2004,1900,2068,2045,2041,1192
441,1710922777394450629,2050,2012,1740,2059,2049,2045,1194
442,1710922777404446219,2043,2037,2097,2115,2034,2052,1195
443,1710922777414447088,2054,2043,2013,2030,2036,2047,1192
444,1710922777424445984,2051,2043,1998,2028,2040,2058,1198
445,1710922777434445582,2048,2057,1998,2056,2059,2056,1195
446,1710922777444446492,2052,2041,2037,2030,2052,2053,1196
447,1710922777454462249,2038,2004,1980,2052,2008,2045,1193
448,1710922777464448792,2050,2040,2052,2053,2060,2052,1196
449,1710922777474446405,2051,2049,2018,2057,2052,2045,1192
450,1710922777484448306,2069,2088,2213,2033,2046,2043,1195
451,1710922777494449467,2048,2047,2046,2001,2059,2063,1196
452,1710922777504467198,2039,2025,1970,2038,2039,2034,1193
453,1710922777514436117,2036,2004,1948,2024,2033,2047,1193
454,1710922777524447237,2054,2064,2014,2041,2025,2037,1195
455,1710922777534442626,2053,2084,2073,2044,2072,2057,1199
456,1710922777544443565,2052,2045,2057,2039,2048,2053,1196
457,1710922777554470895,2068,2082,2084,2061,2053,2056,1196
458,1710922777564447419,2057,2050,2051,2043,2038,2050,1196
459,1710922777574442257,2057,2066,2124,2104,2069,2053,1196
460,1710922777584446974,2045,2047,2035,2043,2041,2049,1196
461,1710922777594445809,2056,2059,2083,2038,2050,2052,1196
462,1710922777604471596,2047,2042,2096,2040,2053,2041,1195
463,1710922777614441267,2066,2074,2093,2069,2064,2057,1197
464,1710922777624453388,2048,2030,1988,2045,2048,2063,1197
465,1710922777634441783,2045,2035,2016,2055,2050,2045,1193
466,1710922777644444968,2041,2028,1989,2056,2050,2049,1195
467,1710922777654446518,2058,2047,2009,2066,2055,2047,1193
468,1710922777664444533,2063,2081,2073,2040,2076,2061,1194
469,1710922777674447025,2053,2052,2082,2064,2058,2046,1193
470,1710922777684448777,2056,2045,2031,2036,2046,2055,1197
471,1710922777694470917,2069,2076,2048,2068,2059,2078,1197
472,1710922777704451057,2057,2035,2007,2050,2048,2056,1196
473,1710922777714440606,2050,2022,1936,2064,2056,2051,1193
474,1710922777724446224,2037,2025,2005,2052,2051,2046,1192
475,1710922777734446302,2045,2040,2040,2018,2046,2060,1196
476,1710922777744446490,2060,2035,2031,2098,2057,2049,1197
477,1710922777754460805,2050,2017,1940,2084,2063,2040,1194
478,1710922777764446626,2052,2020,1961,2057,2056,2062,1196
479,1710922777774441214,2066,2048,2093,2052,2048,2052,1195
480,1710922777784449167,2042,2025,2009,2048,2053,2060,1192
481,1710922777794445659,2046,2024,1922,2039,2053,2046,1193
482,1710922777804444865,2047,2048,2015,2096,2062,2046,1194
483,1710922777814446275,2060,2032,2000,2041,2029,2049,1196
484,1710922777824447886,2070,2070,2110,2101,2066,2063,1195
485,1710922777834442514,2066,2061,2048,2058,2050,2045,1192
486,1710922777844443414,2049,2020,1873,2076,2058,2038,1192
487,1710922777854468810,2056,2075,2105,2056,2070,2070,1196
488,1710922777864449822,2043,2042,1984,2038,2042,2041,1192
489,1710922777874444280,2063,2073,2146,2100,2059,2052,1197
490,1710922777884457232,2051,2053,2028,2057,2053,2057,1196
491,1710922777894444295,2064,2056,2050,2052,2051,2053,1197
492,1710922777904470132,2056,2061,2070,2060,2049,2051,1199
493,1710922777914443880,2046,2022,1897,2057,2053,2045,1193
494,1710922777924443097,2040,2037,1989,2048,2044,2053,1195
495,1710922777934447183,2066,2088,2241,2029,2027,2060,1196
496,1710922777944447912,2043,2027,1956,2014,2049,2042,1193
497,1710922777954449343,2050,2024,2094,2059,2049,2053,1195
498,1710922777964445343,2046,2040,2075,2056,2049,2050,1195
499,1710922777974448907,2053,2047,2074,2051,2058,2052,1195
500,1710922777984448966,2044,2049,2008,2036,2043,2045,1192
501,1710922777994457670,2057,2069,2122,2064,2053,2058,1197
502,1710922778004451006,2056,2080,2224,2053,2050,2050,1194
503,1710922778014435063,2060,2030,1870,2059,2072,2058,1196
504,1710922778024445792,2060,2034,1932,2057,2037,2058,1196
505,1710922778034443476,2059,2076,2100,2058,2048,2048,1193
506,1710922778044444485,2074,2077,2097,2088,2081,2073,1196
507,1710922778054442589,2040,2027,1971,2022,2036,2034,1193
508,1710922778064440774,2049,2038,2032,2057,2064,2060,1197
509,1710922778074442325,2050,2049,2132,2060,2037,2040,1193
510,1710922778084443685,2068,2094,2079,2056,2060,2069,1196
511,1710922778094458892,2060,2084,2126,2058,2058,2048,1196
512,1710922778104443822,2058,2059,2095,2040,2023,2045,1194
513,1710922778114442878,2053,2081,2174,2063,2076,2074,1195
514,1710922778124447855,2047,2021,2000,2062,2056,2054,1196
515,1710922778134445660,2037,2027,2013,2008,2046,2034,1192
516,1710922778144454524,2062,2045,1938,2058,2057,2066,1197
517,1710922778154445224,2050,2065,2068,2060,2068,2053,1197
518,1710922778164458858,2059,2064,2195,2065,2053,2052,1196
519,1710922778174445250,2044,2024,1977,2060,2056,2052,1197
520,1710922778184444948,2045,2040,2057,2050,2046,2049,1196
521,1710922778194461938,2053,2061,1983,2059,2056,2058,1196
522,1710922778204454802,2049,2064,2117,2052,2054,2047,1192
523,1710922778214453258,2061,2057,1978,2097,2067,2047,1193
524,1710922778224443597,2064,2056,2087,2055,2045,2061,1195
525,1710922778234445668,2056,2058,2058,2047,2065,2056,1193
526,1710922778244456988,2050,2037,2020,2042,2047,2046,1194
527,1710922778254458148,2072,2113,2351,2061,2048,2055,1193
528,1710922778264441385,2055,2050,1996,2050,2053,2056,1194
529,1710922778274442244,2048,2040,2033,2049,2047,2047,1192
530,1710922778284448444,2050,2022,1949,2044,2046,2049,1195
531,1710922778294454514,2072,2104,2166,1992,2066,2084,1197
532,1710922778304453529,2050,2040,1994,2018,2038,2043,1193
533,1710922778314439030,2046,2052,2125,2045,2050,2042,1193
534,1710922778324446912,2054,2028,1950,2059,2051,2061,1193
535,1710922778334448083,2044,2034,2028,2065,2060,2035,1195
536,1710922778344449273,2057,2044,2026,2056,2071,2068,1197
537,1710922778354443560,2064,2076,2124,2056,2052,2057,1197
538,1710922778364447165,2053,2068,2119,2058,2048,2049,1194
539,1710922778374447183,2044,2026,1936,2056,2043,2051,1196
540,1710922778384451559,2053,2096,2192,2047,2042,2053,1196
541,1710922778394451096,2056,2066,2073,2053,2056,2052,1196
542,1710922778404480991,2045,2032,2041,2042,2050,2052,1195
543,1710922778414442536,2035,2056,2108,2063,2043,2038,1191
544,1710922778424446371,2066,2056,1983,2054,2055,2068,1196
545,1710922778434444335,2065,2077,2029,2060,2050,2045,1192
546,1710922778444447730,2052,2060,2065,2072,2060,2050,1194
547,1710922778454469029,2044,2033,1983,2032,2048,2043,1193
548,1710922778464455400,2052,2072,2123,2056,2074,2061,1195
549,1710922778474446701,2052,2051,2048,2052,2056,2042,1193
550,1710922778484461608,2065,2079,2082,2064,2058,2057,1196
551,1710922778494473879,2054,2052,2060,2052,2046,2054,1194
552,1710922778504422750,2070,2066,2136,2042,2044,2049,1195
553,1710922778514449699,2050,2068,2136,2063,2086,2064,1194
554,1710922778524454486,2070,2096,2181,2092,2062,2061,1196
555,1710922778534449425,2045,2024,2026,2084,2054,2040,1192
556,1710922778544446166,2062,2051,2040,2038,2040,2050,1195
557,1710922778554447296,2062,2086,2173,2064,2056,2059,1194
558,1710922778564445872,2061,2069,2093,2069,2049,2056,1195
559,1710922778574445890,2060,2113,2216,2016,2072,2052,1197
560,1710922778584450166,2060,2084,2097,2034,2057,2066,1195
561,1710922778594448360,2053,2046,1948,2048,2061,2058,1195
562,1710922778604449280,2056,2051,1957,2056,2052,2062,1193
563,1710922778614449389,2061,2094,2101,2065,2064,2050,1196
564,1710922778624449687,2068,2024,1873,2072,2050,2053,1197
565,1710922778634449936,2041,2037,2017,2046,2054,2051,1196
566,1710922778644450705,2048,2034,2009,2062,2029,2041,1192
567,1710922778654450843,2056,2047,2009,2052,2047,2048,1195
568,1710922778664468815,2045,2052,2139,2085,2060,2060,1194
569,1710922778674450057,2045,2052,2065,2021,2045,2049,1195
570,1710922778684456788,2051,2057,2074,2045,2042,2038,1194
571,1710922778694451667,2053,2056,1958,2058,2064,2058,1195
572,1710922778704453868,2054,2049,2101,2044,2046,2054,1196
573,1710922778714466431,2061,2088,2126,2054,2044,2047,1194
574,1710922778724455488,2056,2020,1879,2066,2060,2047,1193
575,1710922778734471265,2050,2052,2092,2078,2065,2065,1195
576,1710922778744456415,2044,2052,2113,2057,2047,2042,1193
577,1710922778754457345,2060,2053,2052,2060,2060,2054,1195
578,1710922778764456090,2060,2067,2072,2066,2047,2050,1195
579,1710922778774470947,2045,2031,2012,2062,2061,2053,1195
580,1710922778784455846,2061,2101,2186,2058,2049,2051,1192
581,1710922778794456455,2047,2030,1968,2054,2047,2057,1197
582,1710922778804457265,2056,2053,2102,2060,2040,2042,1193
583,1710922778814459416,2066,2085,2186,2049,2061,2071,1196
584,1710922778824457461,2056,2022,1880,2040,2040,2035,1194
585,1710922778834459883,2047,2012,1899,2029,2048,2055,1197
586,1710922778844460152,2033,2018,1946,2049,2044,2040,1192
587,1710922778854458276,2041,2037,1976,2054,2061,2052,1194
588,1710922778864459807,2072,2067,2081,2064,2062,2069,1195
589,1710922778874458814,2047,2056,2088,2049,2042,2047,1193
590,1710922778884465744,2075,2105,2362,2067,2080,2059,1197
591,1710922778894447978,2074,2094,2157,2057,2062,2061,1195
592,1710922778904426416,2059,2096,2192,2063,2046,2050,1196
593,1710922778914464596,2047,2041,2056,2059,2072,2045,1193
594,1710922778924444756,2051,2052,2035,2061,2074,2076,1196
595,1710922778934462358,2033,2018,1967,2013,2040,2033,1193
596,1710922778944483566,2061,2056,2061,2056,2048,2067,1196
597,1710922778954445081,2056,2091,2139,2033,2024,2048,1195
598,1710922778964445790,2073,2089,2280,2047,2044,2050,1194
599,1710922778974445297,2085,2130,2310,2073,2044,2077,1196
600,1710922778984447209,2058,2039,1902,2053,2047,2040,1190
601,1710922778994446806,2051,2029,1960,2059,2077,2064,1196
602,1710922779004463646,2053,2042,1981,2056,2063,2052,1197
603,1710922779014447183,2060,2072,2047,2058,2050,2056,1196
604,1710922779024445628,2042,2032,1988,2031,2033,2043,1194
605,1710922779034447229,2073,2020,1833,2049,2070,2043,1193
606,1710922779044447146,2062,2103,2296,2066,2046,2060,1197
607,1710922779054449610,2042,2092,2362,2056,2074,2046,1193
608,1710922779064449888,2064,2022,1882,2050,2018,2047,1193
609,1710922779074450857,2058,2036,2020,2050,2051,2074,1193
610,1710922779084446186,2049,2032,1965,2060,2054,2051,1196
611,1710922779094480459,2067,2103,2200,2066,2060,2056,1195
612,1710922779104448427,2053,2069,2091,2083,2053,2063,1196
613,1710922779114447834,2056,2061,2031,2060,2105,2064,1193
614,1710922779124445627,2041,2031,2005,2055,2076,2057,1195
615,1710922779134445385,2060,2069,2136,2051,2052,2050,1195
616,1710922779144453799,2059,2047,1876,2107,2013,2071,1197
617,1710922779154472402,2059,2056,2073,2057,2052,2038,1194
618,1710922779164446741,2054,2106,2386,2040,2057,2053,1196
619,1710922779174454985,2054,2043,1948,2057,2061,2046,1195
620,1710922779184445254,2062,2060,2024,2050,2062,2035,1193
621,1710922779194454159,2053,2074,2157,2072,2080,2072,1194
622,1710922779204446783,2056,2001,1841,2089,2052,2050,1195
623,1710922779214444507,2060,2112,2336,2061,2081,2056,1195
624,1710922779224444625,2052,2066,2267,2103,2070,2061,1194
625,1710922779234444302,2050,2058,2074,2071,2049,2060,1196
626,1710922779244455992,2089,2080,2008,2074,2085,2057,1196
627,1710922779254446442,2040,2028,1994,2052,2045,2046,1192
628,1710922779264451059,2045,2020,1978,2040,2043,2052,1196
629,1710922779274447931,2060,2040,2015,2058,2056,2058,1196
630,1710922779284448711,2056,2023,2089,2053,2053,2048,1197
631,1710922779294495608,2042,2071,2301,2041,2082,2075,1197
632,1710922779304441012,2066,2065,2096,2047,2029,2044,1193
633,1710922779314443143,2102,2147,2327,2096,2038,2082,1197
634,1710922779324444153,2056,2084,2087,2048,2026,2042,1192
635,1710922779334442929,2081,2110,2156,2074,2061,2056,1198
636,1710922779344445703,2056,2010,1849,2042,2032,2029,1191
637,1710922779354441463,2060,2095,2329,2066,2080,2092,1195
638,1710922779364445158,2050,2036,2001,2052,2074,2036,1196
639,1710922779374442110,2082,2084,2076,2105,2107,2079,1196
640,1710922779384451525,2047,2032,1949,2026,2004,2011,1189
641,1710922779394448768,2057,2025,1937,2060,2073,2050,1198
642,1710922779404435091,2031,2029,2009,2040,2031,2051,1197
643,1710922779414446610,2052,2058,2040,2038,2041,2051,1197
644,1710922779424446207,2066,2059,2070,2073,2072,2058,1197
645,1710922779434446366,2061,2034,2029,2064,2096,2080,1196
646,1710922779444440643,2055,2028,1977,2041,2021,2038,1193
647,1710922779454461520,2061,2047,2152,2060,2096,2056,1196
648,1710922779464447191,2040,2062,2072,2066,2028,2044,1194
649,1710922779474449433,2069,2044,2048,2062,2039,2054,1196
650,1710922779484446456,2044,2028,1925,2052,2080,2064,1197
651,1710922779494459889,2019,1995,1979,2044,2046,2037,1194
652,1710922779504436603,2047,1997,1910,2062,2073,2073,1197
653,1710922779514443343,2070,2043,2072,2049,2084,2058,1197
654,1710922779524442490,2056,2023,2024,2050,2064,2056,1197
655,1710922779534444672,2045,2061,2081,2052,2044,2054,1197
656,1710922779544452384,2036,2059,2068,2058,2056,2054,1196
657,1710922779554448555,2054,2026,1893,2050,2057,2040,1192
658,1710922779564435248,2035,2019,1934,2049,2052,2043,1192
659,1710922779574443672,2056,2045,2031,2057,2064,2059,1195
660,1710922779584439882,2055,2029,2041,2057,2056,2047,1192
661,1710922779595329517,2086,2135,2323,2091,2074,2065,1195
662,1710922779604472901,2034,2038,2032,2060,2038,2041,1192
663,1710922779614454314,2056,2056,2035,2056,2061,2053,1196
664,1710922779624449843,2068,2106,2258,2057,2061,2057,1196
665,1710922779634447056,2053,2040,1996,2045,2037,2040,1193
666,1710922779644474486,2047,2044,2050,2055,2038,2042,1194
667,1710922779654448424,2056,2050,2098,2053,2045,2040,1193
668,1710922779664455596,2051,2024,1989,2052,2048,2048,1193
669,1710922779674446036,2070,2106,2161,2060,2063,2064,1197
670,1710922779684447797,2049,2043,2028,2055,2047,2043,1195
671,1710922779694445611,2026,2027,2052,2047,2057,2056,1197
672,1710922779704448615,2083,2013,1739,2055,2044,2048,1198
673,1710922779714442752,2049,2042,2002,2046,2056,2038,1198
674,1710922779724440706,2059,2039,1976,2072,2070,2058,1196
675,1710922779734440092,2044,2057,2145,2058,2054,2052,1197
676,1710922779744448205,2090,2174,2468,2068,2059,2058,1197
677,1710922779754441160,2060,2085,2033,2067,2045,2060,1198
678,1710922779764446789,2063,2068,2020,2072,2037,2034,1193
679,1710922779774445765,2043,2033,2016,2049,2070,2073,1195
680,1710922779784445973,2045,2023,1947,2048,2015,2026,1191
681,1710922779794445351,2032,2010,1952,2037,2024,2040,1193
682,1710922779804439427,2067,2101,2172,2071,2068,2068,1196
683,1710922779814444624,2052,2009,1914,2050,2050,2053,1197
684,1710922779824444622,2073,2085,2170,2068,2049,2058,1198
685,1710922779834444761,2041,2027,2003,2027,2050,2052,1197
686,1710922779844445650,2065,2073,2192,2072,2050,2049,1196
687,1710922779854443064,2039,2031,1937,2057,2046,2042,1195
688,1710922779864453622,2057,2076,2144,2080,2070,2053,1194
689,1710922779874445585,2062,2007,1762,2084,2073,2077,1196
690,1710922779884473926,2041,2046,2011,2047,2038,2037,1195
691,1710922779894458855,2083,2163,2304,2061,2063,2057,1198
692,1710922779904452972,2047,2044,2044,2050,2038,2038,1194
693,1710922779914456276,2052,2042,1964,2063,2051,2047,1195
694,1710922779924446045,2055,2040,1905,2058,2053,2059,1195
695,1710922779934445682,2039,2032,2019,2060,2044,2037,1193
696,1710922779944446572,2073,2098,2152,2070,2062,2061,1196
697,1710922779954447141,2046,2028,2014,2032,2048,2047,1193
698,1710922779964447369,2070,2062,2083,2096,2062,2060,1196
699,1710922779974451825,2067,2058,2061,2072,2072,2074,1195
700,1710922779984449379,2065,2065,2082,2060,2054,2061,1195
701,1710922779994453465,2054,2057,2053,2047,2043,2049,1196
702,1710922780004448944,2059,2054,2038,2048,2053,2053,1196
703,1710922780014451577,2070,2132,2280,2053,2053,2052,1197
704,1710922780024513693,2049,2056,2206,2044,2053,2048,1195
705,1710922780034450411,2066,2059,2020,2053,2056,2051,1195
706,1710922780044448976,2045,2058,2050,2050,2057,2053,1195
707,1710922780054447240,2033,2029,1977,2036,2037,2037,1194
708,1710922780064518504,2053,2049,2043,2044,2052,2056,1198
709,1710922780074451785,2051,2042,2027,2040,2060,2063,1197
710,1710922780084447164,2073,2068,2084,2034,2051,2061,1198
711,1710922780094507727,2065,2018,1832,2067,2070,2067,1197
712,1710922780104464333,2049,2047,2068,1998,2029,2041,1196
713,1710922780114449924,2043,2015,1988,2031,2062,2058,1196
714,1710922780124503543,2054,2056,2118,2052,2049,2044,1194
715,1710922780134454137,2048,2037,2010,2066,2060,2054,1197
716,1710922780144454506,2052,2046,2020,2061,2056,2047,1194
717,1710922780155431206,2054,2044,2029,2045,2056,2072,1197
718,1710922780164455544,2058,2055,2005,2053,2058,2056,1196
719,1710922780174498093,2064,2070,2112,2072,2049,2046,1193
720,1710922780184494674,2025,2017,2000,2068,2072,2057,1193
721,1710922780194494272,2050,2005,1832,2079,2059,2041,1194
722,1710922780204495461,2040,2016,1942,2052,2049,2050,1195
723,1710922780214492494,2049,2036,1993,2039,2049,2052,1199
724,1710922780224493374,2051,2052,2130,2069,2050,2052,1196
725,1710922780234493301,2026,2056,2100,2040,2045,2024,1194
726,1710922780244491395,2044,2046,1988,2061,2046,2110,1196
727,1710922780254443803,2031,2057,2184,2072,2059,2026,1194
728,1710922780264489147,2061,2036,1961,2090,2081,2044,1193
729,1710922780274490318,2065,2055,2032,2062,2134,2082,1196
730,1710922780284493481,2056,2041,2069,2093,2069,2013,1195
731,1710922780294451851,2064,2090,2221,2028,2076,2045,1194
732,1710922780304444956,2058,2067,2133,2073,2078,2055,1196
733,1710922780314490970,2036,2029,2013,2094,2076,2049,1196
734,1710922780324499354,2057,2046,1888,2082,2130,2072,1196
735,1710922780334485536,2068,2093,2168,2091,2009,2055,1196
736,1710922780344486436,2062,2042,1992,2036,2028,2063,1196
737,1710922780354443583,2030,2034,2027,2026,1985,2039,1193
738,1710922780364443480,2062,2079,2081,2085,2064,2068,1194
739,1710922780374443719,2057,2084,2140,2052,2004,2039,1193
740,1710922780384483793,2060,2049,2048,2066,2046,2056,1196
741,1710922780394435258,2049,2056,2109,2057,2057,2044,1191
742,1710922780404437761,2023,2023,1919,2081,2064,2020,1195
743,1710922780414433070,2053,2076,2031,2067,2122,2034,1192
744,1710922780425432684,2065,2041,2016,2074,2053,2061,1196
745,1710922780434479635,2047,2047,2037,2069,2042,2039,1195
746,1710922780444486396,2046,2038,2017,2053,2045,2049,1197
747,1710922780454427823,2055,2052,2019,2029,2052,2058,1196
748,1710922780464478607,2077,2082,2037,2108,2061,2047,1196
749,1710922780474489805,2052,2020,1956,2076,2058,2061,1196
750,1710922780484469836,2071,2067,2060,2228,2087,2064,1198
751,1710922780494473591,2050,2047,2005,2033,2061,2062,1198
752,1710922780504476675,2072,2093,2099,1996,2066,2068,1197
753,1710922780514473988,2064,2123,2338,2026,2051,2048,1196
754,1710922780524476611,2061,2061,2045,1953,2040,2052,1195
755,1710922780534475026,2064,2080,2136,2043,2061,2058,1194
756,1710922780544470244,2041,2045,2033,2060,2053,2046,1195
757,1710922780554476414,2058,2066,2034,2052,2047,2060,1194
758,1710922780564472545,2042,2029,2003,2033,2044,2044,1195
759,1710922780574471921,2044,2028,1984,2029,2045,2058,1198
760,1710922780584471759,2056,2037,2027,2037,2043,2057,1195
761,1710922780594472999,2040,2040,2031,2039,2028,2034,1193
762,1710922780604471865,2057,2072,2146,2121,2061,2068,1195
763,1710922780614470882,2081,2127,2201,2036,2008,2047,1194
764,1710922780624471480,2044,2006,1913,2033,2057,2052,1196
765,1710922780634470546,2048,2023,1971,1961,2040,2020,1193
766,1710922780644469042,2056,2116,2372,2056,2109,2120,1196
767,1710922780654469701,2061,2061,2039,2096,2028,2037,1192
768,1710922780664469048,2045,2043,2031,2083,2036,2040,1193
769,1710922780674466761,2052,2072,2149,2086,2114,2061,1195
770,1710922780684470897,2045,2012,1928,2029,2090,2053,1194
771,1710922780694464944,2051,2073,2172,2065,2028,2056,1194
772,1710922780704466575,2061,2048,1954,2081,2032,2045,1194
773,1710922780714466302,2062,2075,2172,2012,1994,2059,1194
774,1710922780724464477,2034,2034,2016,2060,2085,2037,1192
775,1710922780734465677,2056,2080,2074,2057,2051,2048,1196
776,1710922780744507143,2052,2043,2072,2067,2084,2054,1197
777,1710922780754464070,2050,2032,1965,2056,2049,2060,1199
778,1710922780764464338,2063,2045,1933,2077,2066,2047,1194
779,1710922780774503922,2066,1994,1771,2040,2014,2047,1195
780,1710922780784462070,2044,2036,2105,2021,2064,2050,1193
781,1710922780794461758,2048,2046,2061,2039,2033,2039,1195
782,1710922780804457527,2060,2027,1981,2042,2049,2052,1197
783,1710922780814458557,2094,2137,2380,2069,2051,2084,1196
784,1710922780824459627,2045,2015,1901,2052,2061,2033,1192
785,1710922780834460847,2077,2145,2351,2092,2148,2100,1197
786,1710922780844465264,2057,2044,1980,2058,2056,2048,1195
787,1710922780854427170,2047,2047,2003,2058,2068,2034,1194
788,1710922780864464017,2047,2029,1915,2098,2088,2066,1196
789,1710922780874456011,2054,2038,1985,2042,2044,2053,1195
790,1710922780884460627,2054,2056,2024,2057,2048,2047,1193
791,1710922780894456697,2056,2068,2129,2062,2065,2057,1197
792,1710922780904454651,2101,2216,3070,2100,2083,2085,1199
793,1710922780914454038,2032,2028,2020,2042,2050,2031,1193
794,1710922780924456461,2044,2051,2080,2048,2056,2052,1194
795,1710922780934451790,2045,2017,1815,2061,2059,2028,1194
796,1710922780944452780,2070,2090,2068,2056,2060,2069,1197
797,1710922780954450394,2037,1992,1817,2047,2040,2042,1194
798,1710922780964469397,2040,2003,1865,2042,2050,2052,1196
799,1710922780974454046,2071,2110,2150,2060,2026,2050,1196
800,1710922780984450717,2057,1999,1546,2068,2045,2052,1193
801,1710922780994455445,2046,2038,1955,2063,2052,2045,1195
802,1710922781004459480,2060,2032,2035,2048,2052,2065,1195
803,1710922781014465630,2065,2088,2165,2042,2041,2045,1192
804,1710922781024475266,2061,2074,2207,2058,2056,2047,1193
805,1710922781034457421,2084,2037,1904,2051,2051,2035,1192
806,1710922781044456256,2058,2129,2289,2077,2117,2082,1197
807,1710922781054455512,2052,2025,1988,2056,2044,2047,1193
808,1710922781064455600,2043,2034,2078,2034,2013,2026,1194
809,1710922781074457642,2068,2053,1966,2015,2008,2061,1196
810,1710922781084459835,2040,2064,2058,2050,2045,2044,1194
811,1710922781094456526,2049,2028,1878,2046,2036,2050,1194
812,1710922781104456645,2031,1997,1906,2066,2068,2094,1197
813,1710922781114455971,2056,2074,2134,2031,2045,2037,1192
814,1710922781124453304,2052,2022,1932,2053,2028,2017,1194
815,1710922781134477367,2063,2083,1999,2066,2067,2109,1195
816,1710922781144451266,2045,2035,2029,2030,2038,2028,1195
817,1710922781154450322,2049,2074,2080,2056,2028,2047,1193
818,1710922781164476179,2064,2081,2189,2076,2061,2071,1197
819,1710922781174468032,2031,2040,2136,2021,2030,2027,1192
820,1710922781184455286,2050,2029,1908,2047,2034,2030,1192
821,1710922781194466435,2057,2013,1861,2084,2069,2041,1194
822,1710922781204455091,2066,2032,1935,2078,2088,2088,1197
823,1710922781214452744,2046,2022,1964,2072,2050,2047,1194
824,1710922781224466749,2076,2112,2168,2074,2076,2096,1195
825,1710922781234444194,2030,2032,2007,2037,2037,2008,1192
826,1710922781244447759,2038,2020,1970,2095,2059,2060,1195
827,1710922781254448829,2044,2011,1865,2046,2057,2062,1196
828,1710922781264447835,2046,2020,1930,2066,2076,2060,1196
829,1710922781274466879,2045,2064,2112,2048,2048,2045,1194
830,1710922781284455185,2051,2053,2074,2037,2019,2050,1196
831,1710922781294454531,2048,2052,2036,2054,2048,2061,1196
832,1710922781304453778,2048,2046,2035,2056,2041,2059,1198
833,1710922781314466250,2074,2068,2161,2093,2060,2053,1198
834,1710922781324470977,2060,2032,1957,2045,2064,2047,1193
835,1710922781334457409,2058,2014,1929,2036,2030,2045,1195
836,1710922781344456054,2052,2055,2068,2059,2052,2030,1192
837,1710922781354451524,2057,2052,2082,2036,2038,2034,1192
838,1710922781364452734,2052,2068,2204,2060,2058,2074,1196
839,1710922781374465776,2061,2064,2022,2037,2034,2056,1194
840,1710922781384458381,2078,2077,2159,2061,2049,2062,1194
841,1710922781394453790,2045,2047,2076,2061,2061,2038,1195
842,1710922781404404334,2058,2096,2393,2067,2088,2073,1197
843,1710922781414462853,2036,2025,1926,2050,2034,2033,1194
844,1710922781424455237,2045,2038,2012,2052,2051,2058,1196
845,1710922781434452550,2053,2041,1963,2092,2053,2047,1193
846,1710922781444450704,2057,2029,1923,2049,2058,2044,1193
847,1710922781454450160,2068,2082,2154,2040,2045,2057,1197
848,1710922781464451061,2042,2060,2100,2060,2060,2048,1196
849,1710922781474450878,2073,2084,2242,2058,2057,2051,1198
850,1710922781484455765,2060,2117,2436,2068,2104,2092,1196
851,1710922781494460141,2040,2032,1989,2039,2064,2018,1195
852,1710922781504456603,2059,2036,1828,2046,2017,2041,1194
853,1710922781514460368,2077,2114,2211,2120,2104,2097,1195
854,1710922781524527182,2036,2038,2031,2019,2038,2045,1192
855,1710922781534457369,2056,2027,1884,2047,2027,2040,1192
856,1710922781544455483,2069,2065,2068,2062,2062,2064,1195
857,1710922781554452234,2037,2021,1966,2052,2054,2060,1197
858,1710922781564452703,2072,2054,1929,2059,2056,2053,1196
859,1710922781574452931,2061,2108,2296,2065,2072,2066,1196
860,1710922781584455304,2054,2038,2038,2057,2044,2044,1192
861,1710922781594471373,2051,2027,1862,2056,2029,2035,1194
862,1710922781604454659,2085,2164,2442,2050,2085,2088,1197
863,1710922781614451902,2050,2028,1992,2052,2049,2037,1192
864,1710922781624455326,2058,2042,2007,2076,2086,2076,1196
865,1710922781634495630,2056,2073,2147,2056,2058,2060,1195
866,1710922781644448158,2053,2088,2251,2057,2052,2052,1196
867,1710922781654484124,2064,2074,2157,2045,2053,2059,1196
868,1710922781664482058,2068,2056,2029,2068,2056,2053,1197
869,1710922781674481014,2033,2042,2052,2085,2088,2065,1198
870,1710922781684509636,2042,2029,1974,2033,2049,2038,1194
871,1710922781694477624,2053,2045,1909,2052,2046,2050,1197
872,1710922781704481109,2058,2044,2045,2052,2040,2040,1193
873,1710922781714476988,2043,2070,2168,2060,2052,2052,1195
874,1710922781724477347,2030,2047,2073,2060,2057,2047,1195
875,1710922781734488176,2064,2118,2344,2060,2025,2072,1195
876,1710922781744472925,2060,2071,2061,2052,2048,2028,1193
877,1710922781754470929,2045,2041,2025,2040,2052,2041,1194
878,1710922781764474193,2052,2029,1994,2053,2053,2056,1198
879,1710922781774474612,2061,2069,2036,2072,2091,2054,1196
880,1710922781784474991,2058,2012,1959,2045,2038,2043,1194
881,1710922781794477793,2042,2030,2005,2050,2041,2053,1195
882,1710922781804475838,2058,2033,2026,2054,2037,2048,1194
883,1710922781814475856,2051,2088,2257,2059,2069,2064,1194
884,1710922781824474040,2048,2054,1965,2068,2056,2044,1192
885,1710922781834474199,2061,2101,2320,2053,2034,2058,1197
886,1710922781844486110,2060,2002,1912,2068,2065,2045,1192
887,1710922781854472812,2031,1998,1954,2044,2039,2049,1196
888,1710922781864470937,2037,2033,1942,2059,2053,2052,1194
889,1710922781874469010,2066,2050,2020,2044,2041,2046,1193
890,1710922781884872473,2056,2006,1836,2087,2084,2072,1196
891,1710922781894466452,2057,2082,2101,2060,2049,2040,1192
892,1710922781904475747,2060,2076,2265,2076,2075,2069,1197
893,1710922781914469574,2050,2042,2002,2049,2050,2044,1193
894,1710922781924466286,2040,2070,2088,2057,2072,2065,1197
895,1710922781934465212,2052,2038,2073,2053,2047,2045,1194
896,1710922781944485658,2073,2112,2349,2064,2078,2056,1195
897,1710922781954466720,2047,2040,2011,2044,2044,2042,1194
898,1710922781964467259,2061,2086,2200,2060,2058,2057,1197
899,1710922781974467287,2017,2014,2058,2021,2033,2036,1196
900,1710922781984464229,2072,2082,2164,2062,2066,2058,1193
901,1710922781994465780,2062,2100,2252,2080,2073,2076,1196
902,1710922782004470447,2043,2066,2084,2052,2043,2033,1193
903,1710922782014462280,2047,2050,2081,2056,2077,2061,1196
904,1710922782024464502,2043,2038,2044,2052,2040,2043,1195
905,1710922782034460221,2031,2046,2080,2044,2056,2033,1193
906,1710922782044462825,2104,2133,2334,2074,2061,2094,1196
907,1710922782054473863,2049,2023,1964,2036,2025,2037,1194
908,1710922782064461267,2042,2028,1990,2056,2053,2051,1196
909,1710922782074460334,2049,2051,2086,2042,2045,2039,1192
910,1710922782084459199,2058,2052,1990,2059,2055,2050,1195
911,1710922782094455831,2062,2057,2022,2052,2060,2051,1193
912,1710922782104457522,2057,2045,2008,2051,2040,2054,1194
913,1710922782114450005,2071,2118,2440,2072,2080,2105,1196
914,1710922782124455855,2053,2029,1961,2061,2057,2044,1195
915,1710922782134456083,2048,2049,2164,2052,2049,2046,1193
916,1710922782144456752,2095,2232,2785,2072,2084,2058,1196
917,1710922782154466339,2063,2037,1971,2060,2079,2069,1195
918,1710922782164468461,2027,2024,2013,2042,2040,2028,1192
919,1710922782174463830,2037,2023,2031,2060,2080,2070,1195
920,1710922782184459600,2072,2096,2176,2068,2047,2078,1194
921,1710922782194458114,2036,2027,2044,2053,2035,2035,1196
922,1710922782204455298,2044,2064,2234,2052,2010,2046,1193
923,1710922782214459894,2058,2038,1849,2055,2056,2061,1196
924,1710922782224461204,2052,2053,1985,2064,2052,2047,1195
925,1710922782234460852,2073,2058,2004,2072,2056,2061,1196
926,1710922782244460870,2058,2088,2240,2068,2056,2056,1196
927,1710922782254463663,2066,2061,2060,2065,2058,2057,1195
928,1710922782264441719,2044,2030,1877,2053,2046,2043,1195
929,1710922782274461595,2045,2013,1912,2045,2052,2056,1197
930,1710922782284461553,2038,2017,2014,2045,2068,2044,1194
931,1710922782294461491,2076,2056,1872,2069,2067,2061,1196
932,1710922782304470866,2047,2042,2044,2059,2066,2056,1196
933,1710922782314436509,2050,2056,2040,2066,2054,2046,1194
934,1710922782324445314,2056,2056,2125,2048,2043,2056,1195
935,1710922782334444891,2051,2045,1986,2056,2058,2050,1196
936,1710922782344446352,2094,2184,2310,2089,2049,2076,1198
937,1710922782354447241,2005,1984,1960,2032,2022,2025,1194
938,1710922782364446939,2054,2052,2196,2056,2076,2076,1196
939,1710922782374448690,2046,2000,1948,2054,2045,2044,1192
940,1710922782384449119,2056,2043,1909,2064,2068,2070,1196
941,1710922782394448626,2073,2111,2212,2052,2044,2047,1192
942,1710922782404466067,2044,2049,2032,2056,2050,2051,1196
943,1710922782414449905,2053,2020,1913,2065,2057,2066,1196
944,1710922782424466985,2043,2012,2033,2049,2069,2041,1193
945,1710922782434449139,2037,2042,2003,2037,2029,2028,1193
946,1710922782444449107,2060,2032,1963,2054,2057,2064,1195
947,1710922782454474733,2046,2033,1990,2052,2057,2044,1191
948,1710922782464483548,2056,2056,2052,2056,2056,2056,1197
949,1710922782474479067,2057,2052,2016,2053,2049,2056,1196
950,1710922782484441063,2065,2029,1885,2078,2061,2057,1197
951,1710922782494440841,2073,2020,1905,2049,2045,2073,1195
952,1710922782504480885,2052,2019,2005,2053,2040,2040,1196
953,1710922782514475102,2046,2044,2016,2057,2054,2044,1192
954,1710922782524464600,2050,2048,2016,2050,2040,2044,1193
955,1710922782534444139,2057,2056,2069,2061,2062,2056,1194
956,1710922782544444878,2054,2058,2056,2043,2044,2044,1198
957,1710922782554443654,2053,2036,1954,2056,2066,2056,1195
958,1710922782564486523,2052,2042,2011,2049,2057,2074,1195
959,1710922782574444562,2053,2046,2047,2056,2057,2045,1193
960,1710922782584473424,2077,2148,2364,2072,2068,2066,1194
961,1710922782594442764,2059,2045,1969,2050,2061,2057,1196
962,1710922782604449976,2043,2042,2000,2055,2047,2046,1193
963,1710922782614458830,2052,2050,2079,2044,2040,2036,1194
964,1710922782624471172,2068,2042,2180,2057,2016,2082,1194
965,1710922782634470508,2041,2035,2026,2044,2026,2037,1193
966,1710922782644471799,2052,2059,2138,2052,2056,2043,1193
967,1710922782654471246,2049,2044,2130,2052,2046,2058,1195
968,1710922782664486823,2058,2029,1782,2060,2044,2040,1194
969,1710922782674473857,2053,2044,2029,2056,2066,2071,1194
970,1710922782684476800,2047,2072,2146,2048,1997,2034,1193
971,1710922782694476718,2081,2041,1938,2063,2053,2058,1197
972,1710922782704448492,2042,2026,2040,2048,2061,2068,1198
973,1710922782714454051,2065,2061,2000,2056,2053,2048,1195
974,1710922782724443659,2063,2080,2117,2060,2061,2056,1194
975,1710922782734442625,2064,2054,1865,2072,2069,2053,1196
976,1710922782744464765,2057,2036,1980,2060,2056,2057,1197
977,1710922782754458071,2072,2104,2149,2060,2038,2059,1197
978,1710922782764442038,2057,2052,2024,2050,2038,2042,1191
979,1710922782774462885,2050,2023,1874,2046,2060,2052,1196
980,1710922782784442845,2046,2051,2116,2054,2026,2031,1192
981,1710922782794440178,2052,2069,2172,2047,2054,2041,1194
982,1710922782804457409,2058,2092,2219,2045,2078,2052,1196
983,1710922782814460042,2045,2056,2067,2051,2053,2041,1192
984,1710922782824473215,2052,2037,2009,2057,2054,2076,1195
985,1710922782834455680,2049,2058,2102,2046,2038,2025,1194
986,1710922782844456239,2065,2065,2007,2072,2017,2059,1196
987,1710922782854455234,2041,2053,2130,2056,2054,2042,1192
988,1710922782864457216,2060,2101,2230,2068,2051,2056,1195
989,1710922782874449700,2058,2067,2105,2063,2060,2064,1194
990,1710922782884457613,2050,2047,2033,2053,2047,2042,1192
991,1710922782894444937,2045,2056,2076,2048,2047,2061,1196
992,1710922782904444875,2072,2075,2152,2057,2074,2061,1197
993,1710922782914446376,2049,2077,2094,2068,2077,2045,1194
994,1710922782924446203,2064,2032,1792,2052,2047,2052,1193
995,1710922782934447463,2044,2057,2096,2050,2050,2044,1192
996,1710922782944448393,2043,2033,2027,2056,2055,2055,1194
997,1710922782954450154,2073,2080,2145,2056,2063,2056,1199
998,1710922782964450373,2054,2057,2162,2059,2076,2056,1198
999,1710922782974447255,2066,2068,2046,2056,2064,2057,1196
1000,1710922782984448806,2033,1998,1896,2047,2029,2042,1194
1001,1710922782994446871,2045,2040,1973,2056,2073,2043,1193
1002,1710922783004447600,2053,2041,1916,2047,2053,2058,1196
1003,1710922783014446906,2046,2038,2050,2060,2046,2053,1197
1004,1710922783024453397,2050,2039,2078,2043,2064,2036,1193
1005,1710922783034445329,2034,1966,1672,2054,2072,2072,1197
1006,1710922783044451879,2043,2022,1935,2046,2040,2041,1192
1007,1710922783054443361,2057,2068,2100,2043,2046,2043,1195
1008,1710922783064444101,2062,2074,2198,2069,2100,2056,1198
1009,1710922783074442616,2056,2083,2216,2040,2042,2045,1193
1010,1710922783084462281,2057,2052,2002,2060,2051,2045,1194
1011,1710922783094451238,2059,2050,2030,2062,2064,2057,1198
1012,1710922783104448130,2047,2060,2024,2046,2042,2036,1194
1013,1710922783114445623,2063,2072,2101,2061,2056,2050,1196
1014,1710922783124444359,2056,2056,2081,2047,2041,2048,1197
1015,1710922783134454987,2041,2044,2061,2047,2055,2045,1192
1016,1710922783144432182,2060,2024,1865,2064,2051,2053,1195
1017,1710922783154451998,2056,2031,1996,2047,2031,2049,1196
1018,1710922783164450102,2036,2020,2001,2057,2068,2056,1198
1019,1710922783174445530,2058,2068,2084,2053,2049,2051,1197
1020,1710922783184446030,2038,2044,2045,2044,2048,2056,1194
1021,1710922783194431811,2077,2118,2200,2064,2055,2055,1195
1022,1710922783204443902,2058,2049,2056,2056,2062,2049,1196
1023,1710922783214444090,2042,2013,1884,2047,2040,2040,1192
1024,1710922783224444038,2047,1985,1908,2037,2088,2057,1196
1025,1710922783234469023,2056,2022,1860,2047,2057,2056,1195
1026,1710922783244445456,2039,2026,1988,2046,2040,2039,1192
1027,1710922783254443861,2065,2045,1876,2058,2058,2043,1192
1028,1710922783264446495,2079,2104,2056,2074,2080,2068,1197
1029,1710922783274447254,2047,2050,2117,2029,2074,2049,1197
1030,1710922783284446180,2037,2037,2035,2047,2056,2057,1197
1031,1710922783294442080,2045,2045,2050,2052,2045,2041,1193
1032,1710922783304447438,2060,2086,2211,2066,2052,2054,1197
1033,1710922783314445503,2050,2083,2141,2064,2029,2049,1196
1034,1710922783324447654,2072,2058,2007,2064,2065,2076,1196
1035,1710922783334446550,2066,2049,2049,2053,2056,2053,1198
1036,1710922783344448502,2045,2037,1989,2056,2066,2065,1194
1037,1710922783354446726,2059,2052,2038,2053,2056,2056,1196
1038,1710922783364449880,2061,2044,2018,2048,2040,2049,1197
1039,1710922783374450119,2070,2056,2026,2051,2042,2056,1197
1040,1710922783384461388,2056,2049,1985,2059,2054,2054,1194
1041,1710922783394448873,2056,2064,2100,2064,2057,2058,1195
1042,1710922783404451786,2056,2038,2028,2050,2047,2038,1193
1043,1710922783414449799,2064,2070,2040,2056,2052,2080,1194
1044,1710922783424449748,2067,2076,2108,2061,2057,2050,1195
1045,1710922783434495562,2056,2026,1877,2053,2050,2049,1196
1046,1710922783444459903,2056,2054,2072,2053,2013,2052,1194
1047,1710922783454450994,2052,2031,1991,2045,2061,2057,1196
1048,1710922783464451333,2036,2025,1881,2053,2046,2049,1196
1049,1710922783474462462,2063,2043,2114,2049,2050,2067,1196
1050,1710922783484476486,2044,2057,2093,2058,2049,2045,1193
1051,1710922783494451367,2074,2118,2264,2052,2024,2046,1194
1052,1710922783504445063,2052,2026,1979,2056,2053,2058,1197
1053,1710922783514454849,2053,2066,2092,2062,2054,2053,1196
1054,1710922783524455538,2053,2056,2097,2052,2054,2049,1194
1055,1710922783534480995,2047,2048,2039,2049,2049,2057,1196
1056,1710922783544459973,2057,2001,1835,2056,2053,2054,1195
1057,1710922783554454490,2047,2037,2022,2037,2054,2046,1193
1058,1710922783564456292,2066,2054,1997,2045,2049,2053,1196
1059,1710922783574440340,2056,2041,1998,2057,2048,2049,1196
1060,1710922783584456438,2049,2057,2093,2057,2070,2053,1192
1061,1710922783594469250,2056,2052,2137,2056,2051,2055,1195
1062,1710922783604459369,2052,2058,2196,2052,2056,2050,1196
1063,1710922783614448356,2065,2108,2291,2060,2052,2048,1197
1064,1710922783624444748,2053,2056,2056,2054,2064,2061,1198
1065,1710922783634446619,2055,2049,2028,2047,2051,2047,1193
1066,1710922783644459461,2065,2086,2180,2064,2061,2056,1196
1067,1710922783654458909,2060,2077,2141,2056,2061,2046,1192
1068,1710922783664446673,2042,2033,2009,2057,2046,2061,1194
1069,1710922783674448584,2060,2050,2050,2050,2049,2060,1197
1070,1710922783684448562,2049,2021,1913,2048,2065,2056,1198
1071,1710922783694442188,2049,2048,2093,2041,2039,2042,1193
1072,1710922783704432498,2060,2045,1994,2064,2050,2052,1197
1073,1710922783714436654,2061,2047,2061,2048,2042,2051,1196
1074,1710922783724433506,2056,2032,1856,2061,2050,2060,1195
1075,1710922783734435949,2062,2065,2177,2060,2052,2046,1192
1076,1710922783744448280,2057,2083,2132,2061,2064,2056,1195
1077,1710922783754446714,2060,2045,1961,2054,2070,2048,1196
1078,1710922783764450910,2046,2032,2050,2037,2056,2049,1196
1079,1710922783774451339,2042,2045,2014,2053,2052,2055,1198
1080,1710922783784448823,2061,2058,1996,2061,2066,2062,1192
1081,1710922783794446035,2047,2049,1989,2051,2040,2050,1197
1082,1710922783804448728,2057,2041,1985,2051,2056,2053,1195
1083,1710922783814440892,2047,2056,2112,2045,2052,2053,1195
1084,1710922783824440960,2065,2054,1978,2075,2068,2063,1196
1085,1710922783834438533,2056,2067,2066,2043,2039,2049,1196
1086,1710922783844438140,2048,2098,2252,2064,2056,2044,1196
1087,1710922783854445262,2044,2042,2046,2047,2042,2047,1195
1088,1710922783864454086,2042,2055,2044,2059,2053,2054,1198
1089,1710922783874466037,2065,2043,1973,2057,2052,2054,1195
1090,1710922783884448371,2053,2046,2006,2061,2073,2056,1198
1091,1710922783894445865,2056,2047,1981,2059,2042,2050,1196
1092,1710922783904446143,2050,2015,1856,2051,2045,2049,1198
1093,1710922783914443516,2063,2087,2170,2061,2060,2056,1196
1094,1710922783924445708,2041,2045,2124,2056,2058,2046,1193
1095,1710922783934444023,2064,2065,2044,2054,2053,2054,1196
1096,1710922783944444331,2061,2089,2180,2058,2064,2062,1195
1097,1710922783954447295,2048,2037,2020,2052,2064,2056,1196
1098,1710922783964421644,2046,2053,2053,2058,2040,2041,1193
1099,1710922783974418266,2046,2047,2056,2052,2049,2048,1196
1100,1710922783984447379,2060,2081,2092,2044,2048,2052,1194
1101,1710922783994455843,2041,2043,1935,2040,2040,2055,1197
1102,1710922784004472182,2053,2036,1958,2058,2047,2048,1196
1103,1710922784014446952,2053,2067,2090,2058,2052,2056,1196
1104,1710922784024447231,2053,2056,2154,2050,2042,2044,1194
1105,1710922784034447830,2059,2046,2056,2058,2074,2076,1196
1106,1710922784044443961,2040,2029,1924,2045,2040,2027,1194
1107,1710922784054443408,2053,2062,2068,2044,2051,2054,1195
1108,1710922784064444437,2068,2156,2243,2077,2067,2060,1197
1109,1710922784074444314,2073,2094,2352,2059,2078,2068,1195
1110,1710922784084446627,2067,2092,2280,2066,2054,2054,1195
1111,1710922784094443048,2058,2072,2036,2056,2057,2053,1197
1112,1710922784104446062,2046,2032,1965,2058,2060,2062,1197
1113,1710922784114444317,2050,2044,2020,2041,2032,2046,1195
1114,1710922784124455486,2052,2030,1885,2064,2059,2053,1195
1115,1710922784134442189,2053,2040,1988,2064,2033,2040,1194
1116,1710922784144443760,2049,2052,2058,2067,2055,2056,1197
1117,1710922784154445651,2072,2083,2110,2059,2059,2070,1196
1118,1710922784164444356,2049,2041,1925,2056,2063,2056,1195
1119,1710922784174442240,2059,2082,2078,2055,2056,2051,1196
1120,1710922784184446537,2056,2023,1904,2053,2047,2052,1193
1121,1710922784194443890,2070,2091,2186,2056,2053,2053,1197
1122,1710922784204449729,2040,2035,2032,2054,2053,2052,1197
1123,1710922784214444417,2065,2049,2093,2044,2060,2054,1196
1124,1710922784224446308,2051,2020,2049,2045,2026,2046,1191
1125,1710922784234448420,2064,2049,1888,2064,2058,2056,1196
1126,1710922784244446243,2062,2002,1821,2074,2056,2052,1196
1127,1710922784254443647,2041,2015,1972,2045,2047,2047,1193
1128,1710922784264476487,2046,2041,2037,2040,2034,2044,1193
1129,1710922784274450175,2054,2063,2055,2052,2052,2040,1193
1130,1710922784284451406,2092,2123,2321,2078,2053,2073,1196
1131,1710922784294442908,2050,2032,1969,2066,2046,2040,1193
1132,1710922784304441883,2047,2037,2002,2037,2058,2052,1200
1133,1710922784314443905,2047,2009,1916,2043,2044,2047,1196
1134,1710922784324451898,2068,2089,2246,2072,2041,2042,1197
1135,1710922784334445734,2050,2109,2491,2045,2050,2046,1195
1136,1710922784344440422,2062,2075,2093,2072,2067,2084,1197
1137,1710922784354444438,2052,2029,2000,2045,2041,2040,1192
1138,1710922784364450157,2068,2040,1981,2064,2056,2060,1197
1139,1710922784374456958,2052,2070,2228,2064,2063,2061,1197
1140,1710922784384437258,2040,2028,2001,2048,2042,2045,1191
1141,1710922784394447886,2060,2053,1969,2067,2061,2048,1194
1142,1710922784404452994,2056,2026,1983,2042,2044,2060,1196
1143,1710922784414440799,2040,2030,2004,2041,2032,2032,1196
1144,1710922784424458330,2040,2054,2042,2048,2068,2060,1194
1145,1710922784434446275,2073,2072,2150,2043,2028,2041,1193
1146,1710922784444451513,2028,2008,1940,2096,2065,2045,1193
1147,1710922784454451752,2049,2014,1902,2014,2029,2025,1191
1148,1710922784464449525,2033,2036,2047,2039,2070,2067,1195
1149,1710922784474459481,2053,2051,2022,2038,2038,2041,1194
1150,1710922784484442157,2064,2065,2047,2107,2052,2064,1197
1151,1710922784494451733,2056,2031,1950,2044,2051,2050,1196
1152,1710922784504450529,2062,2064,2082,2045,2072,2062,1197
1153,1710922784514486755,2061,2108,2290,1990,2068,2063,1196
1154,1710922784524462748,2045,2085,2265,2040,2085,2052,1195
1155,1710922784534461624,2056,2038,1883,2016,2056,2058,1194
1156,1710922784544456572,2046,2068,2074,2024,2044,2044,1193
1157,1710922784554453794,2040,2014,1996,2036,2036,2034,1192
1158,1710922784564452370,2066,2028,1923,2104,2067,2070,1196
1159,1710922784574455574,2059,2054,2057,2034,2043,2047,1193
1160,1710922784584470490,2064,2070,2132,2072,2106,2065,1196
1161,1710922784594480898,2061,2069,2062,2013,2048,2048,1196
1162,1710922784604453484,2056,2033,1948,2056,2024,2045,1193
1163,1710922784614476596,2032,2022,1984,2037,2052,2039,1193
1164,1710922784624509256,2043,2032,2040,2068,2067,2051,1195
1165,1710922784634461643,2052,2039,1993,2042,2069,2053,1195
1166,1710922784644456341,2060,2054,1982,2064,2050,2056,1196
1167,1710922784654449216,2046,2037,1964,2045,2041,2038,1195
1168,1710922784664456006,2085,2146,2386,2060,2072,2077,1197
1169,1710922784674470652,2048,2044,1960,2052,2060,2052,1198
1170,1710922784684471682,2064,2069,2066,2056,2046,2052,1195
1171,1710922784694459928,2062,2014,1790,2052,2072,2043,1193
1172,1710922784704456219,2041,2047,2045,2038,2028,2047,1193
1173,1710922784714452259,2032,2015,1982,2045,2037,2034,1194
1174,1710922784724462938,2056,2053,2122,2064,2089,2076,1194
1175,1710922784734434652,2048,2036,2041,2074,2045,2042,1194
1176,1710922784744464646,2063,2076,2072,2052,2046,2057,1194
1177,1710922784754460006,2054,2056,2008,2048,2033,2036,1192
1178,1710922784764456818,2056,2052,2027,2026,2051,2057,1196
1179,1710922784774456185,2049,2040,1931,2037,2044,2050,1197
1180,1710922784784467384,2046,2041,1982,2044,2033,2050,1193
1181,1710922784794474525,2056,2060,2041,2052,2036,2042,1194
1182,1710922784804459264,2054,2030,1972,2083,2046,2054,1195
1183,1710922784814458250,2052,2050,2120,2062,2053,2056,1192
1184,1710922784824456705,2051,2044,2100,2040,2046,2056,1196
1185,1710922784834482522,2062,2054,1961,2023,2048,2058,1195
1186,1710922784844471429,2045,2042,2100,2052,2046,2047,1192
1187,1710922784854493609,2047,2043,2049,2031,2044,2049,1193
1188,1710922784864460825,2043,2034,1991,2037,2049,2042,1192
1189,1710922784874458608,2038,2031,2006,2074,2052,2050,1196
1190,1710922784884460590,2057,2042,1984,2070,2085,2058,1196
1191,1710922784894456110,2049,2076,2166,2069,2016,2038,1195
1192,1710922784904462399,2052,2039,2012,2084,2049,2044,1195
1193,1710922784914465864,2048,2045,2033,2044,2060,2054,1196
1194,1710922784924451816,2040,2022,1980,2042,2028,2026,1194
1195,1710922784934451703,2047,2030,2040,2064,2077,2088,1195
1196,1710922784944458063,2054,2053,2045,2120,2065,2047,1195
1197,1710922784954460034,2064,2056,2042,2060,2053,2051,1196
1198,1710922784964452729,2069,2112,2196,2066,2063,2060,1198
1199,1710922784974452546,2056,2057,2068,2050,2046,2053,1196
1200,1710922784984472893,2065,2069,2161,2041,2044,2056,1193
1201,1710922784994589071,2028,2042,2044,2041,2050,2040,1194
1202,1710922785004435288,2077,2097,2206,2056,2047,2058,1195
1203,1710922785014443582,2048,2036,2020,2057,2056,2056,1195
1204,1710922785024445082,2047,2028,1987,2088,2047,2049,1196
1205,1710922785034442415,2078,2093,2153,2057,2053,2060,1197
1206,1710922785044445740,2049,2045,2052,2048,2053,2059,1196
1207,1710922785054445407,2056,2047,2021,2044,2049,2047,1192
1208,1710922785064448400,2054,2047,2076,2042,2058,2059,1195
1209,1710922785074445773,2060,2070,2112,2041,2045,2050,1197
1210,1710922785084447154,2062,2052,1956,2051,2051,2056,1199
1211,1710922785094441702,2067,2012,1921,2065,2067,2055,1197
1212,1710922785104414628,2049,2052,2069,2038,2038,2048,1195
1213,1710922785114447859,2058,2033,1968,2056,2056,2053,1195
1214,1710922785124448509,2058,2046,2091,2070,2042,2056,1194
1215,1710922785134443416,2065,2082,2166,2082,2056,2050,1195
1216,1710922785144446981,2051,2058,2149,2081,2056,2050,1195
1217,1710922785154463651,2053,2042,2004,2050,2057,2054,1195
1218,1710922785164444142,2054,2052,2047,2074,2035,2047,1193
1219,1710922785174444090,2064,2065,2046,2040,2046,2049,1196
1220,1710922785184445120,2048,2030,2081,2066,2058,2060,1196
1221,1710922785194448373,2050,2035,1954,2060,2056,2049,1194
1222,1710922785204445817,2033,2015,1870,2065,2065,2056,1196
1223,1710922785214448921,2050,2038,1992,2048,2048,2039,1192
1224,1710922785224446143,2051,2074,2152,2072,2048,2045,1193
1225,1710922785234454086,2049,2052,2180,2050,2057,2058,1195
1226,1710922785244448103,2054,2044,2015,2043,2039,2046,1191
1227,1710922785254446498,2060,2045,2005,2050,2046,2047,1193
1228,1710922785264452076,2049,2049,2069,2055,2043,2050,1197
1229,1710922785274454018,2055,2056,2069,2061,2067,2052,1194
1230,1710922785284455730,2060,2058,2060,2080,2062,2058,1197
1231,1710922785294446690,2050,2059,2126,2101,2053,2047,1193
1232,1710922785304460444,2056,2071,2084,2048,2041,2050,1196
1233,1710922785314450503,2053,2031,1905,2062,2066,2057,1195
1234,1710922785324450992,2041,2045,2032,2053,2052,2042,1193
1235,1710922785334451161,2052,2064,2112,2064,2060,2057,1195
1236,1710922785344455987,2077,2094,2140,2068,2064,2067,1192
1237,1710922785354451306,2054,2076,2186,1995,2052,2047,1194
1238,1710922785364469349,2048,2056,2157,2022,2036,2052,1195
1239,1710922785374452374,2064,2063,1956,2075,2053,2050,1196
1240,1710922785384455268,2047,2049,2068,2056,2060,2060,1196
1241,1710922785394463161,2064,2095,2072,2065,2041,2038,1194
1242,1710922785404451447,2050,2047,1966,2056,2053,2050,1197
1243,1710922785414454661,2069,2066,2143,2044,2056,2066,1197
1244,1710922785424454769,2044,2040,2020,2052,2056,2045,1192
1245,1710922785434454877,2037,2036,2047,2050,2029,2036,1192
1246,1710922785444452390,2043,2038,2036,2049,2053,2066,1196
1247,1710922785454462076,2057,2064,2024,2046,2048,2045,1192
1248,1710922785464458958,2034,2034,2015,2048,2048,2040,1193
1249,1710922785474455290,2057,2047,2100,2068,2084,2066,1194
1250,1710922785484464094,2060,2052,2014,2032,2051,2056,1196
1251,1710922785494462219,2040,2037,2029,2047,2034,2038,1193
1252,1710922785504431869,2044,2032,2060,2084,2071,2060,1195
1253,1710922785514457555,2058,2050,1985,2056,2053,2050,1196
1254,1710922785524441303,2051,2073,2120,2055,2043,2049,1195
1255,1710922785534439728,2053,2046,2031,2044,2040,2042,1192
1256,1710922785544458912,2072,2112,2378,2073,2074,2077,1196
1257,1710922785554456916,2046,2040,1997,2079,2053,2042,1194
1258,1710922785564444661,2054,2044,2034,2074,2057,2047,1192
1259,1710922785574442565,2049,2055,2055,2041,2057,2052,1195
1260,1710922785584444517,2046,2048,2108,2050,2056,2052,1195
1261,1710922785594413506,2056,2077,2101,2043,2046,2045,1193
1262,1710922785604406381,2064,2069,2065,2077,2076,2072,1196
1263,1710922785614406398,2053,2060,2076,2052,2052,2049,1195
1264,1710922785624444448,2064,2059,2022,2084,2062,2058,1194
1265,1710922785634462491,2045,2045,2057,2080,2038,2045,1193
1266,1710922785644444444,2058,2079,2081,2047,2037,2056,1197
1267,1710922785654465072,2045,2059,2036,2074,2050,2051,1195
1268,1710922785664446825,2066,2056,2101,2084,2056,2058,1196
1269,1710922785674447915,2049,2041,2067,2058,2050,2050,1195
1270,1710922785684444276,2053,2066,2068,2106,2056,2053,1197
1271,1710922785694464352,2045,2030,1949,2062,2046,2047,1194
1272,1710922785704453549,2050,2050,2046,2044,2054,2060,1197
1273,1710922785714447476,2062,2082,2025,2046,2051,2058,1198
1274,1710922785724447484,2060,2046,1992,2064,2050,2052,1196
1275,1710922785734446871,2054,2053,2022,2049,2053,2053,1196
1276,1710922785744448051,2044,2060,2068,2060,2060,2056,1196
1277,1710922785754430386,2056,2048,2024,2097,2058,2053,1196
1278,1710922785764442206,2059,2061,2063,2048,2054,2057,1196
1279,1710922785774444618,2057,2053,2049,2032,2046,2048,1195
1280,1710922785784469082,2041,2040,2017,2047,2050,2052,1194
1281,1710922785794451868,2070,2083,2205,2036,2058,2056,1195
1282,1710922785804443360,2056,2054,2036,2047,2060,2042,1193
1283,1710922785814452164,2052,2046,1994,2033,2056,2058,1195
1284,1710922785824449687,2049,2047,2015,2036,2040,2047,1193
1285,1710922785834442863,2072,2085,2216,2090,2056,2057,1196
1286,1710922785844456096,2066,2070,2083,2037,2049,2054,1195
1287,1710922785854454240,2044,2036,2056,2038,2056,2047,1193
1288,1710922785864401037,2052,2045,2004,2047,2049,2055,1196
1289,1710922785874460688,2052,2050,2042,2024,2037,2047,1194
1290,1710922785884457741,2060,2053,2065,2074,2061,2063,1193
1291,1710922785894439574,2047,2039,2015,2057,2048,2052,1196
1292,1710922785904459830,2056,2045,2003,2054,2052,2054,1197
1293,1710922785914447676,2065,2056,2019,2059,2053,2059,1196
1294,1710922785924441682,2052,2048,2009,2077,2064,2068,1197
1295,1710922785934444575,2061,2060,2170,2056,2064,2052,1196
1296,1710922785944399277,2061,2078,2150,2068,2056,2052,1195
1297,1710922785954447807,2044,2018,1941,2044,2043,2040,1192
1298,1710922785964443948,2044,2022,1982,2045,2049,2067,1196
1299,1710922785974441361,2043,2044,2048,2048,2052,2045,1192
1300,1710922785984442531,2056,2040,1973,2088,2062,2053,1195
1301,1710922785994446688,2057,2070,2052,2049,2046,2056,1196
1302,1710922786004449120,2062,2057,2056,2053,2068,2054,1196
1303,1710922786014466120,2056,2047,2038,2054,2041,2049,1198
1304,1710922786024442373,2060,2078,2057,2101,2067,2054,1196
1305,1710922786034442100,2039,2027,2036,2037,2036,2041,1192
1306,1710922786044464661,2046,2057,2060,2085,2056,2056,1193
1307,1710922786054448248,2059,2052,2055,2041,2047,2050,1197
1308,1710922786064446182,2044,2029,1938,2037,2045,2053,1195
1309,1710922786074443094,2055,2040,1987,2026,2047,2052,1195
1310,1710922786084446869,2053,2045,1977,2073,2067,2049,1197
1311,1710922786094468177,2047,2053,2024,2057,2045,2047,1193
1312,1710922786104453718,2048,2068,2087,2052,2056,2049,1196
1313,1710922786114438387,2047,2034,1986,2050,2047,2052,1195
1314,1710922786124446580,2057,2038,2012,2097,2064,2052,1196
1315,1710922786134451287,2065,2085,2146,2053,2054,2064,1197
1316,1710922786144473798,2060,2058,2036,2043,2066,2054,1195
1317,1710922786154453237,2051,2037,2004,2065,2068,2050,1198
1318,1710922786164448286,2041,2021,1997,2049,2057,2050,1197
1319,1710922786174445027,2065,2071,2009,2077,2050,2056,1197
1320,1710922786184447009,2072,2083,2143,2050,2051,2050,1193
1321,1710922786194471794,2065,2047,2041,2040,2049,2060,1197
1322,1710922786204438829,2050,2063,2185,2081,2053,2054,1194
1323,1710922786214440992,2047,2041,2001,2058,2052,2048,1196
1324,1710922786224443584,2049,2033,1995,2049,2048,2053,1197
1325,1710922786234443893,2070,2070,2024,2048,2036,2049,1197
1326,1710922786244456535,2043,2043,2049,2046,2049,2047,1194
1327,1710922786254446373,2047,2048,2016,2035,2056,2050,1196
1328,1710922786264458805,2062,2076,2192,2054,2052,2056,1197
1329,1710922786274443634,2041,2045,2020,2059,2061,2042,1195
1330,1710922786284467497,2049,2028,2002,2056,2057,2060,1197
1331,1710922786294467115,2056,2058,2077,2050,2053,2047,1194
1332,1710922786304445091,2048,2049,2073,2057,2064,2060,1196
1333,1710922786314437354,2057,2046,2031,2051,2048,2057,1196
1334,1710922786324446189,2042,2037,2030,2040,2040,2041,1194
1335,1710922786334450294,2052,2042,2029,2035,2065,2066,1196
1336,1710922786344503423,2060,2044,2097,2045,2051,2042,1193
1337,1710922786354439219,2040,2052,2058,2044,2037,2051,1195
1338,1710922786364443355,2043,2064,2088,2049,2056,2042,1193
1339,1710922786374442051,2058,2055,2008,2072,2040,2054,1197
1340,1710922786384446597,2055,2057,2084,2048,2049,2048,1192
1341,1710922786394450363,2063,2062,2049,2061,2057,2057,1195
1342,1710922786404441664,2050,2031,2081,2056,2058,2052,1193
1343,1710922786414443405,2042,2024,1926,2033,2039,2041,1191
1344,1710922786424440347,2046,2031,2004,2046,2045,2034,1192
1345,1710922786434441217,2049,2068,2166,2060,2061,2062,1195
1346,1710922786444450122,2048,2000,1781,1988,2045,2040,1193
1347,1710922786454457323,2044,2020,1928,2014,2052,2061,1198
1348,1710922786464435440,2055,2049,2004,2047,2025,2037,1194
1349,1710922786474441009,2047,2025,1961,2061,2054,2055,1197
1350,1710922786484445274,2040,2021,1849,2056,2046,2042,1195
1351,1710922786494448188,2052,2040,1921,2013,2060,2053,1195
1352,1710922786504448616,2038,2022,1978,2045,2046,2041,1195
1353,1710922786514449175,2061,2038,2020,2037,2042,2039,1194
1354,1710922786524446118,2074,2080,2060,2058,2054,2076,1194
1355,1710922786534446166,2062,2090,2156,2068,2076,2050,1195
1356,1710922786544484526,2044,2031,1958,2080,2050,2048,1196
1357,1710922786554445671,2050,2046,2144,1987,2046,2059,1197
1358,1710922786564444647,2069,2063,2045,2037,2056,2056,1197
1359,1710922786574444404,2038,2021,2004,2025,2036,2026,1193
1360,1710922786584458619,2043,2038,2056,2070,2046,2046,1190
1361,1710922786594649759,2055,2059,2054,2040,2044,2046,1194
1362,1710922786604438116,2056,2054,2058,2047,2026,2064,1196
1363,1710922786614446791,2057,2065,2144,2062,2081,2079,1194
1364,1710922786624445446,2047,2040,2024,2041,2049,2037,1192
1365,1710922786634445374,2046,2014,1970,2053,2077,2043,1193
1366,1710922786644482102,2050,2058,2202,2061,2084,2084,1194
1367,1710922786654444578,2036,2041,1996,2049,2045,2037,1193
1368,1710922786664449004,2059,2033,1979,2026,2020,2044,1196
1369,1710922786674458290,2065,2056,2075,2053,2056,2064,1197
1370,1710922786684427550,2052,2032,1989,2074,2061,2048,1197
1371,1710922786694457194,2043,2022,1977,2045,2052,2054,1196
1372,1710922786704445199,2068,2080,2098,2065,2053,2049,1197
1373,1710922786714445398,2054,2065,2094,2046,2047,2040,1193
1374,1710922786724448171,2077,2077,2140,2060,2064,2056,1194
1375,1710922786734447577,2046,2049,2036,2060,2058,2057,1197
1376,1710922786744488643,2054,2080,2164,2045,2046,2049,1195
1377,1710922786754451170,2041,2008,1947,2043,2054,2052,1196
1378,1710922786764453012,2061,2051,2125,2057,2081,2085,1196
1379,1710922786774452860,2041,2044,2029,2052,2062,2040,1194
1380,1710922786784452757,2060,2048,2062,2056,2058,2051,1194
1381,1710922786794425614,2050,2046,1980,2052,2019,2058,1196
1382,1710922786804453475,2043,2030,2030,2052,2050,2058,1195
1383,1710922786814454073,2056,2058,2040,2060,2057,2051,1195
1384,1710922786824454813,2046,2041,2029,2056,2047,2045,1189
1385,1710922786834456895,2072,2126,2472,2054,2062,2054,1196
1386,1710922786844471410,2064,2061,2043,2064,2070,2072,1198
1387,1710922786854455458,2045,2070,2015,2061,2057,2054,1192
1388,1710922786864453973,2057,2081,2096,2066,2060,2045,1192
1389,1710922786874453511,2053,2057,2048,2041,2037,2057,1196
1390,1710922786884474378,2063,2053,2025,2068,2053,2053,1197
1391,1710922786894458706,2048,2044,2024,2038,2037,2042,1193
1392,1710922786904453544,2059,2056,2043,2061,2079,2064,1194
1393,1710922786914454534,2046,2064,2130,2058,2056,2041,1192
1394,1710922786924449583,2052,2043,2035,2053,2047,2044,1192
1395,1710922786934445753,2056,2072,2077,2064,2063,2073,1196
1396,1710922786944459838,2052,2057,2053,2053,2033,2031,1194
1397,1710922786954459055,2051,2044,2030,2051,2048,2051,1194
1398,1710922786964438854,2040,2028,2016,2051,2052,2052,1196
1399,1710922786974441998,2063,2068,2144,2060,2068,2062,1196
1400,1710922786984443438,2056,2045,2028,2049,2052,2051,1192
1401,1710922786994399814,2056,2056,2052,2054,2050,2044,1192
1402,1710922787004445228,2061,2082,2100,2059,2054,2054,1194
1403,1710922787014458872,2061,2076,2120,2061,2049,2052,1193
1404,1710922787024447348,2043,2060,2130,2049,2035,2050,1195
1405,1710922787034444120,2056,2060,2180,2047,2056,2050,1194
1406,1710922787044445090,2051,2047,1988,2059,2049,2045,1192
1407,1710922787054460857,2058,2046,2073,2049,2049,2068,1195
1408,1710922787064451628,2056,2060,2100,2067,2058,2052,1197
1409,1710922787074447027,2066,2083,2145,2056,2047,2054,1195
1410,1710922787084444220,2045,2058,2082,2062,2062,2047,1193
1411,1710922787094443236,2066,2052,1973,2049,2056,2058,1196
1412,1710922787104445588,2050,2053,2008,2042,2050,2040,1195
1413,1710922787114423183,2048,2044,2040,2048,2047,2045,1193
1414,1710922787124447869,2057,2048,1981,2055,2043,2049,1195
1415,1710922787134401168,2053,2056,2052,2054,2064,2057,1196
1416,1710922787144445570,2056,2072,2080,2054,2048,2047,1193
1417,1710922787154446890,2056,2049,2009,2057,2053,2058,1194
1418,1710922787164452739,2053,2036,2168,2050,2044,2046,1193
1419,1710922787174416248,2046,2033,1977,2056,2053,2050,1197
1420,1710922787184448748,2068,2067,2205,2044,2044,2053,1194
1421,1710922787194449086,2056,2041,2034,2052,2050,2046,1194
1422,1710922787204449716,2053,2056,2060,2057,2048,2053,1195
1423,1710922787214447299,2054,2047,2060,2038,2040,2052,1194
1424,1710922787224449220,2050,2058,2054,2057,2058,2046,1192
1425,1710922787234445862,2056,2060,2076,2042,2045,2053,1194
1426,1710922787244444998,2047,2037,2007,2056,2056,2053,1195
1427,1710922787254443113,2050,2036,2000,2057,2050,2050,1194
1428,1710922787264487835,2046,2051,2056,2053,2054,2041,1194
1429,1710922787274453718,2056,2066,2056,2047,2050,2057,1198
1430,1710922787284447325,2045,2045,2013,2057,2047,2046,1194
1431,1710922787294513548,2079,2064,2039,2058,2054,2062,1197
1432,1710922787304442932,2052,2026,1877,2066,2058,2068,1197
1433,1710922787314465112,2048,2038,1963,2049,2049,2052,1195
1434,1710922787324455492,2060,2058,2011,2060,2061,2057,1196
1435,1710922787334458295,2061,2046,2032,2050,2052,2056,1196
1436,1710922787344449907,2072,2129,2237,2075,2057,2056,1195
1437,1710922787354447600,2064,2065,1980,2060,2048,2046,1193
1438,1710922787364452198,2053,2045,1990,2057,2047,2065,1195
1439,1710922787374488354,2041,2044,2025,2053,2045,2045,1194
1440,1710922787384464346,2048,2046,1999,2046,2044,2045,1193
1441,1710922787394463162,2059,2060,2098,2048,2056,2050,1197
1442,1710922787404451568,2052,2032,2000,2069,2056,2057,1197
1443,1710922787414473197,2042,2024,2132,2045,2047,2043,1193
1444,1710922787424451674,2053,2052,2072,2045,2048,2054,1193
1445,1710922787434447113,2053,2063,2163,2053,2052,2052,1195
1446,1710922787444443986,2057,2056,2047,2061,2063,2054,1196
1447,1710922787454441769,2052,2043,2004,2057,2051,2046,1192
1448,1710922787464447969,2045,2040,1988,2043,2046,2045,1194
1449,1710922787474464418,2057,2037,2022,2060,2052,2044,1193
1450,1710922787484455780,2048,2043,2021,2066,2065,2056,1196
1451,1710922787494439357,2053,2048,2092,2051,2048,2053,1195
1452,1710922787504441599,2056,2057,2039,2055,2050,2057,1196
1453,1710922787514442859,2060,2040,2038,2054,2060,2060,1197
1454,1710922787524448548,2052,2068,2084,2058,2045,2047,1193
1455,1710922787534451291,2071,2083,2136,2057,2052,2056,1195
1456,1710922787544442672,2042,2065,2172,2057,2052,2056,1196
1457,1710922787554442170,2054,2057,2060,2056,2061,2052,1195
1458,1710922787564441857,2053,2055,2042,2055,2050,2050,1195
1459,1710922787574440573,2057,2056,2022,2050,2058,2056,1196
1460,1710922787584452363,2057,2072,2089,2064,2058,2051,1195
1461,1710922787594461347,2052,2047,1995,2056,2056,2053,1194
1462,1710922787604443232,2060,2057,2022,2060,2056,2058,1196
1463,1710922787614470882,2045,2044,2032,2035,2046,2049,1193
1464,1710922787624467854,2055,2051,2052,2052,2047,2051,1195
1465,1710922787634449146,2056,2048,1992,2056,2051,2050,1195
1466,1710922787644448183,2058,2070,2118,2064,2070,2059,1195
1467,1710922787654447960,2065,2092,2256,2064,2062,2064,1197
1468,1710922787664443249,2056,2049,2028,2061,2056,2054,1193
1469,1710922787674454488,2063,2052,1991,2049,2052,2056,1196
1470,1710922787684453254,2050,2032,1964,2061,2052,2052,1195
1471,1710922787694452290,2061,2056,2093,2066,2055,2050,1196
1472,1710922787704444263,2049,2046,2038,2049,2054,2064,1198
1473,1710922787714442277,2056,2056,2072,2048,2049,2051,1195
1474,1710922787724449980,2056,2060,2060,2065,2061,2057,1195
1475,1710922787734448766,2060,2055,2041,2060,2059,2062,1195
1476,1710922787744448433,2048,2041,2018,2059,2058,2057,1196
1477,1710922787754448290,2066,2074,2136,2069,2058,2048,1196
1478,1710922787764452296,2060,2074,2104,2058,2060,2056,1194
1479,1710922787774468755,2052,2045,2040,2050,2050,2046,1192
1480,1710922787784453394,2064,2066,2057,2054,2056,2064,1194
1481,1710922787794437051,2054,2068,2057,2043,2052,2051,1200
1482,1710922787804429445,2067,2077,2101,2061,2064,2065,1194
1483,1710922787814438239,2038,2029,1986,2058,2050,2050,1196
1484,1710922787824442555,2063,2056,2056,2061,2053,2058,1194
1485,1710922787834460066,2051,2046,2015,2053,2051,2055,1194
1486,1710922787844468290,2050,2040,2036,2072,2056,2052,1195
1487,1710922787854443531,2059,2053,2085,2045,2037,2047,1192
1488,1710922787864446294,2053,2064,2124,2062,2056,2053,1195
1489,1710922787874445741,2059,2044,2088,2054,2046,2057,1197
1490,1710922787884446771,2050,2066,2147,2068,2073,2064,1197
1491,1710922787894448542,2056,2062,2109,2046,2043,2053,1194
1492,1710922787904443461,2053,2056,2056,2057,2054,2046,1196
1493,1710922787914453637,2064,2088,2090,2070,2058,2062,1198
1494,1710922787924445661,2053,2054,2051,2055,2062,2059,1195
1495,1710922787934442763,2044,2050,2060,2056,2047,2041,1194
1496,1710922787944487496,2068,2092,2197,2068,2053,2060,1195
1497,1710922787954447929,2053,2052,2056,2056,2051,2050,1196
1498,1710922787964448278,2046,2041,2009,2052,2052,2049,1195
1499,1710922787974445210,2060,2053,2032,2065,2045,2041,1193
1500,1710922787984451549,2065,2034,1963,2060,2062,2068,1194
1501,1710922787994462388,2044,2027,1979,2042,2047,2038,1192
1502,1710922788004476443,2065,2056,2067,2056,2049,2052,1196
1503,1710922788014451693,2060,2064,2057,2059,2056,2055,1198
1504,1710922788024468002,2051,2052,2042,2047,2057,2052,1196
1505,1710922788034447021,2056,2060,2097,2056,2053,2051,1197
1506,1710922788044492004,2059,2034,1973,2056,2052,2052,1197
1507,1710922788054449241,2056,2028,1859,2058,2063,2052,1197
1508,1710922788064438819,2040,2034,1997,2049,2036,2045,1192
1509,1710922788074446591,2052,2047,2040,2052,2052,2050,1196
1510,1710922788084444526,2056,2057,2073,2061,2056,2050,1195
1511,1710922788094443572,2060,2045,2004,2058,2066,2068,1195
1512,1710922788104445103,2049,2041,2017,2050,2045,2047,1194
1513,1710922788114448457,2042,2049,2065,2049,2041,2046,1193
1514,1710922788124444027,2056,2066,2240,2050,2062,2069,1196
1515,1710922788134446680,2050,2051,2046,2052,2047,2044,1194
1516,1710922788144452358,2048,2030,2035,2039,2042,2043,1194
1517,1710922788154445192,2057,2048,2010,2063,2055,2050,1197
1518,1710922788164447465,2045,2032,2014,2037,2050,2056,1197
1519,1710922788174445329,2047,2034,1992,2044,2045,2051,1197
1520,1710922788184447050,2056,2036,2011,2049,2045,2054,1195
1521,1710922788194466765,2048,2056,2062,2065,2063,2044,1192
1522,1710922788204449611,2056,2061,2038,2052,2058,2060,1196
1523,1710922788214442806,2047,2042,2011,2044,2046,2046,1192
1524,1710922788224438646,2052,2053,2034,2056,2054,2056,1196
1525,1710922788234438583,2057,2056,2033,2053,2056,2059,1195
1526,1710922788244441597,2051,2036,1970,2056,2057,2045,1192
1527,1710922788254445042,2061,2046,2047,2054,2052,2066,1196
1528,1710922788264443988,2058,2049,2109,2068,2058,2056,1196
1529,1710922788274438095,2049,2043,2080,2053,2051,2052,1195
1530,1710922788284445106,2061,2078,2132,2058,2056,2053,1195
1531,1710922788294449292,2046,2044,2022,2050,2052,2056,1196
1532,1710922788304444300,2050,2048,2060,2044,2057,2055,1197
1533,1710922788314434910,2056,2065,2164,2053,2050,2050,1196
1534,1710922788324422474,2038,2024,1979,2052,2050,2060,1195
1535,1710922788334444675,2040,2037,2003,2053,2046,2044,1193
1536,1710922788344446687,2073,2068,2057,2064,2062,2062,1197
1537,1710922788354451774,2061,2049,2053,2056,2059,2059,1195
1538,1710922788364452664,2059,2038,1921,2061,2068,2053,1193
1539,1710922788374382489,2052,2057,2042,2052,2044,2050,1197
1540,1710922788384447640,2056,2079,2075,2062,2052,2047,1189
1541,1710922788394457456,2075,2073,2144,2067,2064,2080,1195
1542,1710922788404448287,2045,2042,2012,2041,2051,2044,1193
1543,1710922788414448616,2046,2045,2009,2044,2038,2047,1193
1544,1710922788424443194,2085,2086,2248,2078,2070,2062,1196
1545,1710922788434448001,2038,2038,2011,2045,2050,2043,1194
1546,1710922788444465843,2049,2046,2106,2042,2048,2051,1197
1547,1710922788454455241,2045,2043,1986,2040,2055,2048,1196
1548,1710922788464447734,2060,2065,2123,2053,2058,2070,1194
1549,1710922788474445457,2048,2046,2037,2040,2052,2047,1193
1550,1710922788484404418,2047,2025,1950,2047,2047,2056,1197
1551,1710922788494389548,2050,2030,1926,2059,2053,2048,1196
1552,1710922788504447285,2041,2056,2090,2044,2048,2040,1195
1553,1710922788514444458,2065,2066,2068,2053,2054,2059,1196
1554,1710922788524445307,2041,2042,2060,2055,2040,2043,1194
1555,1710922788534445316,2061,2068,2193,2056,2056,2056,1194
1556,1710922788544450573,2056,2061,2109,2064,2056,2049,1196
1557,1710922788554446994,2063,2072,2166,2048,2052,2064,1196
1558,1710922788564385796,2065,2050,1944,2050,2050,2050,1197
1559,1710922788574445778,2056,2050,2065,2061,2053,2056,1196
1560,1710922788584432641,2045,2060,2160,2060,2064,2049,1193
1561,1710922788594445844,2052,2032,1950,2056,2049,2051,1196
1562,1710922788604448236,2064,2040,1989,2061,2059,2046,1192
1563,1710922788614447313,2082,2092,2154,2072,2077,2092,1194
1564,1710922788624448102,2041,2040,2102,2045,2036,2040,1194
1565,1710922788634455133,2042,2038,2011,2046,2045,2036,1194
1566,1710922788644454560,2061,2129,2317,2075,2073,2066,1196
1567,1710922788654463505,2063,2063,2147,2064,2058,2060,1196
1568,1710922788664449617,2061,2062,2078,2061,2042,2048,1196
1569,1710922788674449785,2052,2047,2024,2056,2054,2058,1197
1570,1710922788684474630,2027,2036,2052,2068,2053,2052,1196
1571,1710922788694449671,2052,2045,2042,2037,2046,2043,1192
1572,1710922788704454638,2061,2076,2110,2040,2040,2047,1192
1573,1710922788714451019,2038,2036,2075,2056,2051,2048,1196
1574,1710922788724400281,2058,2069,2138,2068,2070,2058,1197
1575,1710922788734508815,2061,2072,2236,2069,2057,2052,1194
1576,1710922788744467164,2049,2030,2015,2043,2048,2052,1195
1577,1710922788754454818,2056,2053,2100,2062,2068,2064,1198
1578,1710922788764455006,2059,2062,2046,2064,2049,2053,1195
1579,1710922788774454955,2043,2058,2129,2049,2053,2049,1196
1580,1710922788784454472,2047,2044,1981,2046,2057,2042,1192
1581,1710922788794452746,2066,2088,2112,2057,2054,2072,1196
1582,1710922788804455228,2065,2081,2086,2064,2052,2052,1195
1583,1710922788814455728,2060,2048,2039,2047,2052,2062,1196
1584,1710922788824457168,2053,2077,2141,2061,2067,2052,1196
1585,1710922788834454722,2064,2053,2157,2053,2058,2061,1196
1586,1710922788844455250,2048,2041,2040,2055,2045,2046,1194
1587,1710922788854457934,2042,2040,2032,2049,2066,2045,1192
1588,1710922788864441811,2068,2038,2024,2057,2049,2058,1195
1589,1710922788874441548,2050,2040,2045,2041,2050,2061,1194
1590,1710922788884459630,2050,2048,2045,2051,2043,2041,1193
1591,1710922788894461382,2059,2088,2125,2050,2064,2054,1197
1592,1710922788904458044,2080,2132,2170,2079,2067,2067,1198
1593,1710922788914366949,2054,2052,2061,2060,2044,2046,1193
1594,1710922788924460654,2056,2051,2076,2057,2061,2052,1196
1595,1710922788934461344,2050,2055,2097,2050,2056,2049,1196
1596,1710922788944444209,2066,2076,2009,2069,2041,2044,1192
1597,1710922788954464205,2068,2058,2144,2058,2053,2080,1197
1598,1710922788964446469,2052,2052,2060,2052,2052,2044,1194
1599,1710922788974445766,2057,2055,2042,2053,2045,2049,1196
1600,1710922788984484988,2041,2048,2060,2060,2047,2044,1192
1601,1710922788994468084,2089,2169,2367,2073,2072,2080,1194
1602,1710922789004463994,2041,2036,2026,2046,2050,2053,1194
1603,1710922789014440979,2057,2051,2024,2052,2045,2042,1193
1604,1710922789024444714,2050,2046,2027,2056,2044,2052,1196
1605,1710922789034443840,2048,2046,2117,2047,2051,2050,1196
1606,1710922789044454999,2056,2057,1992,2061,2049,2060,1195
1607,1710922789054439117,2065,2069,2088,2062,2057,2053,1196
1608,1710922789064443774,2049,2040,2000,2056,2054,2052,1196
1609,1710922789074443521,2056,2037,1936,2060,2069,2053,1196
1610,1710922789084447547,2048,2039,2004,2057,2060,2064,1197
1611,1710922789094446543,2055,2074,2172,2053,2047,2044,1195
1612,1710922789104454646,2052,2042,2035,2062,2052,2048,1196
1613,1710922789114431791,2065,2040,1896,2068,2069,2062,1196
1614,1710922789124442920,2060,2085,2101,2056,2056,2056,1196
1615,1710922789134441325,2055,2058,2032,2052,2046,2048,1196
1616,1710922789144464647,2057,2076,2244,2048,2056,2046,1192
1617,1710922789154446481,2056,2041,2003,2059,2050,2048,1194
1618,1710922789164448612,2065,2043,1974,2052,2049,2053,1196
1619,1710922789174445173,2043,2036,2016,2056,2056,2053,1197
1620,1710922789184449791,2060,2038,1967,2058,2044,2064,1194
1621,1710922789194452584,2042,2073,2188,2057,2044,2042,1192
1622,1710922789204443224,2064,2089,2234,2078,2059,2056,1195
1623,1710922789214451658,2057,2050,2037,2060,2059,2061,1196
1624,1710922789224445324,2056,2050,2126,2052,2052,2056,1196
1625,1710922789234444420,2049,2044,2017,2029,2044,2041,1190
1626,1710922789244444057,2067,2108,2190,2061,2056,2056,1197
1627,1710922789254445828,2060,2030,1951,2064,2064,2052,1193
1628,1710922789264445757,2046,2020,1971,2050,2056,2051,1193
1629,1710922789274449281,2056,2067,2069,2047,2041,2040,1193
1630,1710922789284446744,2058,2060,2218,2058,2064,2053,1195
1631,1710922789294441593,2059,2044,2029,2039,2056,2067,1195
1632,1710922789304436190,2054,2038,2019,2051,2046,2043,1194
1633,1710922789314433223,2064,2090,2201,2074,2057,2068,1197
1634,1710922789324449942,2043,2030,1970,2056,2061,2056,1196
1635,1710922789334448176,2056,2036,1984,2064,2070,2056,1194
1636,1710922789344446512,2051,2057,2008,2047,2044,2046,1194
1637,1710922789354441229,2062,2073,2083,2060,2065,2061,1196
1638,1710922789364447439,2054,2068,2089,2053,2047,2050,1196
1639,1710922789374450623,2072,2059,2081,2053,2059,2056,1197
1640,1710922789384448077,2044,2040,2018,2056,2048,2052,1196
1641,1710922789394446742,2050,2047,2138,2057,2051,2042,1194
1642,1710922789404451599,2047,2045,1987,2048,2045,2044,1192
1643,1710922789414445275,2064,2065,2080,2056,2068,2063,1196
1644,1710922789424447497,2049,2045,2066,2051,2061,2050,1196
1645,1710922789434451593,2052,2044,2018,2056,2053,2055,1195
1646,1710922789444449326,2059,2041,2005,2050,2050,2045,1194
1647,1710922789454488559,2058,2051,2018,2031,2044,2066,1196
1648,1710922789464451667,2049,2050,2064,2052,2052,2044,1194
1649,1710922789474449992,2064,2056,2094,2059,2053,2051,1196
1650,1710922789484454298,2055,2068,2133,2056,2057,2057,1198
1651,1710922789494445078,2053,2076,2174,2048,2053,2044,1192
1652,1710922789504450467,2060,2066,2065,2042,2054,2053,1197
1653,1710922789514448631,2053,2055,2078,2053,2054,2053,1197
1654,1710922789524451103,2052,2072,2206,2058,2048,2055,1196
1655,1710922789534451282,2064,2052,1920,2068,2074,2062,1196
1656,1710922789544490144,2042,2045,2020,2059,2042,2040,1193
1657,1710922789554429367,2056,2061,2056,2053,2057,2056,1196
1658,1710922789564443741,2058,2060,2106,2050,2066,2062,1195
1659,1710922789574451263,2054,2065,2084,2054,2068,2048,1194
1660,1710922789584457924,2050,2045,2045,2054,2048,2046,1191
1661,1710922789594492377,2040,2055,2018,2056,2046,2029,1192
1662,1710922789604453532,2081,2075,2135,2058,2064,2090,1196
1663,1710922789614441387,2040,2038,2031,2046,2040,2036,1193
1664,1710922789624480870,2061,2062,2036,2064,2049,2049,1194
1665,1710922789634448486,2051,2036,2112,2060,2047,2052,1194
1666,1710922789644496525,2056,2058,2094,2068,2052,2068,1192
1667,1710922789654452830,2056,2064,2038,2045,2045,2045,1192
1668,1710922789664449522,2060,2085,2148,2066,2056,2059,1195
1669,1710922789674448548,2058,2057,2035,2060,2052,2048,1196
1670,1710922789684452533,2040,2031,2026,2052,2049,2038,1193
1671,1710922789694449075,2058,2064,2147,2061,2052,2050,1197
1672,1710922789704453782,2066,2091,2053,2072,2072,2061,1197
1673,1710922789714442990,2057,2036,1961,2054,2044,2053,1194
1674,1710922789724443899,2057,2048,1997,2073,2062,2063,1195
1675,1710922789734441342,2070,2090,2128,2058,2062,2057,1195
1676,1710922789744448113,2056,2065,2085,2060,2059,2043,1195
1677,1710922789754448532,2037,2043,2048,2052,2049,2058,1194
1678,1710922789764444372,2057,2052,2062,2072,2041,2060,1196
1679,1710922789774450311,2064,2042,1905,2077,2057,2056,1194
1680,1710922789784450730,2048,2001,1847,2052,2034,2036,1192
1681,1710922789794449926,2060,2081,2168,2064,2064,2077,1194
1682,1710922789804452940,2047,2075,2076,2058,2056,2035,1192
1683,1710922789814450553,2089,2055,1977,2049,2058,2067,1196
1684,1710922789824446984,2027,2035,2025,2045,2032,2038,1195
1685,1710922789834449066,2038,2042,2069,2044,2046,2046,1193
1686,1710922789844454124,2046,2010,1848,2059,2056,2062,1195
1687,1710922789854446167,2072,2040,1881,2068,2060,2056,1197
1688,1710922789864452697,2052,2048,2072,2058,2050,2048,1196
1689,1710922789874445993,2048,2089,2166,2057,2046,2042,1193
1690,1710922789884450429,2072,2052,1939,2050,2064,2097,1197
1691,1710922789894523425,2060,2067,2108,2052,2050,2036,1192
1692,1710922789904459882,2066,2050,2074,2049,2056,2060,1196
1693,1710922789914450312,2049,2043,1997,2054,2045,2053,1197
1694,1710922789924449268,2040,2018,2088,2065,2036,2042,1193
1695,1710922789934447733,2053,2074,2117,2054,2055,2070,1195
1696,1710922789944449264,2044,2015,1910,2045,2045,2038,1194
1697,1710922789954449894,2061,2030,1983,2060,2062,2066,1196
1698,1710922789964448990,2042,2022,1978,2046,2060,2058,1196
1699,1710922789974427226,2056,2042,1956,2066,2053,2050,1195
1700,1710922789984451500,2047,2018,1884,2056,2042,2057,1195
1701,1710922789994466767,2052,2036,2032,2045,2040,2051,1195
1702,1710922790004455063,2064,2100,2243,2056,2057,2058,1196
1703,1710922790014467264,2047,2046,2113,2052,2049,2064,1194
1704,1710922790024451702,2040,2052,2040,2051,2058,2044,1194
1705,1710922790034470306,2053,2039,1947,2028,2044,2058,1195
1706,1710922790044451708,2044,2069,2100,2056,2053,2052,1196
1707,1710922790054459240,2050,2046,2026,2040,2030,2043,1193
1708,1710922790064449460,2043,2016,1961,2051,2053,2050,1197
1709,1710922790074450460,2050,2055,2069,2044,2045,2040,1192
1710,1710922790084453183,2069,2076,2111,2069,2062,2080,1195
1711,1710922790094453071,2052,2057,2042,2047,2045,2046,1192
1712,1710922790104454611,2047,2049,2089,2048,2044,2049,1196
1713,1710922790114455572,2055,2069,2152,2064,2070,2054,1197
1714,1710922790124453676,2053,2072,2085,2052,2052,2051,1195
1715,1710922790134450948,2053,2048,2056,2056,2050,2046,1193
1716,1710922790144453551,2047,2052,2051,2055,2061,2047,1195
1717,1710922790154451696,2070,2051,2101,2065,2063,2080,1196
1718,1710922790164455591,2040,2052,2002,2055,2042,2033,1192
1719,1710922790174454137,2056,2044,2002,2044,2050,2046,1194
1720,1710922790184455557,2059,2083,2130,2060,2056,2046,1193
1721,1710922790194455364,2058,2053,2072,2052,2047,2053,1194
1722,1710922790204458669,2043,2028,2012,2056,2052,2057,1194
1723,1710922790214460159,2059,2062,2039,2052,2053,2049,1196
1724,1710922790224457342,2057,2069,2210,2056,2044,2049,1195
1725,1710922790234456869,2054,2043,2030,2056,2037,2047,1192
1726,1710922790244454282,2052,2028,2086,2075,2061,2059,1196
1727,1710922790254454210,2053,2039,2013,2057,2061,2051,1194
1728,1710922790264499594,2040,2046,2082,2053,2043,2044,1192
1729,1710922790274457772,2068,2069,2071,2056,2056,2060,1196
1730,1710922790284457290,2052,2069,2171,2054,2056,2038,1193
1731,1710922790294439354,2068,2060,2093,2057,2052,2073,1194
1732,1710922790304442698,2053,2033,2011,2063,2052,2041,1192
1733,1710922790314481249,2034,2063,2070,2057,2047,2050,1196
1734,1710922790324479754,2052,2066,2082,2056,2049,2042,1195
1735,1710922790334437873,2061,2029,1895,2047,2056,2064,1195
1736,1710922790344445966,2046,2040,1993,2053,2046,2048,1196
1737,1710922790354446414,2053,2047,2056,2044,2048,2041,1194
1738,1710922790364446503,2048,2034,1983,2056,2046,2061,1196
1739,1710922790374451290,2051,2046,2035,2042,2049,2052,1196
1740,1710922790384460034,2052,2048,2073,2054,2053,2046,1194
1741,1710922790394439734,2047,2062,2134,2042,2047,2040,1195
1742,1710922790404446014,2061,2080,2169,2052,2061,2064,1196
1743,1710922790414457354,2045,2037,2002,2055,2047,2045,1193
1744,1710922790424449025,2049,2045,2054,2053,2047,2046,1192
1745,1710922790434446909,2058,2059,2030,2057,2064,2053,1197
1746,1710922790444445164,2064,2053,2033,2054,2054,2050,1196
1747,1710922790454445763,2045,2046,2020,2057,2052,2045,1193
1748,1710922790464443737,2049,2069,2057,2049,2049,2064,1195
1749,1710922790474455017,2072,2081,2076,2061,2065,2065,1196
1750,1710922790484441379,2050,2047,1985,2036,2046,2049,1196
1751,1710922790494443651,2060,2083,2099,2061,2060,2054,1193
1752,1710922790504474748,2060,2056,2084,2052,2060,2049,1195
1753,1710922790514512587,2044,2056,2060,2061,2048,2052,1197
1754,1710922790524449737,2062,2047,1964,2050,2062,2053,1196
1755,1710922790534448382,2061,2060,2015,2048,2043,2052,1195
1756,1710922790544446937,2051,2038,1958,2052,2056,2050,1195
1757,1710922790554443218,2051,2074,2232,2063,2056,2049,1196
1758,1710922790564443987,2064,2059,2047,2054,2058,2073,1195
1759,1710922790574444456,2051,2051,2070,2033,2049,2052,1196
1760,1710922790584453141,2055,2057,2086,2046,2042,2053,1195
1761,1710922790594464209,2052,2048,2054,2051,2047,2053,1196
1762,1710922790604446213,2057,2054,2024,2054,2048,2064,1195
1763,1710922790614466920,2065,2057,2084,2046,2038,2049,1196
1764,1710922790624469523,2056,2074,2111,2036,2056,2051,1196
1765,1710922790634451287,2056,2034,2015,2056,2052,2055,1197
1766,1710922790644390319,2072,2097,2242,2069,2066,2058,1196
1767,1710922790654441595,2063,2084,2152,2068,2056,2056,1196
1768,1710922790664445650,2048,2042,1982,2054,2045,2047,1193
1769,1710922790674463481,2047,2048,2048,2052,2061,2055,1196
1770,1710922790684455484,2056,2056,2020,2063,2056,2059,1198
1771,1710922790694418452,2060,2046,1937,2062,2053,2045,1193
1772,1710922790704446123,2060,2032,1976,2050,2053,2060,1197
1773,1710922790714443155,2047,2039,2042,2052,2049,2044,1194
1774,1710922790724451689,2052,2039,1982,2052,2056,2051,1198
1775,1710922790734451978,2063,2059,2010,2064,2061,2062,1198
1776,1710922790744434352,2064,2069,2075,2065,2056,2056,1196
1777,1710922790754443287,2047,2053,2048,2051,2047,2051,1195
1778,1710922790764442333,2052,2040,1980,2053,2047,2049,1196
1779,1710922790774458552,2049,2040,2008,2060,2053,2050,1198
1780,1710922790784402393,2045,2041,2052,2044,2055,2056,1196
1781,1710922790794406028,2072,2106,2282,2059,2055,2052,1196
1782,1710922790804455099,2044,2037,2000,2049,2047,2046,1194
1783,1710922790814443265,2056,2072,2099,2047,2053,2047,1193
1784,1710922790824445627,2062,2050,2047,2061,2062,2067,1197
1785,1710922790834462336,2072,2092,2116,2060,2060,2048,1197
1786,1710922790844442046,2042,2046,2053,2056,2058,2047,1193
1787,1710922790854436113,2057,2057,2094,2056,2051,2053,1194
1788,1710922790864448234,2053,2052,2001,2061,2041,2057,1195
1789,1710922790874445326,2050,2061,2091,2052,2048,2044,1192
1790,1710922790884431017,2058,2042,1976,2056,2053,2053,1197
1791,1710922790894445283,2044,2056,2020,2044,2052,2062,1194
1792,1710922790904447084,2056,2042,2024,2051,2053,2048,1195
1793,1710922790914447582,2072,2110,2394,2070,2072,2066,1196
1794,1710922790924445145,2042,2044,2050,2054,2050,2050,1197
1795,1710922790934445885,2071,2030,2010,2060,2059,2060,1196
1796,1710922790944445973,2036,2046,2049,2046,2056,2043,1194
1797,1710922790954438056,2056,2089,2216,2053,2041,2047,1193
1798,1710922790964441641,2056,2053,2024,2045,2059,2047,1194
1799,1710922790974447370,2050,2053,2048,2053,2053,2054,1197
1800,1710922790984453349,2049,2041,2031,2052,2052,2050,1193
1801,1710922790994426546,2058,2084,2099,2056,2060,2049,1195
1802,1710922791004437755,2056,2025,1897,2048,2051,2056,1196
1803,1710922791014445528,2039,2030,1968,2050,2052,2050,1194
1804,1710922791024443182,2050,2041,2045,2058,2058,2048,1195
1805,1710922791034442849,2054,2051,2004,2056,2050,2049,1196
1806,1710922791044446524,2064,2022,1864,2053,2055,2056,1193
1807,1710922791054439319,2051,2045,2118,2054,2046,2053,1196
1808,1710922791064445007,2052,2060,2074,2056,2052,2056,1196
1809,1710922791074441287,2055,2049,2013,2050,2047,2047,1193
1810,1710922791084454621,2046,2045,2086,2061,2057,2052,1197
1811,1710922791094447515,2067,2079,2280,2073,2065,2063,1196
1812,1710922791104444157,2056,2075,2176,2062,2052,2043,1192
1813,1710922791114443975,2060,2044,1996,2060,2057,2072,1196
1814,1710922791124443552,2065,2077,2077,2050,2047,2050,1196
1815,1710922791134445323,2068,2078,2140,2049,2039,2064,1196
1816,1710922791144447606,2063,2033,1939,2064,2068,2073,1195
1817,1710922791154446251,2038,2040,2130,2033,2049,2042,1194
1818,1710922791164440628,2039,2046,2041,2043,2044,2045,1194
1819,1710922791174442820,2033,2037,1916,2045,2044,2053,1196
1820,1710922791184403824,2052,2069,2137,2060,2056,2056,1193
1821,1710922791194452745,2054,2057,2032,2054,2046,2044,1192
1822,1710922791204420642,2059,2068,2085,2056,2064,2058,1198
1823,1710922791214449344,2068,2130,2320,2061,2057,2056,1196
1824,1710922791224442950,2056,2057,2052,2050,2047,2044,1192
1825,1710922791234441255,2057,2052,2053,2046,2050,2057,1194
1826,1710922791244445110,2055,2044,2008,2059,2045,2047,1192
1827,1710922791254444657,2058,2033,2023,2054,2051,2045,1194
1828,1710922791264447340,2056,2049,2040,2055,2056,2062,1198
1829,1710922791274447048,2059,2064,2136,2057,2058,2054,1196
1830,1710922791284451514,2069,2118,2309,2064,2065,2054,1197
1831,1710922791294451411,2056,2034,1949,2052,2058,2059,1197
1832,1710922791304462341,2036,2022,1913,2052,2052,2042,1194
1833,1710922791314448011,2049,2027,1976,2043,2047,2057,1195
1834,1710922791324444603,2057,2027,1955,2052,2056,2059,1197
1835,1710922791334446023,2042,2014,1920,2046,2046,2042,1194
1836,1710922791344435021,2033,2029,2033,2043,2047,2046,1193
1837,1710922791354433536,2064,2090,2188,2063,2056,2045,1193
1838,1710922791364449694,2069,2040,1859,2065,2057,2058,1195
1839,1710922791374445133,2065,2041,1954,2033,2046,2045,1192
1840,1710922791384466131,2056,2066,2032,2063,2063,2056,1195
1841,1710922791394453956,2064,2057,1986,2059,2049,2054,1195
1842,1710922791404444386,2037,2040,2060,2055,2049,2053,1196
1843,1710922791414406492,2059,2056,2070,2064,2056,2044,1193
1844,1710922791424445875,2046,2044,2036,2047,2049,2047,1193
1845,1710922791434444631,2053,2066,2103,2059,2058,2053,1196
1846,1710922791444446121,2050,2056,2017,2058,2061,2054,1194
1847,1710922791454489882,2064,2034,2019,2037,2047,2066,1194
1848,1710922791464453972,2052,2052,2043,2054,2050,2047,1193
1849,1710922791474398605,2060,2041,1949,2064,2051,2053,1196
1850,1710922791484400536,2049,2022,1985,2048,2046,2047,1192
1851,1710922791494447033,2053,2041,2045,2045,2052,2043,1193
1852,1710922791504405011,2054,2040,1981,2058,2056,2056,1196
1853,1710922791514453842,2060,2050,2047,2053,2050,2050,1193
1854,1710922791524447658,2047,2037,2024,2057,2052,2054,1195
1855,1710922791534444970,2067,2075,2122,2064,2058,2064,1196
1856,1710922791544444537,2063,2068,2104,2064,2059,2061,1195
1857,1710922791554433214,2048,2056,2056,2048,2060,2050,1196
1858,1710922791564444033,2070,2070,2117,2064,2065,2060,1194
1859,1710922791574446756,2072,2068,2106,2061,2062,2069,1196
1860,1710922791584464116,2047,2034,1949,2049,2042,2045,1190
1861,1710922791594457282,2069,2094,2269,2060,2061,2065,1194
1862,1710922791604422554,2045,2029,1962,2046,2054,2048,1193
1863,1710922791614449072,2063,2088,2162,2061,2050,2060,1194
1864,1710922791624443399,2050,2040,2032,2058,2054,2048,1195
1865,1710922791634443066,2052,2050,2046,2058,2053,2056,1196
1866,1710922791644385335,2049,2053,1982,2049,2047,2046,1192
1867,1710922791654443824,2060,2065,2075,2065,2060,2048,1194
1868,1710922791664420257,2074,2102,2191,2064,2063,2071,1194
1869,1710922791674440574,2052,2040,1989,2045,2054,2053,1195
1870,1710922791684422567,2040,2056,2124,2062,2052,2042,1194
1871,1710922791694464745,2064,2065,2106,2060,2060,2067,1195
1872,1710922791704446238,2041,2043,2017,2054,2042,2044,1192
1873,1710922791714449452,2063,2044,1973,2059,2062,2065,1197
1874,1710922791724447496,2047,2025,1970,2051,2041,2047,1192
1875,1710922791734447384,2054,2052,2056,2041,2049,2056,1192
1876,1710922791744448003,2052,2052,2044,2051,2047,2049,1194
1877,1710922791754447330,2056,2054,2067,2056,2046,2056,1194
1878,1710922791764446286,2052,2051,2040,2052,2051,2052,1196
1879,1710922791774447947,2059,2052,1963,2057,2044,2064,1195
1880,1710922791784428418,2051,2022,1952,2046,2050,2052,1194
1881,1710922791794453403,2045,2047,2060,2054,2048,2050,1195
1882,1710922791804446999,2047,2036,2007,2048,2044,2034,1193
1883,1710922791814446246,2045,2043,2025,2041,2052,2047,1193
1884,1710922791824444951,2057,2036,2072,2050,2056,2056,1194
1885,1710922791834445830,2050,2040,2020,2053,2053,2045,1193
1886,1710922791844448063,2056,2069,2217,2052,2043,2048,1196
1887,1710922791854446518,2053,2034,1979,2054,2056,2056,1197
1888,1710922791864448019,2064,2067,2085,2058,2058,2056,1196
1889,1710922791874388053,2052,2058,2082,2060,2054,2062,1197
1890,1710922791884453525,2053,2074,2112,2060,2047,2044,1195
1891,1710922791894402847,2058,2064,2079,2052,2058,2064,1195
1892,1710922791904451116,2052,2045,1998,2046,2040,2046,1193
1893,1710922791914448399,2062,2075,2153,2059,2054,2055,1195
1894,1710922791924453497,2041,2024,1956,2052,2063,2050,1195
1895,1710922791934459276,2062,2064,2052,2044,2049,2052,1198
1896,1710922791944448693,2057,2044,2015,2046,2057,2054,1196
1897,1710922791954448631,2044,2028,1932,2050,2051,2043,1193
1898,1710922791964460121,2054,2028,1864,2053,2056,2067,1195
1899,1710922791974448517,2045,2044,1994,2054,2051,2046,1192
1900,1710922791984450739,2050,2033,2040,2053,2047,2049,1194
1901,1710922791994449975,2057,2071,2140,2057,2060,2060,1197
1902,1710922792004450986,2051,2056,2092,2052,2044,2049,1195
1903,1710922792014450983,2057,2045,1965,2054,2061,2056,1197
1904,1710922792024450100,2051,2023,1989,2056,2056,2053,1194
1905,1710922792034450529,2047,2045,2024,2044,2058,2046,1193
1906,1710922792044451338,2053,2078,2123,2058,2058,2062,1194
1907,1710922792054451306,2058,2047,2030,2057,2052,2045,1192
1908,1710922792064452186,2060,2069,2086,2051,2056,2058,1197
1909,1710922792074488322,2050,2031,2030,2053,2055,2049,1196
1910,1710922792084453975,2057,2041,1986,2062,2053,2062,1195
1911,1710922792094451658,2052,2024,2020,2064,2049,2050,1193
1912,1710922792104456666,2044,2034,2096,2059,2051,2052,1198
1913,1710922792114455602,2048,2036,1917,2063,2050,2047,1194
1914,1710922792124455299,2053,2052,2088,2048,2044,2049,1194
1915,1710922792134436261,2042,2036,2020,2048,2056,2047,1194
1916,1710922792144455926,2051,2040,2009,2054,2052,2048,1197
1917,1710922792154455744,2058,2067,2034,2057,2052,2053,1197
1918,1710922792164456764,2050,2069,2089,2048,2060,2046,1192
1919,1710922792174457673,2053,2065,2132,2062,2052,2049,1195
1920,1710922792184457581,2050,2055,2089,2052,2053,2052,1194
1921,1710922792194458411,2069,2069,2101,2062,2060,2062,1195
1922,1710922792204465923,2054,2038,1990,2065,2050,2052,1196
1923,1710922792214474017,2055,2045,2087,2046,2049,2056,1196
1924,1710922792224479034,2052,2061,2057,2054,2049,2047,1192
1925,1710922792234439466,2049,2042,2040,2064,2068,2059,1194
1926,1710922792244443141,2058,2040,2031,2053,2046,2041,1192
1927,1710922792254443620,2056,2052,2048,2052,2063,2056,1194
1928,1710922792264443308,2041,2026,2067,2043,2045,2046,1192
1929,1710922792274460749,2050,2054,2130,2048,2038,2045,1192
1930,1710922792284466848,2061,2056,1953,2056,2052,2059,1194
1931,1710922792294434996,2056,2048,1996,2054,2048,2050,1195
1932,1710922792304442628,2056,2071,2130,2063,2054,2056,1196
1933,1710922792314439871,2066,2107,2452,2057,2062,2057,1193
1934,1710922792324445259,2056,2064,2099,2058,2061,2045,1194
1935,1710922792334449665,2070,2101,2264,2061,2059,2068,1197
1936,1710922792344447600,2056,2058,2097,2072,2048,2047,1193
1937,1710922792354446536,2040,2040,2025,2047,2044,2050,1195
1938,1710922792364446133,2061,2036,1964,2060,2053,2058,1194
1939,1710922792374426123,2044,2028,1968,2048,2045,2048,1195
1940,1710922792384445808,2082,2058,2035,2053,2060,2066,1193
1941,1710922792394437881,2054,2056,2032,2060,2047,2049,1196
1942,1710922792404442848,2059,2064,2045,2058,2049,2045,1192
1943,1710922792414443988,2042,2049,2078,2056,2064,2061,1195
1944,1710922792424444097,2060,2037,2002,2063,2048,2054,1196
1945,1710922792434447301,2062,2059,2139,2043,2040,2043,1192
1946,1710922792444471635,2034,2031,2027,2050,2047,2052,1195
1947,1710922792454438630,2058,2037,2000,2064,2057,2056,1195
1948,1710922792464446052,2061,2040,1950,2064,2052,2053,1196
1949,1710922792474442383,2064,2056,2093,2054,2068,2056,1195
1950,1710922792484469683,2059,2096,2100,2056,2045,2065,1197
1951,1710922792494453169,2073,2116,2236,2063,2058,2056,1197
1952,1710922792504443319,2054,2037,1995,2057,2046,2040,1193
1953,1710922792514439189,2059,2056,2104,2060,2056,2058,1197
1954,1710922792524440159,2062,2042,1952,2064,2061,2054,1196
1955,1710922792534445767,2053,2086,2127,2063,2070,2059,1196
1956,1710922792544450534,2043,2027,1993,2042,2041,2045,1192
1957,1710922792554444340,2062,2065,2097,2047,2042,2062,1197
1958,1710922792564448676,2060,2031,2031,2054,2053,2048,1195
1959,1710922792574442733,2034,2020,1989,2034,2037,2051,1195
1960,1710922792584448572,2050,2041,2039,2053,2046,2044,1192
1961,1710922792594446116,2050,2021,2038,2054,2055,2050,1197
1962,1710922792604458066,2060,2069,2196,2057,2057,2056,1196
1963,1710922792614447674,2062,2032,1957,2058,2051,2055,1195
1964,1710922792624449326,2064,2080,2176,2056,2055,2049,1195
1965,1710922792634469261,2060,2008,1790,2056,2044,2056,1193
1966,1710922792644447528,2053,2043,1969,2060,2042,2046,1193
1967,1710922792654447746,2058,2067,2120,2051,2067,2058,1196
1968,1710922792664445390,2085,2148,2290,2080,2069,2076,1196
1969,1710922792674443304,2055,2043,2032,2072,2051,2069,1196
1970,1710922792684453481,2056,2045,2000,2040,2040,2048,1197
1971,1710922792694482764,2058,2047,2080,2057,2081,2062,1196
1972,1710922792704459738,2053,2037,1989,2056,2053,2053,1196
1973,1710922792714448545,2057,2057,2105,2053,2043,2053,1196
1974,1710922792724448744,2065,2082,2124,2064,2056,2051,1195
1975,1710922792734445596,2030,2044,2052,2058,2040,2041,1193
1976,1710922792744467045,2044,2027,1944,2050,2061,2056,1195
1977,1710922792754452104,2056,2033,2043,2061,2056,2048,1195
1978,1710922792764447854,2046,2077,2278,2057,2052,2064,1195
1979,1710922792774443233,2044,2027,1989,2033,2044,2044,1195
1980,1710922792784446247,2056,2082,2155,2050,2050,2056,1193
1981,1710922792794466333,2054,2041,2024,2057,2056,2044,1196
1982,1710922792804449208,2052,2031,1956,2058,2046,2047,1194
1983,1710922792814450048,2062,2091,2158,2064,2044,2058,1196
1984,1710922792824447020,2061,2072,2096,2052,2057,2071,1195
1985,1710922792834445596,2044,2040,1995,2048,2043,2037,1192
1986,1710922792844451104,2053,2049,2053,2064,2051,2053,1195
1987,1710922792854447284,2040,2026,1972,2044,2037,2052,1195
1988,1710922792864461118,2050,2040,1994,2052,2042,2045,1192
1989,1710922792874446178,2056,2048,2030,2060,2057,2050,1196
1990,1710922792884469170,2056,2040,1996,2056,2050,2047,1194
1991,1710922792894447948,2058,2054,2026,2066,2072,2052,1196
1992,1710922792904437606,2063,2057,2024,2040,2048,2068,1197
1993,1710922792914451881,2048,2046,2033,2048,2044,2044,1194
1994,1710922792924446789,2052,2024,1922,2054,2053,2054,1195
1995,1710922792934445785,2056,2048,2056,2059,2057,2050,1196
1996,1710922792944444110,2064,2064,2060,2059,2070,2072,1195
1997,1710922792954443978,2060,2040,2037,2048,2047,2053,1196
1998,1710922792964444206,2047,2042,2043,2052,2052,2049,1194
1999,1710922792974435418,2056,2049,2115,2053,2053,2052,1194
2000,1710922792984447198,2069,2095,2149,2064,2056,2053,1195
2001,1710922792994444610,2054,2040,1972,2042,2056,2043,1191
2002,1710922793004447174,2052,2044,2041,2056,2048,2056,1196
2003,1710922793014443885,2043,2043,2027,2046,2052,2049,1197
2004,1710922793024461106,2058,2049,2028,2058,2054,2046,1193
2005,1710922793034447147,2044,2038,2019,2048,2040,2037,1194
2006,1710922793044448939,2050,2044,2042,2048,2041,2050,1194
2007,1710922793054453015,2052,2057,2073,2052,2049,2051,1195
2008,1710922793064503588,2046,2040,2040,2052,2047,2045,1193
2009,1710922793074451407,2044,2041,2041,2056,2064,2066,1196
2010,1710922793084446686,2066,2040,1925,2059,2047,2047,1193
2011,1710922793094448237,2055,2069,2005,2064,2057,2057,1195
2012,1710922793104448145,2053,2053,1994,2047,2052,2048,1198
2013,1710922793114472689,2056,2051,2037,2052,2045,2048,1198
2014,1710922793124448421,2057,2045,1960,2056,2045,2052,1195
2015,1710922793134446125,2056,2081,2147,2057,2053,2056,1196
2016,1710922793144446544,2047,2052,2014,2038,2045,2050,1196
2017,1710922793154444688,2066,2112,2247,2060,2052,2061,1196
2018,1710922793164444496,2056,2047,2049,2044,2026,2040,1194
2019,1710922793174458039,2037,2037,1977,2048,2045,2047,1193
2020,1710922793184453659,2062,2067,2016,2067,2065,2057,1195
2021,1710922793194453517,2043,2042,2018,2041,2058,2047,1190
2022,1710922793204444898,2053,2032,1953,2031,2026,2044,1192
2023,1710922793214449846,2056,2041,1928,2064,2059,2057,1194
2024,1710922793224454833,2047,2043,2026,2049,2037,2041,1193
2025,1710922793234445713,2054,2053,2019,2060,2048,2044,1193
2026,1710922793244445210,2054,2029,1959,2053,2044,2056,1195
2027,1710922793254447703,2059,2078,2103,2069,2060,2056,1197
2028,1710922793264442632,2049,2053,2064,2052,2039,2043,1192
2029,1710922793274441998,2056,2033,1932,2057,2056,2056,1197
2030,1710922793284448950,2042,2036,2062,2049,2060,2047,1195
2031,1710922793294446854,2062,2036,1940,2060,2029,2057,1196
2032,1710922793304462601,2053,2077,2078,2060,2078,2060,1196
2033,1710922793314476525,2064,2064,2005,2066,2052,2062,1196
2034,1710922793324487214,2056,2062,2189,2076,2060,2062,1195
2035,1710922793334440153,2066,2074,2176,2066,2054,2040,1190
2036,1710922793344443186,2044,2024,1941,2059,2069,2061,1197
2037,1710922793354440229,2064,2076,2092,2060,2072,2056,1195
2038,1710922793364442881,2051,2061,2066,2056,2038,2044,1192
2039,1710922793374477836,2050,2046,2065,2053,2056,2046,1193
2040,1710922793384457365,2065,2069,2166,2032,2052,2064,1193
2041,1710922793394446282,2072,2083,2277,2069,2060,2055,1195
2042,1710922793404451660,2052,2040,2006,2054,2058,2061,1196
2043,1710922793414451357,2060,2082,2012,2056,2049,2051,1193
2044,1710922793424453640,2040,2014,1996,2040,2048,2040,1192
2045,1710922793434457014,2063,2068,2090,2059,2070,2066,1195
2046,1710922793444465508,2051,2033,1976,2059,2072,2068,1195
2047,1710922793454453313,2036,2035,2027,2047,2044,2033,1191
2048,1710922793464454433,2075,2034,1973,2054,2068,2088,1195
2049,1710922793474452357,2049,2037,1960,2041,2047,2044,1194
2050,1710922793484468696,2052,2056,2043,2060,2053,2046,1195
2051,1710922793494455018,2061,2037,1972,2058,2047,2066,1195
2052,1710922793504456970,2045,2029,1951,2052,2050,2046,1195
2053,1710922793514454323,2048,2035,1992,2052,2056,2051,1195
2054,1710922793524455362,2054,2040,2018,2040,2033,2045,1192
2055,1710922793534471050,2049,2044,2053,2062,2066,2060,1196
2056,1710922793544456531,2041,2016,1948,2052,2047,2045,1193
2057,1710922793554414469,2056,2051,2002,2056,2056,2060,1197
2058,1710922793564439454,2047,2025,1905,2047,2043,2042,1193
2059,1710922793574456454,2048,2017,1976,2044,2046,2046,1194
2060,1710922793584458015,2052,2043,2046,2046,2057,2052,1192
2061,1710922793594427536,2056,2040,2018,2060,2054,2054,1197
2062,1710922793604459314,2048,2032,1938,2068,2048,2040,1193
2063,1710922793614458810,2073,2064,2091,2058,2046,2081,1195
2064,1710922793624450293,2031,2008,1988,2040,2040,2033,1192
2065,1710922793634445000,2042,2011,1936,2045,2056,2052,1196
2066,1710922793644446531,2044,2020,1942,2051,2037,2040,1192
2067,1710922793654448553,2057,2032,1974,2050,2058,2060,1194
2068,1710922793664449172,2052,2055,1976,2066,2056,2056,1195
2069,1710922793674443630,2061,2064,2026,2072,2058,2056,1196
2070,1710922793684448407,2044,2038,2025,2051,2056,2046,1194
2071,1710922793694455958,2054,2036,2008,2062,2038,2050,1196
2072,1710922793704436370,2064,2072,2062,2056,2052,2053,1197
2073,1710922793714444663,2052,2067,2046,2054,2058,2062,1193
2074,1710922793724443329,2059,2057,2084,2054,2065,2060,1196
2075,1710922793734442936,2050,2030,1982,2032,2029,2052,1197
2076,1710922793744447903,2056,2066,2041,2045,2049,2047,1196
2077,1710922793754444335,2058,2052,2114,2048,2044,2054,1196
2078,1710922793764446857,2050,2040,2015,2044,2040,2052,1195
2079,1710922793774444330,2056,2050,2062,2061,2057,2068,1196
2080,1710922793784445771,2052,2047,2007,2045,2037,2046,1191
2081,1710922793794444577,2060,2065,2116,2061,2064,2077,1194
2082,1710922793804436018,2045,2044,2009,2051,2046,2048,1196
2083,1710922793814445565,2064,2049,2049,2062,2046,2046,1193
2084,1710922793824445502,2048,2041,2036,2049,2050,2064,1196
2085,1710922793834443307,2052,2027,1948,2054,2049,2049,1194
2086,1710922793844462020,2065,2050,1960,2057,2064,2054,1196
2087,1710922793854445676,2052,2038,1997,2046,2049,2052,1194
2088,1710922793864468477,2068,2090,2220,2064,2061,2052,1195
2089,1710922793874445151,2052,2042,2018,2054,2065,2060,1194
2090,1710922793884451021,2060,2034,1985,2041,2049,2049,1195
2091,1710922793894447813,2064,2058,2008,2059,2045,2058,1196
2092,1710922793904440396,2045,2034,2036,2053,2053,2051,1194
2093,1710922793914463398,2052,2074,2168,2054,2051,2056,1197
2094,1710922793924459378,2054,2057,2068,2053,2052,2054,1198
2095,1710922793934457663,2051,2044,2047,2045,2046,2058,1196
2096,1710922793944458202,2056,2074,2306,2057,2042,2048,1195
2097,1710922793954459693,2049,2033,2027,2047,2059,2047,1194
2098,1710922793964459019,2053,2047,2037,2055,2044,2050,1196
2099,1710922793974460540,2046,2032,1986,2051,2047,2058,1195
2100,1710922793984455619,2058,2047,2029,2060,2057,2054,1194
2101,1710922793994475695,2049,2041,1983,2048,2046,2042,1193
2102,1710922794004446377,2057,2027,1849,2055,2058,2053,1197
2103,1710922794014474859,2048,2035,1965,2043,2052,2060,1196
2104,1710922794024456081,2056,2056,1947,2059,2051,2046,1194
2105,1710922794034451821,2056,2073,2129,2057,2052,2047,1192
2106,1710922794044452280,2049,2054,2050,2054,2054,2048,1195
2107,1710922794054444684,2060,2067,2156,2077,2056,2058,1196
2108,1710922794064448709,2053,2024,1936,2044,2052,2045,1192
2109,1710922794074423669,2048,2050,2095,2058,2052,2060,1196
2110,1710922794084462371,2053,2050,2008,2057,2058,2050,1196
2111,1710922794094449565,2054,2045,1990,2060,2058,2058,1195
2112,1710922794104463830,2051,2043,2040,2056,2058,2050,1198
2113,1710922794114447807,2050,2046,2040,2060,2051,2049,1196
2114,1710922794124442616,2060,2061,2060,2057,2058,2051,1196
2115,1710922794134445389,2068,2096,2216,2068,2066,2069,1195
2116,1710922794144451318,2053,2075,2122,2053,2057,2049,1197
2117,1710922794154447909,2051,2048,2057,2047,2048,2047,1193
2118,1710922794164477343,2061,2090,2139,2044,2057,2052,1196
2119,1710922794174453636,2064,2061,2072,2055,2056,2066,1197
2120,1710922794184458313,2041,2036,2012,2064,2052,2057,1193
2121,1710922794194456417,2057,2047,1978,2050,2038,2052,1194
2122,1710922794204451346,2060,2072,2090,2057,2049,2056,1194
2123,1710922794214450212,2052,2042,2004,2056,2054,2057,1197
2124,1710922794224453335,2066,2076,2142,2058,2044,2052,1196
2125,1710922794234437944,2050,2044,2048,2056,2053,2047,1193
2126,1710922794244448281,2056,2065,2129,2060,2052,2041,1193
2127,1710922794254445374,2063,2091,2200,2069,2071,2061,1197
2128,1710922794264458116,2047,2081,2152,2046,2060,2052,1197
2129,1710922794274446011,2050,2017,1908,2055,2055,2056,1196
2130,1710922794284450538,2042,2045,2070,2056,2051,2045,1193
2131,1710922794294465604,2057,2053,2029,2056,2071,2067,1195
2132,1710922794304451115,2045,2047,2045,2050,2053,2037,1193
2133,1710922794314451002,2054,2043,2049,2063,2059,2050,1195
2134,1710922794324454517,2057,2081,2181,2067,2067,2058,1195
2135,1710922794334441210,2058,2054,2045,2054,2053,2060,1195
2136,1710922794344439154,2058,2060,2048,2055,2044,2049,1197
2137,1710922794354440544,2056,2069,2076,2054,2047,2053,1195
2138,1710922794364446303,2052,2036,1927,2052,2049,2047,1193
2139,1710922794374445781,2058,2054,2026,2060,2056,2056,1196
2140,1710922794384448243,2062,2050,1916,2068,2049,2058,1192
2141,1710922794394414697,2052,2048,2072,2054,2049,2046,1193
2142,1710922794404448589,2061,2060,2041,2061,2052,2049,1194
2143,1710922794414452094,2047,2047,2065,2046,2042,2053,1194
2144,1710922794424457121,2057,2045,1992,2047,2054,2064,1195
2145,1710922794434463902,2056,2056,2016,2037,2045,2044,1192
2146,1710922794444446748,2056,2057,2089,2057,2052,2056,1196
2147,1710922794454446045,2058,2048,2052,2063,2065,2053,1194
2148,1710922794464446844,2048,2035,1954,2056,2060,2052,1196
2149,1710922794474447813,2048,2051,2036,2056,2050,2054,1194
2150,1710922794484455546,2047,2041,2028,2054,2060,2058,1194
2151,1710922794494447298,2051,2032,1992,2056,2056,2049,1192
2152,1710922794504446996,2057,2074,2164,2050,2041,2052,1195
2153,1710922794514482311,2053,2040,2002,2060,2045,2062,1194
2154,1710922794524452372,2049,2039,2019,2050,2047,2040,1191
2155,1710922794534451367,2060,2041,1940,2056,2056,2052,1195
2156,1710922794544449723,2054,2049,2033,2048,2053,2047,1193
2157,1710922794554441345,2067,2056,1940,2066,2068,2060,1194
2158,1710922794564442314,2057,2042,2002,2060,2056,2058,1194
2159,1710922794574442914,2058,2058,2024,2052,2057,2052,1194
2160,1710922794584459543,2050,2068,2087,2047,2045,2046,1188
2161,1710922794594451025,2060,2049,2065,2056,2047,2050,1194
2162,1710922794604448648,2052,2092,2288,2058,2065,2058,1194
2163,1710922794614446161,2049,2044,1999,2059,2052,2048,1195
2164,1710922794624444056,2061,2050,1992,2068,2054,2053,1194
2165,1710922794634447059,2060,2050,2041,2065,2068,2059,1193
2166,1710922794644451205,2056,2060,2092,2056,2043,2050,1195
2167,1710922794654446835,2054,2052,2073,2055,2058,2052,1196
2168,1710922794664446392,2049,2041,2049,2056,2052,2052,1194
2169,1710922794674447893,2058,2050,2029,2053,2045,2056,1196
2170,1710922794684441238,2053,2052,2031,2054,2052,2047,1193
2171,1710922794694456735,2064,2056,2166,2041,2054,2058,1194
2172,1710922794704441795,2061,2044,2028,2056,2057,2070,1199
2173,1710922794714439849,2048,2046,1963,2052,2053,2050,1192
2174,1710922794724439667,2050,2069,2181,2055,2060,2050,1195
2175,1710922794734449714,2050,2048,2088,2053,2042,2047,1193
2176,1710922794744459029,2053,2046,1999,2036,2056,2058,1196
2177,1710922794754450782,2067,2056,2002,2062,2050,2047,1196
2178,1710922794764445349,2044,2040,2041,2051,2051,2044,1194
2179,1710922794774462940,2056,2042,1982,2057,2061,2054,1195
2180,1710922794784444824,2048,2040,1954,2059,2045,2044,1192
2181,1710922794794442528,2050,2036,2022,2051,2052,2051,1193
2182,1710922794804446123,2062,2072,2102,2051,2047,2051,1194
2183,1710922794814449828,2052,2047,2065,2054,2052,2055,1195
2184,1710922794824450958,2061,2034,1939,2060,2061,2057,1195
2185,1710922794834442450,2052,2036,1987,2052,2054,2053,1196
2186,1710922794844444411,2046,2040,1999,2053,2047,2047,1192
2187,1710922794854452825,2049,2044,2010,2050,2040,2051,1195
2188,1710922794864443996,2049,2042,2021,2051,2058,2046,1192
2189,1710922794874441289,2054,2057,2072,2056,2052,2056,1193
2190,1710922794884449042,2057,2046,1989,2052,2056,2059,1194
2191,1710922794894451244,2053,2038,2008,2051,2043,2043,1193
2192,1710922794904456933,2053,2052,2043,2060,2053,2053,1195
2193,1710922794914449477,2050,2051,2035,2064,2055,2054,1195
2194,1710922794924445958,2060,2070,2083,2057,2045,2054,1196
2195,1710922794934444463,2050,2056,2065,2054,2051,2052,1194
2196,1710922794944445883,2040,2037,2032,2056,2064,2044,1193
2197,1710922794954449919,2060,2058,2069,2064,2053,2056,1195
2198,1710922794964449496,2062,2083,2216,2057,2044,2046,1192
2199,1710922794974444675,2052,2050,2044,2058,2057,2056,1196
2200,1710922794984453079,2059,2054,2045,2042,2057,2057,1192
2201,1710922794994449129,2061,2043,1922,2062,2048,2049,1193
2202,1710922795004443276,2065,2070,2031,2062,2059,2057,1193
2203,1710922795014467520,2039,2044,2016,2053,2048,2054,1195
2204,1710922795024448893,2052,2017,1868,2052,2057,2044,1194
2205,1710922795034447368,2060,2051,2047,2054,2050,2059,1195
2206,1710922795044445733,2046,2052,2056,2051,2050,2052,1196
2207,1710922795054444499,2054,2040,1964,2058,2054,2051,1196
2208,1710922795064445959,2066,2061,2140,2070,2052,2052,1196
2209,1710922795074443943,2053,2066,2152,2062,2057,2052,1194
2210,1710922795084449452,2065,2094,2185,2056,2048,2049,1195
2211,1710922795094444189,2058,2065,2102,2051,2064,2057,1193
2212,1710922795104448375,2056,2049,2036,2056,2047,2048,1196
