202.0,1.711002826749086e+18,0.4765013054830287,0.4223744292237443,0.34054054054054056,0.5020787478601125,0.6098901098901099,0.44238856181665265,1193.0
203.0,1.7110028267590863e+18,0.4804177545691906,0.4406392694063927,0.34486486486486484,0.5057471264367817,0.6582417582417582,0.4449116904962153,1196.0
204.0,1.7110028267691983e+18,0.47389033942558745,0.4178082191780822,0.32594594594594595,0.504524333577892,0.5978021978021978,0.4339781328847771,1192.0
205.0,1.7110028267790927e+18,0.4725848563968668,0.410958904109589,0.3324324324324324,0.5001222792858889,0.6395604395604395,0.43986543313709,1196.0
206.0,1.711002826789086e+18,0.46736292428198434,0.4075342465753425,0.3075675675675676,0.504524333577892,0.6538461538461539,0.44070647603027757,1196.0
207.0,1.711002826799089e+18,0.47780678851174935,0.4132420091324201,0.33135135135135135,0.5003668378576669,0.6505494505494506,0.4339781328847771,1193.0
208.0,1.711002826809097e+18,0.4765013054830287,0.4098173515981735,0.3318918918918919,0.5006113964294449,0.6010989010989011,0.4373423044575273,1196.0
209.0,1.71100282681909e+18,0.4804177545691906,0.408675799086758,0.32756756756756755,0.5025678650036683,0.6483516483516484,0.43986543313709,1195.0
210.0,1.7110028268290862e+18,0.46866840731070497,0.4006849315068493,0.31351351351351353,0.495964783565664,0.5835164835164836,0.4348191757779647,1196.0
211.0,1.7110028268390863e+18,0.4765013054830287,0.4098173515981735,0.31945945945945947,0.4974321349963316,0.6318681318681318,0.43902439024390244,1197.0
212.0,1.711002826849087e+18,0.47780678851174935,0.4143835616438356,0.3232432432432432,0.5035460992907801,0.5714285714285714,0.43902439024390244,1197.0
213.0,1.7110028268590876e+18,0.4830287206266319,0.4018264840182648,0.3081081081081081,0.5050134507214478,0.6362637362637362,0.4381833473507149,1198.0
214.0,1.711002826869086e+18,0.47389033942558745,0.4052511415525114,0.31675675675675674,0.4925409635607728,0.5615384615384615,0.43650126156433977,1197.0
215.0,1.711002826879088e+18,0.48172323759791125,0.4143835616438356,0.32,0.4991440449987772,0.6406593406593407,0.43902439024390244,1197.0
216.0,1.711002826889085e+18,0.4725848563968668,0.4212328767123288,0.3248648648648649,0.49767669356810956,0.5747252747252747,0.43313708999158956,1196.0
217.0,1.7110028268990874e+18,0.4725848563968668,0.4075342465753425,0.3216216216216216,0.5074590364392272,0.6263736263736264,0.43313708999158956,1193.0
218.0,1.711002826909088e+18,0.47389033942558745,0.4063926940639269,0.3248648648648649,0.4969430178527757,0.5956043956043956,0.4348191757779647,1197.0
219.0,1.7110028269190858e+18,0.47780678851174935,0.4257990867579909,0.33405405405405403,0.5030569821472243,0.6527472527472528,0.43902439024390244,1196.0
220.0,1.711002826929087e+18,0.4765013054830287,0.4098173515981735,0.3237837837837838,0.5008559550012228,0.5934065934065934,0.43902439024390244,1195.0
221.0,1.711002826939087e+18,0.47780678851174935,0.4063926940639269,0.31945945945945947,0.5067253607238934,0.6538461538461539,0.43986543313709,1196.0
222.0,1.7110028269490862e+18,0.4725848563968668,0.408675799086758,0.3286486486486486,0.4988994864269993,0.5945054945054945,0.43902439024390244,1196.0
223.0,1.7110028269590863e+18,0.4725848563968668,0.4018264840182648,0.3145945945945946,0.504279775006114,0.6450549450549451,0.4381833473507149,1196.0
224.0,1.7110028269690872e+18,0.47389033942558745,0.408675799086758,0.3248648648648649,0.49620934213744194,0.5560439560439561,0.4339781328847771,1193.0
225.0,1.7110028269790881e+18,0.4869451697127937,0.4257990867579909,0.35135135135135137,0.499877720714111,0.6637362637362637,0.4465937762825904,1196.0
226.0,1.7110028269890862e+18,0.47389033942558745,0.4178082191780822,0.3372972972972973,0.49767669356810956,0.5692307692307692,0.43986543313709,1197.0
227.0,1.7110028269990917e+18,0.47780678851174935,0.4292237442922374,0.34486486486486484,0.5001222792858889,0.6318681318681318,0.4373423044575273,1197.0
228.0,1.7110028270091197e+18,0.46736292428198434,0.4132420091324201,0.33135135135135135,0.5006113964294449,0.5857142857142857,0.43986543313709,1194.0
229.0,1.7110028270190892e+18,0.47389033942558745,0.410958904109589,0.32,0.5028124235754463,0.6681318681318681,0.4415475189234651,1195.0
230.0,1.7110028270290888e+18,0.4765013054830287,0.4406392694063927,0.33513513513513515,0.5072144778674492,0.6230769230769231,0.4432296047098402,1196.0
231.0,1.7110028270390868e+18,0.4830287206266319,0.4098173515981735,0.31945945945945947,0.5025678650036683,0.6472527472527473,0.4440706476030278,1198.0
232.0,1.7110028270491005e+18,0.4869451697127937,0.4634703196347032,0.41405405405405404,0.5035460992907801,0.5714285714285714,0.44070647603027757,1194.0
233.0,1.7110028270590812e+18,0.4765013054830287,0.4132420091324201,0.3372972972972973,0.5064808021521154,0.6868131868131868,0.4381833473507149,1198.0
234.0,1.7110028270690788e+18,0.47127937336814624,0.4143835616438356,0.3345945945945946,0.4988994864269993,0.5989010989010989,0.4415475189234651,1196.0
235.0,1.711002827079084e+18,0.47127937336814624,0.4041095890410959,0.31567567567567567,0.504524333577892,0.6648351648351648,0.4381833473507149,1197.0
236.0,1.7110028270890798e+18,0.48172323759791125,0.4189497716894977,0.31405405405405407,0.49523110785033014,0.5725274725274725,0.43986543313709,1195.0
237.0,1.711002827099092e+18,0.47780678851174935,0.4132420091324201,0.33783783783783783,0.4986549278552213,0.667032967032967,0.4415475189234651,1196.0
238.0,1.7110028271090924e+18,0.47389033942558745,0.4189497716894977,0.3335135135135135,0.4969430178527757,0.5483516483516484,0.4339781328847771,1193.0
239.0,1.7110028271190843e+18,0.4869451697127937,0.432648401826484,0.3427027027027027,0.5035460992907801,0.676923076923077,0.4415475189234651,1196.0
240.0,1.7110028271290775e+18,0.45300261096605743,0.3915525114155251,0.3027027027027027,0.4996331621423331,0.5813186813186814,0.4306139613120269,1193.0
241.0,1.711002827139085e+18,0.47127937336814624,0.4098173515981735,0.3302702702702703,0.49816581071166544,0.654945054945055,0.43566021867115223,1194.0
242.0,1.7110028271496824e+18,0.4765013054830287,0.4509132420091324,0.3708108108108108,0.49498654927855223,0.6010989010989011,0.4314550042052145,1192.0
243.0,1.711002827159109e+18,0.48172323759791125,0.4132420091324201,0.32594594594594595,0.5055025678650037,0.6362637362637362,0.4381833473507149,1196.0
244.0,1.711002827169094e+18,0.46344647519582244,0.3926940639269406,0.31027027027027027,0.49474199070677427,0.6021978021978022,0.43902439024390244,1194.0
245.0,1.7110028271790897e+18,0.47780678851174935,0.4223744292237443,0.3762162162162162,0.5006113964294449,0.6516483516483517,0.4415475189234651,1195.0
246.0,1.7110028271891003e+18,0.47127937336814624,0.4132420091324201,0.34702702702702704,0.49498654927855223,0.5835164835164836,0.43986543313709,1196.0
247.0,1.7110028271991268e+18,0.47780678851174935,0.4155251141552511,0.3308108108108108,0.5018341892883346,0.6747252747252748,0.44238856181665265,1195.0
248.0,1.7110028272090824e+18,0.4765013054830287,0.410958904109589,0.3237837837837838,0.49645390070921985,0.5824175824175825,0.43986543313709,1196.0
249.0,1.711002827219098e+18,0.48172323759791125,0.4200913242009132,0.3372972972972973,0.49816581071166544,0.634065934065934,0.43313708999158956,1193.0
250.0,1.7110028272290972e+18,0.4699738903394256,0.4269406392694064,0.35135135135135137,0.5001222792858889,0.5989010989010989,0.43650126156433977,1195.0
251.0,1.7110028272390935e+18,0.47780678851174935,0.4121004566210046,0.31405405405405407,0.49816581071166544,0.6274725274725275,0.4373423044575273,1196.0
252.0,1.7110028272490975e+18,0.4621409921671018,0.4029680365296804,0.3281081081081081,0.49767669356810956,0.6538461538461539,0.43313708999158956,1193.0
253.0,1.7110028272590843e+18,0.4830287206266319,0.4223744292237443,0.3362162162162162,0.5059916850085595,0.6637362637362637,0.4415475189234651,1197.0
254.0,1.7110028272690852e+18,0.47780678851174935,0.4143835616438356,0.3254054054054054,0.4991440449987772,0.5868131868131868,0.43902439024390244,1196.0
255.0,1.7110028272791306e+18,0.47911227154047,0.4189497716894977,0.35027027027027025,0.5035460992907801,0.6626373626373626,0.4432296047098402,1195.0
256.0,1.711002827289091e+18,0.48825065274151436,0.4452054794520548,0.34702702702702704,0.5023233064318905,0.5769230769230769,0.4449116904962153,1197.0
257.0,1.711002827299093e+18,0.4804177545691906,0.430365296803653,0.34594594594594597,0.5086818292981169,0.7021978021978021,0.4499579478553406,1196.0
258.0,1.711002827309101e+18,0.48172323759791125,0.4132420091324201,0.33513513513513515,0.49938860357055515,0.589010989010989,0.4415475189234651,1197.0
259.0,1.7110028273190994e+18,0.45691906005221933,0.4029680365296804,0.31945945945945947,0.5015896307165566,0.676923076923077,0.43650126156433977,1196.0
260.0,1.7110028273291108e+18,0.47911227154047,0.4200913242009132,0.3410810810810811,0.5006113964294449,0.6230769230769231,0.4432296047098402,1196.0
261.0,1.7110028273390991e+18,0.4751958224543081,0.4098173515981735,0.33135135135135135,0.5023233064318905,0.656043956043956,0.4381833473507149,1197.0
262.0,1.711002827349116e+18,0.4660574412532637,0.4098173515981735,0.3286486486486486,0.4974321349963316,0.5681318681318681,0.43650126156433977,1196.0
263.0,1.711002827359097e+18,0.47780678851174935,0.4121004566210046,0.3302702702702703,0.5015896307165566,0.6494505494505495,0.4348191757779647,1195.0
264.0,1.7110028273691018e+18,0.48433420365535246,0.4223744292237443,0.32756756756756755,0.5013450721447786,0.5758241758241758,0.4415475189234651,1196.0
265.0,1.711002827379101e+18,0.4725848563968668,0.4006849315068493,0.3302702702702703,0.5013450721447786,0.6494505494505495,0.43650126156433977,1197.0
266.0,1.711002827389103e+18,0.48172323759791125,0.4178082191780822,0.33945945945945943,0.5006113964294449,0.5714285714285714,0.44238856181665265,1195.0
267.0,1.7110028273991012e+18,0.4765013054830287,0.4155251141552511,0.33513513513513515,0.5035460992907801,0.6978021978021978,0.44575273338940286,1196.0
268.0,1.7110028274091026e+18,0.4765013054830287,0.4223744292237443,0.35783783783783785,0.4996331621423331,0.5802197802197803,0.43650126156433977,1195.0
269.0,1.7110028274191027e+18,0.4765013054830287,0.4132420091324201,0.3286486486486486,0.5028124235754463,0.6472527472527473,0.43902439024390244,1195.0
270.0,1.711002827429106e+18,0.47780678851174935,0.4360730593607306,0.3362162162162162,0.5018341892883346,0.6164835164835165,0.4432296047098402,1197.0
271.0,1.71100282743911e+18,0.4765013054830287,0.4189497716894977,0.33135135135135135,0.5011005135730008,0.6714285714285714,0.43566021867115223,1195.0
272.0,1.711002827449111e+18,0.4725848563968668,0.4063926940639269,0.3237837837837838,0.49816581071166544,0.545054945054945,0.432296047098402,1195.0
273.0,1.7110028274591406e+18,0.49216710182767626,0.432648401826484,0.3497297297297297,0.5006113964294449,0.6637362637362637,0.4533221194280908,1197.0
274.0,1.7110028274690885e+18,0.47780678851174935,0.4121004566210046,0.312972972972973,0.5023233064318905,0.6648351648351648,0.43902439024390244,1198.0
275.0,1.7110028274791045e+18,0.47389033942558745,0.408675799086758,0.3302702702702703,0.504035216434336,0.5758241758241758,0.4415475189234651,1196.0
276.0,1.711002827489106e+18,0.4830287206266319,0.4235159817351598,0.33675675675675676,0.504035216434336,0.7032967032967034,0.4440706476030278,1196.0
277.0,1.7110028274991101e+18,0.47389033942558745,0.408675799086758,0.32756756756756755,0.5003668378576669,0.5868131868131868,0.4381833473507149,1198.0
278.0,1.71100282750909e+18,0.47911227154047,0.4269406392694064,0.36108108108108106,0.5116165321594522,0.6978021978021978,0.4432296047098402,1195.0
279.0,1.7110028275190892e+18,0.47780678851174935,0.4143835616438356,0.31945945945945947,0.5028124235754463,0.6318681318681318,0.4381833473507149,1193.0
280.0,1.7110028275291113e+18,0.47911227154047,0.410958904109589,0.3005405405405405,0.5067253607238934,0.6296703296703297,0.4440706476030278,1195.0
281.0,1.7110028275391163e+18,0.4934725848563969,0.4383561643835616,0.34540540540540543,0.504035216434336,0.6054945054945055,0.4449116904962153,1196.0
282.0,1.7110028275491525e+18,0.4699738903394256,0.4075342465753425,0.3216216216216216,0.508192712154561,0.6692307692307692,0.43902439024390244,1197.0
283.0,1.7110028275591158e+18,0.4699738903394256,0.410958904109589,0.33675675675675676,0.4979212521398875,0.5351648351648352,0.4440706476030278,1196.0
284.0,1.711002827569121e+18,0.48172323759791125,0.4212328767123288,0.3362162162162162,0.49816581071166544,0.6626373626373626,0.4432296047098402,1194.0
285.0,1.7110028275791124e+18,0.46866840731070497,0.4098173515981735,0.32216216216216215,0.495720224993886,0.6010989010989011,0.4381833473507149,1197.0
286.0,1.7110028275890913e+18,0.48825065274151436,0.4474885844748858,0.3978378378378378,0.5057471264367817,0.6494505494505495,0.43902439024390244,1197.0
287.0,1.7110028275990917e+18,0.47127937336814624,0.4178082191780822,0.31675675675675674,0.4930300807043287,0.5692307692307692,0.432296047098402,1192.0
288.0,1.711002827609093e+18,0.4869451697127937,0.4200913242009132,0.33297297297297296,0.5067253607238934,0.6483516483516484,0.4449116904962153,1196.0
289.0,1.7110028276190935e+18,0.46866840731070497,0.4121004566210046,0.3308108108108108,0.495720224993886,0.5736263736263736,0.43313708999158956,1195.0
290.0,1.7110028276290877e+18,0.47389033942558745,0.4018264840182648,0.312972972972973,0.5035460992907801,0.6593406593406593,0.4432296047098402,1197.0
291.0,1.711002827639097e+18,0.4725848563968668,0.4041095890410959,0.31513513513513514,0.5089263878698949,0.6120879120879121,0.4499579478553406,1197.0
292.0,1.7110028276490967e+18,0.48172323759791125,0.4155251141552511,0.3362162162162162,0.5072144778674492,0.6472527472527473,0.43902439024390244,1195.0
293.0,1.7110028276590925e+18,0.4765013054830287,0.408675799086758,0.3362162162162162,0.495964783565664,0.5681318681318681,0.4373423044575273,1196.0
294.0,1.7110028276690962e+18,0.47389033942558745,0.4166666666666667,0.33513513513513515,0.4971875764245537,0.6450549450549451,0.43650126156433977,1197.0
295.0,1.7110028276790986e+18,0.489556135770235,0.4292237442922374,0.3551351351351351,0.4979212521398875,0.6065934065934065,0.4449116904962153,1197.0
296.0,1.7110028276890988e+18,0.48172323759791125,0.4223744292237443,0.35135135135135137,0.5106382978723404,0.6736263736263737,0.4482758620689655,1194.0
297.0,1.711002827699111e+18,0.47127937336814624,0.410958904109589,0.32216216216216215,0.5020787478601125,0.6142857142857143,0.4432296047098402,1196.0
298.0,1.7110028277091026e+18,0.4830287206266319,0.4178082191780822,0.3362162162162162,0.5064808021521154,0.6846153846153846,0.4415475189234651,1197.0
299.0,1.711002827719095e+18,0.47911227154047,0.4383561643835616,0.4081081081081081,0.49400831499144043,0.5659340659340659,0.43566021867115223,1197.0
300.0,1.7110028277290993e+18,0.4856396866840731,0.4223744292237443,0.33783783783783783,0.5055025678650037,0.7186813186813187,0.4482758620689655,1196.0
301.0,1.7110028277391409e+18,0.46736292428198434,0.4098173515981735,0.3308108108108108,0.5079481535827831,0.6098901098901099,0.44575273338940286,1194.0
302.0,1.711002827749128e+18,0.4765013054830287,0.4098173515981735,0.33297297297297296,0.5108828564441183,0.6824175824175824,0.4381833473507149,1197.0
303.0,1.711002827759104e+18,0.46344647519582244,0.4178082191780822,0.3535135135135135,0.5037906578625581,0.5230769230769231,0.4314550042052145,1194.0
304.0,1.7110028277691082e+18,0.47911227154047,0.4269406392694064,0.3372972972972973,0.5069699192956714,0.6571428571428571,0.4381833473507149,1194.0
305.0,1.711002827779099e+18,0.4765013054830287,0.4098173515981735,0.32756756756756755,0.49816581071166544,0.6021978021978022,0.43650126156433977,1195.0
306.0,1.7110028277890985e+18,0.48433420365535246,0.410958904109589,0.3302702702702703,0.5025678650036683,0.6417582417582418,0.4415475189234651,1194.0
307.0,1.7110028277991324e+18,0.46475195822454307,0.4029680365296804,0.32594594594594595,0.49474199070677427,0.4967032967032967,0.42052144659377627,1194.0
308.0,1.7110028278091013e+18,0.4869451697127937,0.4143835616438356,0.32432432432432434,0.5006113964294449,0.6461538461538462,0.4432296047098402,1196.0
309.0,1.7110028278191e+18,0.46866840731070497,0.4143835616438356,0.34054054054054056,0.48740523355343607,0.5758241758241758,0.4348191757779647,1196.0
310.0,1.7110028278290977e+18,0.4804177545691906,0.432648401826484,0.36486486486486486,0.4966984592809978,0.6098901098901099,0.43902439024390244,1195.0
311.0,1.7110028278390912e+18,0.4869451697127937,0.4315068493150685,0.3535135135135135,0.5011005135730008,0.6032967032967033,0.4449116904962153,1197.0
312.0,1.7110028278491205e+18,0.49216710182767626,0.4315068493150685,0.3643243243243243,0.508192712154561,0.6318681318681318,0.4507989907485282,1197.0
313.0,1.7110028278591022e+18,0.47780678851174935,0.4349315068493151,0.3481081081081081,0.49938860357055515,0.5626373626373626,0.44575273338940286,1196.0
314.0,1.7110028278690952e+18,0.48825065274151436,0.4235159817351598,0.3362162162162162,0.5006113964294449,0.6450549450549451,0.44238856181665265,1194.0
315.0,1.7110028278790963e+18,0.4621409921671018,0.3938356164383562,0.3027027027027027,0.5006113964294449,0.5747252747252747,0.43650126156433977,1196.0
316.0,1.7110028278890954e+18,0.4765013054830287,0.4121004566210046,0.3162162162162162,0.4937637564196625,0.6626373626373626,0.4415475189234651,1195.0
317.0,1.7110028278991094e+18,0.47127937336814624,0.4063926940639269,0.30648648648648646,0.4969430178527757,0.5769230769230769,0.43986543313709,1195.0
318.0,1.7110028279090977e+18,0.47389033942558745,0.4143835616438356,0.3335135135135135,0.5077035950110051,0.7164835164835165,0.4482758620689655,1195.0
319.0,1.7110028279190966e+18,0.4608355091383812,0.4155251141552511,0.34054054054054056,0.504279775006114,0.5956043956043956,0.4449116904962153,1196.0
320.0,1.7110028279290926e+18,0.47780678851174935,0.4143835616438356,0.3324324324324324,0.5015896307165566,0.6945054945054945,0.45248107653490327,1197.0
321.0,1.7110028279391037e+18,0.4699738903394256,0.432648401826484,0.3551351351351351,0.495720224993886,0.6197802197802198,0.44238856181665265,1194.0
322.0,1.711002827949159e+18,0.4765013054830287,0.4063926940639269,0.3210810810810811,0.5013450721447786,0.6318681318681318,0.4415475189234651,1197.0
323.0,1.7110028279591206e+18,0.47127937336814624,0.408675799086758,0.31945945945945947,0.49107361213010514,0.5857142857142857,0.4373423044575273,1197.0
324.0,1.7110028279691167e+18,0.4765013054830287,0.4235159817351598,0.34486486486486484,0.504035216434336,0.6406593406593407,0.43313708999158956,1193.0
325.0,1.7110028279790976e+18,0.4765013054830287,0.3904109589041096,0.3027027027027027,0.4966984592809978,0.589010989010989,0.44070647603027757,1197.0
326.0,1.7110028279891e+18,0.4830287206266319,0.4223744292237443,0.32756756756756755,0.5059916850085595,0.6329670329670329,0.4381833473507149,1196.0
327.0,1.7110028279991447e+18,0.4699738903394256,0.4121004566210046,0.3324324324324324,0.49767669356810956,0.5956043956043956,0.4348191757779647,1195.0
328.0,1.711002828009088e+18,0.49216710182767626,0.4429223744292237,0.36864864864864866,0.5050134507214478,0.7175824175824176,0.456686291000841,1196.0
329.0,1.7110028280190884e+18,0.4660574412532637,0.4075342465753425,0.3281081081081081,0.4944974321349963,0.578021978021978,0.43986543313709,1195.0
330.0,1.7110028280290877e+18,0.4869451697127937,0.4360730593607306,0.35945945945945945,0.49400831499144043,0.6461538461538462,0.43902439024390244,1196.0
331.0,1.7110028280390917e+18,0.4765013054830287,0.410958904109589,0.2913513513513514,0.5055025678650037,0.610989010989011,0.44911690496215306,1197.0
332.0,1.711002828049103e+18,0.45039164490861616,0.3995433789954338,0.32594594594594595,0.5035460992907801,0.6131868131868132,0.4247266610597141,1194.0
333.0,1.7110028280590853e+18,0.47127937336814624,0.4200913242009132,0.3302702702702703,0.504524333577892,0.6010989010989011,0.432296047098402,1193.0
334.0,1.7110028280690877e+18,0.48172323759791125,0.4360730593607306,0.3681081081081081,0.5025678650036683,0.6450549450549451,0.43902439024390244,1196.0
335.0,1.7110028280790856e+18,0.5026109660574413,0.4680365296803653,0.4275675675675676,0.5001222792858889,0.567032967032967,0.4415475189234651,1195.0
336.0,1.711002828089083e+18,0.4725848563968668,0.4075342465753425,0.32756756756756755,0.49058449498654927,0.6417582417582418,0.4381833473507149,1197.0
337.0,1.7110028280990863e+18,0.4660574412532637,0.4098173515981735,0.32756756756756755,0.49645390070921985,0.6164835164835165,0.43650126156433977,1196.0
338.0,1.7110028281090824e+18,0.46866840731070497,0.408675799086758,0.30972972972972973,0.5072144778674492,0.6450549450549451,0.4381833473507149,1197.0
339.0,1.7110028281190886e+18,0.46866840731070497,0.3961187214611872,0.31405405405405407,0.5035460992907801,0.5978021978021978,0.44238856181665265,1195.0
340.0,1.7110028281290883e+18,0.4765013054830287,0.4143835616438356,0.32972972972972975,0.5025678650036683,0.6472527472527473,0.4432296047098402,1195.0
341.0,1.7110028281390892e+18,0.4765013054830287,0.4223744292237443,0.34756756756756757,0.4971875764245537,0.567032967032967,0.4415475189234651,1193.0
342.0,1.711002828149088e+18,0.47389033942558745,0.410958904109589,0.32432432432432434,0.5084372707263389,0.6648351648351648,0.4449116904962153,1196.0
343.0,1.711002828159102e+18,0.4765013054830287,0.4178082191780822,0.34486486486486484,0.5018341892883346,0.5274725274725275,0.43313708999158956,1195.0
344.0,1.7110028281690924e+18,0.47780678851174935,0.4075342465753425,0.32756756756756755,0.5086818292981169,0.6824175824175824,0.45248107653490327,1195.0
345.0,1.7110028281790948e+18,0.46475195822454307,0.4212328767123288,0.35243243243243244,0.495720224993886,0.5901098901098901,0.4280908326324643,1192.0
346.0,1.7110028281890926e+18,0.46866840731070497,0.4063926940639269,0.3291891891891892,0.5015896307165566,0.6648351648351648,0.4415475189234651,1194.0
347.0,1.7110028281990956e+18,0.47127937336814624,0.410958904109589,0.34162162162162163,0.49107361213010514,0.5846153846153846,0.4348191757779647,1194.0
348.0,1.7110028282090842e+18,0.4765013054830287,0.4178082191780822,0.34054054054054056,0.5121056493030081,0.765934065934066,0.44575273338940286,1194.0
349.0,1.7110028282190945e+18,0.47389033942558745,0.4018264840182648,0.32,0.49400831499144043,0.5659340659340659,0.43566021867115223,1194.0
350.0,1.7110028282290952e+18,0.48433420365535246,0.4200913242009132,0.34378378378378377,0.5055025678650037,0.6582417582417582,0.43650126156433977,1196.0
351.0,1.7110028282390966e+18,0.4660574412532637,0.4155251141552511,0.3545945945945946,0.4988994864269993,0.5791208791208792,0.43650126156433977,1198.0
352.0,1.7110028282491023e+18,0.46475195822454307,0.3949771689497717,0.3248648648648649,0.5015896307165566,0.6571428571428571,0.4339781328847771,1195.0
353.0,1.7110028282590874e+18,0.4765013054830287,0.4029680365296804,0.31513513513513514,0.4930300807043287,0.5538461538461539,0.43650126156433977,1197.0
354.0,1.7110028282690941e+18,0.48172323759791125,0.4098173515981735,0.3232432432432432,0.5064808021521154,0.6538461538461539,0.447434819175778,1195.0
355.0,1.711002828279098e+18,0.48433420365535246,0.4315068493150685,0.3497297297297297,0.504279775006114,0.5703296703296703,0.44575273338940286,1194.0
356.0,1.7110028282890972e+18,0.4725848563968668,0.3949771689497717,0.31405405405405407,0.5057471264367817,0.5846153846153846,0.43902439024390244,1194.0
357.0,1.711002828299098e+18,0.47127937336814624,0.4063926940639269,0.3232432432432432,0.49816581071166544,0.5384615384615384,0.4280908326324643,1193.0
358.0,1.7110028283090962e+18,0.49216710182767626,0.4166666666666667,0.31675675675675674,0.49523110785033014,0.667032967032967,0.4415475189234651,1195.0
359.0,1.7110028283191004e+18,0.4699738903394256,0.4075342465753425,0.3308108108108108,0.4986549278552213,0.6604395604395604,0.4339781328847771,1193.0
360.0,1.7110028283290872e+18,0.4751958224543081,0.4052511415525114,0.32972972972972975,0.5015896307165566,0.7098901098901099,0.44911690496215306,1195.0
361.0,1.711002828339102e+18,0.47911227154047,0.4132420091324201,0.3172972972972973,0.5015896307165566,0.5901098901098901,0.4432296047098402,1193.0
362.0,1.711002828349078e+18,0.4556135770234987,0.3835616438356164,0.30486486486486486,0.49767669356810956,0.654945054945055,0.432296047098402,1192.0
363.0,1.7110028283590991e+18,0.4699738903394256,0.4018264840182648,0.3210810810810811,0.49474199070677427,0.5791208791208792,0.4381833473507149,1196.0
364.0,1.7110028283690929e+18,0.4830287206266319,0.4178082191780822,0.32216216216216215,0.5155294693078992,0.6241758241758242,0.44238856181665265,1195.0
365.0,1.7110028283790894e+18,0.45822454308093996,0.4143835616438356,0.37405405405405406,0.4969430178527757,0.5560439560439561,0.42977291841883936,1193.0
366.0,1.7110028283890934e+18,0.4765013054830287,0.4166666666666667,0.32972972972972975,0.504524333577892,0.6736263736263737,0.4373423044575273,1196.0
367.0,1.7110028283991204e+18,0.47911227154047,0.4280821917808219,0.3545945945945946,0.49767669356810956,0.5923076923076923,0.4381833473507149,1196.0
368.0,1.7110028284090916e+18,0.4621409921671018,0.4063926940639269,0.34378378378378377,0.5062362435803375,0.654945054945055,0.4432296047098402,1196.0
369.0,1.7110028284190925e+18,0.47911227154047,0.4143835616438356,0.34378378378378377,0.49498654927855223,0.5230769230769231,0.4381833473507149,1195.0
370.0,1.7110028284290903e+18,0.4869451697127937,0.4189497716894977,0.3464864864864865,0.5133284421618978,0.654945054945055,0.44575273338940286,1196.0
371.0,1.7110028284390925e+18,0.46736292428198434,0.4063926940639269,0.3183783783783784,0.49327463927610665,0.5868131868131868,0.4339781328847771,1194.0
372.0,1.7110028284496049e+18,0.46344647519582244,0.408675799086758,0.32972972972972975,0.5143066764490095,0.6659340659340659,0.4415475189234651,1197.0
373.0,1.7110028284592044e+18,0.4908616187989556,0.4269406392694064,0.34162162162162163,0.4979212521398875,0.5494505494505495,0.4415475189234651,1195.0
374.0,1.7110028284690975e+18,0.4869451697127937,0.410958904109589,0.32756756756756755,0.508192712154561,0.6406593406593407,0.4348191757779647,1195.0
375.0,1.711002828479095e+18,0.47780678851174935,0.4155251141552511,0.34216216216216216,0.5001222792858889,0.5835164835164836,0.432296047098402,1192.0
376.0,1.7110028284890936e+18,0.4765013054830287,0.4121004566210046,0.3308108108108108,0.504524333577892,0.6967032967032967,0.44238856181665265,1195.0
377.0,1.7110028284991235e+18,0.46475195822454307,0.4178082191780822,0.34324324324324323,0.5118610907312301,0.6461538461538462,0.4507989907485282,1195.0
378.0,1.7110028285090975e+18,0.47780678851174935,0.4212328767123288,0.3291891891891892,0.5001222792858889,0.6802197802197802,0.4381833473507149,1194.0
379.0,1.7110028285190963e+18,0.4699738903394256,0.4098173515981735,0.3410810810810811,0.49938860357055515,0.5857142857142857,0.4449116904962153,1194.0
380.0,1.7110028285290954e+18,0.48172323759791125,0.4292237442922374,0.35243243243243244,0.512594766446564,0.6802197802197802,0.4432296047098402,1195.0
381.0,1.711002828539103e+18,0.48172323759791125,0.4200913242009132,0.3410810810810811,0.5074590364392272,0.634065934065934,0.44238856181665265,1194.0
382.0,1.711002828549163e+18,0.4765013054830287,0.4155251141552511,0.33513513513513515,0.5055025678650037,0.6747252747252748,0.43313708999158956,1193.0
383.0,1.711002828559097e+18,0.45822454308093996,0.4052511415525114,0.3291891891891892,0.49816581071166544,0.5758241758241758,0.43313708999158956,1194.0
384.0,1.7110028285690982e+18,0.4869451697127937,0.4200913242009132,0.3345945945945946,0.5103937393005625,0.6714285714285714,0.4449116904962153,1196.0
385.0,1.7110028285790984e+18,0.4830287206266319,0.4554794520547945,0.39135135135135135,0.5072144778674492,0.5714285714285714,0.43986543313709,1195.0
386.0,1.711002828589094e+18,0.46736292428198434,0.4098173515981735,0.3281081081081081,0.5099046221570066,0.6857142857142857,0.44238856181665265,1193.0
387.0,1.711002828599204e+18,0.4556135770234987,0.410958904109589,0.33837837837837836,0.495720224993886,0.4857142857142857,0.4188393608074012,1192.0
388.0,1.7110028286090962e+18,0.4830287206266319,0.4155251141552511,0.31567567567567567,0.4966984592809978,0.6626373626373626,0.4449116904962153,1196.0
389.0,1.7110028286190966e+18,0.46866840731070497,0.408675799086758,0.33837837837837836,0.4954756664221081,0.6362637362637362,0.4432296047098402,1196.0
390.0,1.711002828629098e+18,0.4869451697127937,0.4178082191780822,0.35567567567567565,0.5055025678650037,0.6681318681318681,0.4465937762825904,1194.0
391.0,1.7110028286391124e+18,0.47127937336814624,0.4041095890410959,0.3308108108108108,0.4925409635607728,0.6043956043956044,0.44070647603027757,1200.0
392.0,1.7110028286491167e+18,0.4765013054830287,0.4121004566210046,0.3410810810810811,0.5008559550012228,0.667032967032967,0.4432296047098402,1197.0
393.0,1.7110028286590994e+18,0.4699738903394256,0.4075342465753425,0.33783783783783783,0.5059916850085595,0.6032967032967033,0.4415475189234651,1197.0
394.0,1.7110028286691052e+18,0.47911227154047,0.4063926940639269,0.31675675675675674,0.5194424064563463,0.7076923076923077,0.44575273338940286,1194.0
395.0,1.7110028286790956e+18,0.46866840731070497,0.408675799086758,0.3567567567567568,0.49498654927855223,0.5989010989010989,0.432296047098402,1193.0
396.0,1.7110028286890975e+18,0.4621409921671018,0.4063926940639269,0.32756756756756755,0.5047688921496698,0.6692307692307692,0.4348191757779647,1193.0
397.0,1.7110028286991063e+18,0.46736292428198434,0.410958904109589,0.3345945945945946,0.4974321349963316,0.5582417582417583,0.4381833473507149,1196.0
398.0,1.711002828709111e+18,0.47911227154047,0.4132420091324201,0.3264864864864865,0.5015896307165566,0.6450549450549451,0.4381833473507149,1196.0
399.0,1.7110028287191e+18,0.4765013054830287,0.4075342465753425,0.3172972972972973,0.504035216434336,0.6373626373626373,0.44238856181665265,1196.0
400.0,1.7110028287290988e+18,0.47911227154047,0.4132420091324201,0.32,0.5135730007336757,0.7197802197802198,0.4415475189234651,1195.0
401.0,1.7110028287391014e+18,0.4608355091383812,0.3984018264840183,0.3037837837837838,0.49645390070921985,0.5483516483516484,0.43650126156433977,1194.0
402.0,1.711002828749116e+18,0.4725848563968668,0.3995433789954338,0.31945945945945947,0.48691611640988014,0.6637362637362637,0.4373423044575273,1195.0
403.0,1.7110028287591101e+18,0.4699738903394256,0.4052511415525114,0.32216216216216215,0.4937637564196625,0.5505494505494506,0.4348191757779647,1195.0
404.0,1.7110028287690944e+18,0.47127937336814624,0.410958904109589,0.3291891891891892,0.5047688921496698,0.6538461538461539,0.4339781328847771,1193.0
405.0,1.711002828779099e+18,0.4751958224543081,0.4155251141552511,0.3286486486486486,0.4996331621423331,0.5714285714285714,0.43650126156433977,1194.0
406.0,1.711002828789096e+18,0.4765013054830287,0.4189497716894977,0.32972972972972975,0.5084372707263389,0.7274725274725274,0.4432296047098402,1195.0
407.0,1.7110028287991342e+18,0.4869451697127937,0.4246575342465753,0.33297297297297296,0.4966984592809978,0.6021978021978022,0.4482758620689655,1200.0
408.0,1.7110028288091026e+18,0.4765013054830287,0.4132420091324201,0.3497297297297297,0.4966984592809978,0.6659340659340659,0.44238856181665265,1196.0
409.0,1.711002828819097e+18,0.4765013054830287,0.410958904109589,0.3308108108108108,0.4996331621423331,0.5956043956043956,0.43650126156433977,1192.0
410.0,1.711002828829094e+18,0.46866840731070497,0.4006849315068493,0.30594594594594593,0.4984103692834434,0.6494505494505495,0.4373423044575273,1193.0
411.0,1.7110028288391017e+18,0.47911227154047,0.430365296803653,0.36,0.5037906578625581,0.6021978021978022,0.4440706476030278,1196.0
412.0,1.7110028288491172e+18,0.4621409921671018,0.4006849315068493,0.3237837837837838,0.5055025678650037,0.6626373626373626,0.4339781328847771,1193.0
413.0,1.7110028288590697e+18,0.47127937336814624,0.408675799086758,0.33405405405405403,0.499877720714111,0.6208791208791209,0.44070647603027757,1196.0
414.0,1.7110028288690967e+18,0.4869451697127937,0.4235159817351598,0.3518918918918919,0.5001222792858889,0.6692307692307692,0.43902439024390244,1195.0
415.0,1.7110028288791004e+18,0.46344647519582244,0.4029680365296804,0.3016216216216216,0.48618244069454636,0.5802197802197803,0.44070647603027757,1196.0
416.0,1.7110028288890957e+18,0.47389033942558745,0.410958904109589,0.3318918918918919,0.5077035950110051,0.7131868131868132,0.45500420521446594,1197.0
417.0,1.71100282889912e+18,0.4751958224543081,0.408675799086758,0.3178378378378378,0.4937637564196625,0.5230769230769231,0.43313708999158956,1194.0
418.0,1.7110028289090975e+18,0.4765013054830287,0.4132420091324201,0.3178378378378378,0.5084372707263389,0.6626373626373626,0.42977291841883936,1193.0
419.0,1.7110028289191014e+18,0.4725848563968668,0.4018264840182648,0.3232432432432432,0.49229640498899485,0.5813186813186814,0.43902439024390244,1197.0
420.0,1.711002828929098e+18,0.46866840731070497,0.4041095890410959,0.312972972972973,0.5037906578625581,0.7032967032967034,0.4339781328847771,1195.0
421.0,1.7110028289391096e+18,0.46866840731070497,0.410958904109589,0.31567567567567567,0.4979212521398875,0.589010989010989,0.43566021867115223,1195.0
422.0,1.711002828949125e+18,0.4699738903394256,0.4132420091324201,0.3427027027027027,0.5050134507214478,0.6923076923076923,0.447434819175778,1196.0
423.0,1.7110028289590966e+18,0.4608355091383812,0.3995433789954338,0.3216216216216216,0.4974321349963316,0.5516483516483517,0.4280908326324643,1193.0
424.0,1.7110028289690952e+18,0.48172323759791125,0.4257990867579909,0.3583783783783784,0.5059916850085595,0.6978021978021978,0.45164003364171573,1195.0
425.0,1.7110028289790956e+18,0.4725848563968668,0.4121004566210046,0.33297297297297296,0.49400831499144043,0.5901098901098901,0.43313708999158956,1194.0
426.0,1.7110028289890936e+18,0.49869451697127937,0.4554794520547945,0.3854054054054054,0.5069699192956714,0.7153846153846154,0.4449116904962153,1195.0
427.0,1.7110028289991096e+18,0.47780678851174935,0.4098173515981735,0.33405405405405403,0.4988994864269993,0.532967032967033,0.4339781328847771,1192.0
428.0,1.711002829009096e+18,0.47127937336814624,0.4075342465753425,0.327027027027027,0.5018341892883346,0.656043956043956,0.4381833473507149,1197.0
429.0,1.7110028290190904e+18,0.46866840731070497,0.4075342465753425,0.3264864864864865,0.4942528735632184,0.5725274725274725,0.4373423044575273,1196.0
430.0,1.711002829029099e+18,0.4765013054830287,0.4337899543378995,0.37027027027027026,0.5069699192956714,0.6428571428571429,0.4381833473507149,1196.0
431.0,1.711002829039154e+18,0.47127937336814624,0.4121004566210046,0.3318918918918919,0.49816581071166544,0.6230769230769231,0.4415475189234651,1195.0
432.0,1.7110028290491082e+18,0.46866840731070497,0.4178082191780822,0.3345945945945946,0.49767669356810956,0.6538461538461539,0.4339781328847771,1196.0
433.0,1.711002829059108e+18,0.47389033942558745,0.4315068493150685,0.35243243243243244,0.5015896307165566,0.5802197802197803,0.4415475189234651,1195.0
434.0,1.7110028290691005e+18,0.4804177545691906,0.4041095890410959,0.31567567567567567,0.5064808021521154,0.643956043956044,0.4348191757779647,1197.0
435.0,1.7110028290791004e+18,0.4725848563968668,0.4143835616438356,0.3324324324324324,0.4969430178527757,0.5417582417582417,0.43650126156433977,1195.0
436.0,1.7110028290890998e+18,0.47780678851174935,0.4018264840182648,0.307027027027027,0.5059916850085595,0.7021978021978021,0.4381833473507149,1195.0
437.0,1.711002829099107e+18,0.4725848563968668,0.4360730593607306,0.3908108108108108,0.4966984592809978,0.5296703296703297,0.4339781328847771,1194.0
438.0,1.7110028291091054e+18,0.47127937336814624,0.4178082191780822,0.32756756756756755,0.5015896307165566,0.6406593406593407,0.43313708999158956,1194.0
439.0,1.7110028291190976e+18,0.47127937336814624,0.4337899543378995,0.3854054054054054,0.4944974321349963,0.5395604395604395,0.4222035323801514,1193.0
440.0,1.7110028291290988e+18,0.4621409921671018,0.4018264840182648,0.3178378378378378,0.5035460992907801,0.6802197802197802,0.4440706476030278,1194.0
441.0,1.7110028291391206e+18,0.4765013054830287,0.4075342465753425,0.3254054054054054,0.5030569821472243,0.5626373626373626,0.43650126156433977,1194.0
442.0,1.7110028291491223e+18,0.46866840731070497,0.4006849315068493,0.3264864864864865,0.504035216434336,0.7153846153846154,0.43902439024390244,1197.0
443.0,1.7110028291590886e+18,0.47911227154047,0.4098173515981735,0.3227027027027027,0.4969430178527757,0.589010989010989,0.43986543313709,1195.0
444.0,1.7110028291691062e+18,0.5039164490861618,0.4360730593607306,0.3286486486486486,0.5103937393005625,0.6901098901098901,0.4482758620689655,1195.0
445.0,1.7110028291791032e+18,0.48433420365535246,0.4452054794520548,0.38324324324324327,0.499877720714111,0.6021978021978022,0.4440706476030278,1196.0
446.0,1.711002829189104e+18,0.4765013054830287,0.4018264840182648,0.3232432432432432,0.5050134507214478,0.7065934065934066,0.4432296047098402,1195.0
447.0,1.711002829199098e+18,0.48172323759791125,0.4337899543378995,0.34594594594594597,0.5028124235754463,0.6472527472527473,0.4415475189234651,1195.0
448.0,1.711002829209097e+18,0.4621409921671018,0.4041095890410959,0.352972972972973,0.5099046221570066,0.6802197802197802,0.4415475189234651,1195.0
449.0,1.711002829219106e+18,0.4856396866840731,0.4429223744292237,0.3864864864864865,0.5018341892883346,0.5758241758241758,0.44575273338940286,1196.0
450.0,1.7110028292290962e+18,0.4765013054830287,0.408675799086758,0.3237837837837838,0.5047688921496698,0.6758241758241759,0.43566021867115223,1196.0
451.0,1.711002829239108e+18,0.4765013054830287,0.4052511415525114,0.3248648648648649,0.4913181707018831,0.5252747252747253,0.432296047098402,1194.0
452.0,1.7110028292491133e+18,0.47389033942558745,0.4063926940639269,0.3210810810810811,0.4944974321349963,0.6780219780219781,0.4280908326324643,1193.0
453.0,1.7110028292591017e+18,0.47127937336814624,0.4474885844748858,0.43243243243243246,0.49767669356810956,0.5769230769230769,0.43313708999158956,1194.0
454.0,1.7110028292691052e+18,0.44778067885117495,0.4155251141552511,0.34756756756756757,0.5084372707263389,0.634065934065934,0.4238856181665265,1194.0
455.0,1.7110028292790976e+18,0.47389033942558745,0.4121004566210046,0.33405405405405403,0.495964783565664,0.5692307692307692,0.4415475189234651,1198.0
456.0,1.7110028292891026e+18,0.4765013054830287,0.4063926940639269,0.3264864864864865,0.5025678650036683,0.6516483516483517,0.4381833473507149,1195.0
457.0,1.7110028292991122e+18,0.4725848563968668,0.4360730593607306,0.37783783783783786,0.5047688921496698,0.6516483516483517,0.44070647603027757,1198.0
458.0,1.711002829309134e+18,0.4765013054830287,0.4063926940639269,0.31027027027027027,0.5079481535827831,0.6626373626373626,0.4415475189234651,1196.0
459.0,1.7110028293190912e+18,0.46866840731070497,0.4029680365296804,0.3318918918918919,0.49620934213744194,0.5978021978021978,0.43986543313709,1194.0
460.0,1.711002829329093e+18,0.48172323759791125,0.4223744292237443,0.3302702702702703,0.5023233064318905,0.6659340659340659,0.44238856181665265,1195.0
461.0,1.7110028293391212e+18,0.47911227154047,0.408675799086758,0.3302702702702703,0.4966984592809978,0.5835164835164836,0.44575273338940286,1195.0
462.0,1.7110028293491423e+18,0.4830287206266319,0.4235159817351598,0.3427027027027027,0.4913181707018831,0.6362637362637362,0.44238856181665265,1196.0
463.0,1.71100282935911e+18,0.46736292428198434,0.3995433789954338,0.3210810810810811,0.4966984592809978,0.6098901098901099,0.43313708999158956,1192.0
464.0,1.711002829369103e+18,0.4765013054830287,0.4178082191780822,0.34162162162162163,0.5033015407190022,0.6626373626373626,0.43986543313709,1193.0
465.0,1.7110028293790979e+18,0.48433420365535246,0.4189497716894977,0.3178378378378378,0.4991440449987772,0.6164835164835165,0.4440706476030278,1193.0
466.0,1.7110028293890988e+18,0.4608355091383812,0.4029680365296804,0.3291891891891892,0.5108828564441183,0.7571428571428571,0.43902439024390244,1194.0
467.0,1.711002829399112e+18,0.4765013054830287,0.4155251141552511,0.3427027027027027,0.5018341892883346,0.5681318681318681,0.43650126156433977,1195.0
468.0,1.7110028294091064e+18,0.489556135770235,0.4406392694063927,0.3621621621621622,0.5050134507214478,0.6571428571428571,0.4432296047098402,1198.0
469.0,1.7110028294190956e+18,0.46736292428198434,0.4041095890410959,0.3227027027027027,0.5003668378576669,0.5945054945054945,0.4415475189234651,1196.0
470.0,1.7110028294290985e+18,0.47780678851174935,0.4155251141552511,0.33135135135135135,0.5059916850085595,0.667032967032967,0.4432296047098402,1195.0
471.0,1.7110028294390996e+18,0.4725848563968668,0.4041095890410959,0.3286486486486486,0.5050134507214478,0.589010989010989,0.4449116904962153,1195.0
472.0,1.7110028294491177e+18,0.4660574412532637,0.4223744292237443,0.3810810810810811,0.5028124235754463,0.643956043956044,0.4373423044575273,1196.0
473.0,1.7110028294593257e+18,0.47780678851174935,0.4121004566210046,0.3308108108108108,0.5074590364392272,0.6054945054945055,0.44575273338940286,1196.0
474.0,1.711002829469101e+18,0.4751958224543081,0.4166666666666667,0.3291891891891892,0.5069699192956714,0.6703296703296703,0.44575273338940286,1195.0
475.0,1.711002829479101e+18,0.47127937336814624,0.4052511415525114,0.32594594594594595,0.4925409635607728,0.5879120879120879,0.4289318755256518,1193.0
476.0,1.7110028294891028e+18,0.46344647519582244,0.410958904109589,0.32972972972972975,0.49498654927855223,0.6582417582417582,0.43902439024390244,1195.0
477.0,1.7110028294991196e+18,0.4765013054830287,0.4155251141552511,0.3302702702702703,0.5094155050134507,0.6087912087912087,0.4575273338940286,1196.0
478.0,1.7110028295091064e+18,0.47780678851174935,0.4143835616438356,0.3237837837837838,0.5006113964294449,0.6120879120879121,0.43650126156433977,1194.0
479.0,1.7110028295190996e+18,0.46736292428198434,0.3755707762557078,0.31351351351351353,0.499877720714111,0.5703296703296703,0.4415475189234651,1194.0
480.0,1.7110028295291008e+18,0.4660574412532637,0.3892694063926941,0.2843243243243243,0.5059916850085595,0.6978021978021978,0.4432296047098402,1195.0
481.0,1.711002829539102e+18,0.4725848563968668,0.4132420091324201,0.3302702702702703,0.49816581071166544,0.5747252747252747,0.4339781328847771,1192.0
482.0,1.711002829549115e+18,0.4765013054830287,0.4292237442922374,0.36648648648648646,0.5023233064318905,0.6362637362637362,0.43902439024390244,1195.0
483.0,1.7110028295591035e+18,0.47780678851174935,0.4189497716894977,0.33783783783783783,0.4986549278552213,0.610989010989011,0.4339781328847771,1194.0
484.0,1.7110028295691075e+18,0.489556135770235,0.4406392694063927,0.35027027027027025,0.5035460992907801,0.5747252747252747,0.4415475189234651,1196.0
485.0,1.7110028295791076e+18,0.4765013054830287,0.4189497716894977,0.3427027027027027,0.504035216434336,0.5945054945054945,0.4381833473507149,1194.0
486.0,1.7110028295891105e+18,0.4621409921671018,0.4075342465753425,0.32756756756756755,0.5072144778674492,0.6065934065934065,0.4255677039529016,1192.0
487.0,1.7110028295991217e+18,0.4830287206266319,0.4372146118721461,0.37351351351351353,0.49767669356810956,0.5428571428571428,0.4381833473507149,1195.0
488.0,1.7110028296091075e+18,0.47780678851174935,0.4178082191780822,0.34162162162162163,0.5113719735876743,0.7120879120879121,0.456686291000841,1195.0
489.0,1.71100282961911e+18,0.4765013054830287,0.4041095890410959,0.32054054054054054,0.4966984592809978,0.5769230769230769,0.43650126156433977,1197.0
490.0,1.7110028296291116e+18,0.4451697127937337,0.3892694063926941,0.3286486486486486,0.49205184641721694,0.6626373626373626,0.4222035323801514,1194.0
491.0,1.7110028296391237e+18,0.4621409921671018,0.4063926940639269,0.3286486486486486,0.4979212521398875,0.6065934065934065,0.43313708999158956,1194.0
492.0,1.7110028296491085e+18,0.4765013054830287,0.4121004566210046,0.32216216216216215,0.5025678650036683,0.6296703296703297,0.4373423044575273,1197.0
493.0,1.7110028296590958e+18,0.4804177545691906,0.410958904109589,0.31891891891891894,0.491807287845439,0.5538461538461539,0.43566021867115223,1197.0
494.0,1.711002829669097e+18,0.4765013054830287,0.4018264840182648,0.33405405405405403,0.5069699192956714,0.6736263736263737,0.45164003364171573,1195.0
495.0,1.7110028296790956e+18,0.4869451697127937,0.4235159817351598,0.34054054054054056,0.5035460992907801,0.5296703296703297,0.43986543313709,1195.0
496.0,1.7110028296890941e+18,0.47911227154047,0.4200913242009132,0.33135135135135135,0.5067253607238934,0.6802197802197802,0.43986543313709,1196.0
497.0,1.7110028296990945e+18,0.46736292428198434,0.4041095890410959,0.3281081081081081,0.5057471264367817,0.6494505494505495,0.44238856181665265,1197.0
498.0,1.711002829709113e+18,0.47389033942558745,0.410958904109589,0.33297297297297296,0.5079481535827831,0.6868131868131868,0.4449116904962153,1195.0
499.0,1.711002829719098e+18,0.4765013054830287,0.4200913242009132,0.35135135135135137,0.5050134507214478,0.6131868131868132,0.44575273338940286,1194.0
500.0,1.711002829729097e+18,0.47911227154047,0.4121004566210046,0.32054054054054054,0.5055025678650037,0.7681318681318682,0.44575273338940286,1196.0
501.0,1.7110028297391183e+18,0.46475195822454307,0.410958904109589,0.34162162162162163,0.4974321349963316,0.5956043956043956,0.43313708999158956,1192.0
502.0,1.7110028297491213e+18,0.48433420365535246,0.4360730593607306,0.3654054054054054,0.5035460992907801,0.6692307692307692,0.43650126156433977,1196.0
503.0,1.7110028297591165e+18,0.46866840731070497,0.3949771689497717,0.3302702702702703,0.49400831499144043,0.5538461538461539,0.4415475189234651,1196.0
504.0,1.7110028297691016e+18,0.4595300261096606,0.3915525114155251,0.3210810810810811,0.49767669356810956,0.6362637362637362,0.4255677039529016,1194.0
505.0,1.711002829779097e+18,0.46866840731070497,0.4041095890410959,0.3302702702702703,0.4937637564196625,0.5164835164835165,0.4306139613120269,1193.0
506.0,1.7110028297891013e+18,0.4765013054830287,0.4155251141552511,0.3237837837837838,0.5006113964294449,0.6417582417582418,0.43566021867115223,1194.0
507.0,1.7110028297990953e+18,0.4765013054830287,0.4189497716894977,0.3356756756756757,0.4984103692834434,0.6230769230769231,0.43902439024390244,1195.0
508.0,1.7110028298091016e+18,0.4765013054830287,0.4178082191780822,0.3124324324324324,0.5167522621667889,0.7164835164835165,0.4381833473507149,1197.0
509.0,1.7110028298191043e+18,0.4595300261096606,0.3972602739726027,0.32972972972972975,0.4991440449987772,0.4912087912087912,0.4280908326324643,1194.0
510.0,1.711002829829098e+18,0.4869451697127937,0.4406392694063927,0.36864864864864866,0.5084372707263389,0.676923076923077,0.4432296047098402,1194.0
511.0,1.7110028298390996e+18,0.46866840731070497,0.4029680365296804,0.32,0.48251406211787723,0.578021978021978,0.4381833473507149,1195.0
512.0,1.711002829849148e+18,0.47911227154047,0.4166666666666667,0.3356756756756757,0.4986549278552213,0.6538461538461539,0.4415475189234651,1197.0
513.0,1.7110028298591227e+18,0.4725848563968668,0.4178082191780822,0.34486486486486484,0.4991440449987772,0.5582417582417583,0.4381833473507149,1197.0
514.0,1.7110028298690985e+18,0.4556135770234987,0.3972602739726027,0.3324324324324324,0.5055025678650037,0.6901098901098901,0.432296047098402,1190.0
515.0,1.7110028298790976e+18,0.48433420365535246,0.4452054794520548,0.3881081081081081,0.5008559550012228,0.5835164835164836,0.4449116904962153,1196.0
516.0,1.711002829889099e+18,0.47911227154047,0.410958904109589,0.32972972972972975,0.5020787478601125,0.6593406593406593,0.43650126156433977,1196.0
517.0,1.7110028298990994e+18,0.47389033942558745,0.4292237442922374,0.3816216216216216,0.5006113964294449,0.5681318681318681,0.4415475189234651,1195.0
518.0,1.711002829909112e+18,0.47780678851174935,0.4143835616438356,0.32756756756756755,0.504279775006114,0.7252747252747253,0.4432296047098402,1195.0
519.0,1.711002829919094e+18,0.48172323759791125,0.4360730593607306,0.3551351351351351,0.4984103692834434,0.5868131868131868,0.44070647603027757,1195.0
520.0,1.7110028299290929e+18,0.4804177545691906,0.4178082191780822,0.33837837837837836,0.5103937393005625,0.6846153846153846,0.4415475189234651,1196.0
521.0,1.711002829939103e+18,0.49216710182767626,0.4383561643835616,0.3675675675675676,0.4971875764245537,0.5923076923076923,0.4415475189234651,1195.0
522.0,1.7110028299491261e+18,0.4804177545691906,0.4063926940639269,0.3227027027027027,0.49498654927855223,0.5923076923076923,0.43902439024390244,1196.0
523.0,1.7110028299591084e+18,0.47389033942558745,0.4041095890410959,0.32594594594594595,0.49767669356810956,0.5681318681318681,0.4415475189234651,1195.0
524.0,1.7110028299691077e+18,0.4660574412532637,0.3926940639269406,0.3286486486486486,0.504524333577892,0.6648351648351648,0.44238856181665265,1196.0
525.0,1.7110028299790966e+18,0.47127937336814624,0.408675799086758,0.34540540540540543,0.5015896307165566,0.5967032967032967,0.43986543313709,1195.0
526.0,1.7110028299890962e+18,0.48433420365535246,0.410958904109589,0.32432432432432434,0.48789435069699194,0.6131868131868132,0.4314550042052145,1194.0
527.0,1.7110028299991053e+18,0.46736292428198434,0.3972602739726027,0.32432432432432434,0.4942528735632184,0.5637362637362637,0.43313708999158956,1193.0
528.0,1.7110028300091075e+18,0.47911227154047,0.4121004566210046,0.307027027027027,0.5020787478601125,0.656043956043956,0.4381833473507149,1196.0
529.0,1.7110028300190991e+18,0.4869451697127937,0.4269406392694064,0.34864864864864864,0.4988994864269993,0.6065934065934065,0.44911690496215306,1196.0
530.0,1.7110028300290967e+18,0.4869451697127937,0.4257990867579909,0.3567567567567568,0.5067253607238934,0.6923076923076923,0.45248107653490327,1195.0
531.0,1.7110028300391084e+18,0.47911227154047,0.4315068493150685,0.3881081081081081,0.4966984592809978,0.5923076923076923,0.4415475189234651,1196.0
532.0,1.7110028300491377e+18,0.47911227154047,0.4200913242009132,0.34324324324324323,0.49938860357055515,0.6373626373626373,0.4381833473507149,1196.0
533.0,1.7110028300590904e+18,0.47389033942558745,0.4132420091324201,0.3362162162162162,0.4984103692834434,0.5186813186813187,0.4415475189234651,1196.0
534.0,1.7110028300690936e+18,0.46344647519582244,0.3995433789954338,0.3254054054054054,0.49767669356810956,0.676923076923077,0.43566021867115223,1197.0
535.0,1.711002830079093e+18,0.4869451697127937,0.4360730593607306,0.352972972972973,0.49523110785033014,0.5868131868131868,0.4373423044575273,1198.0
536.0,1.711002830089092e+18,0.4608355091383812,0.3949771689497717,0.3037837837837838,0.5008559550012228,0.6912087912087912,0.43986543313709,1195.0
537.0,1.7110028300991114e+18,0.47127937336814624,0.3904109589041096,0.32,0.4996331621423331,0.5747252747252747,0.44238856181665265,1197.0
538.0,1.7110028301091e+18,0.46475195822454307,0.4041095890410959,0.3264864864864865,0.5015896307165566,0.6593406593406593,0.43650126156433977,1198.0
539.0,1.7110028301190953e+18,0.47389033942558745,0.4075342465753425,0.32594594594594595,0.49767669356810956,0.5791208791208792,0.4381833473507149,1197.0
540.0,1.711002830129097e+18,0.4765013054830287,0.4178082191780822,0.32,0.49400831499144043,0.6472527472527473,0.43986543313709,1195.0
541.0,1.7110028301391158e+18,0.4608355091383812,0.4006849315068493,0.32972972972972975,0.49107361213010514,0.5373626373626373,0.42304457527333894,1192.0
542.0,1.711002830149776e+18,0.47780678851174935,0.4098173515981735,0.3291891891891892,0.504524333577892,0.6736263736263737,0.4415475189234651,1197.0
543.0,1.7110028301591089e+18,0.4725848563968668,0.408675799086758,0.3281081081081081,0.49474199070677427,0.5428571428571428,0.43650126156433977,1197.0
544.0,1.711002830169102e+18,0.4464751958224543,0.4075342465753425,0.3481081081081081,0.5079481535827831,0.689010989010989,0.4348191757779647,1200.0
545.0,1.7110028301791032e+18,0.4765013054830287,0.4372146118721461,0.3345945945945946,0.4996331621423331,0.6505494505494506,0.44911690496215306,1195.0
546.0,1.7110028301891075e+18,0.4765013054830287,0.410958904109589,0.32216216216216215,0.5008559550012228,0.6780219780219781,0.43902439024390244,1195.0
547.0,1.7110028301991201e+18,0.4725848563968668,0.408675799086758,0.32972972972972975,0.495720224993886,0.5615384615384615,0.44238856181665265,1194.0
548.0,1.7110028302090995e+18,0.47389033942558745,0.4121004566210046,0.34216216216216216,0.495720224993886,0.610989010989011,0.4289318755256518,1195.0
549.0,1.7110028302191068e+18,0.46344647519582244,0.4132420091324201,0.3281081081081081,0.5001222792858889,0.6032967032967033,0.4432296047098402,1194.0
550.0,1.7110028302291008e+18,0.4804177545691906,0.4235159817351598,0.3481081081081081,0.5113719735876743,0.7406593406593407,0.44911690496215306,1195.0
551.0,1.7110028302391114e+18,0.45822454308093996,0.3892694063926941,0.3081081081081081,0.4971875764245537,0.5967032967032967,0.43566021867115223,1198.0
552.0,1.711002830249163e+18,0.4830287206266319,0.4212328767123288,0.32972972972972975,0.5050134507214478,0.6835164835164835,0.4482758620689655,1197.0
553.0,1.7110028302591027e+18,0.47911227154047,0.4178082191780822,0.3345945945945946,0.5006113964294449,0.5923076923076923,0.4465937762825904,1196.0
554.0,1.7110028302690988e+18,0.4765013054830287,0.4200913242009132,0.34702702702702704,0.5086818292981169,0.6593406593406593,0.43650126156433977,1194.0
555.0,1.7110028302791002e+18,0.45691906005221933,0.410958904109589,0.31027027027027027,0.48985081927121543,0.5923076923076923,0.4272497897392767,1193.0
556.0,1.7110028302891016e+18,0.4725848563968668,0.4098173515981735,0.35621621621621624,0.49767669356810956,0.7208791208791209,0.44911690496215306,1197.0
557.0,1.7110028302991672e+18,0.46475195822454307,0.4029680365296804,0.3216216216216216,0.49058449498654927,0.5582417582417583,0.4339781328847771,1194.0
558.0,1.7110028303091244e+18,0.4660574412532637,0.3938356164383562,0.3178378378378378,0.4991440449987772,0.6824175824175824,0.43902439024390244,1196.0
559.0,1.711002830319105e+18,0.46736292428198434,0.4041095890410959,0.32972972972972975,0.5030569821472243,0.5516483516483517,0.4339781328847771,1193.0
560.0,1.711002830329104e+18,0.4765013054830287,0.3972602739726027,0.31567567567567567,0.5057471264367817,0.6384615384615384,0.43313708999158956,1195.0
561.0,1.7110028303391427e+18,0.47127937336814624,0.4098173515981735,0.35027027027027025,0.499877720714111,0.6,0.4449116904962153,1193.0
562.0,1.711002830349131e+18,0.47389033942558745,0.4052511415525114,0.32,0.5047688921496698,0.689010989010989,0.4432296047098402,1195.0
563.0,1.7110028303591173e+18,0.4765013054830287,0.4098173515981735,0.32594594594594595,0.5047688921496698,0.5714285714285714,0.43986543313709,1196.0
564.0,1.7110028303691044e+18,0.4830287206266319,0.4178082191780822,0.3372972972972973,0.5047688921496698,0.656043956043956,0.44070647603027757,1197.0
565.0,1.711002830379106e+18,0.47127937336814624,0.4166666666666667,0.34540540540540543,0.48740523355343607,0.5560439560439561,0.4415475189234651,1196.0
566.0,1.7110028303891023e+18,0.4765013054830287,0.4235159817351598,0.32756756756756755,0.504524333577892,0.689010989010989,0.4415475189234651,1196.0
567.0,1.7110028303991265e+18,0.47127937336814624,0.4246575342465753,0.36648648648648646,0.49620934213744194,0.5582417582417583,0.4373423044575273,1197.0
568.0,1.7110028304091164e+18,0.4751958224543081,0.4132420091324201,0.31891891891891894,0.5084372707263389,0.6846153846153846,0.4440706476030278,1196.0
569.0,1.711002830419112e+18,0.4765013054830287,0.4143835616438356,0.33135135135135135,0.4944974321349963,0.5516483516483517,0.4348191757779647,1196.0
570.0,1.7110028304291136e+18,0.47127937336814624,0.4178082191780822,0.32,0.504035216434336,0.6593406593406593,0.4289318755256518,1194.0
571.0,1.711002830439115e+18,0.47127937336814624,0.408675799086758,0.32594594594594595,0.4974321349963316,0.5747252747252747,0.4339781328847771,1196.0
572.0,1.7110028304491282e+18,0.48172323759791125,0.4212328767123288,0.3210810810810811,0.5074590364392272,0.6802197802197802,0.44238856181665265,1197.0
573.0,1.7110028304591114e+18,0.4765013054830287,0.410958904109589,0.3108108108108108,0.4937637564196625,0.5835164835164836,0.4432296047098402,1197.0
574.0,1.7110028304690993e+18,0.47911227154047,0.4132420091324201,0.32594594594594595,0.5028124235754463,0.689010989010989,0.4415475189234651,1197.0
575.0,1.7110028304791014e+18,0.46736292428198434,0.430365296803653,0.32594594594594595,0.5047688921496698,0.6021978021978022,0.4348191757779647,1195.0
576.0,1.7110028304890975e+18,0.4765013054830287,0.4018264840182648,0.31513513513513514,0.5074590364392272,0.6681318681318681,0.4415475189234651,1197.0
577.0,1.7110028304991468e+18,0.46736292428198434,0.4075342465753425,0.3410810810810811,0.49205184641721694,0.5659340659340659,0.4213624894869638,1192.0
578.0,1.7110028305090926e+18,0.4765013054830287,0.4132420091324201,0.33945945945945943,0.5064808021521154,0.7351648351648352,0.4440706476030278,1196.0
579.0,1.711002830519088e+18,0.4699738903394256,0.4132420091324201,0.34054054054054056,0.48691611640988014,0.5615384615384615,0.4348191757779647,1195.0
580.0,1.7110028305290872e+18,0.47911227154047,0.4223744292237443,0.3621621621621622,0.5079481535827831,0.676923076923077,0.4432296047098402,1195.0
581.0,1.7110028305390907e+18,0.43994778067885115,0.3961187214611872,0.33297297297297296,0.49523110785033014,0.5439560439560439,0.4188393608074012,1189.0
582.0,1.7110028305491062e+18,0.4804177545691906,0.4166666666666667,0.34162162162162163,0.5015896307165566,0.6505494505494506,0.4415475189234651,1197.0
583.0,1.711002830559078e+18,0.4699738903394256,0.408675799086758,0.3281081081081081,0.4986549278552213,0.6021978021978022,0.4415475189234651,1196.0
584.0,1.7110028305691026e+18,0.47911227154047,0.454337899543379,0.34702702702702704,0.5084372707263389,0.6648351648351648,0.432296047098402,1193.0
585.0,1.7110028305790874e+18,0.4765013054830287,0.410958904109589,0.32054054054054054,0.4988994864269993,0.554945054945055,0.43566021867115223,1195.0
586.0,1.7110028305890865e+18,0.4725848563968668,0.4280821917808219,0.3589189189189189,0.4930300807043287,0.6978021978021978,0.43902439024390244,1195.0
587.0,1.7110028305990976e+18,0.47127937336814624,0.3961187214611872,0.3081081081081081,0.5001222792858889,0.5868131868131868,0.43902439024390244,1196.0
588.0,1.711002830609075e+18,0.489556135770235,0.430365296803653,0.3497297297297297,0.5145512350207875,0.7021978021978021,0.4482758620689655,1196.0
589.0,1.7110028306190943e+18,0.46736292428198434,0.4075342465753425,0.33135135135135135,0.49620934213744194,0.5714285714285714,0.43566021867115223,1196.0
590.0,1.711002830629088e+18,0.49216710182767626,0.4257990867579909,0.3345945945945946,0.5047688921496698,0.6681318681318681,0.44575273338940286,1195.0
591.0,1.711002830639129e+18,0.4765013054830287,0.4018264840182648,0.3232432432432432,0.4966984592809978,0.5835164835164836,0.43902439024390244,1197.0
592.0,1.7110028306490964e+18,0.4908616187989556,0.4292237442922374,0.3691891891891892,0.5064808021521154,0.6802197802197802,0.4482758620689655,1194.0
593.0,1.7110028306590856e+18,0.47911227154047,0.4394977168949772,0.38,0.499877720714111,0.5516483516483517,0.44070647603027757,1196.0
594.0,1.7110028306690895e+18,0.4725848563968668,0.4041095890410959,0.32432432432432434,0.5057471264367817,0.6373626373626373,0.4373423044575273,1195.0
595.0,1.7110028306790884e+18,0.46344647519582244,0.4349315068493151,0.33945945945945943,0.4937637564196625,0.5791208791208792,0.4339781328847771,1194.0
596.0,1.7110028306890865e+18,0.49477806788511747,0.432648401826484,0.3491891891891892,0.504524333577892,0.6747252747252748,0.4449116904962153,1200.0
597.0,1.7110028306990935e+18,0.47389033942558745,0.4155251141552511,0.3362162162162162,0.4942528735632184,0.5835164835164836,0.4415475189234651,1195.0
598.0,1.7110028307090908e+18,0.47911227154047,0.4269406392694064,0.3491891891891892,0.5055025678650037,0.7505494505494505,0.4449116904962153,1195.0
599.0,1.7110028307190866e+18,0.46866840731070497,0.3995433789954338,0.3108108108108108,0.49938860357055515,0.5923076923076923,0.4415475189234651,1197.0
600.0,1.711002830729087e+18,0.4595300261096606,0.3926940639269406,0.29621621621621624,0.5025678650036683,0.6736263736263737,0.43650126156433977,1195.0
601.0,1.7110028307390904e+18,0.4699738903394256,0.4052511415525114,0.3318918918918919,0.49938860357055515,0.5681318681318681,0.43650126156433977,1195.0
602.0,1.711002830749088e+18,0.4725848563968668,0.4063926940639269,0.327027027027027,0.5050134507214478,0.6494505494505495,0.4415475189234651,1197.0
603.0,1.7110028307590915e+18,0.4516971279373368,0.386986301369863,0.31189189189189187,0.4954756664221081,0.5692307692307692,0.4348191757779647,1195.0
604.0,1.7110028307690936e+18,0.46475195822454307,0.3892694063926941,0.3075675675675676,0.5035460992907801,0.6384615384615384,0.43650126156433977,1196.0
605.0,1.711002830779083e+18,0.4765013054830287,0.4189497716894977,0.3302702702702703,0.49816581071166544,0.5483516483516484,0.432296047098402,1193.0
606.0,1.7110028307890803e+18,0.48172323759791125,0.4292237442922374,0.32432432432432434,0.5057471264367817,0.6626373626373626,0.44238856181665265,1197.0
607.0,1.7110028307990812e+18,0.4725848563968668,0.4315068493150685,0.3627027027027027,0.49645390070921985,0.5835164835164836,0.4373423044575273,1196.0
608.0,1.7110028308090816e+18,0.4830287206266319,0.4075342465753425,0.31405405405405407,0.504524333577892,0.6659340659340659,0.4465937762825904,1194.0
609.0,1.7110028308190897e+18,0.4765013054830287,0.3995433789954338,0.31513513513513514,0.4986549278552213,0.5879120879120879,0.4415475189234651,1194.0
610.0,1.711002830829091e+18,0.47911227154047,0.4098173515981735,0.32216216216216215,0.5020787478601125,0.6516483516483517,0.4432296047098402,1197.0
611.0,1.711002830839089e+18,0.4765013054830287,0.4143835616438356,0.33405405405405403,0.495720224993886,0.5615384615384615,0.43902439024390244,1195.0
612.0,1.7110028308490929e+18,0.47780678851174935,0.4155251141552511,0.33945945945945943,0.4979212521398875,0.6923076923076923,0.4415475189234651,1197.0
613.0,1.7110028308590907e+18,0.4765013054830287,0.4189497716894977,0.32594594594594595,0.5008559550012228,0.5967032967032967,0.4381833473507149,1194.0
614.0,1.7110028308690816e+18,0.47127937336814624,0.4041095890410959,0.31891891891891894,0.5011005135730008,0.6417582417582418,0.4381833473507149,1195.0
615.0,1.7110028308790807e+18,0.47389033942558745,0.3812785388127854,0.3216216216216216,0.508192712154561,0.6120879120879121,0.4449116904962153,1196.0
616.0,1.7110028308890824e+18,0.4725848563968668,0.3995433789954338,0.3232432432432432,0.4986549278552213,0.6571428571428571,0.4381833473507149,1195.0
617.0,1.7110028308991368e+18,0.4725848563968668,0.4155251141552511,0.33675675675675676,0.5059916850085595,0.6318681318681318,0.44575273338940286,1196.0
618.0,1.7110028309090885e+18,0.47780678851174935,0.4178082191780822,0.3308108108108108,0.5025678650036683,0.710989010989011,0.4381833473507149,1194.0
619.0,1.711002830919081e+18,0.48172323759791125,0.4372146118721461,0.3772972972972973,0.5057471264367817,0.6032967032967033,0.4449116904962153,1196.0
620.0,1.7110028309290834e+18,0.4804177545691906,0.4189497716894977,0.32972972972972975,0.5028124235754463,0.6747252747252748,0.43650126156433977,1195.0
621.0,1.7110028309390776e+18,0.47780678851174935,0.4132420091324201,0.3264864864864865,0.49474199070677427,0.5054945054945055,0.43566021867115223,1192.0
622.0,1.7110028309490929e+18,0.4830287206266319,0.4132420091324201,0.30648648648648646,0.5035460992907801,0.6626373626373626,0.43902439024390244,1195.0
623.0,1.7110028309590884e+18,0.47911227154047,0.4223744292237443,0.34486486486486484,0.4966984592809978,0.6098901098901099,0.44238856181665265,1197.0
624.0,1.7110028309690893e+18,0.4765013054830287,0.4200913242009132,0.3232432432432432,0.5050134507214478,0.6659340659340659,0.4339781328847771,1192.0
625.0,1.7110028309790894e+18,0.4765013054830287,0.4006849315068493,0.33135135135135135,0.49058449498654927,0.5714285714285714,0.43986543313709,1194.0
626.0,1.7110028309890885e+18,0.47780678851174935,0.4280821917808219,0.3427027027027027,0.49767669356810956,0.656043956043956,0.43566021867115223,1195.0
627.0,1.7110028309990984e+18,0.4660574412532637,0.4257990867579909,0.36648648648648646,0.49645390070921985,0.554945054945055,0.43566021867115223,1195.0
628.0,1.7110028310090778e+18,0.4908616187989556,0.4315068493150685,0.3518918918918919,0.5037906578625581,0.6967032967032967,0.44575273338940286,1195.0
629.0,1.7110028310190817e+18,0.45822454308093996,0.408675799086758,0.33297297297297296,0.49767669356810956,0.578021978021978,0.43902439024390244,1195.0
630.0,1.7110028310290803e+18,0.47780678851174935,0.408675799086758,0.3081081081081081,0.5106382978723404,0.6494505494505495,0.4381833473507149,1195.0
631.0,1.7110028310390804e+18,0.4725848563968668,0.4315068493150685,0.3886486486486487,0.4996331621423331,0.5648351648351648,0.43986543313709,1195.0
632.0,1.7110028310490962e+18,0.4765013054830287,0.410958904109589,0.3216216216216216,0.5037906578625581,0.6934065934065934,0.4348191757779647,1198.0
633.0,1.711002831059079e+18,0.46736292428198434,0.4155251141552511,0.35243243243243244,0.4930300807043287,0.6054945054945055,0.44238856181665265,1196.0
634.0,1.7110028310690877e+18,0.47389033942558745,0.4178082191780822,0.3318918918918919,0.5062362435803375,0.6571428571428571,0.43650126156433977,1196.0
635.0,1.7110028310790853e+18,0.48172323759791125,0.430365296803653,0.3589189189189189,0.4996331621423331,0.5813186813186814,0.4415475189234651,1196.0
636.0,1.7110028310890836e+18,0.4856396866840731,0.4166666666666667,0.3372972972972973,0.5062362435803375,0.676923076923077,0.4482758620689655,1197.0
637.0,1.7110028310990843e+18,0.4386422976501306,0.3881278538812785,0.3124324324324324,0.4937637564196625,0.5615384615384615,0.4272497897392767,1192.0
638.0,1.7110028311090877e+18,0.4765013054830287,0.4121004566210046,0.3497297297297297,0.5023233064318905,0.6846153846153846,0.4482758620689655,1194.0
639.0,1.711002831119089e+18,0.47127937336814624,0.4155251141552511,0.3372972972972973,0.4984103692834434,0.6142857142857143,0.4415475189234651,1195.0
640.0,1.7110028311290865e+18,0.4751958224543081,0.4132420091324201,0.33513513513513515,0.5055025678650037,0.676923076923077,0.4415475189234651,1195.0
641.0,1.7110028311390876e+18,0.4765013054830287,0.4235159817351598,0.33675675675675676,0.5001222792858889,0.5637362637362637,0.4348191757779647,1194.0
642.0,1.7110028311491182e+18,0.48172323759791125,0.4155251141552511,0.33513513513513515,0.4991440449987772,0.634065934065934,0.43986543313709,1193.0
643.0,1.7110028311590787e+18,0.4725848563968668,0.4041095890410959,0.3216216216216216,0.49498654927855223,0.5769230769230769,0.4415475189234651,1195.0
644.0,1.7110028311690862e+18,0.4830287206266319,0.4383561643835616,0.37675675675675674,0.5008559550012228,0.6505494505494506,0.43566021867115223,1195.0
645.0,1.7110028311790943e+18,0.46344647519582244,0.3984018264840183,0.30324324324324325,0.491807287845439,0.5527472527472528,0.4306139613120269,1193.0
646.0,1.711002831189085e+18,0.4725848563968668,0.4052511415525114,0.32756756756756755,0.5015896307165566,0.6472527472527473,0.43902439024390244,1194.0
647.0,1.7110028311991135e+18,0.4725848563968668,0.408675799086758,0.3318918918918919,0.49645390070921985,0.5857142857142857,0.43313708999158956,1191.0
648.0,1.7110028312090885e+18,0.4765013054830287,0.4063926940639269,0.3162162162162162,0.5077035950110051,0.6681318681318681,0.43986543313709,1196.0
649.0,1.7110028312190894e+18,0.4725848563968668,0.3961187214611872,0.3043243243243243,0.5059916850085595,0.6032967032967033,0.4440706476030278,1197.0
650.0,1.7110028312290877e+18,0.4725848563968668,0.4041095890410959,0.32432432432432434,0.495964783565664,0.5912087912087912,0.4415475189234651,1195.0
651.0,1.7110028312390917e+18,0.47780678851174935,0.4189497716894977,0.3281081081081081,0.4954756664221081,0.5703296703296703,0.4415475189234651,1197.0
652.0,1.7110028312490785e+18,0.44778067885117495,0.3858447488584475,0.31891891891891894,0.4991440449987772,0.6241758241758242,0.42640874684608915,1193.0
653.0,1.711002831259078e+18,0.4660574412532637,0.430365296803653,0.3745945945945946,0.5028124235754463,0.6472527472527473,0.44575273338940286,1197.0
654.0,1.7110028312690903e+18,0.49216710182767626,0.4429223744292237,0.3643243243243243,0.499877720714111,0.6307692307692307,0.4465937762825904,1196.0
655.0,1.7110028312790853e+18,0.46736292428198434,0.4018264840182648,0.3291891891891892,0.4979212521398875,0.5725274725274725,0.43650126156433977,1193.0
656.0,1.7110028312890857e+18,0.4830287206266319,0.4143835616438356,0.33135135135135135,0.5035460992907801,0.6901098901098901,0.43902439024390244,1196.0
657.0,1.7110028312990664e+18,0.4765013054830287,0.4052511415525114,0.32,0.495964783565664,0.5626373626373626,0.4339781328847771,1192.0
658.0,1.7110028313091154e+18,0.47911227154047,0.4063926940639269,0.31405405405405407,0.4969430178527757,0.6120879120879121,0.4280908326324643,1192.0
659.0,1.7110028313190904e+18,0.47780678851174935,0.4132420091324201,0.34216216216216216,0.49767669356810956,0.5538461538461539,0.4339781328847771,1192.0
660.0,1.7110028313290865e+18,0.4765013054830287,0.4360730593607306,0.3216216216216216,0.5057471264367817,0.7,0.4440706476030278,1193.0
661.0,1.7110028313390646e+18,0.47911227154047,0.410958904109589,0.32756756756756755,0.5020787478601125,0.6021978021978022,0.4415475189234651,1196.0
662.0,1.7110028313490852e+18,0.47911227154047,0.4246575342465753,0.34540540540540543,0.5055025678650037,0.6714285714285714,0.4415475189234651,1197.0
663.0,1.7110028313590863e+18,0.5013054830287206,0.4269406392694064,0.3281081081081081,0.499877720714111,0.5725274725274725,0.44238856181665265,1195.0
664.0,1.7110028313690862e+18,0.47780678851174935,0.4189497716894977,0.33513513513513515,0.5020787478601125,0.6538461538461539,0.43902439024390244,1196.0
665.0,1.7110028313790858e+18,0.48172323759791125,0.4223744292237443,0.3589189189189189,0.49498654927855223,0.5307692307692308,0.4314550042052145,1194.0
666.0,1.7110028313890857e+18,0.47911227154047,0.4098173515981735,0.32972972972972975,0.5079481535827831,0.7021978021978021,0.4449116904962153,1194.0
667.0,1.7110028313991124e+18,0.47389033942558745,0.4132420091324201,0.3286486486486486,0.4971875764245537,0.567032967032967,0.4373423044575273,1195.0
668.0,1.7110028314090852e+18,0.4765013054830287,0.4063926940639269,0.3145945945945946,0.5025678650036683,0.6703296703296703,0.43986543313709,1194.0
669.0,1.711002831419087e+18,0.47127937336814624,0.4075342465753425,0.3216216216216216,0.5020787478601125,0.5527472527472528,0.43566021867115223,1195.0
670.0,1.7110028314290877e+18,0.47911227154047,0.408675799086758,0.32972972972972975,0.5050134507214478,0.6538461538461539,0.432296047098402,1193.0
671.0,1.7110028314391004e+18,0.46344647519582244,0.4029680365296804,0.3254054054054054,0.5035460992907801,0.5956043956043956,0.4381833473507149,1197.0
672.0,1.7110028314505623e+18,0.4830287206266319,0.4337899543378995,0.3518918918918919,0.5011005135730008,0.7065934065934066,0.4415475189234651,1195.0
673.0,1.7110028314590897e+18,0.4725848563968668,0.4075342465753425,0.3308108108108108,0.4942528735632184,0.5615384615384615,0.4348191757779647,1196.0
674.0,1.7110028314690883e+18,0.47780678851174935,0.4337899543378995,0.3621621621621622,0.5111274150158963,0.6802197802197802,0.4482758620689655,1195.0
675.0,1.7110028314790884e+18,0.47911227154047,0.4246575342465753,0.34594594594594597,0.49938860357055515,0.5769230769230769,0.4373423044575273,1195.0
676.0,1.7110028314890893e+18,0.46866840731070497,0.4143835616438356,0.3248648648648649,0.504035216434336,0.6681318681318681,0.43902439024390244,1194.0
677.0,1.7110028314991132e+18,0.46344647519582244,0.4063926940639269,0.3362162162162162,0.4979212521398875,0.5802197802197803,0.4289318755256518,1193.0
678.0,1.711002831509094e+18,0.48433420365535246,0.4200913242009132,0.35945945945945945,0.5086818292981169,0.6505494505494506,0.44238856181665265,1196.0
679.0,1.7110028315190932e+18,0.4751958224543081,0.4075342465753425,0.32972972972972975,0.49523110785033014,0.5615384615384615,0.4381833473507149,1195.0
680.0,1.7110028315290941e+18,0.4725848563968668,0.410958904109589,0.3302702702702703,0.504035216434336,0.6692307692307692,0.4348191757779647,1196.0
681.0,1.7110028315390984e+18,0.4869451697127937,0.4029680365296804,0.3172972972972973,0.49523110785033014,0.5857142857142857,0.4482758620689655,1193.0
682.0,1.711002831549093e+18,0.49216710182767626,0.430365296803653,0.3491891891891892,0.5055025678650037,0.6692307692307692,0.4465937762825904,1195.0
683.0,1.7110028315590943e+18,0.4699738903394256,0.384703196347032,0.3286486486486486,0.5018341892883346,0.5626373626373626,0.432296047098402,1193.0
684.0,1.7110028315690952e+18,0.47127937336814624,0.4029680365296804,0.3302702702702703,0.5015896307165566,0.6956043956043956,0.4415475189234651,1195.0
685.0,1.7110028315790794e+18,0.47127937336814624,0.4029680365296804,0.31891891891891894,0.5055025678650037,0.6087912087912087,0.4415475189234651,1193.0
686.0,1.7110028315890962e+18,0.47127937336814624,0.4155251141552511,0.33405405405405403,0.5055025678650037,0.6648351648351648,0.4415475189234651,1196.0
687.0,1.7110028315991007e+18,0.47911227154047,0.4223744292237443,0.34,0.49620934213744194,0.6362637362637362,0.4465937762825904,1195.0
688.0,1.7110028316091062e+18,0.4765013054830287,0.4121004566210046,0.3345945945945946,0.5084372707263389,0.6791208791208792,0.44575273338940286,1197.0
689.0,1.7110028316190845e+18,0.4869451697127937,0.4497716894977169,0.3881081081081081,0.4937637564196625,0.5318681318681319,0.4314550042052145,1195.0
690.0,1.7110028316291246e+18,0.4725848563968668,0.4075342465753425,0.31351351351351353,0.5037906578625581,0.6978021978021978,0.44911690496215306,1196.0
691.0,1.711002831639107e+18,0.47389033942558745,0.408675799086758,0.3324324324324324,0.5055025678650037,0.5879120879120879,0.4415475189234651,1196.0
692.0,1.7110028316490803e+18,0.489556135770235,0.4166666666666667,0.36,0.504035216434336,0.6956043956043956,0.4415475189234651,1198.0
693.0,1.7110028316591032e+18,0.4595300261096606,0.3858447488584475,0.3254054054054054,0.48642699926632427,0.5439560439560439,0.43566021867115223,1196.0
694.0,1.7110028316690877e+18,0.46866840731070497,0.4155251141552511,0.33675675675675676,0.512350207874786,0.7076923076923077,0.4482758620689655,1197.0
695.0,1.7110028316790848e+18,0.46736292428198434,0.4098173515981735,0.34054054054054056,0.49816581071166544,0.5681318681318681,0.44070647603027757,1195.0
696.0,1.7110028316891105e+18,0.48172323759791125,0.4155251141552511,0.33135135135135135,0.5113719735876743,0.7153846153846154,0.4449116904962153,1197.0
697.0,1.7110028316990866e+18,0.46475195822454307,0.4098173515981735,0.34054054054054056,0.4944974321349963,0.6054945054945055,0.4381833473507149,1197.0
698.0,1.7110028317090924e+18,0.4725848563968668,0.408675799086758,0.32594594594594595,0.5035460992907801,0.6714285714285714,0.4440706476030278,1197.0
699.0,1.7110028317190835e+18,0.47127937336814624,0.4178082191780822,0.3497297297297297,0.4969430178527757,0.6087912087912087,0.4415475189234651,1195.0
700.0,1.7110028317290867e+18,0.48433420365535246,0.4269406392694064,0.34378378378378377,0.49816581071166544,0.654945054945055,0.4415475189234651,1196.0
701.0,1.7110028317390943e+18,0.46344647519582244,0.4018264840182648,0.32054054054054054,0.5001222792858889,0.6032967032967033,0.4339781328847771,1192.0
702.0,1.711002831749098e+18,0.48172323759791125,0.4189497716894977,0.3172972972972973,0.5074590364392272,0.6307692307692307,0.4465937762825904,1194.0
703.0,1.7110028317590863e+18,0.47127937336814624,0.410958904109589,0.3248648648648649,0.4986549278552213,0.5648351648351648,0.4381833473507149,1197.0
704.0,1.711002831769089e+18,0.4830287206266319,0.4360730593607306,0.3708108108108108,0.5055025678650037,0.6626373626373626,0.43313708999158956,1194.0
705.0,1.711002831779087e+18,0.47389033942558745,0.4121004566210046,0.33405405405405403,0.4966984592809978,0.5428571428571428,0.4339781328847771,1195.0
706.0,1.7110028317890834e+18,0.4765013054830287,0.4178082191780822,0.3318918918918919,0.512594766446564,0.7197802197802198,0.4465937762825904,1197.0
707.0,1.7110028317990902e+18,0.4765013054830287,0.4269406392694064,0.3535135135135135,0.4984103692834434,0.532967032967033,0.4381833473507149,1195.0
708.0,1.711002831809092e+18,0.4765013054830287,0.4075342465753425,0.3254054054054054,0.5138175593054537,0.6747252747252748,0.4415475189234651,1196.0
709.0,1.7110028318190554e+18,0.4765013054830287,0.4029680365296804,0.3762162162162162,0.4937637564196625,0.5186813186813187,0.4381833473507149,1195.0
710.0,1.7110028318290903e+18,0.47780678851174935,0.3961187214611872,0.3248648648648649,0.5074590364392272,0.656043956043956,0.4415475189234651,1194.0
711.0,1.71100283183909e+18,0.4751958224543081,0.4132420091324201,0.33783783783783783,0.5011005135730008,0.6153846153846154,0.44238856181665265,1194.0
712.0,1.7110028318490854e+18,0.48172323759791125,0.4200913242009132,0.33945945945945943,0.5028124235754463,0.6241758241758242,0.4449116904962153,1197.0
713.0,1.711002831859088e+18,0.4765013054830287,0.4212328767123288,0.3318918918918919,0.4937637564196625,0.5593406593406594,0.43313708999158956,1193.0
714.0,1.7110028318690865e+18,0.4804177545691906,0.4189497716894977,0.3345945945945946,0.4991440449987772,0.6703296703296703,0.4373423044575273,1195.0
715.0,1.7110028318790866e+18,0.4608355091383812,0.4098173515981735,0.33513513513513515,0.5023233064318905,0.6252747252747253,0.43313708999158956,1192.0
716.0,1.711002831889087e+18,0.48172323759791125,0.4200913242009132,0.3281081081081081,0.5057471264367817,0.6461538461538462,0.4415475189234651,1196.0
717.0,1.7110028318991135e+18,0.4699738903394256,0.4063926940639269,0.33405405405405403,0.5055025678650037,0.5912087912087912,0.432296047098402,1194.0
718.0,1.7110028319090918e+18,0.46475195822454307,0.410958904109589,0.31675675675675674,0.5015896307165566,0.6538461538461539,0.4255677039529016,1193.0
719.0,1.711002831919087e+18,0.46736292428198434,0.3904109589041096,0.3324324324324324,0.5023233064318905,0.5296703296703297,0.432296047098402,1196.0
720.0,1.7110028319290883e+18,0.4960835509138381,0.4452054794520548,0.3643243243243243,0.5067253607238934,0.6285714285714286,0.4289318755256518,1193.0
721.0,1.7110028319391388e+18,0.4830287206266319,0.4246575342465753,0.35405405405405405,0.504524333577892,0.5945054945054945,0.4432296047098402,1190.0
722.0,1.7110028319490944e+18,0.46866840731070497,0.4063926940639269,0.3264864864864865,0.504279775006114,0.6835164835164835,0.4432296047098402,1197.0
723.0,1.7110028319590815e+18,0.46475195822454307,0.4052511415525114,0.3232432432432432,0.5030569821472243,0.5571428571428572,0.43986543313709,1195.0
724.0,1.7110028319690844e+18,0.4804177545691906,0.4018264840182648,0.3178378378378378,0.5057471264367817,0.7263736263736263,0.44238856181665265,1196.0
725.0,1.7110028319790845e+18,0.4751958224543081,0.4063926940639269,0.3227027027027027,0.4971875764245537,0.5527472527472528,0.4314550042052145,1192.0
726.0,1.7110028319890875e+18,0.4804177545691906,0.4143835616438356,0.3389189189189189,0.5162631450232331,0.7230769230769231,0.45248107653490327,1197.0
727.0,1.711002831999095e+18,0.4699738903394256,0.3949771689497717,0.3497297297297297,0.4966984592809978,0.5615384615384615,0.4348191757779647,1197.0
728.0,1.7110028320091272e+18,0.4725848563968668,0.3858447488584475,0.3210810810810811,0.504279775006114,0.6494505494505495,0.43986543313709,1197.0
729.0,1.7110028320190866e+18,0.47127937336814624,0.4098173515981735,0.33297297297297296,0.48251406211787723,0.554945054945055,0.4348191757779647,1193.0
730.0,1.7110028320290877e+18,0.47127937336814624,0.410958904109589,0.3291891891891892,0.504035216434336,0.6681318681318681,0.44238856181665265,1194.0
731.0,1.7110028320391183e+18,0.46866840731070497,0.4041095890410959,0.3362162162162162,0.48985081927121543,0.5879120879120879,0.43902439024390244,1197.0
732.0,1.711002832049093e+18,0.4830287206266319,0.4155251141552511,0.32594594594594595,0.4974321349963316,0.6846153846153846,0.44575273338940286,1194.0
733.0,1.7110028320590881e+18,0.46475195822454307,0.408675799086758,0.33405405405405403,0.4966984592809978,0.6087912087912087,0.42977291841883936,1194.0
734.0,1.7110028320690854e+18,0.47780678851174935,0.432648401826484,0.35243243243243244,0.5008559550012228,0.6505494505494506,0.4373423044575273,1197.0
735.0,1.711002832079082e+18,0.46866840731070497,0.4063926940639269,0.3291891891891892,0.4974321349963316,0.5373626373626373,0.4272497897392767,1192.0
736.0,1.7110028320890816e+18,0.4765013054830287,0.4143835616438356,0.3302702702702703,0.5084372707263389,0.7065934065934066,0.4440706476030278,1196.0
737.0,1.711002832099089e+18,0.46475195822454307,0.4143835616438356,0.3583783783783784,0.5059916850085595,0.5824175824175825,0.44070647603027757,1195.0
738.0,1.7110028321090844e+18,0.4804177545691906,0.4132420091324201,0.31135135135135134,0.5035460992907801,0.656043956043956,0.4373423044575273,1196.0
739.0,1.7110028321190817e+18,0.47780678851174935,0.4178082191780822,0.34162162162162163,0.5008559550012228,0.5582417582417583,0.44070647603027757,1194.0
740.0,1.7110028321290834e+18,0.47780678851174935,0.4315068493150685,0.3286486486486486,0.5018341892883346,0.643956043956044,0.4339781328847771,1193.0
741.0,1.7110028321390938e+18,0.46344647519582244,0.4029680365296804,0.32054054054054054,0.4966984592809978,0.6428571428571429,0.4381833473507149,1195.0
742.0,1.7110028321490867e+18,0.4869451697127937,0.4269406392694064,0.33783783783783783,0.5057471264367817,0.6813186813186813,0.4415475189234651,1196.0
743.0,1.7110028321590892e+18,0.4608355091383812,0.4075342465753425,0.3281081081081081,0.504035216434336,0.6175824175824176,0.43650126156433977,1196.0
744.0,1.711002832169092e+18,0.48172323759791125,0.4143835616438356,0.3286486486486486,0.512350207874786,0.7021978021978021,0.4449116904962153,1196.0
745.0,1.7110028321790894e+18,0.46475195822454307,0.4063926940639269,0.3335135135135135,0.49767669356810956,0.5747252747252747,0.4381833473507149,1196.0
746.0,1.7110028321890995e+18,0.47911227154047,0.4155251141552511,0.3264864864864865,0.504524333577892,0.6714285714285714,0.4440706476030278,1195.0
747.0,1.7110028321990874e+18,0.49738903394255873,0.4748858447488584,0.3572972972972973,0.4971875764245537,0.5703296703296703,0.4415475189234651,1196.0
748.0,1.711002832209084e+18,0.47780678851174935,0.4029680365296804,0.3216216216216216,0.5011005135730008,0.6604395604395604,0.4415475189234651,1196.0
749.0,1.7110028322190843e+18,0.4725848563968668,0.4121004566210046,0.3589189189189189,0.495964783565664,0.5417582417582417,0.4314550042052145,1193.0
750.0,1.7110028322290844e+18,0.4830287206266319,0.4235159817351598,0.34324324324324323,0.5128393250183418,0.7395604395604396,0.4533221194280908,1196.0
751.0,1.71100283223909e+18,0.4660574412532637,0.4006849315068493,0.3264864864864865,0.495720224993886,0.5571428571428572,0.4306139613120269,1196.0
752.0,1.71100283224909e+18,0.48172323759791125,0.4178082191780822,0.3108108108108108,0.5064808021521154,0.6945054945054945,0.44070647603027757,1196.0
753.0,1.7110028322590863e+18,0.46475195822454307,0.3949771689497717,0.31027027027027027,0.4974321349963316,0.5846153846153846,0.43313708999158956,1194.0
754.0,1.7110028322690906e+18,0.4830287206266319,0.4292237442922374,0.3372972972972973,0.5069699192956714,0.6604395604395604,0.43902439024390244,1196.0
755.0,1.711002832279098e+18,0.47780678851174935,0.4178082191780822,0.3324324324324324,0.49938860357055515,0.6131868131868132,0.43566021867115223,1196.0
756.0,1.7110028322891123e+18,0.47389033942558745,0.4098173515981735,0.32756756756756755,0.504524333577892,0.6505494505494506,0.43986543313709,1196.0
757.0,1.7110028322990815e+18,0.47127937336814624,0.4063926940639269,0.32972972972972975,0.49620934213744194,0.6098901098901099,0.4415475189234651,1193.0
758.0,1.7110028323090906e+18,0.47780678851174935,0.4132420091324201,0.32756756756756755,0.504524333577892,0.6736263736263737,0.4449116904962153,1195.0
759.0,1.7110028323190907e+18,0.47780678851174935,0.4143835616438356,0.34378378378378377,0.5028124235754463,0.6593406593406593,0.4415475189234651,1196.0
760.0,1.711002832329091e+18,0.46344647519582244,0.4132420091324201,0.32972972972972975,0.5094155050134507,0.6714285714285714,0.4339781328847771,1194.0
761.0,1.7110028323390825e+18,0.4725848563968668,0.4212328767123288,0.34594594594594597,0.499877720714111,0.5901098901098901,0.4415475189234651,1194.0
762.0,1.7110028323490883e+18,0.4934725848563969,0.4440639269406393,0.3827027027027027,0.5106382978723404,0.6857142857142857,0.44575273338940286,1195.0
763.0,1.7110028323590897e+18,0.47389033942558745,0.4178082191780822,0.34216216216216216,0.499877720714111,0.5879120879120879,0.4381833473507149,1195.0
764.0,1.7110028323690929e+18,0.48433420365535246,0.4143835616438356,0.3210810810810811,0.4986549278552213,0.6714285714285714,0.4381833473507149,1193.0
765.0,1.7110028323791163e+18,0.46475195822454307,0.3767123287671233,0.3043243243243243,0.49767669356810956,0.6076923076923076,0.43902439024390244,1196.0
766.0,1.7110028323890954e+18,0.4869451697127937,0.408675799086758,0.3308108108108108,0.5028124235754463,0.6582417582417582,0.44911690496215306,1196.0
767.0,1.7110028323990848e+18,0.49216710182767626,0.4657534246575342,0.43567567567567567,0.5077035950110051,0.6197802197802198,0.4499579478553406,1198.0
768.0,1.711002832409095e+18,0.4830287206266319,0.4121004566210046,0.3281081081081081,0.5055025678650037,0.6329670329670329,0.4415475189234651,1196.0
769.0,1.7110028324191012e+18,0.46344647519582244,0.3972602739726027,0.30486486486486486,0.5064808021521154,0.6362637362637362,0.4381833473507149,1197.0
770.0,1.711002832429094e+18,0.47127937336814624,0.4098173515981735,0.3227027027027027,0.5028124235754463,0.6626373626373626,0.43902439024390244,1196.0
771.0,1.711002832439093e+18,0.47389033942558745,0.3995433789954338,0.32216216216216215,0.4971875764245537,0.578021978021978,0.4432296047098402,1194.0
772.0,1.7110028324490918e+18,0.4516971279373368,0.3949771689497717,0.32054054054054054,0.5020787478601125,0.7065934065934066,0.4339781328847771,1194.0
773.0,1.7110028324590953e+18,0.47389033942558745,0.4132420091324201,0.33837837837837836,0.5006113964294449,0.5604395604395604,0.4339781328847771,1193.0
774.0,1.7110028324690957e+18,0.46736292428198434,0.4132420091324201,0.33297297297297296,0.5035460992907801,0.6846153846153846,0.432296047098402,1192.0
775.0,1.7110028324790973e+18,0.4751958224543081,0.4166666666666667,0.33405405405405403,0.5035460992907801,0.5659340659340659,0.447434819175778,1195.0
776.0,1.7110028324890934e+18,0.4621409921671018,0.4075342465753425,0.3281081081081081,0.5030569821472243,0.6582417582417582,0.432296047098402,1195.0
777.0,1.7110028324990958e+18,0.46475195822454307,0.408675799086758,0.34162162162162163,0.49767669356810956,0.5527472527472528,0.42977291841883936,1194.0
778.0,1.7110028325091013e+18,0.4751958224543081,0.4063926940639269,0.3124324324324324,0.5025678650036683,0.6197802197802198,0.4255677039529016,1192.0
779.0,1.7110028325190856e+18,0.46866840731070497,0.4052511415525114,0.3308108108108108,0.5006113964294449,0.5967032967032967,0.43986543313709,1197.0
780.0,1.711002832529087e+18,0.47911227154047,0.4315068493150685,0.3302702702702703,0.4988994864269993,0.6626373626373626,0.4314550042052145,1195.0
781.0,1.7110028325390902e+18,0.4804177545691906,0.4178082191780822,0.3491891891891892,0.49767669356810956,0.5582417582417583,0.4381833473507149,1194.0
782.0,1.711002832549083e+18,0.4856396866840731,0.4189497716894977,0.3264864864864865,0.4896062606994375,0.676923076923077,0.4272497897392767,1192.0
783.0,1.7110028325590892e+18,0.4699738903394256,0.410958904109589,0.33783783783783783,0.5020787478601125,0.6032967032967033,0.4415475189234651,1194.0
784.0,1.711002832569087e+18,0.4869451697127937,0.4155251141552511,0.3124324324324324,0.504035216434336,0.6648351648351648,0.44575273338940286,1195.0
785.0,1.7110028325790945e+18,0.4765013054830287,0.408675799086758,0.32,0.4986549278552213,0.5879120879120879,0.43650126156433977,1196.0
786.0,1.711002832589101e+18,0.4934725848563969,0.4406392694063927,0.3535135135135135,0.5035460992907801,0.6758241758241759,0.4440706476030278,1195.0
787.0,1.7110028325990922e+18,0.46866840731070497,0.3995433789954338,0.31351351351351353,0.4927855221325507,0.5791208791208792,0.4373423044575273,1196.0
788.0,1.711002832609087e+18,0.4856396866840731,0.4257990867579909,0.3535135135135135,0.4991440449987772,0.6450549450549451,0.4415475189234651,1197.0
789.0,1.711002832619087e+18,0.489556135770235,0.4440639269406393,0.38,0.5069699192956714,0.6318681318681318,0.4449116904962153,1194.0
790.0,1.71100283262909e+18,0.48433420365535246,0.4132420091324201,0.32756756756756755,0.499877720714111,0.6538461538461539,0.43902439024390244,1196.0
791.0,1.7110028326391135e+18,0.4660574412532637,0.4269406392694064,0.3427027027027027,0.5006113964294449,0.5835164835164836,0.4373423044575273,1196.0
792.0,1.711002832649102e+18,0.48172323759791125,0.4166666666666667,0.3248648648648649,0.504279775006114,0.6615384615384615,0.4449116904962153,1197.0
793.0,1.7110028326590866e+18,0.46866840731070497,0.4029680365296804,0.32054054054054054,0.495964783565664,0.5791208791208792,0.4415475189234651,1196.0
794.0,1.7110028326690875e+18,0.4856396866840731,0.4520547945205479,0.36864864864864866,0.5023233064318905,0.6582417582417582,0.4381833473507149,1198.0
795.0,1.711002832679094e+18,0.4765013054830287,0.4143835616438356,0.3491891891891892,0.4984103692834434,0.5439560439560439,0.43986543313709,1196.0
796.0,1.7110028326891254e+18,0.4830287206266319,0.4178082191780822,0.34486486486486484,0.5069699192956714,0.7087912087912088,0.4449116904962153,1197.0
797.0,1.7110028326993536e+18,0.47127937336814624,0.3995433789954338,0.30594594594594593,0.495964783565664,0.5681318681318681,0.4415475189234651,1194.0
798.0,1.7110028327091e+18,0.48433420365535246,0.4155251141552511,0.3372972972972973,0.5094155050134507,0.6956043956043956,0.4449116904962153,1197.0
799.0,1.711002832719094e+18,0.4765013054830287,0.4189497716894977,0.34486486486486484,0.48936170212765956,0.567032967032967,0.44238856181665265,1196.0
800.0,1.7110028327290975e+18,0.4699738903394256,0.3984018264840183,0.34162162162162163,0.5028124235754463,0.6637362637362637,0.4381833473507149,1196.0
801.0,1.7110028327390948e+18,0.4751958224543081,0.4098173515981735,0.3254054054054054,0.495964783565664,0.5461538461538461,0.43313708999158956,1190.0
802.0,1.7110028327491372e+18,0.4804177545691906,0.4143835616438356,0.32756756756756755,0.5015896307165566,0.654945054945055,0.44238856181665265,1196.0
803.0,1.711002832759097e+18,0.46866840731070497,0.4063926940639269,0.32216216216216215,0.4927855221325507,0.5846153846153846,0.43902439024390244,1196.0
804.0,1.7110028327690916e+18,0.4869451697127937,0.4178082191780822,0.33783783783783783,0.504035216434336,0.6692307692307692,0.43650126156433977,1197.0
805.0,1.7110028327791145e+18,0.47911227154047,0.4166666666666667,0.3345945945945946,0.49327463927610665,0.5692307692307692,0.4432296047098402,1196.0
806.0,1.7110028327891016e+18,0.4725848563968668,0.4052511415525114,0.3232432432432432,0.5084372707263389,0.7,0.4415475189234651,1196.0
807.0,1.7110028327990907e+18,0.4765013054830287,0.4143835616438356,0.33837837837837836,0.499877720714111,0.5637362637362637,0.4415475189234651,1195.0
808.0,1.711002832809087e+18,0.47127937336814624,0.3995433789954338,0.3178378378378378,0.5018341892883346,0.6692307692307692,0.43902439024390244,1196.0
809.0,1.7110028328190945e+18,0.4765013054830287,0.432648401826484,0.38594594594594595,0.49620934213744194,0.6208791208791209,0.43313708999158956,1194.0
810.0,1.7110028328291054e+18,0.4725848563968668,0.3972602739726027,0.3081081081081081,0.4974321349963316,0.6626373626373626,0.4449116904962153,1197.0
811.0,1.7110028328390956e+18,0.4725848563968668,0.4166666666666667,0.3286486486486486,0.49767669356810956,0.5593406593406594,0.4381833473507149,1197.0
812.0,1.711002832849136e+18,0.4765013054830287,0.4189497716894977,0.3372972972972973,0.5020787478601125,0.6362637362637362,0.43313708999158956,1192.0
813.0,1.7110028328591186e+18,0.4660574412532637,0.408675799086758,0.3264864864864865,0.5020787478601125,0.5769230769230769,0.43313708999158956,1194.0
814.0,1.7110028328690926e+18,0.4765013054830287,0.4143835616438356,0.3210810810810811,0.5074590364392272,0.710989010989011,0.4432296047098402,1197.0
815.0,1.7110028328790994e+18,0.4869451697127937,0.4463470319634703,0.3681081081081081,0.4991440449987772,0.5934065934065934,0.44238856181665265,1196.0
816.0,1.7110028328890957e+18,0.47780678851174935,0.4178082191780822,0.3232432432432432,0.49767669356810956,0.6813186813186813,0.4533221194280908,1194.0
817.0,1.7110028328991073e+18,0.4595300261096606,0.3972602739726027,0.3264864864864865,0.4969430178527757,0.5340659340659341,0.4339781328847771,1194.0
818.0,1.7110028329090941e+18,0.48172323759791125,0.4200913242009132,0.3583783783783784,0.5067253607238934,0.6714285714285714,0.43902439024390244,1195.0
819.0,1.7110028329190956e+18,0.48172323759791125,0.4292237442922374,0.35027027027027025,0.5018341892883346,0.6010989010989011,0.4449116904962153,1194.0
820.0,1.7110028329290895e+18,0.4804177545691906,0.4509132420091324,0.38594594594594595,0.5096600635852286,0.6747252747252748,0.43902439024390244,1196.0
821.0,1.7110028329390904e+18,0.4699738903394256,0.408675799086758,0.3291891891891892,0.49938860357055515,0.5967032967032967,0.43902439024390244,1193.0
822.0,1.7110028329490906e+18,0.47127937336814624,0.408675799086758,0.3281081081081081,0.5025678650036683,0.6802197802197802,0.44238856181665265,1195.0
823.0,1.7110028329590879e+18,0.4765013054830287,0.4121004566210046,0.3308108108108108,0.4979212521398875,0.5263736263736264,0.4247266610597141,1191.0
824.0,1.7110028329690885e+18,0.47911227154047,0.4223744292237443,0.32594594594594595,0.5143066764490095,0.7032967032967034,0.44575273338940286,1196.0
825.0,1.7110028329790927e+18,0.46736292428198434,0.4143835616438356,0.34486486486486484,0.49767669356810956,0.5142857142857142,0.43650126156433977,1196.0
826.0,1.7110028329890857e+18,0.4725848563968668,0.4235159817351598,0.34162162162162163,0.5155294693078992,0.6824175824175824,0.4482758620689655,1195.0
827.0,1.7110028329990915e+18,0.47911227154047,0.410958904109589,0.33135135135135135,0.4986549278552213,0.5934065934065934,0.44070647603027757,1196.0
828.0,1.7110028330090916e+18,0.48172323759791125,0.4406392694063927,0.3172972972972973,0.5089263878698949,0.6934065934065934,0.44575273338940286,1196.0
829.0,1.7110028330190838e+18,0.4765013054830287,0.4132420091324201,0.33135135135135135,0.49523110785033014,0.5527472527472528,0.432296047098402,1196.0
830.0,1.711002833029085e+18,0.4765013054830287,0.4063926940639269,0.3281081081081081,0.5079481535827831,0.6813186813186813,0.43986543313709,1195.0
831.0,1.7110028330391048e+18,0.47389033942558745,0.4223744292237443,0.3335135135135135,0.49523110785033014,0.5406593406593406,0.4280908326324643,1194.0
832.0,1.7110028330490918e+18,0.4960835509138381,0.454337899543379,0.3567567567567568,0.5103937393005625,0.689010989010989,0.43650126156433977,1196.0
833.0,1.71100283305908e+18,0.46475195822454307,0.3949771689497717,0.3172972972972973,0.49816581071166544,0.6120879120879121,0.43902439024390244,1198.0
834.0,1.7110028330690906e+18,0.46736292428198434,0.4098173515981735,0.3302702702702703,0.5030569821472243,0.6461538461538462,0.43313708999158956,1195.0
835.0,1.711002833079088e+18,0.47780678851174935,0.4200913242009132,0.33135135135135135,0.4991440449987772,0.5989010989010989,0.43902439024390244,1195.0
836.0,1.7110028330890872e+18,0.48433420365535246,0.4497716894977169,0.3345945945945946,0.5028124235754463,0.6472527472527473,0.44070647603027757,1193.0
837.0,1.7110028330990863e+18,0.4725848563968668,0.4189497716894977,0.3286486486486486,0.5018341892883346,0.5571428571428572,0.4381833473507149,1196.0
838.0,1.7110028331090865e+18,0.48172323759791125,0.4121004566210046,0.3237837837837838,0.504035216434336,0.6582417582417582,0.43902439024390244,1197.0
839.0,1.7110028331190858e+18,0.4660574412532637,0.4041095890410959,0.34054054054054056,0.5025678650036683,0.6098901098901099,0.4373423044575273,1196.0
840.0,1.7110028331290867e+18,0.47127937336814624,0.410958904109589,0.31891891891891894,0.5035460992907801,0.6538461538461539,0.4348191757779647,1196.0
841.0,1.7110028331390884e+18,0.4765013054830287,0.4075342465753425,0.33513513513513515,0.5055025678650037,0.6241758241758242,0.43566021867115223,1195.0
842.0,1.7110028331501036e+18,0.4765013054830287,0.4132420091324201,0.35027027027027025,0.504279775006114,0.6758241758241759,0.4306139613120269,1193.0
843.0,1.711002833159081e+18,0.45300261096605743,0.3824200913242009,0.30864864864864866,0.49645390070921985,0.5791208791208792,0.43650126156433977,1196.0
844.0,1.7110028331690867e+18,0.47127937336814624,0.4075342465753425,0.31891891891891894,0.5023233064318905,0.689010989010989,0.4381833473507149,1196.0
845.0,1.7110028331790892e+18,0.47780678851174935,0.4143835616438356,0.33783783783783783,0.48936170212765956,0.5615384615384615,0.43986543313709,1196.0
846.0,1.7110028331890903e+18,0.48433420365535246,0.4155251141552511,0.32756756756756755,0.499877720714111,0.6494505494505495,0.4449116904962153,1193.0
847.0,1.711002833199089e+18,0.47780678851174935,0.4200913242009132,0.3264864864864865,0.49816581071166544,0.5417582417582417,0.43986543313709,1196.0
848.0,1.7110028332090737e+18,0.489556135770235,0.4246575342465753,0.3427027027027027,0.5011005135730008,0.6175824175824176,0.43650126156433977,1197.0
849.0,1.7110028332190794e+18,0.4660574412532637,0.4006849315068493,0.3248648648648649,0.4937637564196625,0.5593406593406594,0.4373423044575273,1196.0
850.0,1.71100283322908e+18,0.47127937336814624,0.4178082191780822,0.35621621621621624,0.5094155050134507,0.6846153846153846,0.4306139613120269,1193.0
851.0,1.7110028332390897e+18,0.4751958224543081,0.4052511415525114,0.32594594594594595,0.4937637564196625,0.5571428571428572,0.4415475189234651,1197.0
852.0,1.7110028332490877e+18,0.48433420365535246,0.4394977168949772,0.34162162162162163,0.49205184641721694,0.6637362637362637,0.4415475189234651,1195.0
853.0,1.7110028332590812e+18,0.4830287206266319,0.4178082191780822,0.3362162162162162,0.5047688921496698,0.5978021978021978,0.44575273338940286,1198.0
854.0,1.7110028332690903e+18,0.48825065274151436,0.4337899543378995,0.34540540540540543,0.5103937393005625,0.6626373626373626,0.44238856181665265,1197.0
855.0,1.7110028332790845e+18,0.46866840731070497,0.4041095890410959,0.3286486486486486,0.5055025678650037,0.6274725274725275,0.4381833473507149,1196.0
856.0,1.7110028332890888e+18,0.4765013054830287,0.4143835616438356,0.32972972972972975,0.5025678650036683,0.6538461538461539,0.44238856181665265,1196.0
857.0,1.7110028332990922e+18,0.4725848563968668,0.4178082191780822,0.3427027027027027,0.49816581071166544,0.5703296703296703,0.4415475189234651,1196.0
858.0,1.7110028333091113e+18,0.48172323759791125,0.4132420091324201,0.3216216216216216,0.5079481535827831,0.667032967032967,0.43986543313709,1197.0
859.0,1.7110028333190938e+18,0.4765013054830287,0.408675799086758,0.3318918918918919,0.5003668378576669,0.6384615384615384,0.44238856181665265,1197.0
860.0,1.7110028333290916e+18,0.47911227154047,0.4041095890410959,0.32756756756756755,0.5099046221570066,0.6912087912087912,0.4432296047098402,1196.0
861.0,1.7110028333390897e+18,0.46866840731070497,0.4006849315068493,0.3389189189189189,0.495720224993886,0.5923076923076923,0.43902439024390244,1194.0
862.0,1.7110028333490865e+18,0.4765013054830287,0.4143835616438356,0.32594594594594595,0.504524333577892,0.676923076923077,0.44238856181665265,1196.0
863.0,1.7110028333590797e+18,0.49477806788511747,0.4463470319634703,0.3691891891891892,0.5006113964294449,0.5989010989010989,0.4415475189234651,1196.0
864.0,1.711002833369093e+18,0.48825065274151436,0.4280821917808219,0.33837837837837836,0.5001222792858889,0.6230769230769231,0.4314550042052145,1194.0
865.0,1.711002833379086e+18,0.47389033942558745,0.4178082191780822,0.33837837837837836,0.4984103692834434,0.5802197802197803,0.4381833473507149,1197.0
866.0,1.711002833389094e+18,0.47389033942558745,0.3858447488584475,0.3362162162162162,0.5047688921496698,0.6802197802197802,0.44238856181665265,1196.0
867.0,1.7110028333990935e+18,0.4699738903394256,0.3892694063926941,0.34162162162162163,0.49205184641721694,0.5285714285714286,0.4280908326324643,1194.0
868.0,1.7110028334090836e+18,0.4830287206266319,0.4257990867579909,0.3545945945945946,0.4991440449987772,0.6802197802197802,0.4482758620689655,1195.0
869.0,1.711002833419085e+18,0.4765013054830287,0.4189497716894977,0.33135135135135135,0.49523110785033014,0.5318681318681319,0.43650126156433977,1194.0
870.0,1.7110028334290852e+18,0.49216710182767626,0.4155251141552511,0.3210810810810811,0.5077035950110051,0.6802197802197802,0.44575273338940286,1196.0
871.0,1.711002833439082e+18,0.47389033942558745,0.4075342465753425,0.3308108108108108,0.49938860357055515,0.589010989010989,0.4432296047098402,1196.0
872.0,1.711002833449387e+18,0.489556135770235,0.4257990867579909,0.34324324324324323,0.5050134507214478,0.6934065934065934,0.4499579478553406,1197.0
873.0,1.7110028334591022e+18,0.47780678851174935,0.4155251141552511,0.36,0.4996331621423331,0.5934065934065934,0.4415475189234651,1197.0
874.0,1.711002833469103e+18,0.4804177545691906,0.4486301369863014,0.3589189189189189,0.5094155050134507,0.6593406593406593,0.43986543313709,1197.0
875.0,1.711002833479098e+18,0.4908616187989556,0.4235159817351598,0.35243243243243244,0.49058449498654927,0.532967032967033,0.4339781328847771,1192.0
876.0,1.7110028334890972e+18,0.4830287206266319,0.4200913242009132,0.34594594594594597,0.5035460992907801,0.6571428571428571,0.4449116904962153,1196.0
877.0,1.7110028334990994e+18,0.4608355091383812,0.4041095890410959,0.3302702702702703,0.4986549278552213,0.5659340659340659,0.4381833473507149,1196.0
878.0,1.711002833509098e+18,0.47780678851174935,0.4132420091324201,0.3286486486486486,0.5023233064318905,0.6494505494505495,0.44070647603027757,1197.0
879.0,1.7110028335190897e+18,0.46344647519582244,0.4155251141552511,0.3362162162162162,0.4971875764245537,0.5769230769230769,0.4280908326324643,1192.0
880.0,1.711002833529091e+18,0.48825065274151436,0.4315068493150685,0.34702702702702704,0.5008559550012228,0.6813186813186813,0.4449116904962153,1197.0
881.0,1.7110028335390963e+18,0.46344647519582244,0.4200913242009132,0.3254054054054054,0.4883834678405478,0.5538461538461539,0.4314550042052145,1193.0
882.0,1.7110028335491026e+18,0.48433420365535246,0.4178082191780822,0.33135135135135135,0.4988994864269993,0.689010989010989,0.4465937762825904,1194.0
883.0,1.7110028335590927e+18,0.4765013054830287,0.4132420091324201,0.3362162162162162,0.4988994864269993,0.6318681318681318,0.44238856181665265,1196.0
884.0,1.7110028335690941e+18,0.4804177545691906,0.4132420091324201,0.3497297297297297,0.5152849107361213,0.6912087912087912,0.44238856181665265,1194.0
885.0,1.7110028335790948e+18,0.47127937336814624,0.4018264840182648,0.3410810810810811,0.5011005135730008,0.5692307692307692,0.4415475189234651,1194.0
886.0,1.7110028335890954e+18,0.4595300261096606,0.3915525114155251,0.3124324324324324,0.49938860357055515,0.6538461538461539,0.43902439024390244,1195.0
887.0,1.7110028335991032e+18,0.4804177545691906,0.4223744292237443,0.3291891891891892,0.4988994864269993,0.5813186813186814,0.4381833473507149,1196.0
888.0,1.711002833609095e+18,0.47780678851174935,0.4189497716894977,0.34702702702702704,0.5086818292981169,0.7087912087912088,0.4499579478553406,1197.0
889.0,1.711002833619098e+18,0.47127937336814624,0.4143835616438356,0.3389189189189189,0.4986549278552213,0.5714285714285714,0.4415475189234651,1197.0
890.0,1.7110028336290929e+18,0.4765013054830287,0.4098173515981735,0.3335135135135135,0.5074590364392272,0.7274725274725274,0.4449116904962153,1194.0
891.0,1.7110028336391017e+18,0.46475195822454307,0.4155251141552511,0.3545945945945946,0.5174859378821227,0.6406593406593407,0.4432296047098402,1199.0
892.0,1.7110028336491028e+18,0.4869451697127937,0.4212328767123288,0.32216216216216215,0.5067253607238934,0.6703296703296703,0.44238856181665265,1197.0
893.0,1.7110028336590956e+18,0.4660574412532637,0.3995433789954338,0.3308108108108108,0.49620934213744194,0.5934065934065934,0.43986543313709,1194.0
894.0,1.711002833669099e+18,0.4660574412532637,0.3995433789954338,0.3043243243243243,0.5033015407190022,0.7197802197802198,0.44238856181665265,1199.0
895.0,1.7110028336790986e+18,0.4765013054830287,0.4121004566210046,0.3372972972972973,0.5015896307165566,0.6274725274725275,0.4432296047098402,1195.0
896.0,1.7110028336891e+18,0.5013054830287206,0.4452054794520548,0.3345945945945946,0.5103937393005625,0.6802197802197802,0.44911690496215306,1195.0
897.0,1.7110028336991007e+18,0.47127937336814624,0.410958904109589,0.3491891891891892,0.49645390070921985,0.567032967032967,0.4415475189234651,1195.0
898.0,1.7110028337091246e+18,0.4765013054830287,0.4178082191780822,0.32594594594594595,0.4984103692834434,0.6527472527472528,0.4415475189234651,1197.0
899.0,1.7110028337191012e+18,0.46866840731070497,0.4075342465753425,0.32432432432432434,0.48911714355588165,0.5230769230769231,0.4222035323801514,1193.0
900.0,1.711002833729086e+18,0.4765013054830287,0.3961187214611872,0.3232432432432432,0.4991440449987772,0.6538461538461539,0.4381833473507149,1198.0
901.0,1.711002833739086e+18,0.4660574412532637,0.4063926940639269,0.3237837837837838,0.4944974321349963,0.589010989010989,0.43313708999158956,1192.0
902.0,1.7110028337490762e+18,0.4725848563968668,0.4075342465753425,0.3302702702702703,0.5025678650036683,0.6703296703296703,0.4432296047098402,1198.0
903.0,1.7110028337590868e+18,0.46866840731070497,0.4075342465753425,0.3281081081081081,0.4937637564196625,0.5758241758241758,0.4373423044575273,1197.0
904.0,1.7110028337690767e+18,0.4856396866840731,0.4235159817351598,0.3410810810810811,0.5094155050134507,0.7,0.4449116904962153,1194.0
905.0,1.7110028337791063e+18,0.47389033942558745,0.4178082191780822,0.3567567567567568,0.4988994864269993,0.5945054945054945,0.44238856181665265,1195.0
906.0,1.711002833789089e+18,0.46866840731070497,0.4052511415525114,0.32054054054054054,0.5035460992907801,0.6461538461538462,0.43566021867115223,1197.0
907.0,1.7110028337991183e+18,0.4765013054830287,0.4235159817351598,0.32594594594594595,0.49474199070677427,0.5351648351648352,0.44238856181665265,1197.0
908.0,1.7110028338090775e+18,0.47780678851174935,0.4143835616438356,0.33675675675675676,0.5020787478601125,0.654945054945055,0.4373423044575273,1194.0
909.0,1.711002833819085e+18,0.4660574412532637,0.4018264840182648,0.3145945945945946,0.5015896307165566,0.5725274725274725,0.43650126156433977,1196.0
910.0,1.7110028338290865e+18,0.47127937336814624,0.408675799086758,0.3254054054054054,0.5035460992907801,0.6626373626373626,0.4348191757779647,1197.0
911.0,1.711002833839082e+18,0.47127937336814624,0.4132420091324201,0.3389189189189189,0.5011005135730008,0.5439560439560439,0.4432296047098402,1197.0
912.0,1.71100283384909e+18,0.4765013054830287,0.4452054794520548,0.3589189189189189,0.5069699192956714,0.7263736263736263,0.4415475189234651,1197.0
913.0,1.711002833859113e+18,0.48825065274151436,0.4406392694063927,0.3605405405405405,0.5035460992907801,0.5791208791208792,0.43902439024390244,1198.0
914.0,1.7110028338690918e+18,0.4804177545691906,0.4041095890410959,0.31945945945945947,0.5096600635852286,0.6923076923076923,0.4381833473507149,1196.0
915.0,1.7110028338790884e+18,0.4699738903394256,0.4098173515981735,0.3324324324324324,0.495964783565664,0.5626373626373626,0.43313708999158956,1195.0
916.0,1.7110028338890865e+18,0.47780678851174935,0.4189497716894977,0.3389189189189189,0.5099046221570066,0.701098901098901,0.44238856181665265,1196.0
917.0,1.7110028338991132e+18,0.4765013054830287,0.4292237442922374,0.36108108108108106,0.49620934213744194,0.5846153846153846,0.4381833473507149,1195.0
918.0,1.7110028339090806e+18,0.4869451697127937,0.4292237442922374,0.35405405405405405,0.5055025678650037,0.6417582417582418,0.43986543313709,1197.0
919.0,1.711002833919084e+18,0.47911227154047,0.410958904109589,0.3362162162162162,0.4979212521398875,0.6032967032967033,0.4432296047098402,1195.0
920.0,1.7110028339290885e+18,0.4751958224543081,0.410958904109589,0.3308108108108108,0.5067253607238934,0.6626373626373626,0.4373423044575273,1196.0
921.0,1.7110028339390907e+18,0.46866840731070497,0.4200913242009132,0.352972972972973,0.5008559550012228,0.5879120879120879,0.43902439024390244,1198.0
922.0,1.7110028339491151e+18,0.4660574412532637,0.4155251141552511,0.3021621621621622,0.5069699192956714,0.6857142857142857,0.43986543313709,1197.0
923.0,1.7110028339590853e+18,0.4869451697127937,0.4269406392694064,0.34054054054054056,0.4969430178527757,0.5813186813186814,0.43566021867115223,1196.0
924.0,1.7110028339690862e+18,0.4830287206266319,0.4178082191780822,0.3372972972972973,0.5028124235754463,0.689010989010989,0.44238856181665265,1197.0
925.0,1.711002833979088e+18,0.4751958224543081,0.4212328767123288,0.34054054054054056,0.5025678650036683,0.5956043956043956,0.44070647603027757,1197.0
926.0,1.7110028339890875e+18,0.4804177545691906,0.4189497716894977,0.3372972972972973,0.5057471264367817,0.701098901098901,0.4415475189234651,1196.0
927.0,1.7110028339990902e+18,0.48172323759791125,0.4315068493150685,0.3762162162162162,0.4971875764245537,0.5604395604395604,0.43902439024390244,1195.0
928.0,1.7110028340091072e+18,0.4765013054830287,0.432648401826484,0.3324324324324324,0.5064808021521154,0.6582417582417582,0.4449116904962153,1196.0
929.0,1.7110028340190894e+18,0.45691906005221933,0.3972602739726027,0.31189189189189187,0.4942528735632184,0.5637362637362637,0.432296047098402,1192.0
930.0,1.711002834029088e+18,0.46344647519582244,0.3972602739726027,0.3172972972972973,0.5108828564441183,0.6901098901098901,0.4415475189234651,1197.0
931.0,1.711002834039088e+18,0.4660574412532637,0.4006849315068493,0.3216216216216216,0.495964783565664,0.5868131868131868,0.4381833473507149,1198.0
932.0,1.7110028340490867e+18,0.46475195822454307,0.3961187214611872,0.3081081081081081,0.5025678650036683,0.6351648351648351,0.42640874684608915,1195.0
933.0,1.7110028340590884e+18,0.4765013054830287,0.4178082191780822,0.3464864864864865,0.499877720714111,0.5967032967032967,0.44238856181665265,1196.0
934.0,1.7110028340690913e+18,0.48433420365535246,0.4189497716894977,0.36702702702702705,0.5086818292981169,0.6813186813186813,0.4465937762825904,1199.0
935.0,1.7110028340790897e+18,0.4804177545691906,0.4063926940639269,0.34324324324324323,0.4991440449987772,0.5725274725274725,0.4415475189234651,1196.0
936.0,1.7110028340890875e+18,0.4725848563968668,0.4041095890410959,0.30594594594594593,0.5086818292981169,0.7087912087912088,0.447434819175778,1197.0
937.0,1.711002834099107e+18,0.4830287206266319,0.4406392694063927,0.3837837837837838,0.4988994864269993,0.5868131868131868,0.4415475189234651,1197.0
938.0,1.7110028341090867e+18,0.48172323759791125,0.4132420091324201,0.3281081081081081,0.5064808021521154,0.6978021978021978,0.44238856181665265,1195.0
939.0,1.711002834119086e+18,0.46344647519582244,0.3961187214611872,0.3162162162162162,0.4974321349963316,0.5967032967032967,0.43902439024390244,1196.0
940.0,1.7110028341290867e+18,0.4869451697127937,0.4075342465753425,0.33513513513513515,0.5059916850085595,0.676923076923077,0.44238856181665265,1196.0
941.0,1.7110028341390863e+18,0.46344647519582244,0.4029680365296804,0.33297297297297296,0.495720224993886,0.5835164835164836,0.4381833473507149,1197.0
942.0,1.7110028341490842e+18,0.47780678851174935,0.4189497716894977,0.33405405405405403,0.5050134507214478,0.654945054945055,0.4373423044575273,1196.0
943.0,1.7110028341590876e+18,0.4595300261096606,0.4668949771689498,0.4237837837837838,0.5059916850085595,0.5593406593406594,0.41968040370058873,1193.0
944.0,1.7110028341690834e+18,0.4660574412532637,0.3995433789954338,0.3232432432432432,0.5057471264367817,0.6285714285714286,0.4348191757779647,1194.0
945.0,1.7110028341790884e+18,0.47127937336814624,0.4155251141552511,0.33675675675675676,0.4937637564196625,0.5263736263736264,0.4255677039529016,1194.0
946.0,1.7110028341890844e+18,0.47780678851174935,0.4189497716894977,0.3345945945945946,0.5067253607238934,0.6714285714285714,0.43986543313709,1195.0
947.0,1.7110028341991444e+18,0.4765013054830287,0.4052511415525114,0.34756756756756757,0.5037906578625581,0.6153846153846154,0.4415475189234651,1196.0
948.0,1.711002834209088e+18,0.4660574412532637,0.4143835616438356,0.3318918918918919,0.5035460992907801,0.6626373626373626,0.43650126156433977,1196.0
949.0,1.7110028342190856e+18,0.4595300261096606,0.3938356164383562,0.3124324324324324,0.5006113964294449,0.5758241758241758,0.4280908326324643,1194.0
950.0,1.7110028342290844e+18,0.47127937336814624,0.4041095890410959,0.3178378378378378,0.49938860357055515,0.6362637362637362,0.4339781328847771,1193.0
951.0,1.7110028342391053e+18,0.4608355091383812,0.4029680365296804,0.3183783783783784,0.5006113964294449,0.5043956043956044,0.4112699747687132,1195.0
952.0,1.7110028342490934e+18,0.4765013054830287,0.410958904109589,0.33297297297297296,0.5028124235754463,0.6450549450549451,0.4415475189234651,1197.0
953.0,1.7110028342590892e+18,0.4765013054830287,0.4223744292237443,0.3318918918918919,0.49523110785033014,0.5637362637362637,0.4415475189234651,1197.0
954.0,1.7110028342690908e+18,0.4751958224543081,0.4098173515981735,0.33135135135135135,0.5057471264367817,0.6714285714285714,0.4415475189234651,1195.0
955.0,1.711002834279088e+18,0.4699738903394256,0.408675799086758,0.3389189189189189,0.5015896307165566,0.6406593406593407,0.4432296047098402,1196.0
956.0,1.7110028342890847e+18,0.4908616187989556,0.4269406392694064,0.31891891891891894,0.4986549278552213,0.689010989010989,0.447434819175778,1196.0
957.0,1.7110028342990797e+18,0.4765013054830287,0.4178082191780822,0.34,0.5003668378576669,0.5637362637362637,0.4348191757779647,1196.0
958.0,1.711002834309144e+18,0.4699738903394256,0.4143835616438356,0.31513513513513514,0.5064808021521154,0.634065934065934,0.43313708999158956,1193.0
959.0,1.7110028343190892e+18,0.48172323759791125,0.4200913242009132,0.3264864864864865,0.49498654927855223,0.5769230769230769,0.43650126156433977,1196.0
960.0,1.711002834329089e+18,0.4765013054830287,0.4132420091324201,0.3308108108108108,0.5028124235754463,0.6758241758241759,0.4465937762825904,1195.0
961.0,1.7110028343390892e+18,0.48172323759791125,0.4132420091324201,0.33837837837837836,0.5025678650036683,0.5967032967032967,0.4449116904962153,1194.0
962.0,1.7110028343490834e+18,0.4765013054830287,0.4166666666666667,0.3308108108108108,0.5011005135730008,0.6648351648351648,0.4449116904962153,1196.0
963.0,1.7110028343590915e+18,0.46475195822454307,0.4029680365296804,0.3324324324324324,0.49107361213010514,0.5483516483516484,0.43313708999158956,1192.0
964.0,1.7110028343690908e+18,0.4765013054830287,0.4143835616438356,0.3291891891891892,0.5047688921496698,0.6945054945054945,0.4440706476030278,1195.0
965.0,1.7110028343790915e+18,0.4490861618798956,0.3972602739726027,0.32972972972972975,0.4986549278552213,0.5835164835164836,0.42977291841883936,1195.0
966.0,1.711002834389097e+18,0.46344647519582244,0.3995433789954338,0.31945945945945947,0.5074590364392272,0.7065934065934066,0.4415475189234651,1196.0
967.0,1.7110028343991424e+18,0.47780678851174935,0.4052511415525114,0.3286486486486486,0.49816581071166544,0.5714285714285714,0.4381833473507149,1196.0
968.0,1.7110028344090826e+18,0.4725848563968668,0.410958904109589,0.3227027027027027,0.5091709464416728,0.6912087912087912,0.43902439024390244,1196.0
969.0,1.7110028344190892e+18,0.4725848563968668,0.4041095890410959,0.3308108108108108,0.5035460992907801,0.6164835164835165,0.43902439024390244,1196.0
970.0,1.7110028344290898e+18,0.47389033942558745,0.4052511415525114,0.3281081081081081,0.5037906578625581,0.6120879120879121,0.4339781328847771,1193.0
971.0,1.7110028344391386e+18,0.48172323759791125,0.4315068493150685,0.35135135135135137,0.49498654927855223,0.5835164835164836,0.4381833473507149,1195.0
972.0,1.7110028344494083e+18,0.47780678851174935,0.4132420091324201,0.3264864864864865,0.5035460992907801,0.6714285714285714,0.4415475189234651,1196.0
973.0,1.711002834459099e+18,0.4621409921671018,0.4098173515981735,0.33675675675675676,0.4839814135485449,0.567032967032967,0.4314550042052145,1195.0
974.0,1.7110028344690985e+18,0.4725848563968668,0.4178082191780822,0.33837837837837836,0.5055025678650037,0.6395604395604395,0.43902439024390244,1196.0
975.0,1.7110028344790912e+18,0.4608355091383812,0.4041095890410959,0.33135135135135135,0.5001222792858889,0.5483516483516484,0.4280908326324643,1193.0
976.0,1.7110028344890913e+18,0.48433420365535246,0.4178082191780822,0.33297297297297296,0.5133284421618978,0.6626373626373626,0.43902439024390244,1196.0
977.0,1.711002834499131e+18,0.48825065274151436,0.4509132420091324,0.3675675675675676,0.5015896307165566,0.5692307692307692,0.4415475189234651,1196.0
978.0,1.7110028345091325e+18,0.4830287206266319,0.4269406392694064,0.3637837837837838,0.5008559550012228,0.6384615384615384,0.4432296047098402,1198.0
979.0,1.7110028345191322e+18,0.45822454308093996,0.3961187214611872,0.34054054054054056,0.4996331621423331,0.5956043956043956,0.43566021867115223,1196.0
980.0,1.7110028345291315e+18,0.4751958224543081,0.4052511415525114,0.3345945945945946,0.5015896307165566,0.6648351648351648,0.44070647603027757,1197.0
981.0,1.7110028345391332e+18,0.45691906005221933,0.4041095890410959,0.33837837837837836,0.4927855221325507,0.5263736263736264,0.4280908326324643,1193.0
982.0,1.7110028345491323e+18,0.47389033942558745,0.4143835616438356,0.3324324324324324,0.5074590364392272,0.6747252747252748,0.4415475189234651,1195.0
983.0,1.7110028345591283e+18,0.489556135770235,0.408675799086758,0.33837837837837836,0.49645390070921985,0.5868131868131868,0.432296047098402,1193.0
984.0,1.711002834569131e+18,0.48433420365535246,0.4292237442922374,0.33945945945945943,0.5037906578625581,0.6791208791208792,0.4482758620689655,1197.0
985.0,1.7110028345790828e+18,0.4725848563968668,0.4006849315068493,0.33135135135135135,0.4991440449987772,0.5714285714285714,0.43566021867115223,1195.0
986.0,1.711002834589085e+18,0.4425587467362924,0.3961187214611872,0.29621621621621624,0.5011005135730008,0.6483516483516484,0.42977291841883936,1192.0
987.0,1.711002834599075e+18,0.4725848563968668,0.4098173515981735,0.3216216216216216,0.5013450721447786,0.6450549450549451,0.4482758620689655,1196.0
988.0,1.7110028346090898e+18,0.49477806788511747,0.4189497716894977,0.3389189189189189,0.499877720714111,0.6747252747252748,0.4499579478553406,1195.0
989.0,1.7110028346191288e+18,0.47911227154047,0.4143835616438356,0.33405405405405403,0.5099046221570066,0.5659340659340659,0.43650126156433977,1197.0
990.0,1.7110028346291302e+18,0.48172323759791125,0.4269406392694064,0.3410810810810811,0.5030569821472243,0.6538461538461539,0.4482758620689655,1195.0
991.0,1.7110028346391293e+18,0.47127937336814624,0.4075342465753425,0.33297297297297296,0.4986549278552213,0.6285714285714286,0.4440706476030278,1196.0
992.0,1.7110028346491297e+18,0.5078328981723238,0.4931506849315068,0.3783783783783784,0.5057471264367817,0.689010989010989,0.4449116904962153,1197.0
993.0,1.7110028346590746e+18,0.4725848563968668,0.4041095890410959,0.3281081081081081,0.4942528735632184,0.5659340659340659,0.44238856181665265,1195.0
994.0,1.7110028346691274e+18,0.47911227154047,0.4178082191780822,0.327027027027027,0.4988994864269993,0.676923076923077,0.43902439024390244,1196.0
995.0,1.711002834679086e+18,0.4660574412532637,0.408675799086758,0.3302702702702703,0.4966984592809978,0.5923076923076923,0.43650126156433977,1196.0
996.0,1.711002834689125e+18,0.47127937336814624,0.4143835616438356,0.32756756756756755,0.5094155050134507,0.7197802197802198,0.43902439024390244,1197.0
997.0,1.711002834699126e+18,0.4725848563968668,0.4132420091324201,0.33837837837837836,0.499877720714111,0.6065934065934065,0.43902439024390244,1194.0
998.0,1.7110028347090826e+18,0.48433420365535246,0.4098173515981735,0.3162162162162162,0.5055025678650037,0.5879120879120879,0.432296047098402,1194.0
999.0,1.7110028347191232e+18,0.45691906005221933,0.3949771689497717,0.32216216216216215,0.4988994864269993,0.5263736263736264,0.4255677039529016,1193.0
1000.0,1.7110028347291236e+18,0.4765013054830287,0.386986301369863,0.3210810810810811,0.5035460992907801,0.6802197802197802,0.43902439024390244,1195.0
