202.0,1.7114420495451018e+18,0.47911227154047,0.4246575342465753,0.33513513513513515,0.5023233064318905,0.6241758241758242,0.4415475189234651,1197.0
203.0,1.7114420495551027e+18,0.48172323759791125,0.4292237442922374,0.3567567567567568,0.5030569821472243,0.6296703296703297,0.43986543313709,1195.0
204.0,1.7114420495651054e+18,0.4765013054830287,0.410958904109589,0.3286486486486486,0.5018341892883346,0.6252747252747253,0.4415475189234651,1197.0
205.0,1.711442049575104e+18,0.4765013054830287,0.4178082191780822,0.34378378378378377,0.5037906578625581,0.6054945054945055,0.43902439024390244,1197.0
206.0,1.7114420495851067e+18,0.4830287206266319,0.4394977168949772,0.35783783783783785,0.5030569821472243,0.621978021978022,0.4415475189234651,1197.0
207.0,1.7114420495951053e+18,0.47127937336814624,0.4075342465753425,0.34324324324324323,0.5008559550012228,0.6197802197802198,0.43986543313709,1197.0
208.0,1.7114420496051052e+18,0.4765013054830287,0.4166666666666667,0.33675675675675676,0.504524333577892,0.6362637362637362,0.43986543313709,1197.0
209.0,1.7114420496151068e+18,0.47389033942558745,0.408675799086758,0.31189189189189187,0.5025678650036683,0.6274725274725275,0.43902439024390244,1197.0
210.0,1.7114420496251046e+18,0.47127937336814624,0.4098173515981735,0.32756756756756755,0.4988994864269993,0.6043956043956044,0.4339781328847771,1192.0
211.0,1.7114420496351073e+18,0.4765013054830287,0.4143835616438356,0.33837837837837836,0.5020787478601125,0.6274725274725275,0.4415475189234651,1196.0
212.0,1.7114420496451067e+18,0.4765013054830287,0.4132420091324201,0.32594594594594595,0.5011005135730008,0.6153846153846154,0.4415475189234651,1196.0
213.0,1.7114420496551104e+18,0.4804177545691906,0.4075342465753425,0.32594594594594595,0.5008559550012228,0.6153846153846154,0.4415475189234651,1195.0
214.0,1.7114420496651067e+18,0.4751958224543081,0.4178082191780822,0.3291891891891892,0.5001222792858889,0.6208791208791209,0.43650126156433977,1196.0
215.0,1.7114420496751089e+18,0.47911227154047,0.4246575342465753,0.3535135135135135,0.5047688921496698,0.6307692307692307,0.43902439024390244,1194.0
216.0,1.711442049685106e+18,0.48172323759791125,0.4269406392694064,0.3551351351351351,0.5025678650036683,0.6252747252747253,0.44238856181665265,1194.0
217.0,1.7114420496951112e+18,0.4804177545691906,0.410958904109589,0.34216216216216216,0.5011005135730008,0.6230769230769231,0.43986543313709,1197.0
218.0,1.7114420497051064e+18,0.47127937336814624,0.4041095890410959,0.31675675675675674,0.5001222792858889,0.6197802197802198,0.43902439024390244,1197.0
219.0,1.7114420497151117e+18,0.4751958224543081,0.4155251141552511,0.33945945945945943,0.499877720714111,0.6131868131868132,0.4415475189234651,1197.0
220.0,1.7114420497251064e+18,0.4725848563968668,0.4132420091324201,0.3345945945945946,0.5011005135730008,0.6318681318681318,0.4415475189234651,1197.0
221.0,1.7114420497351132e+18,0.4765013054830287,0.4075342465753425,0.3237837837837838,0.5020787478601125,0.6307692307692307,0.44070647603027757,1197.0
222.0,1.711442049745107e+18,0.4765013054830287,0.4132420091324201,0.3427027027027027,0.504524333577892,0.6362637362637362,0.4415475189234651,1195.0
223.0,1.7114420497551017e+18,0.4725848563968668,0.3984018264840183,0.31675675675675674,0.5001222792858889,0.6076923076923076,0.4348191757779647,1196.0
224.0,1.7114420497650985e+18,0.4869451697127937,0.4280821917808219,0.327027027027027,0.5018341892883346,0.6230769230769231,0.4381833473507149,1196.0
225.0,1.7114420497750996e+18,0.4699738903394256,0.4063926940639269,0.3232432432432432,0.5028124235754463,0.6450549450549451,0.4381833473507149,1196.0
226.0,1.7114420497851028e+18,0.4765013054830287,0.4143835616438356,0.34162162162162163,0.5008559550012228,0.6285714285714286,0.43986543313709,1196.0
227.0,1.711442049795099e+18,0.4765013054830287,0.410958904109589,0.31891891891891894,0.5006113964294449,0.6197802197802198,0.43650126156433977,1197.0
228.0,1.7114420498050993e+18,0.47389033942558745,0.4200913242009132,0.33675675675675676,0.5001222792858889,0.6186813186813187,0.43902439024390244,1197.0
229.0,1.7114420498150991e+18,0.47389033942558745,0.4121004566210046,0.3281081081081081,0.49938860357055515,0.6098901098901099,0.43566021867115223,1197.0
230.0,1.7114420498251016e+18,0.47127937336814624,0.4200913242009132,0.3324324324324324,0.5011005135730008,0.6274725274725275,0.43902439024390244,1194.0
231.0,1.7114420498351258e+18,0.4765013054830287,0.4235159817351598,0.35945945945945945,0.5015896307165566,0.6065934065934065,0.43650126156433977,1196.0
232.0,1.711442049845099e+18,0.4765013054830287,0.4315068493150685,0.33945945945945943,0.499877720714111,0.6131868131868132,0.43986543313709,1197.0
233.0,1.7114420498551025e+18,0.4765013054830287,0.4178082191780822,0.34324324324324323,0.5015896307165566,0.6307692307692307,0.43902439024390244,1197.0
234.0,1.7114420498650998e+18,0.47389033942558745,0.4132420091324201,0.33405405405405403,0.5011005135730008,0.6307692307692307,0.4415475189234651,1196.0
235.0,1.7114420498751526e+18,0.47389033942558745,0.4121004566210046,0.32,0.5018341892883346,0.6505494505494506,0.4440706476030278,1196.0
236.0,1.711442049885107e+18,0.4765013054830287,0.4121004566210046,0.3308108108108108,0.5006113964294449,0.6241758241758242,0.4381833473507149,1196.0
237.0,1.711442049895091e+18,0.47911227154047,0.4269406392694064,0.37675675675675674,0.5035460992907801,0.6307692307692307,0.4415475189234651,1194.0
238.0,1.7114420499050908e+18,0.47389033942558745,0.4189497716894977,0.35567567567567565,0.5018341892883346,0.6285714285714286,0.4415475189234651,1195.0
239.0,1.7114420499150922e+18,0.4765013054830287,0.4349315068493151,0.33837837837837836,0.5018341892883346,0.6494505494505495,0.4381833473507149,1194.0
240.0,1.711442049925092e+18,0.4765013054830287,0.4121004566210046,0.3308108108108108,0.5006113964294449,0.6263736263736264,0.4415475189234651,1195.0
241.0,1.7114420499350984e+18,0.4804177545691906,0.4269406392694064,0.3518918918918919,0.5001222792858889,0.6175824175824176,0.43902439024390244,1196.0
242.0,1.7114420499450885e+18,0.47911227154047,0.4098173515981735,0.31945945945945947,0.5018341892883346,0.6274725274725275,0.43986543313709,1196.0
243.0,1.7114420499550874e+18,0.4765013054830287,0.408675799086758,0.33135135135135135,0.5006113964294449,0.6164835164835165,0.43650126156433977,1197.0
244.0,1.7114420499650847e+18,0.47127937336814624,0.4178082191780822,0.3518918918918919,0.504524333577892,0.6384615384615384,0.44238856181665265,1197.0
245.0,1.7114420499750917e+18,0.47911227154047,0.4223744292237443,0.35135135135135137,0.5035460992907801,0.6241758241758242,0.4415475189234651,1195.0
246.0,1.7114420499850918e+18,0.4830287206266319,0.4155251141552511,0.3264864864864865,0.5015896307165566,0.6252747252747253,0.43986543313709,1197.0
247.0,1.7114420499950973e+18,0.4765013054830287,0.4132420091324201,0.3491891891891892,0.5047688921496698,0.6274725274725275,0.4381833473507149,1194.0
248.0,1.7114420500050941e+18,0.47389033942558745,0.4063926940639269,0.3281081081081081,0.5030569821472243,0.6285714285714286,0.4415475189234651,1195.0
249.0,1.7114420500150897e+18,0.4725848563968668,0.4178082191780822,0.32432432432432434,0.5006113964294449,0.6417582417582418,0.4440706476030278,1194.0
250.0,1.7114420500251064e+18,0.4830287206266319,0.4200913242009132,0.3410810810810811,0.5020787478601125,0.6175824175824176,0.4381833473507149,1193.0
251.0,1.7114420500350894e+18,0.47389033942558745,0.4052511415525114,0.3210810810810811,0.49938860357055515,0.6230769230769231,0.4415475189234651,1196.0
252.0,1.7114420500450888e+18,0.48172323759791125,0.4394977168949772,0.3924324324324324,0.5025678650036683,0.6241758241758242,0.43986543313709,1195.0
253.0,1.7114420500550863e+18,0.4751958224543081,0.4178082191780822,0.3335135135135135,0.5025678650036683,0.6252747252747253,0.44070647603027757,1196.0
254.0,1.7114420500650888e+18,0.4765013054830287,0.410958904109589,0.33513513513513515,0.5020787478601125,0.6307692307692307,0.43986543313709,1196.0
255.0,1.7114420500750897e+18,0.4804177545691906,0.4178082191780822,0.32972972972972975,0.5015896307165566,0.6296703296703297,0.4415475189234651,1195.0
256.0,1.711442050085095e+18,0.4869451697127937,0.4406392694063927,0.3654054054054054,0.5047688921496698,0.6373626373626373,0.4482758620689655,1195.0
257.0,1.7114420500951112e+18,0.4725848563968668,0.4075342465753425,0.3254054054054054,0.4996331621423331,0.6318681318681318,0.44070647603027757,1198.0
258.0,1.7114420501050819e+18,0.47911227154047,0.4257990867579909,0.36,0.5020787478601125,0.6230769230769231,0.44238856181665265,1197.0
259.0,1.7114420501150922e+18,0.4725848563968668,0.4132420091324201,0.3372972972972973,0.5018341892883346,0.6208791208791209,0.4381833473507149,1196.0
260.0,1.7114420501251082e+18,0.47911227154047,0.4189497716894977,0.3227027027027027,0.4996331621423331,0.621978021978022,0.43902439024390244,1196.0
261.0,1.7114420501350766e+18,0.47780678851174935,0.4212328767123288,0.3281081081081081,0.5018341892883346,0.6274725274725275,0.4432296047098402,1200.0
262.0,1.7114420501450854e+18,0.47911227154047,0.4360730593607306,0.38216216216216214,0.5015896307165566,0.6087912087912087,0.43902439024390244,1196.0
263.0,1.711442050155082e+18,0.4751958224543081,0.4166666666666667,0.3362162162162162,0.5025678650036683,0.6065934065934065,0.4381833473507149,1197.0
264.0,1.7114420501650926e+18,0.4765013054830287,0.4132420091324201,0.3232432432432432,0.5006113964294449,0.6285714285714286,0.43902439024390244,1196.0
265.0,1.7114420501750794e+18,0.4765013054830287,0.4132420091324201,0.34486486486486484,0.5006113964294449,0.6208791208791209,0.4381833473507149,1196.0
266.0,1.711442050185082e+18,0.47911227154047,0.4166666666666667,0.3356756756756757,0.504035216434336,0.6274725274725275,0.4415475189234651,1195.0
267.0,1.7114420501950892e+18,0.4830287206266319,0.4235159817351598,0.3464864864864865,0.5050134507214478,0.6307692307692307,0.4432296047098402,1198.0
268.0,1.7114420502050842e+18,0.4765013054830287,0.408675799086758,0.3232432432432432,0.5015896307165566,0.6175824175824176,0.4381833473507149,1196.0
269.0,1.7114420502150858e+18,0.47780678851174935,0.4143835616438356,0.32054054054054054,0.5023233064318905,0.6307692307692307,0.4432296047098402,1195.0
270.0,1.7114420502250867e+18,0.47127937336814624,0.4132420091324201,0.3291891891891892,0.5008559550012228,0.6285714285714286,0.43902439024390244,1194.0
271.0,1.7114420502350943e+18,0.4804177545691906,0.4189497716894977,0.34054054054054056,0.5020787478601125,0.6351648351648351,0.43566021867115223,1199.0
272.0,1.7114420502450918e+18,0.47389033942558745,0.4143835616438356,0.34054054054054056,0.5025678650036683,0.621978021978022,0.43986543313709,1196.0
273.0,1.711442050255093e+18,0.47389033942558745,0.4132420091324201,0.3318918918918919,0.5001222792858889,0.6208791208791209,0.43650126156433977,1194.0
274.0,1.7114420502650877e+18,0.47911227154047,0.430365296803653,0.3848648648648649,0.5035460992907801,0.6296703296703297,0.4415475189234651,1194.0
275.0,1.7114420502750866e+18,0.47389033942558745,0.4143835616438356,0.33135135135135135,0.5035460992907801,0.621978021978022,0.4373423044575273,1193.0
276.0,1.7114420502851064e+18,0.47911227154047,0.4223744292237443,0.3545945945945946,0.5047688921496698,0.6384615384615384,0.4415475189234651,1196.0
277.0,1.711442050295091e+18,0.4765013054830287,0.4098173515981735,0.3372972972972973,0.5035460992907801,0.6318681318681318,0.4415475189234651,1196.0
278.0,1.7114420503050883e+18,0.4765013054830287,0.4200913242009132,0.3491891891891892,0.5025678650036683,0.6230769230769231,0.43986543313709,1196.0
279.0,1.7114420503150881e+18,0.4804177545691906,0.4166666666666667,0.3362162162162162,0.5006113964294449,0.6252747252747253,0.4415475189234651,1195.0
280.0,1.7114420503251223e+18,0.47389033942558745,0.4189497716894977,0.35621621621621624,0.5025678650036683,0.6230769230769231,0.4415475189234651,1198.0
281.0,1.7114420503350833e+18,0.47127937336814624,0.4121004566210046,0.34054054054054056,0.5011005135730008,0.6406593406593407,0.4415475189234651,1194.0
282.0,1.711442050345094e+18,0.4765013054830287,0.4315068493150685,0.3708108108108108,0.4986549278552213,0.6087912087912087,0.43986543313709,1195.0
283.0,1.7114420503550845e+18,0.48172323759791125,0.4200913242009132,0.34486486486486484,0.5006113964294449,0.6175824175824176,0.4381833473507149,1197.0
284.0,1.7114420503651057e+18,0.47911227154047,0.4315068493150685,0.3551351351351351,0.5006113964294449,0.6,0.4381833473507149,1195.0
285.0,1.7114420503750863e+18,0.47127937336814624,0.4098173515981735,0.32972972972972975,0.5011005135730008,0.6285714285714286,0.43986543313709,1194.0
286.0,1.7114420503850609e+18,0.4765013054830287,0.4132420091324201,0.3248648648648649,0.499877720714111,0.6296703296703297,0.43986543313709,1195.0
287.0,1.7114420503950876e+18,0.48172323759791125,0.4223744292237443,0.33405405405405403,0.5035460992907801,0.6263736263736264,0.4381833473507149,1197.0
288.0,1.7114420504050865e+18,0.47127937336814624,0.4075342465753425,0.33675675675675676,0.4991440449987772,0.6098901098901099,0.43566021867115223,1196.0
289.0,1.7114420504150838e+18,0.4725848563968668,0.4075342465753425,0.33135135135135135,0.5050134507214478,0.6626373626373626,0.4381833473507149,1197.0
290.0,1.7114420504251003e+18,0.4765013054830287,0.4121004566210046,0.33675675675675676,0.5013450721447786,0.610989010989011,0.4373423044575273,1194.0
291.0,1.7114420504350858e+18,0.4830287206266319,0.432648401826484,0.38324324324324327,0.5020787478601125,0.6307692307692307,0.4415475189234651,1197.0
292.0,1.7114420504450918e+18,0.4804177545691906,0.4143835616438356,0.3324324324324324,0.5001222792858889,0.6021978021978022,0.4348191757779647,1195.0
293.0,1.7114420504550858e+18,0.47911227154047,0.4178082191780822,0.3345945945945946,0.5030569821472243,0.6120879120879121,0.4373423044575273,1197.0
294.0,1.7114420504650893e+18,0.4725848563968668,0.4166666666666667,0.3318918918918919,0.499877720714111,0.621978021978022,0.43902439024390244,1198.0
295.0,1.7114420504750845e+18,0.4725848563968668,0.4246575342465753,0.32594594594594595,0.5003668378576669,0.6076923076923076,0.4381833473507149,1196.0
296.0,1.7114420504850726e+18,0.4765013054830287,0.4121004566210046,0.33405405405405403,0.5020787478601125,0.6197802197802198,0.44238856181665265,1197.0
297.0,1.7114420504950915e+18,0.4765013054830287,0.4143835616438356,0.34,0.5015896307165566,0.6285714285714286,0.4381833473507149,1197.0
298.0,1.7114420505050895e+18,0.4765013054830287,0.4246575342465753,0.33945945945945943,0.5037906578625581,0.654945054945055,0.44575273338940286,1197.0
299.0,1.7114420505150874e+18,0.47780678851174935,0.4178082191780822,0.35243243243243244,0.5059916850085595,0.6406593406593407,0.43986543313709,1195.0
300.0,1.7114420505251098e+18,0.46344647519582244,0.3881278538812785,0.31135135135135134,0.4971875764245537,0.6054945054945055,0.4339781328847771,1194.0
301.0,1.7114420505350943e+18,0.4765013054830287,0.4143835616438356,0.32972972972972975,0.5018341892883346,0.6252747252747253,0.43902439024390244,1197.0
302.0,1.7114420505450929e+18,0.4725848563968668,0.4189497716894977,0.35135135135135137,0.5011005135730008,0.6263736263736264,0.4415475189234651,1197.0
303.0,1.7114420505550833e+18,0.4765013054830287,0.4212328767123288,0.34162162162162163,0.5001222792858889,0.6175824175824176,0.44070647603027757,1197.0
304.0,1.7114420505650916e+18,0.47389033942558745,0.4178082191780822,0.32216216216216215,0.49938860357055515,0.6175824175824176,0.43902439024390244,1197.0
305.0,1.711442050575091e+18,0.4830287206266319,0.4269406392694064,0.3621621621621622,0.5025678650036683,0.6285714285714286,0.4415475189234651,1196.0
306.0,1.7114420505851062e+18,0.4765013054830287,0.408675799086758,0.33675675675675676,0.5008559550012228,0.6230769230769231,0.43902439024390244,1198.0
307.0,1.7114420505950868e+18,0.4765013054830287,0.4394977168949772,0.3567567567567568,0.5008559550012228,0.6384615384615384,0.4432296047098402,1197.0
308.0,1.7114420506050867e+18,0.47780678851174935,0.4189497716894977,0.3362162162162162,0.5015896307165566,0.6241758241758242,0.4415475189234651,1196.0
309.0,1.71144205061509e+18,0.47389033942558745,0.4098173515981735,0.3302702702702703,0.5011005135730008,0.6274725274725275,0.43902439024390244,1196.0
310.0,1.7114420506251172e+18,0.4765013054830287,0.4132420091324201,0.33405405405405403,0.5050134507214478,0.6494505494505495,0.4415475189234651,1197.0
311.0,1.7114420506350892e+18,0.46475195822454307,0.4029680365296804,0.3210810810810811,0.5003668378576669,0.6241758241758242,0.4373423044575273,1196.0
312.0,1.7114420506450819e+18,0.47389033942558745,0.4155251141552511,0.32756756756756755,0.5011005135730008,0.6230769230769231,0.4339781328847771,1195.0
313.0,1.711442050655088e+18,0.4765013054830287,0.4178082191780822,0.3362162162162162,0.4996331621423331,0.6373626373626373,0.4432296047098402,1196.0
314.0,1.7114420506650988e+18,0.47389033942558745,0.4098173515981735,0.3362162162162162,0.5008559550012228,0.6230769230769231,0.4381833473507149,1195.0
315.0,1.711442050675101e+18,0.4751958224543081,0.4178082191780822,0.34486486486486484,0.5006113964294449,0.6230769230769231,0.4381833473507149,1195.0
316.0,1.711442050685109e+18,0.4804177545691906,0.4155251141552511,0.33675675675675676,0.5001222792858889,0.6164835164835165,0.4381833473507149,1195.0
317.0,1.7114420506950874e+18,0.47389033942558745,0.4063926940639269,0.31891891891891894,0.5001222792858889,0.6175824175824176,0.4415475189234651,1196.0
318.0,1.711442050705091e+18,0.47389033942558745,0.4223744292237443,0.33675675675675676,0.5013450721447786,0.621978021978022,0.43986543313709,1196.0
319.0,1.7114420507150943e+18,0.4765013054830287,0.4178082191780822,0.3481081081081081,0.5020787478601125,0.6175824175824176,0.43902439024390244,1197.0
320.0,1.7114420507250888e+18,0.47389033942558745,0.4041095890410959,0.32432432432432434,0.49938860357055515,0.6538461538461539,0.4415475189234651,1197.0
321.0,1.711442050735105e+18,0.47911227154047,0.410958904109589,0.33405405405405403,0.499877720714111,0.6208791208791209,0.44238856181665265,1198.0
322.0,1.7114420507451057e+18,0.47911227154047,0.4292237442922374,0.3481081081081081,0.5020787478601125,0.621978021978022,0.43902439024390244,1197.0
323.0,1.711442050755102e+18,0.4725848563968668,0.408675799086758,0.3178378378378378,0.5018341892883346,0.6153846153846154,0.43650126156433977,1196.0
324.0,1.711442050765107e+18,0.48172323759791125,0.4269406392694064,0.34540540540540543,0.5035460992907801,0.634065934065934,0.44238856181665265,1199.0
325.0,1.7114420507750979e+18,0.4751958224543081,0.4132420091324201,0.3318918918918919,0.5008559550012228,0.621978021978022,0.43986543313709,1199.0
326.0,1.7114420507850895e+18,0.47389033942558745,0.4143835616438356,0.3372972972972973,0.4996331621423331,0.5978021978021978,0.43902439024390244,1196.0
327.0,1.7114420507950907e+18,0.4765013054830287,0.4155251141552511,0.33837837837837836,0.5055025678650037,0.6318681318681318,0.43902439024390244,1195.0
328.0,1.7114420508050906e+18,0.4765013054830287,0.410958904109589,0.32972972972972975,0.5001222792858889,0.6241758241758242,0.43650126156433977,1198.0
329.0,1.7114420508151007e+18,0.4725848563968668,0.4132420091324201,0.32972972972972975,0.49938860357055515,0.6362637362637362,0.44238856181665265,1197.0
330.0,1.7114420508250908e+18,0.4765013054830287,0.4269406392694064,0.3291891891891892,0.5015896307165566,0.6307692307692307,0.43650126156433977,1195.0
331.0,1.7114420508350945e+18,0.4804177545691906,0.4178082191780822,0.3481081081081081,0.4988994864269993,0.6153846153846154,0.4381833473507149,1196.0
332.0,1.7114420508450967e+18,0.4765013054830287,0.4235159817351598,0.35621621621621624,0.5001222792858889,0.6065934065934065,0.4381833473507149,1197.0
333.0,1.7114420508550945e+18,0.4765013054830287,0.4200913242009132,0.3372972972972973,0.4986549278552213,0.6098901098901099,0.4415475189234651,1197.0
334.0,1.711442050865103e+18,0.47127937336814624,0.4098173515981735,0.3362162162162162,0.5025678650036683,0.6241758241758242,0.43986543313709,1197.0
335.0,1.7114420508750925e+18,0.47127937336814624,0.4063926940639269,0.32,0.5001222792858889,0.6318681318681318,0.44070647603027757,1196.0
336.0,1.7114420508850926e+18,0.47127937336814624,0.4041095890410959,0.3108108108108108,0.5001222792858889,0.6263736263736264,0.4373423044575273,1195.0
337.0,1.7114420508950938e+18,0.4725848563968668,0.4246575342465753,0.34,0.5020787478601125,0.6197802197802198,0.4415475189234651,1196.0
338.0,1.7114420509050936e+18,0.4660574412532637,0.3995433789954338,0.3264864864864865,0.5064808021521154,0.6395604395604395,0.4339781328847771,1194.0
339.0,1.7114420509150958e+18,0.47911227154047,0.4189497716894977,0.3389189189189189,0.5018341892883346,0.610989010989011,0.43902439024390244,1196.0
340.0,1.7114420509251016e+18,0.47127937336814624,0.4132420091324201,0.32756756756756755,0.5006113964294449,0.6153846153846154,0.4415475189234651,1198.0
341.0,1.711442050935142e+18,0.47127937336814624,0.4098173515981735,0.31675675675675674,0.5006113964294449,0.6208791208791209,0.4381833473507149,1198.0
342.0,1.7114420509451067e+18,0.4699738903394256,0.410958904109589,0.32216216216216215,0.5023233064318905,0.6274725274725275,0.4381833473507149,1196.0
343.0,1.711442050955106e+18,0.48172323759791125,0.4200913242009132,0.33783783783783783,0.5013450721447786,0.6285714285714286,0.4449116904962153,1197.0
344.0,1.7114420509650995e+18,0.4765013054830287,0.4189497716894977,0.3362162162162162,0.5035460992907801,0.6428571428571429,0.4381833473507149,1195.0
345.0,1.7114420509750991e+18,0.47911227154047,0.4235159817351598,0.34594594594594597,0.5008559550012228,0.6252747252747253,0.44070647603027757,1197.0
346.0,1.7114420509851018e+18,0.4751958224543081,0.4223744292237443,0.32054054054054054,0.4996331621423331,0.6098901098901099,0.4339781328847771,1195.0
347.0,1.7114420509951014e+18,0.4725848563968668,0.4098173515981735,0.3232432432432432,0.5001222792858889,0.6263736263736264,0.43902439024390244,1196.0
348.0,1.7114420510051067e+18,0.4765013054830287,0.4178082191780822,0.3145945945945946,0.5020787478601125,0.6296703296703297,0.4432296047098402,1196.0
349.0,1.711442051015139e+18,0.4751958224543081,0.410958904109589,0.3248648648648649,0.5008559550012228,0.6054945054945055,0.43566021867115223,1198.0
350.0,1.711442051025101e+18,0.46736292428198434,0.4075342465753425,0.3216216216216216,0.499877720714111,0.6142857142857143,0.43566021867115223,1193.0
351.0,1.711442051035102e+18,0.4725848563968668,0.4143835616438356,0.3335135135135135,0.5023233064318905,0.6175824175824176,0.4381833473507149,1198.0
352.0,1.711442051045087e+18,0.4804177545691906,0.4280821917808219,0.34,0.5018341892883346,0.6186813186813187,0.4381833473507149,1196.0
353.0,1.7114420510550876e+18,0.47127937336814624,0.4098173515981735,0.307027027027027,0.5015896307165566,0.6175824175824176,0.43902439024390244,1195.0
354.0,1.7114420510651195e+18,0.47389033942558745,0.410958904109589,0.3302702702702703,0.49938860357055515,0.6142857142857143,0.43650126156433977,1194.0
355.0,1.711442051075111e+18,0.4725848563968668,0.4132420091324201,0.3302702702702703,0.499877720714111,0.6285714285714286,0.4415475189234651,1197.0
356.0,1.7114420510850916e+18,0.47911227154047,0.4269406392694064,0.34486486486486484,0.5033015407190022,0.6186813186813187,0.4381833473507149,1195.0
357.0,1.7114420510950917e+18,0.4725848563968668,0.4143835616438356,0.3286486486486486,0.5006113964294449,0.6208791208791209,0.4415475189234651,1196.0
358.0,1.7114420511050895e+18,0.47911227154047,0.4223744292237443,0.3372972972972973,0.5028124235754463,0.6098901098901099,0.43313708999158956,1194.0
359.0,1.7114420511150932e+18,0.46736292428198434,0.3995433789954338,0.34,0.5011005135730008,0.6274725274725275,0.4381833473507149,1194.0
360.0,1.7114420511251098e+18,0.48433420365535246,0.4360730593607306,0.35567567567567565,0.504035216434336,0.6274725274725275,0.4440706476030278,1196.0
361.0,1.7114420511350904e+18,0.4765013054830287,0.410958904109589,0.3232432432432432,0.4996331621423331,0.5989010989010989,0.4381833473507149,1199.0
362.0,1.711442051145093e+18,0.47389033942558745,0.4143835616438356,0.3308108108108108,0.5015896307165566,0.6230769230769231,0.4381833473507149,1196.0
363.0,1.711442051155086e+18,0.4765013054830287,0.4143835616438356,0.3286486486486486,0.5008559550012228,0.654945054945055,0.44238856181665265,1196.0
364.0,1.7114420511651126e+18,0.47389033942558745,0.4143835616438356,0.3237837837837838,0.5028124235754463,0.6318681318681318,0.43902439024390244,1199.0
365.0,1.7114420511750938e+18,0.4856396866840731,0.4337899543378995,0.3827027027027027,0.5015896307165566,0.6274725274725275,0.43902439024390244,1194.0
366.0,1.7114420511850847e+18,0.46736292428198434,0.4041095890410959,0.3145945945945946,0.5001222792858889,0.6098901098901099,0.4373423044575273,1196.0
367.0,1.71144205119509e+18,0.4804177545691906,0.4223744292237443,0.3345945945945946,0.5008559550012228,0.6296703296703297,0.44238856181665265,1197.0
368.0,1.711442051205092e+18,0.4765013054830287,0.4052511415525114,0.3254054054054054,0.5011005135730008,0.610989010989011,0.4381833473507149,1194.0
369.0,1.7114420512151201e+18,0.47911227154047,0.4189497716894977,0.3372972972972973,0.5047688921496698,0.6241758241758242,0.43902439024390244,1197.0
370.0,1.7114420512251062e+18,0.47389033942558745,0.4155251141552511,0.3362162162162162,0.5025678650036683,0.6098901098901099,0.4373423044575273,1196.0
371.0,1.711442051235101e+18,0.47911227154047,0.4098173515981735,0.33513513513513515,0.5006113964294449,0.6175824175824176,0.43902439024390244,1198.0
372.0,1.7114420512450898e+18,0.4804177545691906,0.4360730593607306,0.3389189189189189,0.5035460992907801,0.6241758241758242,0.44238856181665265,1197.0
373.0,1.7114420512550876e+18,0.47127937336814624,0.4098173515981735,0.31675675675675674,0.5003668378576669,0.6318681318681318,0.4415475189234651,1198.0
374.0,1.7114420512651067e+18,0.47389033942558745,0.4132420091324201,0.3232432432432432,0.5003668378576669,0.6208791208791209,0.43986543313709,1196.0
375.0,1.711442051275087e+18,0.4804177545691906,0.4189497716894977,0.34378378378378377,0.4991440449987772,0.6329670329670329,0.43650126156433977,1192.0
376.0,1.7114420512850908e+18,0.4804177545691906,0.4223744292237443,0.35783783783783785,0.5015896307165566,0.6164835164835165,0.4415475189234651,1196.0
377.0,1.7114420512950866e+18,0.4699738903394256,0.4041095890410959,0.32,0.5015896307165566,0.6274725274725275,0.44070647603027757,1196.0
378.0,1.7114420513050831e+18,0.47780678851174935,0.4143835616438356,0.3372972972972973,0.5035460992907801,0.6274725274725275,0.4373423044575273,1196.0
379.0,1.7114420513151035e+18,0.4751958224543081,0.408675799086758,0.3324324324324324,0.5015896307165566,0.6241758241758242,0.43566021867115223,1196.0
380.0,1.7114420513251118e+18,0.4804177545691906,0.4235159817351598,0.3410810810810811,0.4986549278552213,0.5879120879120879,0.4339781328847771,1197.0
381.0,1.7114420513350863e+18,0.4725848563968668,0.4098173515981735,0.3227027027027027,0.5011005135730008,0.6241758241758242,0.43902439024390244,1198.0
382.0,1.711442051345082e+18,0.4765013054830287,0.4223744292237443,0.32972972972972975,0.4996331621423331,0.6032967032967033,0.4415475189234651,1196.0
383.0,1.7114420513550915e+18,0.47780678851174935,0.4178082191780822,0.34,0.5003668378576669,0.6516483516483517,0.4415475189234651,1196.0
384.0,1.7114420513651064e+18,0.47780678851174935,0.4052511415525114,0.3216216216216216,0.5018341892883346,0.6054945054945055,0.4415475189234651,1196.0
385.0,1.711442051375093e+18,0.4804177545691906,0.4246575342465753,0.3605405405405405,0.5013450721447786,0.6230769230769231,0.4415475189234651,1196.0
386.0,1.7114420513850867e+18,0.4725848563968668,0.4063926940639269,0.32054054054054054,0.5001222792858889,0.6274725274725275,0.4381833473507149,1194.0
387.0,1.7114420513950894e+18,0.4765013054830287,0.4132420091324201,0.3345945945945946,0.5011005135730008,0.6406593406593407,0.4432296047098402,1197.0
388.0,1.7114420514050836e+18,0.47389033942558745,0.4155251141552511,0.3389189189189189,0.5025678650036683,0.5978021978021978,0.4381833473507149,1197.0
389.0,1.7114420514151e+18,0.4725848563968668,0.4132420091324201,0.33675675675675676,0.5018341892883346,0.6296703296703297,0.4432296047098402,1198.0
390.0,1.7114420514250806e+18,0.48172323759791125,0.4200913242009132,0.33297297297297296,0.499877720714111,0.6175824175824176,0.44238856181665265,1196.0
391.0,1.7114420514350804e+18,0.48172323759791125,0.4098173515981735,0.3410810810810811,0.5013450721447786,0.6285714285714286,0.4415475189234651,1198.0
392.0,1.7114420514450903e+18,0.47389033942558745,0.4178082191780822,0.31945945945945947,0.5008559550012228,0.6186813186813187,0.43566021867115223,1197.0
393.0,1.711442051455088e+18,0.47780678851174935,0.4132420091324201,0.3362162162162162,0.5015896307165566,0.6384615384615384,0.43902439024390244,1195.0
394.0,1.7114420514650885e+18,0.47127937336814624,0.4052511415525114,0.33513513513513515,0.5023233064318905,0.6274725274725275,0.43902439024390244,1197.0
395.0,1.7114420514750897e+18,0.4804177545691906,0.4235159817351598,0.352972972972973,0.5018341892883346,0.634065934065934,0.4482758620689655,1195.0
396.0,1.7114420514850834e+18,0.4804177545691906,0.4155251141552511,0.3227027027027027,0.5015896307165566,0.6285714285714286,0.4415475189234651,1197.0
397.0,1.7114420514950828e+18,0.4751958224543081,0.4166666666666667,0.3372972972972973,0.5047688921496698,0.656043956043956,0.4432296047098402,1194.0
398.0,1.711442051505084e+18,0.4804177545691906,0.4269406392694064,0.3427027027027027,0.5025678650036683,0.6208791208791209,0.44238856181665265,1199.0
399.0,1.7114420515151045e+18,0.47127937336814624,0.4075342465753425,0.3183783783783784,0.5011005135730008,0.6208791208791209,0.4339781328847771,1194.0
400.0,1.7114420515250954e+18,0.4725848563968668,0.4132420091324201,0.32432432432432434,0.5008559550012228,0.621978021978022,0.4373423044575273,1195.0
401.0,1.7114420515350953e+18,0.47911227154047,0.410958904109589,0.3254054054054054,0.5001222792858889,0.621978021978022,0.4373423044575273,1196.0
402.0,1.7114420515450732e+18,0.47389033942558745,0.410958904109589,0.3324324324324324,0.5011005135730008,0.6230769230769231,0.4381833473507149,1197.0
403.0,1.7114420515551063e+18,0.47780678851174935,0.4189497716894977,0.3481081081081081,0.504524333577892,0.6494505494505495,0.4432296047098402,1197.0
404.0,1.7114420515650808e+18,0.47127937336814624,0.4041095890410959,0.32216216216216215,0.499877720714111,0.6208791208791209,0.43986543313709,1196.0
405.0,1.7114420515750554e+18,0.4765013054830287,0.4178082191780822,0.34324324324324323,0.4974321349963316,0.6120879120879121,0.4381833473507149,1196.0
406.0,1.7114420515850854e+18,0.48172323759791125,0.4200913242009132,0.3535135135135135,0.5028124235754463,0.6230769230769231,0.4373423044575273,1196.0
407.0,1.7114420515950932e+18,0.4765013054830287,0.4041095890410959,0.3308108108108108,0.4984103692834434,0.6186813186813187,0.4381833473507149,1197.0
408.0,1.7114420516050913e+18,0.4765013054830287,0.4178082191780822,0.34540540540540543,0.5015896307165566,0.6252747252747253,0.4415475189234651,1196.0
409.0,1.711442051615091e+18,0.4765013054830287,0.410958904109589,0.32756756756756755,0.5015896307165566,0.6263736263736264,0.4432296047098402,1195.0
410.0,1.711442051625089e+18,0.47127937336814624,0.4063926940639269,0.3216216216216216,0.49938860357055515,0.6021978021978022,0.43902439024390244,1193.0
411.0,1.7114420516350392e+18,0.48172323759791125,0.4178082191780822,0.3286486486486486,0.5020787478601125,0.6175824175824176,0.43902439024390244,1196.0
412.0,1.7114420516450885e+18,0.47127937336814624,0.4075342465753425,0.3108108108108108,0.4974321349963316,0.610989010989011,0.43902439024390244,1196.0
413.0,1.711442051655097e+18,0.47780678851174935,0.4132420091324201,0.32972972972972975,0.5011005135730008,0.6197802197802198,0.4440706476030278,1195.0
414.0,1.7114420516651052e+18,0.4725848563968668,0.4018264840182648,0.32756756756756755,0.5018341892883346,0.6252747252747253,0.4415475189234651,1196.0
415.0,1.711442051675095e+18,0.47780678851174935,0.408675799086758,0.33513513513513515,0.5015896307165566,0.6241758241758242,0.43986543313709,1197.0
416.0,1.7114420516850872e+18,0.4804177545691906,0.4223744292237443,0.33837837837837836,0.5011005135730008,0.6175824175824176,0.4373423044575273,1196.0
417.0,1.711442051695087e+18,0.4765013054830287,0.4132420091324201,0.3248648648648649,0.499877720714111,0.6054945054945055,0.4381833473507149,1195.0
418.0,1.7114420517050913e+18,0.47911227154047,0.4292237442922374,0.36972972972972973,0.504035216434336,0.634065934065934,0.44238856181665265,1196.0
419.0,1.7114420517150863e+18,0.4765013054830287,0.4178082191780822,0.31891891891891894,0.504524333577892,0.654945054945055,0.4415475189234651,1197.0
420.0,1.711442051725096e+18,0.47127937336814624,0.4143835616438356,0.3362162162162162,0.5050134507214478,0.6351648351648351,0.4415475189234651,1196.0
421.0,1.711442051735079e+18,0.4765013054830287,0.4052511415525114,0.3302702702702703,0.5011005135730008,0.6318681318681318,0.4415475189234651,1198.0
422.0,1.7114420517450844e+18,0.47389033942558745,0.408675799086758,0.3302702702702703,0.499877720714111,0.6197802197802198,0.4381833473507149,1196.0
423.0,1.7114420517550843e+18,0.48172323759791125,0.4223744292237443,0.3551351351351351,0.5025678650036683,0.6296703296703297,0.4415475189234651,1197.0
424.0,1.7114420517651167e+18,0.4765013054830287,0.4075342465753425,0.3302702702702703,0.5015896307165566,0.6142857142857143,0.4415475189234651,1196.0
425.0,1.7114420517750912e+18,0.4765013054830287,0.4121004566210046,0.3232432432432432,0.499877720714111,0.6197802197802198,0.43986543313709,1196.0
426.0,1.7114420517850908e+18,0.4725848563968668,0.4143835616438356,0.34324324324324323,0.5025678650036683,0.6362637362637362,0.43986543313709,1195.0
427.0,1.711442051795072e+18,0.4765013054830287,0.4292237442922374,0.34162162162162163,0.5015896307165566,0.6197802197802198,0.4381833473507149,1198.0
428.0,1.7114420518051052e+18,0.46736292428198434,0.408675799086758,0.33297297297297296,0.5018341892883346,0.6241758241758242,0.4415475189234651,1196.0
429.0,1.7114420518150925e+18,0.47780678851174935,0.4143835616438356,0.3302702702702703,0.5006113964294449,0.6153846153846154,0.43313708999158956,1196.0
430.0,1.711442051825099e+18,0.4765013054830287,0.4178082191780822,0.34216216216216216,0.5028124235754463,0.6285714285714286,0.43902439024390244,1193.0
431.0,1.7114420518350966e+18,0.4765013054830287,0.4075342465753425,0.3172972972972973,0.4996331621423331,0.6065934065934065,0.4339781328847771,1193.0
432.0,1.7114420518450926e+18,0.4869451697127937,0.4394977168949772,0.3627027027027027,0.5037906578625581,0.6274725274725275,0.44575273338940286,1196.0
433.0,1.711442051855098e+18,0.4751958224543081,0.4132420091324201,0.3324324324324324,0.499877720714111,0.6274725274725275,0.4381833473507149,1195.0
434.0,1.7114420518651075e+18,0.4804177545691906,0.4223744292237443,0.35567567567567565,0.504035216434336,0.6428571428571429,0.4440706476030278,1197.0
435.0,1.7114420518750958e+18,0.4765013054830287,0.4143835616438356,0.32972972972972975,0.49816581071166544,0.6241758241758242,0.4415475189234651,1195.0
436.0,1.7114420518850988e+18,0.4725848563968668,0.410958904109589,0.3318918918918919,0.5020787478601125,0.6274725274725275,0.4381833473507149,1196.0
437.0,1.7114420518951007e+18,0.47780678851174935,0.4257990867579909,0.3410810810810811,0.5018341892883346,0.6098901098901099,0.4381833473507149,1195.0
438.0,1.7114420519050847e+18,0.47780678851174935,0.4235159817351598,0.35567567567567565,0.5015896307165566,0.6164835164835165,0.4415475189234651,1195.0
439.0,1.711442051915102e+18,0.47780678851174935,0.4200913242009132,0.3481081081081081,0.4986549278552213,0.6153846153846154,0.43986543313709,1195.0
440.0,1.71144205192511e+18,0.4765013054830287,0.4178082191780822,0.34864864864864864,0.5011005135730008,0.6263736263736264,0.44070647603027757,1196.0
441.0,1.711442051935084e+18,0.4765013054830287,0.4178082191780822,0.3308108108108108,0.5003668378576669,0.6175824175824176,0.43902439024390244,1198.0
442.0,1.7114420519450785e+18,0.47127937336814624,0.4200913242009132,0.34216216216216216,0.5015896307165566,0.6186813186813187,0.4381833473507149,1196.0
443.0,1.7114420519550812e+18,0.47911227154047,0.4223744292237443,0.3497297297297297,0.5020787478601125,0.6274725274725275,0.4381833473507149,1197.0
444.0,1.71144205196512e+18,0.47127937336814624,0.4075342465753425,0.32756756756756755,0.5015896307165566,0.6307692307692307,0.4381833473507149,1197.0
445.0,1.7114420519751104e+18,0.4765013054830287,0.4178082191780822,0.3362162162162162,0.499877720714111,0.6142857142857143,0.4415475189234651,1196.0
446.0,1.7114420519850906e+18,0.4765013054830287,0.410958904109589,0.32972972972972975,0.5015896307165566,0.6285714285714286,0.4415475189234651,1197.0
447.0,1.711442051995094e+18,0.4765013054830287,0.4063926940639269,0.3345945945945946,0.5011005135730008,0.6263736263736264,0.43902439024390244,1198.0
448.0,1.711442052005086e+18,0.4765013054830287,0.4200913242009132,0.3410810810810811,0.5025678650036683,0.6362637362637362,0.44238856181665265,1195.0
449.0,1.7114420520150904e+18,0.47127937336814624,0.410958904109589,0.33513513513513515,0.5018341892883346,0.6252747252747253,0.4415475189234651,1195.0
450.0,1.7114420520250934e+18,0.47911227154047,0.4235159817351598,0.3372972972972973,0.504035216434336,0.6230769230769231,0.4381833473507149,1193.0
451.0,1.7114420520350817e+18,0.4765013054830287,0.4178082191780822,0.34486486486486484,0.5013450721447786,0.6307692307692307,0.4415475189234651,1195.0
452.0,1.7114420520450816e+18,0.4765013054830287,0.4178082191780822,0.33837837837837836,0.5006113964294449,0.6208791208791209,0.4381833473507149,1196.0
453.0,1.7114420520550874e+18,0.4725848563968668,0.410958904109589,0.3248648648648649,0.5003668378576669,0.6351648351648351,0.43650126156433977,1196.0
454.0,1.711442052065188e+18,0.47780678851174935,0.4212328767123288,0.34594594594594597,0.5001222792858889,0.6285714285714286,0.4432296047098402,1195.0
455.0,1.7114420520750973e+18,0.47911227154047,0.4155251141552511,0.34540540540540543,0.5018341892883346,0.6307692307692307,0.43902439024390244,1196.0
456.0,1.7114420520851075e+18,0.46736292428198434,0.4098173515981735,0.32972972972972975,0.5015896307165566,0.6494505494505495,0.4373423044575273,1198.0
457.0,1.7114420520950897e+18,0.47911227154047,0.432648401826484,0.37945945945945947,0.504524333577892,0.6538461538461539,0.43986543313709,1196.0
458.0,1.71144205210509e+18,0.46866840731070497,0.4063926940639269,0.32756756756756755,0.5018341892883346,0.6241758241758242,0.44238856181665265,1195.0
459.0,1.7114420521151022e+18,0.47127937336814624,0.4189497716894977,0.3372972972972973,0.49938860357055515,0.6230769230769231,0.43902439024390244,1196.0
460.0,1.7114420521251064e+18,0.47389033942558745,0.4178082191780822,0.3345945945945946,0.5059916850085595,0.6384615384615384,0.4432296047098402,1197.0
461.0,1.7114420521350866e+18,0.47389033942558745,0.4063926940639269,0.3372972972972973,0.5013450721447786,0.6197802197802198,0.4415475189234651,1196.0
462.0,1.7114420521450924e+18,0.48172323759791125,0.4360730593607306,0.3654054054054054,0.504035216434336,0.6362637362637362,0.4415475189234651,1196.0
463.0,1.711442052155091e+18,0.47127937336814624,0.410958904109589,0.33783783783783783,0.5015896307165566,0.6296703296703297,0.44238856181665265,1195.0
464.0,1.7114420521651018e+18,0.4765013054830287,0.4189497716894977,0.34162162162162163,0.5028124235754463,0.6329670329670329,0.4432296047098402,1197.0
465.0,1.7114420521751004e+18,0.4765013054830287,0.4166666666666667,0.34324324324324323,0.5003668378576669,0.6373626373626373,0.4415475189234651,1194.0
466.0,1.7114420521851095e+18,0.4765013054830287,0.4132420091324201,0.33513513513513515,0.5025678650036683,0.6230769230769231,0.4373423044575273,1196.0
467.0,1.711442052195092e+18,0.47389033942558745,0.4143835616438356,0.3362162162162162,0.5018341892883346,0.6274725274725275,0.43566021867115223,1197.0
468.0,1.71144205220509e+18,0.47389033942558745,0.4178082191780822,0.3345945945945946,0.5020787478601125,0.6208791208791209,0.44238856181665265,1196.0
469.0,1.7114420522150858e+18,0.47127937336814624,0.4155251141552511,0.3324324324324324,0.4991440449987772,0.6098901098901099,0.44070647603027757,1195.0
470.0,1.7114420522250918e+18,0.47389033942558745,0.4098173515981735,0.3254054054054054,0.5006113964294449,0.6153846153846154,0.43986543313709,1196.0
471.0,1.7114420522350973e+18,0.4725848563968668,0.4029680365296804,0.3254054054054054,0.5008559550012228,0.6296703296703297,0.4373423044575273,1195.0
472.0,1.7114420522450918e+18,0.4804177545691906,0.430365296803653,0.3443243243243243,0.5052580092932257,0.6318681318681318,0.43986543313709,1196.0
473.0,1.711442052255093e+18,0.4725848563968668,0.4178082191780822,0.3324324324324324,0.5015896307165566,0.6252747252747253,0.4381833473507149,1193.0
474.0,1.7114420522650893e+18,0.47780678851174935,0.4200913242009132,0.3551351351351351,0.5030569821472243,0.6153846153846154,0.43650126156433977,1197.0
475.0,1.7114420522751045e+18,0.47127937336814624,0.4132420091324201,0.33513513513513515,0.4969430178527757,0.6054945054945055,0.4373423044575273,1197.0
476.0,1.711442052285087e+18,0.4765013054830287,0.4223744292237443,0.34,0.5035460992907801,0.6186813186813187,0.44238856181665265,1196.0
477.0,1.711442052295094e+18,0.47389033942558745,0.4098173515981735,0.33135135135135135,0.49938860357055515,0.6175824175824176,0.4415475189234651,1194.0
478.0,1.7114420523050893e+18,0.4699738903394256,0.4041095890410959,0.31891891891891894,0.5003668378576669,0.6142857142857143,0.4373423044575273,1197.0
479.0,1.7114420523150932e+18,0.48172323759791125,0.432648401826484,0.3518918918918919,0.5037906578625581,0.6318681318681318,0.44575273338940286,1198.0
480.0,1.711442052325164e+18,0.47127937336814624,0.3961187214611872,0.3075675675675676,0.49816581071166544,0.6032967032967033,0.4348191757779647,1197.0
481.0,1.7114420523350979e+18,0.4869451697127937,0.4349315068493151,0.34594594594594597,0.5028124235754463,0.6274725274725275,0.4415475189234651,1198.0
482.0,1.7114420523450964e+18,0.47780678851174935,0.4178082191780822,0.33783783783783783,0.5013450721447786,0.6021978021978022,0.4415475189234651,1197.0
483.0,1.7114420523550876e+18,0.4725848563968668,0.4121004566210046,0.3345945945945946,0.4986549278552213,0.5923076923076923,0.43902439024390244,1198.0
484.0,1.7114420523650903e+18,0.4830287206266319,0.4246575342465753,0.35243243243243244,0.5028124235754463,0.6153846153846154,0.4381833473507149,1195.0
485.0,1.7114420523751e+18,0.4725848563968668,0.4178082191780822,0.3345945945945946,0.5023233064318905,0.6373626373626373,0.4440706476030278,1197.0
486.0,1.711442052385089e+18,0.47911227154047,0.4132420091324201,0.32054054054054054,0.5020787478601125,0.6186813186813187,0.4381833473507149,1197.0
487.0,1.7114420523950938e+18,0.4765013054830287,0.4075342465753425,0.3232432432432432,0.4991440449987772,0.6230769230769231,0.4415475189234651,1197.0
488.0,1.711442052405087e+18,0.4725848563968668,0.4098173515981735,0.32756756756756755,0.4991440449987772,0.6065934065934065,0.43986543313709,1196.0
489.0,1.7114420524150935e+18,0.4725848563968668,0.4132420091324201,0.33135135135135135,0.49938860357055515,0.5989010989010989,0.43566021867115223,1197.0
490.0,1.7114420524250908e+18,0.4765013054830287,0.4178082191780822,0.33135135135135135,0.5023233064318905,0.6285714285714286,0.43986543313709,1194.0
491.0,1.711442052435119e+18,0.47389033942558745,0.4223744292237443,0.34702702702702704,0.5011005135730008,0.6274725274725275,0.43902439024390244,1197.0
492.0,1.7114420524450936e+18,0.47389033942558745,0.4200913242009132,0.34486486486486484,0.5020787478601125,0.6208791208791209,0.4381833473507149,1196.0
493.0,1.7114420524550886e+18,0.47780678851174935,0.4155251141552511,0.3389189189189189,0.5015896307165566,0.6285714285714286,0.4415475189234651,1197.0
494.0,1.7114420524650888e+18,0.47780678851174935,0.410958904109589,0.31567567567567567,0.5020787478601125,0.6208791208791209,0.4415475189234651,1196.0
495.0,1.7114420524751076e+18,0.4765013054830287,0.4269406392694064,0.3232432432432432,0.5008559550012228,0.6175824175824176,0.4381833473507149,1196.0
496.0,1.7114420524850803e+18,0.47127937336814624,0.4155251141552511,0.33837837837837836,0.5023233064318905,0.5978021978021978,0.4348191757779647,1196.0
497.0,1.7114420524951e+18,0.47780678851174935,0.4155251141552511,0.34540540540540543,0.5006113964294449,0.6230769230769231,0.4381833473507149,1197.0
498.0,1.7114420525050852e+18,0.4765013054830287,0.4200913242009132,0.34054054054054056,0.5025678650036683,0.6373626373626373,0.43986543313709,1198.0
499.0,1.7114420525150863e+18,0.4699738903394256,0.4132420091324201,0.33135135135135135,0.5008559550012228,0.6285714285714286,0.43902439024390244,1198.0
500.0,1.711442052525108e+18,0.47127937336814624,0.4121004566210046,0.33297297297297296,0.5015896307165566,0.6241758241758242,0.43902439024390244,1197.0
501.0,1.7114420525351173e+18,0.4765013054830287,0.4166666666666667,0.33675675675675676,0.5001222792858889,0.6142857142857143,0.4348191757779647,1198.0
502.0,1.7114420525450908e+18,0.47127937336814624,0.4098173515981735,0.32756756756756755,0.4969430178527757,0.5989010989010989,0.43902439024390244,1196.0
503.0,1.7114420525550858e+18,0.4765013054830287,0.4292237442922374,0.34054054054054056,0.5015896307165566,0.6296703296703297,0.4381833473507149,1197.0
504.0,1.711442052565086e+18,0.47127937336814624,0.4006849315068493,0.32054054054054054,0.5025678650036683,0.6373626373626373,0.4381833473507149,1197.0
505.0,1.711442052575085e+18,0.4725848563968668,0.4132420091324201,0.3248648648648649,0.5011005135730008,0.6230769230769231,0.43986543313709,1196.0
506.0,1.7114420525851118e+18,0.4725848563968668,0.4041095890410959,0.3210810810810811,0.5006113964294449,0.621978021978022,0.4381833473507149,1194.0
507.0,1.7114420525950868e+18,0.48172323759791125,0.4269406392694064,0.37351351351351353,0.5018341892883346,0.6362637362637362,0.4415475189234651,1197.0
508.0,1.711442052605092e+18,0.4765013054830287,0.4178082191780822,0.3427027027027027,0.5015896307165566,0.6241758241758242,0.4415475189234651,1195.0
509.0,1.7114420526150853e+18,0.47389033942558745,0.4178082191780822,0.3410810810810811,0.5008559550012228,0.6274725274725275,0.43902439024390244,1197.0
510.0,1.7114420526250906e+18,0.47389033942558745,0.410958904109589,0.3324324324324324,0.5035460992907801,0.6285714285714286,0.4415475189234651,1194.0
511.0,1.7114420526350902e+18,0.4751958224543081,0.4098173515981735,0.3286486486486486,0.5025678650036683,0.6593406593406593,0.4339781328847771,1194.0
512.0,1.7114420526450972e+18,0.47911227154047,0.4349315068493151,0.3491891891891892,0.5035460992907801,0.6241758241758242,0.44238856181665265,1196.0
513.0,1.711442052655094e+18,0.4725848563968668,0.4063926940639269,0.31675675675675674,0.499877720714111,0.6274725274725275,0.4381833473507149,1197.0
514.0,1.7114420526650944e+18,0.4765013054830287,0.4143835616438356,0.3372972972972973,0.5006113964294449,0.6164835164835165,0.4373423044575273,1197.0
515.0,1.711442052675091e+18,0.47389033942558745,0.4121004566210046,0.3345945945945946,0.5001222792858889,0.6285714285714286,0.43902439024390244,1195.0
516.0,1.7114420526850957e+18,0.47389033942558745,0.4200913242009132,0.3308108108108108,0.5035460992907801,0.634065934065934,0.44238856181665265,1196.0
517.0,1.7114420526950894e+18,0.47389033942558745,0.4166666666666667,0.32972972972972975,0.5025678650036683,0.6318681318681318,0.4381833473507149,1197.0
518.0,1.7114420527050908e+18,0.47389033942558745,0.4098173515981735,0.32594594594594595,0.5028124235754463,0.6032967032967033,0.43650126156433977,1195.0
519.0,1.7114420527150794e+18,0.47911227154047,0.4200913242009132,0.34756756756756757,0.5015896307165566,0.6208791208791209,0.43986543313709,1197.0
520.0,1.7114420527250865e+18,0.4765013054830287,0.4132420091324201,0.32972972972972975,0.5006113964294449,0.6252747252747253,0.44238856181665265,1196.0
521.0,1.7114420527350979e+18,0.4765013054830287,0.4178082191780822,0.34540540540540543,0.5015896307165566,0.6373626373626373,0.44070647603027757,1196.0
522.0,1.7114420527450903e+18,0.47780678851174935,0.4121004566210046,0.32,0.5020787478601125,0.6142857142857143,0.4381833473507149,1197.0
523.0,1.7114420527550845e+18,0.4699738903394256,0.408675799086758,0.3216216216216216,0.5015896307165566,0.6252747252747253,0.4415475189234651,1196.0
524.0,1.7114420527650819e+18,0.47911227154047,0.410958904109589,0.3427027027027027,0.5025678650036683,0.6296703296703297,0.4432296047098402,1197.0
525.0,1.7114420527750879e+18,0.47780678851174935,0.4166666666666667,0.3362162162162162,0.5025678650036683,0.6186813186813187,0.4381833473507149,1195.0
526.0,1.711442052785101e+18,0.47780678851174935,0.408675799086758,0.3178378378378378,0.5033015407190022,0.6527472527472528,0.4415475189234651,1195.0
527.0,1.7114420527951045e+18,0.4751958224543081,0.4132420091324201,0.3237837837837838,0.5018341892883346,0.6373626373626373,0.4415475189234651,1195.0
528.0,1.7114420528050867e+18,0.4765013054830287,0.410958904109589,0.327027027027027,0.5006113964294449,0.6153846153846154,0.43902439024390244,1194.0
529.0,1.711442052815085e+18,0.47911227154047,0.4143835616438356,0.33297297297297296,0.5006113964294449,0.6241758241758242,0.4415475189234651,1195.0
530.0,1.7114420528251092e+18,0.47780678851174935,0.4235159817351598,0.3605405405405405,0.504035216434336,0.6274725274725275,0.4415475189234651,1193.0
531.0,1.711442052835092e+18,0.4765013054830287,0.4200913242009132,0.35621621621621624,0.5030569821472243,0.6450549450549451,0.43902439024390244,1196.0
532.0,1.711442052845082e+18,0.47780678851174935,0.4178082191780822,0.3427027027027027,0.5015896307165566,0.6230769230769231,0.4449116904962153,1194.0
533.0,1.711442052855089e+18,0.4725848563968668,0.4189497716894977,0.33837837837837836,0.5001222792858889,0.6362637362637362,0.43902439024390244,1192.0
534.0,1.711442052865087e+18,0.4765013054830287,0.4212328767123288,0.35567567567567565,0.5020787478601125,0.6230769230769231,0.4415475189234651,1196.0
535.0,1.7114420528750881e+18,0.4765013054830287,0.4075342465753425,0.3286486486486486,0.5018341892883346,0.6274725274725275,0.4415475189234651,1196.0
536.0,1.711442052885107e+18,0.47780678851174935,0.4212328767123288,0.3362162162162162,0.5035460992907801,0.6241758241758242,0.43902439024390244,1197.0
537.0,1.7114420528950925e+18,0.47780678851174935,0.4235159817351598,0.34756756756756757,0.5015896307165566,0.6153846153846154,0.43902439024390244,1196.0
538.0,1.7114420529050883e+18,0.47911227154047,0.4121004566210046,0.32594594594594595,0.5028124235754463,0.6175824175824176,0.4381833473507149,1196.0
539.0,1.7114420529151066e+18,0.47780678851174935,0.4269406392694064,0.36702702702702705,0.5018341892883346,0.6252747252747253,0.44070647603027757,1196.0
540.0,1.7114420529250982e+18,0.47127937336814624,0.4098173515981735,0.33405405405405403,0.5025678650036683,0.6472527472527473,0.43650126156433977,1196.0
541.0,1.7114420529351002e+18,0.48172323759791125,0.410958904109589,0.33675675675675676,0.5035460992907801,0.6593406593406593,0.43902439024390244,1196.0
542.0,1.711442052945092e+18,0.48172323759791125,0.4246575342465753,0.3464864864864865,0.5015896307165566,0.6076923076923076,0.4381833473507149,1197.0
543.0,1.7114420529550927e+18,0.4751958224543081,0.4155251141552511,0.3427027027027027,0.5015896307165566,0.6285714285714286,0.4415475189234651,1197.0
544.0,1.7114420529650895e+18,0.47780678851174935,0.4075342465753425,0.3324324324324324,0.5011005135730008,0.6230769230769231,0.43902439024390244,1198.0
545.0,1.7114420529750986e+18,0.4804177545691906,0.4292237442922374,0.35243243243243244,0.5023233064318905,0.6285714285714286,0.43986543313709,1199.0
546.0,1.7114420529850913e+18,0.4804177545691906,0.4178082191780822,0.3232432432432432,0.5020787478601125,0.634065934065934,0.44070647603027757,1196.0
547.0,1.7114420529950863e+18,0.4725848563968668,0.410958904109589,0.32,0.5020787478601125,0.6285714285714286,0.43902439024390244,1198.0
548.0,1.7114420530050916e+18,0.4751958224543081,0.410958904109589,0.3345945945945946,0.5015896307165566,0.6197802197802198,0.4381833473507149,1196.0
549.0,1.7114420530150927e+18,0.4765013054830287,0.4178082191780822,0.32756756756756755,0.5015896307165566,0.6274725274725275,0.44070647603027757,1195.0
550.0,1.7114420530251085e+18,0.47389033942558745,0.410958904109589,0.31189189189189187,0.5020787478601125,0.6384615384615384,0.43650126156433977,1195.0
551.0,1.7114420530350984e+18,0.47911227154047,0.4269406392694064,0.3491891891891892,0.5018341892883346,0.6285714285714286,0.4432296047098402,1197.0
552.0,1.7114420530450954e+18,0.4765013054830287,0.4178082191780822,0.3481081081081081,0.5023233064318905,0.6230769230769231,0.4381833473507149,1194.0
553.0,1.7114420530550956e+18,0.47389033942558745,0.4143835616438356,0.327027027027027,0.5020787478601125,0.6252747252747253,0.43566021867115223,1196.0
554.0,1.7114420530650954e+18,0.4725848563968668,0.4121004566210046,0.3216216216216216,0.5015896307165566,0.621978021978022,0.43313708999158956,1194.0
555.0,1.7114420530751168e+18,0.48172323759791125,0.4178082191780822,0.3410810810810811,0.5006113964294449,0.6428571428571429,0.43986543313709,1197.0
556.0,1.7114420530850998e+18,0.4765013054830287,0.4063926940639269,0.327027027027027,0.5020787478601125,0.6208791208791209,0.43986543313709,1196.0
557.0,1.7114420530951096e+18,0.47780678851174935,0.4132420091324201,0.34702702702702704,0.5006113964294449,0.6175824175824176,0.4381833473507149,1197.0
558.0,1.7114420531051e+18,0.47911227154047,0.4200913242009132,0.3216216216216216,0.5020787478601125,0.6098901098901099,0.43566021867115223,1193.0
559.0,1.711442053115098e+18,0.4765013054830287,0.4143835616438356,0.3286486486486486,0.5008559550012228,0.6274725274725275,0.44070647603027757,1196.0
560.0,1.7114420531251082e+18,0.47780678851174935,0.4155251141552511,0.3308108108108108,0.5008559550012228,0.6494505494505495,0.43566021867115223,1198.0
561.0,1.7114420531350994e+18,0.4765013054830287,0.4212328767123288,0.35135135135135137,0.5025678650036683,0.6285714285714286,0.43902439024390244,1197.0
562.0,1.711442053145107e+18,0.47911227154047,0.4200913242009132,0.34054054054054056,0.5028124235754463,0.6274725274725275,0.4381833473507149,1195.0
563.0,1.7114420531550812e+18,0.4765013054830287,0.4200913242009132,0.34324324324324323,0.5015896307165566,0.6098901098901099,0.4381833473507149,1197.0
564.0,1.7114420531650808e+18,0.47127937336814624,0.408675799086758,0.3308108108108108,0.49938860357055515,0.610989010989011,0.43650126156433977,1197.0
565.0,1.7114420531750986e+18,0.4830287206266319,0.4246575342465753,0.36108108108108106,0.5015896307165566,0.6164835164835165,0.4432296047098402,1197.0
566.0,1.711442053185083e+18,0.47911227154047,0.4189497716894977,0.3291891891891892,0.5015896307165566,0.6175824175824176,0.43986543313709,1197.0
567.0,1.7114420531951053e+18,0.4751958224543081,0.4063926940639269,0.3286486486486486,0.5028124235754463,0.6318681318681318,0.4432296047098402,1198.0
568.0,1.7114420532051052e+18,0.4765013054830287,0.430365296803653,0.32756756756756755,0.5025678650036683,0.6252747252747253,0.4381833473507149,1196.0
569.0,1.7114420532151032e+18,0.4765013054830287,0.4235159817351598,0.36648648648648646,0.5035460992907801,0.643956043956044,0.4415475189234651,1198.0
570.0,1.7114420532251103e+18,0.4765013054830287,0.4143835616438356,0.3254054054054054,0.5018341892883346,0.621978021978022,0.43986543313709,1193.0
571.0,1.7114420532351076e+18,0.4804177545691906,0.4189497716894977,0.3335135135135135,0.5008559550012228,0.6252747252747253,0.44070647603027757,1196.0
572.0,1.711442053245088e+18,0.47911227154047,0.4166666666666667,0.33405405405405403,0.4996331621423331,0.6010989010989011,0.4381833473507149,1195.0
573.0,1.7114420532550892e+18,0.4765013054830287,0.4121004566210046,0.3178378378378378,0.5008559550012228,0.6274725274725275,0.4381833473507149,1195.0
574.0,1.711442053265106e+18,0.47389033942558745,0.4143835616438356,0.3345945945945946,0.5020787478601125,0.621978021978022,0.43902439024390244,1195.0
575.0,1.7114420532750897e+18,0.4751958224543081,0.4143835616438356,0.3345945945945946,0.5006113964294449,0.6241758241758242,0.43902439024390244,1196.0
576.0,1.7114420532851154e+18,0.4765013054830287,0.4155251141552511,0.3324324324324324,0.5018341892883346,0.6274725274725275,0.43650126156433977,1196.0
577.0,1.7114420532951048e+18,0.47780678851174935,0.4200913242009132,0.32756756756756755,0.5015896307165566,0.6285714285714286,0.43902439024390244,1194.0
578.0,1.7114420533050808e+18,0.4765013054830287,0.4075342465753425,0.34054054054054056,0.5033015407190022,0.6373626373626373,0.43902439024390244,1197.0
579.0,1.711442053315083e+18,0.4725848563968668,0.4143835616438356,0.3324324324324324,0.4996331621423331,0.6087912087912087,0.4381833473507149,1196.0
580.0,1.7114420533251098e+18,0.4830287206266319,0.4269406392694064,0.33675675675675676,0.5028124235754463,0.6362637362637362,0.4415475189234651,1197.0
581.0,1.7114420533351158e+18,0.4751958224543081,0.4121004566210046,0.34324324324324323,0.5015896307165566,0.6208791208791209,0.43986543313709,1196.0
582.0,1.7114420533450816e+18,0.46866840731070497,0.4018264840182648,0.32054054054054054,0.5006113964294449,0.610989010989011,0.43902439024390244,1196.0
583.0,1.7114420533550835e+18,0.47127937336814624,0.4132420091324201,0.3410810810810811,0.5006113964294449,0.6252747252747253,0.4381833473507149,1198.0
584.0,1.7114420533650857e+18,0.48433420365535246,0.4223744292237443,0.35135135135135137,0.5008559550012228,0.6296703296703297,0.4449116904962153,1196.0
585.0,1.7114420533750984e+18,0.47127937336814624,0.410958904109589,0.3237837837837838,0.5006113964294449,0.6175824175824176,0.43566021867115223,1196.0
586.0,1.711442053385096e+18,0.4765013054830287,0.410958904109589,0.33837837837837836,0.5018341892883346,0.6153846153846154,0.4373423044575273,1195.0
587.0,1.7114420533950922e+18,0.4765013054830287,0.4257990867579909,0.36324324324324325,0.5030569821472243,0.6296703296703297,0.4415475189234651,1197.0
588.0,1.7114420534050836e+18,0.4725848563968668,0.410958904109589,0.3318918918918919,0.5018341892883346,0.6285714285714286,0.4415475189234651,1198.0
589.0,1.7114420534150863e+18,0.47780678851174935,0.4132420091324201,0.3497297297297297,0.504035216434336,0.6274725274725275,0.44070647603027757,1196.0
590.0,1.7114420534251085e+18,0.4765013054830287,0.4132420091324201,0.33837837837837836,0.5011005135730008,0.6307692307692307,0.4432296047098402,1194.0
591.0,1.7114420534350897e+18,0.47780678851174935,0.4223744292237443,0.3518918918918919,0.5001222792858889,0.6230769230769231,0.4415475189234651,1196.0
592.0,1.7114420534450755e+18,0.47127937336814624,0.4063926940639269,0.3145945945945946,0.5015896307165566,0.6197802197802198,0.4381833473507149,1196.0
593.0,1.7114420534550838e+18,0.4765013054830287,0.4132420091324201,0.32594594594594595,0.5008559550012228,0.6175824175824176,0.4381833473507149,1197.0
594.0,1.7114420534650775e+18,0.4765013054830287,0.4098173515981735,0.3356756756756757,0.5018341892883346,0.6241758241758242,0.43902439024390244,1194.0
595.0,1.711442053475088e+18,0.47911227154047,0.4166666666666667,0.3427027027027027,0.5015896307165566,0.6450549450549451,0.4415475189234651,1196.0
596.0,1.7114420534850888e+18,0.47911227154047,0.4155251141552511,0.3356756756756757,0.5025678650036683,0.6274725274725275,0.4415475189234651,1196.0
597.0,1.7114420534950774e+18,0.4751958224543081,0.4178082191780822,0.34162162162162163,0.5011005135730008,0.6263736263736264,0.4381833473507149,1197.0
598.0,1.7114420535050798e+18,0.4765013054830287,0.4121004566210046,0.3308108108108108,0.5025678650036683,0.6505494505494506,0.44070647603027757,1197.0
599.0,1.7114420535150766e+18,0.47127937336814624,0.4041095890410959,0.3081081081081081,0.5001222792858889,0.6241758241758242,0.43902439024390244,1196.0
600.0,1.7114420535251103e+18,0.48172323759791125,0.4315068493150685,0.3535135135135135,0.504035216434336,0.6329670329670329,0.4440706476030278,1199.0
601.0,1.7114420535350863e+18,0.4725848563968668,0.4075342465753425,0.33837837837837836,0.5015896307165566,0.6274725274725275,0.43986543313709,1197.0
602.0,1.7114420535450941e+18,0.4765013054830287,0.4189497716894977,0.34864864864864864,0.504035216434336,0.6450549450549451,0.43986543313709,1199.0
603.0,1.7114420535550925e+18,0.4765013054830287,0.4155251141552511,0.3464864864864865,0.5030569821472243,0.6406593406593407,0.4449116904962153,1196.0
604.0,1.711442053565089e+18,0.4725848563968668,0.4098173515981735,0.3362162162162162,0.5023233064318905,0.6175824175824176,0.43566021867115223,1197.0
605.0,1.7114420535751089e+18,0.4725848563968668,0.408675799086758,0.3216216216216216,0.5008559550012228,0.6230769230769231,0.4415475189234651,1196.0
606.0,1.7114420535850941e+18,0.48172323759791125,0.4292237442922374,0.3281081081081081,0.504524333577892,0.6318681318681318,0.44238856181665265,1196.0
607.0,1.7114420535950825e+18,0.47127937336814624,0.4178082191780822,0.33405405405405403,0.5008559550012228,0.6483516483516484,0.4415475189234651,1196.0
608.0,1.711442053605088e+18,0.47911227154047,0.4200913242009132,0.3491891891891892,0.5020787478601125,0.6285714285714286,0.44238856181665265,1196.0
609.0,1.711442053615103e+18,0.47911227154047,0.4178082191780822,0.3318918918918919,0.5011005135730008,0.6197802197802198,0.4381833473507149,1196.0
610.0,1.711442053625107e+18,0.47127937336814624,0.4121004566210046,0.33135135135135135,0.5023233064318905,0.6230769230769231,0.4432296047098402,1194.0
611.0,1.7114420536350963e+18,0.47911227154047,0.4257990867579909,0.3491891891891892,0.5035460992907801,0.6384615384615384,0.44238856181665265,1195.0
612.0,1.711442053645097e+18,0.47127937336814624,0.4029680365296804,0.31945945945945947,0.5006113964294449,0.6208791208791209,0.4381833473507149,1196.0
613.0,1.7114420536550879e+18,0.4765013054830287,0.4246575342465753,0.34864864864864864,0.5015896307165566,0.6252747252747253,0.4440706476030278,1196.0
614.0,1.7114420536650865e+18,0.4765013054830287,0.4143835616438356,0.34540540540540543,0.5020787478601125,0.6142857142857143,0.4381833473507149,1195.0
615.0,1.711442053675088e+18,0.4765013054830287,0.4212328767123288,0.3481081081081081,0.5011005135730008,0.6054945054945055,0.4381833473507149,1196.0
616.0,1.7114420536850883e+18,0.4765013054830287,0.4132420091324201,0.3216216216216216,0.5015896307165566,0.6054945054945055,0.44070647603027757,1197.0
617.0,1.7114420536950953e+18,0.47389033942558745,0.4098173515981735,0.32432432432432434,0.5015896307165566,0.6153846153846154,0.43313708999158956,1193.0
618.0,1.7114420537050906e+18,0.4725848563968668,0.4166666666666667,0.33135135135135135,0.5025678650036683,0.6208791208791209,0.4415475189234651,1195.0
619.0,1.7114420537150856e+18,0.4765013054830287,0.4200913242009132,0.33837837837837836,0.5001222792858889,0.6175824175824176,0.44070647603027757,1196.0
620.0,1.7114420537251226e+18,0.4725848563968668,0.408675799086758,0.3345945945945946,0.5023233064318905,0.6197802197802198,0.44238856181665265,1195.0
621.0,1.7114420537350915e+18,0.4699738903394256,0.410958904109589,0.34,0.4986549278552213,0.6241758241758242,0.4381833473507149,1197.0
622.0,1.7114420537450778e+18,0.48433420365535246,0.430365296803653,0.35135135135135137,0.5018341892883346,0.6274725274725275,0.4415475189234651,1195.0
623.0,1.7114420537550902e+18,0.47780678851174935,0.4155251141552511,0.3389189189189189,0.5025678650036683,0.6197802197802198,0.43902439024390244,1196.0
624.0,1.7114420537650842e+18,0.4725848563968668,0.4029680365296804,0.3362162162162162,0.5020787478601125,0.6197802197802198,0.4381833473507149,1196.0
625.0,1.7114420537750858e+18,0.4830287206266319,0.4269406392694064,0.3362162162162162,0.5030569821472243,0.6296703296703297,0.43986543313709,1196.0
626.0,1.711442053785106e+18,0.4699738903394256,0.4041095890410959,0.31945945945945947,0.5015896307165566,0.6197802197802198,0.43902439024390244,1197.0
627.0,1.7114420537950915e+18,0.4765013054830287,0.4166666666666667,0.3291891891891892,0.5015896307165566,0.6252747252747253,0.4415475189234651,1196.0
628.0,1.7114420538050813e+18,0.4804177545691906,0.4200913242009132,0.3427027027027027,0.5020787478601125,0.6274725274725275,0.4381833473507149,1194.0
629.0,1.7114420538150884e+18,0.47911227154047,0.4189497716894977,0.33675675675675676,0.5008559550012228,0.6296703296703297,0.4381833473507149,1194.0
630.0,1.7114420538250934e+18,0.4765013054830287,0.4143835616438356,0.3318918918918919,0.5015896307165566,0.621978021978022,0.4381833473507149,1194.0
631.0,1.7114420538350884e+18,0.4751958224543081,0.4178082191780822,0.3389189189189189,0.5015896307165566,0.6263736263736264,0.44070647603027757,1194.0
632.0,1.7114420538450964e+18,0.47389033942558745,0.4132420091324201,0.32432432432432434,0.5015896307165566,0.6065934065934065,0.43650126156433977,1197.0
633.0,1.7114420538550925e+18,0.47127937336814624,0.4063926940639269,0.3324324324324324,0.499877720714111,0.6417582417582418,0.4415475189234651,1198.0
634.0,1.7114420538650924e+18,0.47911227154047,0.4452054794520548,0.3643243243243243,0.5035460992907801,0.6197802197802198,0.4415475189234651,1195.0
635.0,1.7114420538751004e+18,0.47389033942558745,0.4075342465753425,0.3281081081081081,0.49938860357055515,0.6120879120879121,0.43902439024390244,1194.0
636.0,1.7114420538850936e+18,0.47389033942558745,0.4075342465753425,0.3172972972972973,0.5011005135730008,0.6241758241758242,0.4415475189234651,1196.0
637.0,1.7114420538950932e+18,0.47780678851174935,0.4212328767123288,0.3410810810810811,0.5015896307165566,0.6252747252747253,0.4415475189234651,1195.0
638.0,1.7114420539050918e+18,0.4830287206266319,0.4269406392694064,0.34702702702702704,0.504035216434336,0.6472527472527473,0.4415475189234651,1194.0
639.0,1.711442053915091e+18,0.47127937336814624,0.4029680365296804,0.32,0.5003668378576669,0.6274725274725275,0.43986543313709,1194.0
640.0,1.711442053925095e+18,0.48172323759791125,0.4212328767123288,0.3302702702702703,0.5033015407190022,0.6230769230769231,0.43902439024390244,1196.0
641.0,1.7114420539350968e+18,0.47780678851174935,0.410958904109589,0.32972972972972975,0.5015896307165566,0.6329670329670329,0.4415475189234651,1197.0
642.0,1.7114420539450972e+18,0.47389033942558745,0.4178082191780822,0.34756756756756757,0.5018341892883346,0.6241758241758242,0.4381833473507149,1196.0
643.0,1.7114420539550943e+18,0.47911227154047,0.4143835616438356,0.3362162162162162,0.5020787478601125,0.6153846153846154,0.4381833473507149,1196.0
644.0,1.7114420539650941e+18,0.47389033942558745,0.4075342465753425,0.32972972972972975,0.5015896307165566,0.6164835164835165,0.43986543313709,1198.0
645.0,1.7114420539750943e+18,0.46866840731070497,0.408675799086758,0.32756756756756755,0.5006113964294449,0.6120879120879121,0.43566021867115223,1197.0
646.0,1.7114420539850934e+18,0.4765013054830287,0.4132420091324201,0.3216216216216216,0.5008559550012228,0.6153846153846154,0.44238856181665265,1196.0
647.0,1.7114420539950684e+18,0.4751958224543081,0.4121004566210046,0.3389189189189189,0.5013450721447786,0.6329670329670329,0.43902439024390244,1195.0
648.0,1.711442054005101e+18,0.47127937336814624,0.4041095890410959,0.3248648648648649,0.4988994864269993,0.6230769230769231,0.43986543313709,1196.0
649.0,1.7114420540150979e+18,0.4765013054830287,0.4246575342465753,0.35783783783783785,0.4984103692834434,0.6208791208791209,0.44070647603027757,1197.0
650.0,1.711442054025096e+18,0.47780678851174935,0.4189497716894977,0.3372972972972973,0.5015896307165566,0.6241758241758242,0.43986543313709,1194.0
651.0,1.7114420540351027e+18,0.4765013054830287,0.4132420091324201,0.3410810810810811,0.5028124235754463,0.6307692307692307,0.4381833473507149,1197.0
652.0,1.7114420540450947e+18,0.4830287206266319,0.4178082191780822,0.3372972972972973,0.5030569821472243,0.6318681318681318,0.4415475189234651,1198.0
653.0,1.711442054055102e+18,0.47780678851174935,0.4178082191780822,0.33405405405405403,0.5015896307165566,0.656043956043956,0.4465937762825904,1197.0
654.0,1.7114420540651e+18,0.4765013054830287,0.4178082191780822,0.3389189189189189,0.5015896307165566,0.6230769230769231,0.44238856181665265,1195.0
655.0,1.7114420540751004e+18,0.47911227154047,0.4235159817351598,0.3443243243243243,0.499877720714111,0.6241758241758242,0.44070647603027757,1195.0
656.0,1.7114420540851103e+18,0.4725848563968668,0.4029680365296804,0.3302702702702703,0.5011005135730008,0.6186813186813187,0.4348191757779647,1196.0
657.0,1.7114420540950815e+18,0.47911227154047,0.4189497716894977,0.3583783783783784,0.5015896307165566,0.6230769230769231,0.4432296047098402,1197.0
658.0,1.7114420541050998e+18,0.4765013054830287,0.4189497716894977,0.3481081081081081,0.5035460992907801,0.6285714285714286,0.4432296047098402,1197.0
659.0,1.7114420541150863e+18,0.47389033942558745,0.410958904109589,0.3372972972972973,0.5033015407190022,0.6329670329670329,0.4373423044575273,1196.0
660.0,1.7114420541251702e+18,0.4765013054830287,0.4098173515981735,0.31891891891891894,0.5023233064318905,0.6241758241758242,0.44238856181665265,1199.0
661.0,1.711442054135083e+18,0.48172323759791125,0.4223744292237443,0.33783783783783783,0.5030569821472243,0.6450549450549451,0.43986543313709,1198.0
662.0,1.7114420541451077e+18,0.4765013054830287,0.4235159817351598,0.33297297297297296,0.5003668378576669,0.6054945054945055,0.4381833473507149,1197.0
663.0,1.7114420541550876e+18,0.4751958224543081,0.4121004566210046,0.32756756756756755,0.5006113964294449,0.6252747252747253,0.43650126156433977,1197.0
664.0,1.7114420541650883e+18,0.47780678851174935,0.4132420091324201,0.30324324324324325,0.5018341892883346,0.6230769230769231,0.43986543313709,1196.0
665.0,1.7114420541750866e+18,0.47780678851174935,0.4200913242009132,0.33837837837837836,0.4986549278552213,0.6197802197802198,0.4415475189234651,1196.0
666.0,1.711442054185086e+18,0.4765013054830287,0.4166666666666667,0.3708108108108108,0.5013450721447786,0.6131868131868132,0.4449116904962153,1196.0
667.0,1.711442054195089e+18,0.47780678851174935,0.4223744292237443,0.34054054054054056,0.4996331621423331,0.6142857142857143,0.43650126156433977,1198.0
668.0,1.7114420542050982e+18,0.4725848563968668,0.4063926940639269,0.3362162162162162,0.5006113964294449,0.6318681318681318,0.43650126156433977,1196.0
669.0,1.7114420542150866e+18,0.47389033942558745,0.4178082191780822,0.3335135135135135,0.5028124235754463,0.6274725274725275,0.4381833473507149,1196.0
670.0,1.7114420542250918e+18,0.47911227154047,0.4200913242009132,0.3308108108108108,0.5020787478601125,0.6021978021978022,0.4314550042052145,1192.0
671.0,1.7114420542351012e+18,0.47389033942558745,0.4200913242009132,0.34162162162162163,0.5025678650036683,0.6428571428571429,0.4314550042052145,1195.0
672.0,1.7114420542450947e+18,0.4765013054830287,0.4166666666666667,0.3318918918918919,0.5020787478601125,0.6241758241758242,0.4415475189234651,1195.0
673.0,1.7114420542550853e+18,0.47389033942558745,0.4155251141552511,0.32216216216216215,0.5001222792858889,0.6230769230769231,0.43902439024390244,1197.0
674.0,1.7114420542650903e+18,0.47389033942558745,0.4075342465753425,0.33297297297297296,0.5008559550012228,0.6087912087912087,0.4381833473507149,1196.0
675.0,1.7114420542750843e+18,0.4725848563968668,0.4121004566210046,0.32756756756756755,0.49767669356810956,0.6175824175824176,0.4373423044575273,1196.0
676.0,1.7114420542850885e+18,0.48172323759791125,0.430365296803653,0.37513513513513513,0.5028124235754463,0.6230769230769231,0.44238856181665265,1196.0
677.0,1.7114420542950845e+18,0.4765013054830287,0.4223744292237443,0.33837837837837836,0.5015896307165566,0.6252747252747253,0.4415475189234651,1195.0
678.0,1.7114420543050824e+18,0.47911227154047,0.4121004566210046,0.3237837837837838,0.5008559550012228,0.6285714285714286,0.4373423044575273,1195.0
679.0,1.7114420543150848e+18,0.47911227154047,0.4212328767123288,0.3291891891891892,0.5018341892883346,0.6274725274725275,0.43902439024390244,1196.0
680.0,1.711442054325084e+18,0.4765013054830287,0.4041095890410959,0.34054054054054056,0.5020787478601125,0.6230769230769231,0.4381833473507149,1197.0
681.0,1.7114420543350979e+18,0.47911227154047,0.4269406392694064,0.3232432432432432,0.5033015407190022,0.6395604395604395,0.4415475189234651,1194.0
682.0,1.711442054345086e+18,0.4699738903394256,0.4121004566210046,0.31567567567567567,0.5025678650036683,0.6351648351648351,0.4381833473507149,1196.0
683.0,1.7114420543550835e+18,0.47911227154047,0.4292237442922374,0.36108108108108106,0.5020787478601125,0.6362637362637362,0.4440706476030278,1196.0
684.0,1.7114420543650883e+18,0.4765013054830287,0.432648401826484,0.34540540540540543,0.5025678650036683,0.6252747252747253,0.43986543313709,1197.0
685.0,1.7114420543750884e+18,0.47780678851174935,0.4246575342465753,0.3497297297297297,0.5015896307165566,0.6307692307692307,0.43986543313709,1196.0
686.0,1.7114420543850982e+18,0.4765013054830287,0.4155251141552511,0.34162162162162163,0.5006113964294449,0.6153846153846154,0.4415475189234651,1197.0
687.0,1.711442054395104e+18,0.4725848563968668,0.4178082191780822,0.32756756756756755,0.49938860357055515,0.610989010989011,0.43566021867115223,1197.0
688.0,1.711442054405094e+18,0.48172323759791125,0.4098173515981735,0.3302702702702703,0.5023233064318905,0.6241758241758242,0.4415475189234651,1197.0
689.0,1.7114420544150902e+18,0.4699738903394256,0.410958904109589,0.32594594594594595,0.5006113964294449,0.6241758241758242,0.4381833473507149,1197.0
690.0,1.711442054425093e+18,0.4765013054830287,0.4098173515981735,0.32,0.5023233064318905,0.6274725274725275,0.4415475189234651,1196.0
691.0,1.711442054435061e+18,0.4765013054830287,0.4315068493150685,0.37567567567567567,0.5030569821472243,0.621978021978022,0.4415475189234651,1195.0
692.0,1.7114420544450867e+18,0.48172323759791125,0.4178082191780822,0.33675675675675676,0.5011005135730008,0.6230769230769231,0.4381833473507149,1196.0
693.0,1.7114420544550927e+18,0.4725848563968668,0.4052511415525114,0.33297297297297296,0.49645390070921985,0.6230769230769231,0.4381833473507149,1196.0
694.0,1.7114420544651e+18,0.4765013054830287,0.4121004566210046,0.3302702702702703,0.5015896307165566,0.6175824175824176,0.43902439024390244,1198.0
695.0,1.711442054475091e+18,0.4725848563968668,0.4098173515981735,0.3281081081081081,0.5006113964294449,0.6274725274725275,0.4373423044575273,1196.0
696.0,1.711442054485108e+18,0.4765013054830287,0.4132420091324201,0.34,0.5025678650036683,0.6285714285714286,0.4415475189234651,1196.0
697.0,1.7114420544951035e+18,0.47780678851174935,0.410958904109589,0.33837837837837836,0.5015896307165566,0.6296703296703297,0.4381833473507149,1197.0
698.0,1.7114420545050926e+18,0.4699738903394256,0.4052511415525114,0.3172972972972973,0.5015896307165566,0.6230769230769231,0.43986543313709,1197.0
699.0,1.7114420545150973e+18,0.4725848563968668,0.4132420091324201,0.31891891891891894,0.5008559550012228,0.6230769230769231,0.4381833473507149,1195.0
700.0,1.7114420545251077e+18,0.47911227154047,0.4166666666666667,0.3232432432432432,0.5011005135730008,0.6197802197802198,0.4415475189234651,1198.0
701.0,1.7114420545351247e+18,0.4765013054830287,0.408675799086758,0.33135135135135135,0.5015896307165566,0.6538461538461539,0.43986543313709,1195.0
702.0,1.7114420545450964e+18,0.47780678851174935,0.4178082191780822,0.33837837837837836,0.5015896307165566,0.6296703296703297,0.4415475189234651,1197.0
703.0,1.7114420545550996e+18,0.4751958224543081,0.4155251141552511,0.3345945945945946,0.5013450721447786,0.6329670329670329,0.4415475189234651,1197.0
704.0,1.7114420545650952e+18,0.4856396866840731,0.4257990867579909,0.3675675675675676,0.5047688921496698,0.6362637362637362,0.44238856181665265,1196.0
705.0,1.7114420545750935e+18,0.48172323759791125,0.4269406392694064,0.33135135135135135,0.5020787478601125,0.6274725274725275,0.4415475189234651,1198.0
706.0,1.7114420545851087e+18,0.4725848563968668,0.410958904109589,0.3308108108108108,0.5015896307165566,0.6175824175824176,0.4381833473507149,1196.0
707.0,1.711442054595082e+18,0.47780678851174935,0.4132420091324201,0.32756756756756755,0.499877720714111,0.621978021978022,0.43650126156433977,1195.0
708.0,1.7114420546050906e+18,0.47911227154047,0.4075342465753425,0.3183783783783784,0.4996331621423331,0.6329670329670329,0.43902439024390244,1196.0
709.0,1.7114420546150866e+18,0.4765013054830287,0.4178082191780822,0.3345945945945946,0.5013450721447786,0.6098901098901099,0.4381833473507149,1196.0
710.0,1.7114420546250941e+18,0.47780678851174935,0.4098173515981735,0.3145945945945946,0.5020787478601125,0.6186813186813187,0.44070647603027757,1195.0
711.0,1.711442054635096e+18,0.48172323759791125,0.4223744292237443,0.34216216216216216,0.5008559550012228,0.6197802197802198,0.4415475189234651,1196.0
712.0,1.711442054645085e+18,0.4765013054830287,0.4075342465753425,0.32432432432432434,0.5011005135730008,0.6230769230769231,0.43650126156433977,1196.0
713.0,1.711442054655078e+18,0.47780678851174935,0.4143835616438356,0.32,0.5015896307165566,0.6274725274725275,0.43902439024390244,1195.0
714.0,1.7114420546650824e+18,0.47127937336814624,0.410958904109589,0.3318918918918919,0.5023233064318905,0.621978021978022,0.43650126156433977,1197.0
715.0,1.711442054675081e+18,0.4804177545691906,0.4269406392694064,0.3816216216216216,0.5062362435803375,0.6494505494505495,0.4440706476030278,1193.0
716.0,1.7114420546850916e+18,0.4908616187989556,0.4372146118721461,0.35783783783783785,0.5037906578625581,0.6208791208791209,0.4440706476030278,1195.0
717.0,1.71144205469509e+18,0.4699738903394256,0.4121004566210046,0.3302702702702703,0.4988994864269993,0.6021978021978022,0.432296047098402,1192.0
718.0,1.711442054705088e+18,0.4751958224543081,0.4063926940639269,0.3281081081081081,0.5020787478601125,0.6197802197802198,0.43566021867115223,1195.0
719.0,1.7114420547150932e+18,0.47911227154047,0.4360730593607306,0.37513513513513513,0.5025678650036683,0.6296703296703297,0.4415475189234651,1196.0
720.0,1.7114420547250964e+18,0.47127937336814624,0.408675799086758,0.3254054054054054,0.499877720714111,0.6362637362637362,0.43313708999158956,1194.0
721.0,1.7114420547350853e+18,0.4765013054830287,0.4075342465753425,0.31189189189189187,0.5008559550012228,0.6197802197802198,0.4339781328847771,1199.0
722.0,1.7114420547450857e+18,0.4804177545691906,0.4383561643835616,0.3924324324324324,0.5018341892883346,0.6230769230769231,0.4449116904962153,1198.0
723.0,1.7114420547550822e+18,0.47389033942558745,0.408675799086758,0.31675675675675674,0.5015896307165566,0.6285714285714286,0.43902439024390244,1197.0
724.0,1.7114420547650929e+18,0.4660574412532637,0.4063926940639269,0.3237837837837838,0.5011005135730008,0.6208791208791209,0.4381833473507149,1196.0
725.0,1.7114420547750907e+18,0.4765013054830287,0.4098173515981735,0.3232432432432432,0.5003668378576669,0.621978021978022,0.43902439024390244,1197.0
726.0,1.7114420547850895e+18,0.4856396866840731,0.4497716894977169,0.37405405405405406,0.5057471264367817,0.6450549450549451,0.4440706476030278,1195.0
727.0,1.711442054795104e+18,0.47389033942558745,0.4143835616438356,0.3362162162162162,0.5006113964294449,0.6252747252747253,0.4415475189234651,1197.0
728.0,1.7114420548050875e+18,0.4699738903394256,0.4075342465753425,0.3318918918918919,0.5015896307165566,0.6098901098901099,0.4348191757779647,1197.0
729.0,1.711442054815088e+18,0.4725848563968668,0.4029680365296804,0.3216216216216216,0.5013450721447786,0.6406593406593407,0.43650126156433977,1196.0
730.0,1.711442054825086e+18,0.4751958224543081,0.4178082191780822,0.3372972972972973,0.49767669356810956,0.5945054945054945,0.4339781328847771,1192.0
731.0,1.7114420548350979e+18,0.47911227154047,0.4212328767123288,0.3491891891891892,0.5030569821472243,0.6285714285714286,0.44070647603027757,1195.0
732.0,1.7114420548450842e+18,0.4725848563968668,0.4063926940639269,0.31351351351351353,0.5023233064318905,0.6252747252747253,0.44070647603027757,1196.0
733.0,1.7114420548550904e+18,0.4765013054830287,0.4269406392694064,0.3362162162162162,0.5025678650036683,0.643956043956044,0.44575273338940286,1196.0
734.0,1.7114420548650875e+18,0.4725848563968668,0.408675799086758,0.3210810810810811,0.5028124235754463,0.6329670329670329,0.4381833473507149,1197.0
735.0,1.7114420548750876e+18,0.4699738903394256,0.4075342465753425,0.3345945945945946,0.5015896307165566,0.6417582417582418,0.44238856181665265,1195.0
736.0,1.711442054885093e+18,0.48433420365535246,0.4372146118721461,0.37243243243243246,0.5064808021521154,0.6494505494505495,0.4465937762825904,1197.0
737.0,1.7114420548951058e+18,0.46866840731070497,0.4018264840182648,0.3183783783783784,0.5003668378576669,0.6285714285714286,0.43650126156433977,1195.0
738.0,1.7114420549050844e+18,0.47780678851174935,0.4178082191780822,0.3016216216216216,0.5023233064318905,0.6230769230769231,0.44070647603027757,1197.0
739.0,1.7114420549150866e+18,0.47127937336814624,0.3995433789954338,0.32594594594594595,0.5018341892883346,0.6274725274725275,0.43650126156433977,1197.0
740.0,1.7114420549250977e+18,0.4765013054830287,0.4223744292237443,0.3497297297297297,0.5035460992907801,0.6318681318681318,0.43986543313709,1196.0
741.0,1.7114420549350907e+18,0.47389033942558745,0.410958904109589,0.3210810810810811,0.499877720714111,0.6241758241758242,0.4381833473507149,1198.0
742.0,1.7114420549450954e+18,0.47911227154047,0.4143835616438356,0.33837837837837836,0.5013450721447786,0.6208791208791209,0.4415475189234651,1195.0
743.0,1.7114420549550886e+18,0.4699738903394256,0.4052511415525114,0.32,0.4991440449987772,0.634065934065934,0.4381833473507149,1197.0
744.0,1.7114420549650947e+18,0.48433420365535246,0.4372146118721461,0.3308108108108108,0.5025678650036683,0.6230769230769231,0.4440706476030278,1198.0
745.0,1.711442054975088e+18,0.47389033942558745,0.4018264840182648,0.3016216216216216,0.5015896307165566,0.6296703296703297,0.43902439024390244,1196.0
746.0,1.7114420549851046e+18,0.4725848563968668,0.4075342465753425,0.3081081081081081,0.5020787478601125,0.6395604395604395,0.43650126156433977,1195.0
747.0,1.7114420549950986e+18,0.4725848563968668,0.4155251141552511,0.3281081081081081,0.4991440449987772,0.6175824175824176,0.43650126156433977,1197.0
748.0,1.7114420550051e+18,0.4765013054830287,0.408675799086758,0.31891891891891894,0.5008559550012228,0.610989010989011,0.44070647603027757,1196.0
749.0,1.7114420550150858e+18,0.4830287206266319,0.4372146118721461,0.36702702702702705,0.49938860357055515,0.6241758241758242,0.4440706476030278,1197.0
750.0,1.7114420550250903e+18,0.47911227154047,0.4235159817351598,0.34864864864864864,0.504035216434336,0.6307692307692307,0.44238856181665265,1196.0
751.0,1.711442055035111e+18,0.4765013054830287,0.4132420091324201,0.34486486486486484,0.5013450721447786,0.6318681318681318,0.4415475189234651,1196.0
752.0,1.7114420550450877e+18,0.47127937336814624,0.410958904109589,0.33675675675675676,0.5018341892883346,0.6274725274725275,0.4415475189234651,1195.0
753.0,1.7114420550550874e+18,0.4765013054830287,0.4155251141552511,0.3216216216216216,0.5018341892883346,0.6274725274725275,0.44238856181665265,1196.0
754.0,1.7114420550650883e+18,0.48172323759791125,0.4360730593607306,0.34486486486486484,0.5064808021521154,0.6538461538461539,0.43902439024390244,1195.0
755.0,1.7114420550750945e+18,0.4725848563968668,0.4098173515981735,0.3302702702702703,0.5020787478601125,0.6274725274725275,0.43902439024390244,1196.0
756.0,1.71144205508511e+18,0.47911227154047,0.4178082191780822,0.3362162162162162,0.5033015407190022,0.6362637362637362,0.43566021867115223,1198.0
757.0,1.711442055095098e+18,0.47911227154047,0.4292237442922374,0.34378378378378377,0.5020787478601125,0.634065934065934,0.4415475189234651,1197.0
758.0,1.7114420551050872e+18,0.48433420365535246,0.4235159817351598,0.35027027027027025,0.5035460992907801,0.6417582417582418,0.4432296047098402,1197.0
759.0,1.7114420551150835e+18,0.4765013054830287,0.4223744292237443,0.33675675675675676,0.4996331621423331,0.6285714285714286,0.43902439024390244,1197.0
760.0,1.7114420551251057e+18,0.4765013054830287,0.4189497716894977,0.3389189189189189,0.5015896307165566,0.6175824175824176,0.43902439024390244,1197.0
761.0,1.7114420551350897e+18,0.4725848563968668,0.3995433789954338,0.3124324324324324,0.5020787478601125,0.6274725274725275,0.4373423044575273,1197.0
762.0,1.7114420551451092e+18,0.4765013054830287,0.4132420091324201,0.34486486486486484,0.5028124235754463,0.6296703296703297,0.432296047098402,1194.0
763.0,1.7114420551550868e+18,0.4765013054830287,0.4235159817351598,0.32594594594594595,0.4979212521398875,0.6186813186813187,0.4415475189234651,1198.0
764.0,1.7114420551650972e+18,0.47780678851174935,0.4246575342465753,0.3621621621621622,0.5001222792858889,0.6175824175824176,0.4381833473507149,1196.0
765.0,1.71144205517509e+18,0.4765013054830287,0.4143835616438356,0.34324324324324323,0.5015896307165566,0.6252747252747253,0.43902439024390244,1194.0
766.0,1.7114420551850906e+18,0.4765013054830287,0.4121004566210046,0.32,0.5006113964294449,0.6186813186813187,0.4415475189234651,1196.0
767.0,1.7114420551950932e+18,0.47780678851174935,0.410958904109589,0.32756756756756755,0.5011005135730008,0.6318681318681318,0.43902439024390244,1197.0
768.0,1.711442055205069e+18,0.47389033942558745,0.4155251141552511,0.33135135135135135,0.5008559550012228,0.6274725274725275,0.4381833473507149,1196.0
769.0,1.711442055215093e+18,0.4869451697127937,0.432648401826484,0.3589189189189189,0.5072144778674492,0.6428571428571429,0.43986543313709,1196.0
770.0,1.7114420552250936e+18,0.4804177545691906,0.4041095890410959,0.292972972972973,0.5028124235754463,0.6362637362637362,0.4373423044575273,1192.0
771.0,1.7114420552351084e+18,0.4765013054830287,0.4121004566210046,0.31513513513513514,0.5013450721447786,0.6175824175824176,0.4381833473507149,1195.0
772.0,1.7114420552451005e+18,0.47389033942558745,0.4143835616438356,0.3227027027027027,0.5001222792858889,0.6230769230769231,0.4415475189234651,1195.0
773.0,1.7114420552550973e+18,0.47389033942558745,0.4132420091324201,0.33513513513513515,0.5015896307165566,0.6285714285714286,0.43650126156433977,1196.0
774.0,1.7114420552650957e+18,0.4725848563968668,0.408675799086758,0.3345945945945946,0.5018341892883346,0.6274725274725275,0.43902439024390244,1196.0
775.0,1.7114420552750963e+18,0.4765013054830287,0.4143835616438356,0.34864864864864864,0.5055025678650037,0.6406593406593407,0.43902439024390244,1197.0
776.0,1.7114420552850962e+18,0.47127937336814624,0.408675799086758,0.31675675675675674,0.499877720714111,0.6186813186813187,0.43902439024390244,1196.0
777.0,1.7114420552950991e+18,0.4725848563968668,0.4132420091324201,0.33783783783783783,0.4984103692834434,0.6329670329670329,0.4348191757779647,1196.0
778.0,1.7114420553050816e+18,0.4765013054830287,0.4178082191780822,0.3286486486486486,0.5015896307165566,0.6175824175824176,0.4373423044575273,1196.0
779.0,1.711442055315104e+18,0.4765013054830287,0.4178082191780822,0.3248648648648649,0.5015896307165566,0.6230769230769231,0.4381833473507149,1196.0
780.0,1.7114420553250985e+18,0.4699738903394256,0.3995433789954338,0.31567567567567567,0.5006113964294449,0.6175824175824176,0.4381833473507149,1195.0
781.0,1.711442055335103e+18,0.47911227154047,0.4280821917808219,0.3535135135135135,0.5020787478601125,0.6318681318681318,0.43986543313709,1197.0
782.0,1.711442055345067e+18,0.48172323759791125,0.4212328767123288,0.3551351351351351,0.5025678650036683,0.6450549450549451,0.44238856181665265,1196.0
783.0,1.711442055355114e+18,0.4765013054830287,0.4315068493150685,0.3637837837837838,0.5011005135730008,0.621978021978022,0.4381833473507149,1196.0
784.0,1.711442055365106e+18,0.48172323759791125,0.432648401826484,0.35405405405405405,0.5030569821472243,0.621978021978022,0.44238856181665265,1196.0
785.0,1.711442055375085e+18,0.4725848563968668,0.4132420091324201,0.33675675675675676,0.5006113964294449,0.6263736263736264,0.43902439024390244,1198.0
786.0,1.711442055385085e+18,0.47911227154047,0.4178082191780822,0.34054054054054056,0.5035460992907801,0.6230769230769231,0.4432296047098402,1196.0
787.0,1.7114420553950907e+18,0.47389033942558745,0.4223744292237443,0.3216216216216216,0.4996331621423331,0.6241758241758242,0.4348191757779647,1198.0
788.0,1.7114420554051018e+18,0.4725848563968668,0.4143835616438356,0.33297297297297296,0.5028124235754463,0.6241758241758242,0.43986543313709,1196.0
789.0,1.7114420554150804e+18,0.4725848563968668,0.410958904109589,0.3237837837837838,0.5011005135730008,0.6329670329670329,0.44070647603027757,1193.0
790.0,1.7114420554250796e+18,0.4725848563968668,0.4143835616438356,0.3372972972972973,0.5008559550012228,0.621978021978022,0.43902439024390244,1194.0
791.0,1.711442055435086e+18,0.47780678851174935,0.4143835616438356,0.327027027027027,0.5001222792858889,0.6296703296703297,0.43650126156433977,1195.0
792.0,1.7114420554451072e+18,0.4765013054830287,0.4098173515981735,0.3318918918918919,0.5008559550012228,0.6296703296703297,0.4432296047098402,1195.0
793.0,1.711442055455087e+18,0.4699738903394256,0.4143835616438356,0.33513513513513515,0.49816581071166544,0.6329670329670329,0.44070647603027757,1196.0
794.0,1.7114420554650895e+18,0.47911227154047,0.4178082191780822,0.33405405405405403,0.5018341892883346,0.6197802197802198,0.43986543313709,1195.0
795.0,1.7114420554750863e+18,0.46736292428198434,0.4018264840182648,0.3281081081081081,0.49938860357055515,0.6186813186813187,0.4373423044575273,1196.0
796.0,1.7114420554850844e+18,0.4765013054830287,0.4063926940639269,0.31027027027027027,0.499877720714111,0.6175824175824176,0.43986543313709,1194.0
797.0,1.7114420554950892e+18,0.4725848563968668,0.4006849315068493,0.32756756756756755,0.5003668378576669,0.6230769230769231,0.43902439024390244,1196.0
798.0,1.711442055505104e+18,0.4765013054830287,0.4292237442922374,0.33297297297297296,0.5023233064318905,0.6241758241758242,0.43902439024390244,1194.0
799.0,1.7114420555150956e+18,0.4751958224543081,0.4063926940639269,0.3324324324324324,0.5001222792858889,0.6318681318681318,0.43650126156433977,1196.0
800.0,1.7114420555250944e+18,0.4804177545691906,0.4223744292237443,0.3621621621621622,0.49938860357055515,0.6252747252747253,0.43986543313709,1196.0
801.0,1.711442055535091e+18,0.4725848563968668,0.4143835616438356,0.3302702702702703,0.5015896307165566,0.6395604395604395,0.4415475189234651,1198.0
802.0,1.7114420555451095e+18,0.4765013054830287,0.4200913242009132,0.35621621621621624,0.5023233064318905,0.6164835164835165,0.4415475189234651,1196.0
803.0,1.7114420555550863e+18,0.4751958224543081,0.4098173515981735,0.3335135135135135,0.5006113964294449,0.6329670329670329,0.4381833473507149,1196.0
804.0,1.711442055565088e+18,0.47780678851174935,0.4223744292237443,0.3535135135135135,0.5003668378576669,0.6175824175824176,0.43986543313709,1196.0
805.0,1.7114420555750858e+18,0.4765013054830287,0.4121004566210046,0.3324324324324324,0.5008559550012228,0.6285714285714286,0.4381833473507149,1197.0
806.0,1.7114420555850913e+18,0.4765013054830287,0.4269406392694064,0.34324324324324323,0.5035460992907801,0.6142857142857143,0.43902439024390244,1197.0
807.0,1.7114420555951503e+18,0.47780678851174935,0.4155251141552511,0.33513513513513515,0.5020787478601125,0.6274725274725275,0.43986543313709,1196.0
808.0,1.7114420556050778e+18,0.47127937336814624,0.4029680365296804,0.3172972972972973,0.5018341892883346,0.6186813186813187,0.4381833473507149,1195.0
809.0,1.7114420556151017e+18,0.4699738903394256,0.4280821917808219,0.3362162162162162,0.5062362435803375,0.6505494505494506,0.43650126156433977,1197.0
810.0,1.7114420556251023e+18,0.4765013054830287,0.4166666666666667,0.35243243243243244,0.5025678650036683,0.6406593406593407,0.44238856181665265,1193.0
811.0,1.7114420556350863e+18,0.46475195822454307,0.4041095890410959,0.32594594594594595,0.49938860357055515,0.6362637362637362,0.4381833473507149,1195.0
812.0,1.7114420556450924e+18,0.4765013054830287,0.4200913242009132,0.34324324324324323,0.504524333577892,0.6362637362637362,0.4432296047098402,1197.0
813.0,1.7114420556550845e+18,0.47780678851174935,0.4223744292237443,0.34594594594594597,0.5001222792858889,0.6208791208791209,0.4415475189234651,1198.0
814.0,1.7114420556650796e+18,0.4765013054830287,0.410958904109589,0.34054054054054056,0.5001222792858889,0.6142857142857143,0.43986543313709,1196.0
815.0,1.7114420556750945e+18,0.4765013054830287,0.4178082191780822,0.3281081081081081,0.5015896307165566,0.6285714285714286,0.4415475189234651,1195.0
816.0,1.7114420556850847e+18,0.47780678851174935,0.410958904109589,0.32432432432432434,0.5006113964294449,0.6197802197802198,0.4415475189234651,1196.0
817.0,1.7114420556950876e+18,0.47389033942558745,0.410958904109589,0.32,0.499877720714111,0.621978021978022,0.4415475189234651,1195.0
818.0,1.7114420557050924e+18,0.4765013054830287,0.4269406392694064,0.3827027027027027,0.5037906578625581,0.6241758241758242,0.43986543313709,1194.0
819.0,1.7114420557150897e+18,0.47389033942558745,0.4143835616438356,0.3232432432432432,0.5006113964294449,0.6230769230769231,0.43902439024390244,1195.0
820.0,1.7114420557250908e+18,0.4725848563968668,0.4006849315068493,0.2951351351351351,0.4996331621423331,0.6274725274725275,0.4415475189234651,1197.0
821.0,1.7114420557350917e+18,0.46866840731070497,0.4098173515981735,0.33783783783783783,0.5018341892883346,0.6450549450549451,0.4381833473507149,1198.0
822.0,1.7114420557451192e+18,0.47911227154047,0.4155251141552511,0.33837837837837836,0.4979212521398875,0.6175824175824176,0.4415475189234651,1195.0
823.0,1.7114420557550856e+18,0.4725848563968668,0.4200913242009132,0.3372972972972973,0.5015896307165566,0.6296703296703297,0.43566021867115223,1196.0
824.0,1.7114420557650752e+18,0.47911227154047,0.410958904109589,0.3302702702702703,0.5023233064318905,0.6252747252747253,0.43902439024390244,1195.0
825.0,1.711442055775084e+18,0.4725848563968668,0.4269406392694064,0.35081081081081084,0.5015896307165566,0.6252747252747253,0.4415475189234651,1196.0
826.0,1.7114420557851046e+18,0.4725848563968668,0.3961187214611872,0.31405405405405407,0.5008559550012228,0.6153846153846154,0.4381833473507149,1195.0
827.0,1.7114420557951012e+18,0.46866840731070497,0.4132420091324201,0.3427027027027027,0.5006113964294449,0.6274725274725275,0.4381833473507149,1197.0
828.0,1.7114420558050783e+18,0.48172323759791125,0.4315068493150685,0.3772972972972973,0.5011005135730008,0.6197802197802198,0.4432296047098402,1196.0
829.0,1.7114420558150825e+18,0.48172323759791125,0.4235159817351598,0.3535135135135135,0.5037906578625581,0.6318681318681318,0.44070647603027757,1195.0
830.0,1.7114420558251118e+18,0.46866840731070497,0.4029680365296804,0.3248648648648649,0.5003668378576669,0.6197802197802198,0.4373423044575273,1196.0
831.0,1.7114420558350863e+18,0.47127937336814624,0.4178082191780822,0.33675675675675676,0.4996331621423331,0.6230769230769231,0.4381833473507149,1196.0
832.0,1.711442055845092e+18,0.4765013054830287,0.4143835616438356,0.34864864864864864,0.4988994864269993,0.5791208791208792,0.43566021867115223,1196.0
833.0,1.7114420558550948e+18,0.4765013054830287,0.4178082191780822,0.3491891891891892,0.499877720714111,0.6274725274725275,0.4381833473507149,1197.0
834.0,1.7114420558650875e+18,0.4765013054830287,0.4178082191780822,0.3324324324324324,0.5035460992907801,0.6241758241758242,0.4415475189234651,1197.0
835.0,1.7114420558750948e+18,0.47911227154047,0.4178082191780822,0.3237837837837838,0.5006113964294449,0.6406593406593407,0.43902439024390244,1196.0
836.0,1.711442055885087e+18,0.4699738903394256,0.4235159817351598,0.3324324324324324,0.5008559550012228,0.6318681318681318,0.43566021867115223,1195.0
837.0,1.7114420558951644e+18,0.4765013054830287,0.4143835616438356,0.34702702702702704,0.5020787478601125,0.6164835164835165,0.43986543313709,1195.0
838.0,1.7114420559050844e+18,0.4765013054830287,0.4063926940639269,0.3108108108108108,0.5013450721447786,0.6186813186813187,0.4381833473507149,1197.0
839.0,1.7114420559150917e+18,0.47389033942558745,0.4132420091324201,0.31567567567567567,0.499877720714111,0.6241758241758242,0.4381833473507149,1197.0
840.0,1.7114420559250975e+18,0.48172323759791125,0.4235159817351598,0.3286486486486486,0.5020787478601125,0.6142857142857143,0.4373423044575273,1197.0
841.0,1.7114420559351035e+18,0.4725848563968668,0.4098173515981735,0.3232432432432432,0.5013450721447786,0.6252747252747253,0.44238856181665265,1197.0
842.0,1.711442055945085e+18,0.4699738903394256,0.3995433789954338,0.3286486486486486,0.5018341892883346,0.6252747252747253,0.43902439024390244,1195.0
843.0,1.7114420559550904e+18,0.47127937336814624,0.408675799086758,0.3264864864864865,0.5006113964294449,0.6230769230769231,0.4373423044575273,1196.0
844.0,1.7114420559650893e+18,0.4765013054830287,0.4178082191780822,0.33405405405405403,0.499877720714111,0.6362637362637362,0.4415475189234651,1194.0
845.0,1.7114420559750874e+18,0.4804177545691906,0.4132420091324201,0.33405405405405403,0.5011005135730008,0.621978021978022,0.43902439024390244,1195.0
846.0,1.7114420559850847e+18,0.4765013054830287,0.4098173515981735,0.34054054054054056,0.5025678650036683,0.6230769230769231,0.4381833473507149,1196.0
847.0,1.7114420559950866e+18,0.47780678851174935,0.4235159817351598,0.3621621621621622,0.5008559550012228,0.6175824175824176,0.43650126156433977,1197.0
848.0,1.7114420560050947e+18,0.4699738903394256,0.4121004566210046,0.33135135135135135,0.5006113964294449,0.6362637362637362,0.43902439024390244,1198.0
849.0,1.7114420560150845e+18,0.4765013054830287,0.4121004566210046,0.3372972972972973,0.5015896307165566,0.6428571428571429,0.4415475189234651,1196.0
850.0,1.7114420560251095e+18,0.47127937336814624,0.4098173515981735,0.34324324324324323,0.5015896307165566,0.6175824175824176,0.43902439024390244,1195.0
851.0,1.711442056035094e+18,0.47780678851174935,0.4212328767123288,0.34702702702702704,0.5028124235754463,0.6296703296703297,0.4373423044575273,1195.0
852.0,1.7114420560451092e+18,0.47911227154047,0.4143835616438356,0.3335135135135135,0.504524333577892,0.6461538461538462,0.43986543313709,1196.0
853.0,1.7114420560550968e+18,0.4765013054830287,0.4075342465753425,0.31567567567567567,0.5015896307165566,0.6395604395604395,0.4381833473507149,1193.0
854.0,1.7114420560651082e+18,0.47780678851174935,0.4143835616438356,0.3372972972972973,0.5011005135730008,0.6285714285714286,0.4449116904962153,1197.0
855.0,1.7114420560750922e+18,0.4765013054830287,0.4200913242009132,0.3302702702702703,0.5006113964294449,0.6252747252747253,0.43566021867115223,1197.0
856.0,1.7114420560850906e+18,0.47911227154047,0.4189497716894977,0.3567567567567568,0.5037906578625581,0.6285714285714286,0.4465937762825904,1196.0
857.0,1.7114420560950907e+18,0.4765013054830287,0.4041095890410959,0.307027027027027,0.5011005135730008,0.6362637362637362,0.447434819175778,1196.0
858.0,1.7114420561050936e+18,0.47780678851174935,0.410958904109589,0.3281081081081081,0.5037906578625581,0.6252747252747253,0.43986543313709,1196.0
859.0,1.7114420561150984e+18,0.4765013054830287,0.4178082191780822,0.35621621621621624,0.5015896307165566,0.6241758241758242,0.4415475189234651,1196.0
860.0,1.711442056125109e+18,0.4765013054830287,0.4360730593607306,0.3443243243243243,0.5011005135730008,0.6043956043956044,0.43902439024390244,1197.0
861.0,1.711442056135094e+18,0.47389033942558745,0.4052511415525114,0.3248648648648649,0.5037906578625581,0.6406593406593407,0.4415475189234651,1197.0
862.0,1.71144205614509e+18,0.4765013054830287,0.4052511415525114,0.31891891891891894,0.5011005135730008,0.634065934065934,0.4415475189234651,1197.0
863.0,1.7114420561551107e+18,0.47127937336814624,0.410958904109589,0.3308108108108108,0.5008559550012228,0.6274725274725275,0.43650126156433977,1197.0
864.0,1.7114420561650926e+18,0.47780678851174935,0.4200913242009132,0.3308108108108108,0.5050134507214478,0.6274725274725275,0.4415475189234651,1196.0
865.0,1.7114420561750966e+18,0.4765013054830287,0.408675799086758,0.32594594594594595,0.4996331621423331,0.6076923076923076,0.43566021867115223,1197.0
866.0,1.71144205618509e+18,0.47780678851174935,0.4212328767123288,0.34324324324324323,0.5015896307165566,0.6208791208791209,0.4381833473507149,1196.0
867.0,1.711442056195097e+18,0.4830287206266319,0.4337899543378995,0.37135135135135133,0.5025678650036683,0.6285714285714286,0.43902439024390244,1197.0
868.0,1.7114420562051054e+18,0.4765013054830287,0.4132420091324201,0.34702702702702704,0.499877720714111,0.610989010989011,0.43986543313709,1199.0
869.0,1.711442056215099e+18,0.47127937336814624,0.410958904109589,0.3291891891891892,0.5013450721447786,0.643956043956044,0.4449116904962153,1196.0
870.0,1.7114420562251092e+18,0.47780678851174935,0.4280821917808219,0.34486486486486484,0.5023233064318905,0.6274725274725275,0.4415475189234651,1194.0
871.0,1.7114420562351017e+18,0.4621409921671018,0.3881278538812785,0.31513513513513514,0.4979212521398875,0.6230769230769231,0.43650126156433977,1195.0
872.0,1.7114420562450993e+18,0.47780678851174935,0.4075342465753425,0.32216216216216215,0.504035216434336,0.621978021978022,0.43902439024390244,1195.0
873.0,1.711442056255104e+18,0.47911227154047,0.410958904109589,0.3,0.5015896307165566,0.6241758241758242,0.4432296047098402,1198.0
874.0,1.711442056265104e+18,0.47389033942558745,0.4098173515981735,0.3291891891891892,0.5023233064318905,0.6494505494505495,0.44238856181665265,1194.0
875.0,1.7114420562750876e+18,0.47389033942558745,0.4063926940639269,0.31189189189189187,0.49767669356810956,0.6230769230769231,0.43902439024390244,1194.0
876.0,1.7114420562851064e+18,0.4765013054830287,0.4132420091324201,0.3345945945945946,0.5020787478601125,0.6252747252747253,0.44070647603027757,1196.0
877.0,1.711442056295088e+18,0.4765013054830287,0.4132420091324201,0.33405405405405403,0.5015896307165566,0.6329670329670329,0.4415475189234651,1196.0
878.0,1.7114420563050898e+18,0.4725848563968668,0.4132420091324201,0.32054054054054054,0.5015896307165566,0.6164835164835165,0.43986543313709,1195.0
879.0,1.7114420563150828e+18,0.47389033942558745,0.4178082191780822,0.3535135135135135,0.5011005135730008,0.6296703296703297,0.4432296047098402,1197.0
880.0,1.711442056325111e+18,0.4725848563968668,0.4155251141552511,0.3302702702702703,0.5015896307165566,0.6274725274725275,0.4415475189234651,1196.0
881.0,1.711442056335111e+18,0.4751958224543081,0.4257990867579909,0.3681081081081081,0.5018341892883346,0.6296703296703297,0.4415475189234651,1200.0
882.0,1.7114420563450916e+18,0.47389033942558745,0.4098173515981735,0.3216216216216216,0.5015896307165566,0.6142857142857143,0.4381833473507149,1197.0
883.0,1.7114420563550986e+18,0.48172323759791125,0.4212328767123288,0.3172972972972973,0.5013450721447786,0.6252747252747253,0.44070647603027757,1197.0
884.0,1.7114420563651116e+18,0.4765013054830287,0.4143835616438356,0.34756756756756757,0.5006113964294449,0.6197802197802198,0.4381833473507149,1196.0
885.0,1.7114420563751201e+18,0.47911227154047,0.4292237442922374,0.3324324324324324,0.5018341892883346,0.6307692307692307,0.43902439024390244,1198.0
886.0,1.7114420563850929e+18,0.47389033942558745,0.4166666666666667,0.34054054054054056,0.5015896307165566,0.6120879120879121,0.4381833473507149,1197.0
887.0,1.7114420563950863e+18,0.47127937336814624,0.4132420091324201,0.32972972972972975,0.4988994864269993,0.6054945054945055,0.4381833473507149,1197.0
888.0,1.7114420564050962e+18,0.4765013054830287,0.4132420091324201,0.31675675675675674,0.5020787478601125,0.6197802197802198,0.43902439024390244,1196.0
889.0,1.7114420564150868e+18,0.4725848563968668,0.3995433789954338,0.32972972972972975,0.5015896307165566,0.6406593406593407,0.43902439024390244,1197.0
890.0,1.711442056425087e+18,0.47911227154047,0.4257990867579909,0.34594594594594597,0.504035216434336,0.6241758241758242,0.4415475189234651,1195.0
891.0,1.711442056435094e+18,0.4725848563968668,0.410958904109589,0.32054054054054054,0.4979212521398875,0.6175824175824176,0.43313708999158956,1192.0
892.0,1.7114420564450895e+18,0.4765013054830287,0.4132420091324201,0.3443243243243243,0.5011005135730008,0.6241758241758242,0.43902439024390244,1197.0
893.0,1.7114420564550994e+18,0.4725848563968668,0.4155251141552511,0.3572972972972973,0.4988994864269993,0.6252747252747253,0.4381833473507149,1195.0
894.0,1.7114420564650844e+18,0.4725848563968668,0.4132420091324201,0.327027027027027,0.5011005135730008,0.6208791208791209,0.4415475189234651,1197.0
895.0,1.7114420564750938e+18,0.4830287206266319,0.4452054794520548,0.36324324324324325,0.5020787478601125,0.6318681318681318,0.4415475189234651,1197.0
896.0,1.711442056485086e+18,0.47780678851174935,0.4269406392694064,0.34324324324324323,0.5035460992907801,0.6142857142857143,0.44238856181665265,1197.0
897.0,1.7114420564950876e+18,0.4699738903394256,0.4063926940639269,0.32,0.49938860357055515,0.6351648351648351,0.4381833473507149,1194.0
898.0,1.711442056505106e+18,0.47780678851174935,0.4417808219178082,0.35243243243243244,0.5035460992907801,0.6274725274725275,0.43902439024390244,1195.0
899.0,1.7114420565150886e+18,0.4751958224543081,0.4132420091324201,0.3362162162162162,0.5023233064318905,0.6252747252747253,0.43902439024390244,1194.0
900.0,1.7114420565251026e+18,0.48172323759791125,0.4269406392694064,0.3551351351351351,0.5015896307165566,0.6131868131868132,0.43902439024390244,1195.0
901.0,1.711442056535087e+18,0.4765013054830287,0.4029680365296804,0.31567567567567567,0.5008559550012228,0.6329670329670329,0.43902439024390244,1200.0
902.0,1.7114420565450836e+18,0.47127937336814624,0.4052511415525114,0.3162162162162162,0.5015896307165566,0.6120879120879121,0.44070647603027757,1196.0
903.0,1.7114420565550822e+18,0.4765013054830287,0.4178082191780822,0.34,0.5008559550012228,0.6098901098901099,0.4381833473507149,1197.0
904.0,1.711442056565084e+18,0.4699738903394256,0.4098173515981735,0.3172972972972973,0.5008559550012228,0.6120879120879121,0.43902439024390244,1196.0
905.0,1.7114420565750863e+18,0.47127937336814624,0.410958904109589,0.3389189189189189,0.504035216434336,0.6318681318681318,0.4348191757779647,1196.0
906.0,1.7114420565850857e+18,0.4725848563968668,0.408675799086758,0.3216216216216216,0.499877720714111,0.6175824175824176,0.43650126156433977,1198.0
907.0,1.7114420565950866e+18,0.47911227154047,0.4223744292237443,0.3491891891891892,0.5025678650036683,0.6318681318681318,0.43902439024390244,1196.0
908.0,1.7114420566051095e+18,0.4725848563968668,0.4041095890410959,0.3232432432432432,0.5018341892883346,0.6362637362637362,0.44070647603027757,1196.0
909.0,1.7114420566151014e+18,0.4804177545691906,0.4178082191780822,0.3372972972972973,0.5006113964294449,0.6230769230769231,0.4415475189234651,1197.0
910.0,1.71144205662511e+18,0.47127937336814624,0.4052511415525114,0.32756756756756755,0.49620934213744194,0.610989010989011,0.4348191757779647,1195.0
911.0,1.711442056635099e+18,0.47780678851174935,0.4143835616438356,0.31513513513513514,0.49938860357055515,0.6285714285714286,0.44070647603027757,1195.0
912.0,1.7114420566450908e+18,0.4725848563968668,0.4075342465753425,0.3172972972972973,0.5006113964294449,0.6032967032967033,0.4373423044575273,1195.0
913.0,1.7114420566550894e+18,0.47127937336814624,0.410958904109589,0.32432432432432434,0.4991440449987772,0.6186813186813187,0.4381833473507149,1195.0
914.0,1.7114420566650985e+18,0.47127937336814624,0.4178082191780822,0.35567567567567565,0.5006113964294449,0.643956043956044,0.43986543313709,1195.0
915.0,1.711442056675075e+18,0.4765013054830287,0.4143835616438356,0.32972972972972975,0.5015896307165566,0.6274725274725275,0.43986543313709,1196.0
916.0,1.7114420566850898e+18,0.4725848563968668,0.4178082191780822,0.32756756756756755,0.5018341892883346,0.610989010989011,0.4381833473507149,1196.0
917.0,1.711442056695092e+18,0.4725848563968668,0.4257990867579909,0.3264864864864865,0.49938860357055515,0.6208791208791209,0.4373423044575273,1196.0
918.0,1.7114420567051062e+18,0.47389033942558745,0.4132420091324201,0.35027027027027025,0.5025678650036683,0.6142857142857143,0.4415475189234651,1196.0
919.0,1.7114420567150979e+18,0.4699738903394256,0.4143835616438356,0.327027027027027,0.5008559550012228,0.6384615384615384,0.43902439024390244,1196.0
920.0,1.7114420567250985e+18,0.48172323759791125,0.4178082191780822,0.33297297297297296,0.4996331621423331,0.6098901098901099,0.4373423044575273,1198.0
921.0,1.711442056735096e+18,0.4765013054830287,0.4200913242009132,0.33945945945945943,0.49938860357055515,0.6230769230769231,0.43986543313709,1198.0
922.0,1.7114420567450924e+18,0.47127937336814624,0.4121004566210046,0.34054054054054056,0.5020787478601125,0.6197802197802198,0.4381833473507149,1197.0
923.0,1.7114420567551255e+18,0.47127937336814624,0.4075342465753425,0.33297297297297296,0.5015896307165566,0.656043956043956,0.43902439024390244,1197.0
924.0,1.7114420567651087e+18,0.4856396866840731,0.4235159817351598,0.3308108108108108,0.5047688921496698,0.6494505494505495,0.44238856181665265,1198.0
925.0,1.711442056775099e+18,0.4751958224543081,0.4029680365296804,0.31891891891891894,0.5001222792858889,0.6208791208791209,0.4348191757779647,1197.0
926.0,1.7114420567850893e+18,0.47911227154047,0.4235159817351598,0.33297297297297296,0.5028124235754463,0.6307692307692307,0.44238856181665265,1196.0
927.0,1.7114420567950848e+18,0.47127937336814624,0.410958904109589,0.32972972972972975,0.49938860357055515,0.6164835164835165,0.4381833473507149,1198.0
928.0,1.7114420568050862e+18,0.4765013054830287,0.4178082191780822,0.33297297297297296,0.5006113964294449,0.621978021978022,0.43986543313709,1197.0
929.0,1.7114420568150968e+18,0.4725848563968668,0.4063926940639269,0.32054054054054054,0.49938860357055515,0.6296703296703297,0.44070647603027757,1198.0
930.0,1.7114420568251098e+18,0.4765013054830287,0.4178082191780822,0.33675675675675676,0.5015896307165566,0.6208791208791209,0.43986543313709,1194.0
931.0,1.7114420568351002e+18,0.46866840731070497,0.4075342465753425,0.3216216216216216,0.5008559550012228,0.6450549450549451,0.43650126156433977,1197.0
932.0,1.7114420568450898e+18,0.47127937336814624,0.4063926940639269,0.30972972972972973,0.49938860357055515,0.6208791208791209,0.44238856181665265,1197.0
933.0,1.7114420568551002e+18,0.48172323759791125,0.4383561643835616,0.36972972972972973,0.5028124235754463,0.6274725274725275,0.4415475189234651,1197.0
934.0,1.7114420568650995e+18,0.47389033942558745,0.4063926940639269,0.3232432432432432,0.5001222792858889,0.6263736263736264,0.43902439024390244,1196.0
935.0,1.711442056875087e+18,0.47780678851174935,0.4189497716894977,0.3491891891891892,0.4996331621423331,0.6274725274725275,0.44238856181665265,1195.0
936.0,1.711442056885085e+18,0.47389033942558745,0.4018264840182648,0.32756756756756755,0.5028124235754463,0.6329670329670329,0.4373423044575273,1196.0
937.0,1.7114420568950866e+18,0.4765013054830287,0.4166666666666667,0.3362162162162162,0.5020787478601125,0.6274725274725275,0.4381833473507149,1195.0
938.0,1.7114420569050995e+18,0.47780678851174935,0.4246575342465753,0.34,0.504279775006114,0.6175824175824176,0.43986543313709,1194.0
939.0,1.7114420569151104e+18,0.4725848563968668,0.4006849315068493,0.31405405405405407,0.4996331621423331,0.6230769230769231,0.43650126156433977,1195.0
940.0,1.7114420569250867e+18,0.47911227154047,0.4223744292237443,0.3216216216216216,0.5025678650036683,0.6241758241758242,0.4415475189234651,1197.0
941.0,1.7114420569351206e+18,0.47127937336814624,0.408675799086758,0.33135135135135135,0.4988994864269993,0.6142857142857143,0.4348191757779647,1197.0
942.0,1.7114420569450924e+18,0.47389033942558745,0.4155251141552511,0.3372972972972973,0.5006113964294449,0.6230769230769231,0.43986543313709,1195.0
943.0,1.7114420569550932e+18,0.4725848563968668,0.4143835616438356,0.3302702702702703,0.5006113964294449,0.6274725274725275,0.43902439024390244,1193.0
944.0,1.7114420569650977e+18,0.4804177545691906,0.4143835616438356,0.3318918918918919,0.5028124235754463,0.6208791208791209,0.43902439024390244,1197.0
945.0,1.7114420569750892e+18,0.47911227154047,0.4166666666666667,0.33297297297297296,0.5011005135730008,0.6384615384615384,0.4432296047098402,1196.0
946.0,1.7114420569850924e+18,0.4765013054830287,0.4155251141552511,0.3281081081081081,0.5008559550012228,0.6186813186813187,0.43986543313709,1197.0
947.0,1.7114420569950912e+18,0.47127937336814624,0.4052511415525114,0.31675675675675674,0.4986549278552213,0.610989010989011,0.43650126156433977,1195.0
948.0,1.7114420570051064e+18,0.4856396866840731,0.4132420091324201,0.3318918918918919,0.5006113964294449,0.6230769230769231,0.43650126156433977,1196.0
949.0,1.7114420570151012e+18,0.47127937336814624,0.4200913242009132,0.35135135135135137,0.5030569821472243,0.6318681318681318,0.43986543313709,1193.0
950.0,1.7114420570251028e+18,0.47389033942558745,0.4075342465753425,0.32756756756756755,0.5018341892883346,0.6131868131868132,0.43902439024390244,1194.0
951.0,1.7114420570350943e+18,0.47780678851174935,0.4337899543378995,0.372972972972973,0.5025678650036683,0.6285714285714286,0.4415475189234651,1194.0
952.0,1.7114420570450906e+18,0.4765013054830287,0.4200913242009132,0.3535135135135135,0.5028124235754463,0.6362637362637362,0.43650126156433977,1195.0
953.0,1.7114420570550915e+18,0.4725848563968668,0.410958904109589,0.3254054054054054,0.4996331621423331,0.6230769230769231,0.4415475189234651,1196.0
954.0,1.7114420570650929e+18,0.4725848563968668,0.4132420091324201,0.33135135135135135,0.5015896307165566,0.6175824175824176,0.4415475189234651,1195.0
955.0,1.711442057075104e+18,0.4765013054830287,0.4098173515981735,0.32972972972972975,0.5001222792858889,0.6505494505494506,0.4381833473507149,1196.0
956.0,1.7114420570850862e+18,0.4765013054830287,0.4143835616438356,0.3324324324324324,0.5001222792858889,0.6208791208791209,0.4381833473507149,1195.0
957.0,1.7114420570950781e+18,0.47911227154047,0.4178082191780822,0.34756756756756757,0.5025678650036683,0.6252747252747253,0.43986543313709,1196.0
958.0,1.711442057105083e+18,0.4765013054830287,0.4235159817351598,0.3481081081081081,0.5023233064318905,0.6274725274725275,0.44238856181665265,1196.0
959.0,1.7114420571151084e+18,0.4765013054830287,0.4269406392694064,0.34054054054054056,0.5001222792858889,0.6395604395604395,0.43902439024390244,1196.0
960.0,1.7114420571251162e+18,0.4765013054830287,0.4121004566210046,0.33405405405405403,0.5011005135730008,0.6197802197802198,0.43650126156433977,1195.0
961.0,1.711442057135093e+18,0.47911227154047,0.4223744292237443,0.35135135135135137,0.5015896307165566,0.6285714285714286,0.43902439024390244,1197.0
962.0,1.711442057145092e+18,0.4765013054830287,0.4132420091324201,0.33297297297297296,0.5015896307165566,0.6186813186813187,0.43902439024390244,1197.0
963.0,1.7114420571550853e+18,0.4804177545691906,0.4246575342465753,0.34864864864864864,0.5015896307165566,0.6274725274725275,0.4415475189234651,1198.0
964.0,1.711442057165084e+18,0.47780678851174935,0.4189497716894977,0.32594594594594595,0.5018341892883346,0.6153846153846154,0.43902439024390244,1196.0
965.0,1.7114420571750948e+18,0.47389033942558745,0.4132420091324201,0.3291891891891892,0.5003668378576669,0.6065934065934065,0.43902439024390244,1196.0
966.0,1.7114420571850867e+18,0.47911227154047,0.4166666666666667,0.34054054054054056,0.5028124235754463,0.634065934065934,0.43902439024390244,1196.0
967.0,1.7114420571950925e+18,0.4765013054830287,0.4235159817351598,0.34054054054054056,0.5011005135730008,0.6164835164835165,0.43902439024390244,1197.0
968.0,1.7114420572050847e+18,0.4765013054830287,0.4121004566210046,0.34486486486486484,0.5015896307165566,0.6208791208791209,0.43902439024390244,1195.0
969.0,1.711442057215086e+18,0.4725848563968668,0.4178082191780822,0.3286486486486486,0.5013450721447786,0.6274725274725275,0.43902439024390244,1194.0
970.0,1.7114420572251092e+18,0.47389033942558745,0.4132420091324201,0.3248648648648649,0.5013450721447786,0.6208791208791209,0.4381833473507149,1195.0
971.0,1.7114420572350884e+18,0.4621409921671018,0.4029680365296804,0.3172972972972973,0.49767669356810956,0.6043956043956044,0.4348191757779647,1196.0
972.0,1.7114420572450944e+18,0.47911227154047,0.4246575342465753,0.35135135135135137,0.5013450721447786,0.621978021978022,0.4415475189234651,1197.0
973.0,1.7114420572550915e+18,0.4765013054830287,0.4280821917808219,0.34594594594594597,0.5020787478601125,0.6307692307692307,0.4415475189234651,1198.0
974.0,1.7114420572650867e+18,0.47389033942558745,0.4018264840182648,0.3281081081081081,0.4986549278552213,0.6263736263736264,0.4449116904962153,1198.0
975.0,1.711442057275087e+18,0.47127937336814624,0.410958904109589,0.3232432432432432,0.4986549278552213,0.6175824175824176,0.4348191757779647,1195.0
976.0,1.7114420572850875e+18,0.4725848563968668,0.4098173515981735,0.3281081081081081,0.49938860357055515,0.6153846153846154,0.43566021867115223,1196.0
977.0,1.7114420572950932e+18,0.4830287206266319,0.4269406392694064,0.34702702702702704,0.5013450721447786,0.6318681318681318,0.4415475189234651,1195.0
978.0,1.7114420573050885e+18,0.47389033942558745,0.410958904109589,0.34486486486486484,0.5018341892883346,0.634065934065934,0.43650126156433977,1195.0
979.0,1.7114420573150881e+18,0.4765013054830287,0.4178082191780822,0.3491891891891892,0.5013450721447786,0.634065934065934,0.43986543313709,1195.0
980.0,1.7114420573251052e+18,0.47780678851174935,0.4246575342465753,0.35027027027027025,0.504524333577892,0.6296703296703297,0.44238856181665265,1200.0
981.0,1.711442057335098e+18,0.4765013054830287,0.4132420091324201,0.32756756756756755,0.5015896307165566,0.6428571428571429,0.43902439024390244,1198.0
982.0,1.711442057345089e+18,0.4765013054830287,0.408675799086758,0.32432432432432434,0.499877720714111,0.6175824175824176,0.4381833473507149,1198.0
983.0,1.711442057355092e+18,0.47389033942558745,0.4166666666666667,0.34756756756756757,0.5015896307165566,0.6230769230769231,0.43566021867115223,1196.0
984.0,1.7114420573650906e+18,0.46736292428198434,0.4143835616438356,0.3318918918918919,0.5030569821472243,0.6252747252747253,0.4373423044575273,1195.0
985.0,1.7114420573751084e+18,0.47780678851174935,0.4041095890410959,0.31891891891891894,0.5013450721447786,0.6164835164835165,0.4381833473507149,1195.0
986.0,1.7114420573850977e+18,0.46866840731070497,0.4018264840182648,0.31513513513513514,0.5006113964294449,0.6186813186813187,0.4381833473507149,1195.0
987.0,1.7114420573951012e+18,0.4725848563968668,0.4155251141552511,0.3491891891891892,0.5001222792858889,0.6285714285714286,0.4415475189234651,1197.0
988.0,1.7114420574050952e+18,0.47911227154047,0.4235159817351598,0.33675675675675676,0.5028124235754463,0.6494505494505495,0.4314550042052145,1193.0
989.0,1.7114420574150966e+18,0.47389033942558745,0.410958904109589,0.32432432432432434,0.504279775006114,0.6175824175824176,0.4339781328847771,1194.0
990.0,1.7114420574250967e+18,0.47127937336814624,0.4121004566210046,0.3345945945945946,0.5015896307165566,0.6241758241758242,0.4381833473507149,1195.0
991.0,1.7114420574350938e+18,0.4765013054830287,0.4132420091324201,0.34162162162162163,0.5020787478601125,0.6274725274725275,0.4415475189234651,1196.0
992.0,1.7114420574450954e+18,0.4804177545691906,0.4337899543378995,0.3881081081081081,0.5047688921496698,0.6274725274725275,0.4415475189234651,1195.0
993.0,1.7114420574550976e+18,0.48172323759791125,0.4143835616438356,0.3254054054054054,0.5008559550012228,0.6296703296703297,0.4381833473507149,1196.0
994.0,1.7114420574650977e+18,0.4765013054830287,0.4155251141552511,0.33135135135135135,0.5035460992907801,0.6252747252747253,0.4415475189234651,1196.0
995.0,1.711442057475101e+18,0.4725848563968668,0.4098173515981735,0.3237837837837838,0.5015896307165566,0.6274725274725275,0.4381833473507149,1196.0
996.0,1.7114420574851034e+18,0.4830287206266319,0.4280821917808219,0.35027027027027025,0.5018341892883346,0.6208791208791209,0.44070647603027757,1197.0
997.0,1.7114420574950996e+18,0.47127937336814624,0.4132420091324201,0.32756756756756755,0.49938860357055515,0.6230769230769231,0.43650126156433977,1196.0
998.0,1.711442057505099e+18,0.47127937336814624,0.410958904109589,0.3335135135135135,0.5008559550012228,0.6274725274725275,0.4415475189234651,1196.0
999.0,1.7114420575151007e+18,0.47127937336814624,0.4075342465753425,0.32432432432432434,0.4996331621423331,0.6175824175824176,0.43313708999158956,1195.0
1000.0,1.711442057525104e+18,0.4765013054830287,0.4143835616438356,0.33783783783783783,0.5003668378576669,0.6230769230769231,0.4415475189234651,1200.0
1001.0,1.7114420575351002e+18,0.4830287206266319,0.4280821917808219,0.3567567567567568,0.5011005135730008,0.6406593406593407,0.4415475189234651,1197.0
