202.0,1.7110024317452278e+18,0.47127937336814624,0.4075342465753425,0.307027027027027,0.49107361213010514,0.589010989010989,0.42977291841883936,1190.0
203.0,1.711002431755201e+18,0.46736292428198434,0.4223744292237443,0.34756756756756757,0.49938860357055515,0.5923076923076923,0.4432296047098402,1195.0
204.0,1.7110024317652242e+18,0.48825065274151436,0.4246575342465753,0.3583783783783784,0.5106382978723404,0.6802197802197802,0.4465937762825904,1198.0
205.0,1.711002431775201e+18,0.4804177545691906,0.4269406392694064,0.38054054054054054,0.5121056493030081,0.6802197802197802,0.45164003364171573,1194.0
206.0,1.7110024317852237e+18,0.47911227154047,0.4132420091324201,0.3264864864864865,0.5003668378576669,0.6494505494505495,0.44070647603027757,1195.0
207.0,1.7110024317952033e+18,0.4660574412532637,0.4121004566210046,0.3481081081081081,0.5072144778674492,0.6362637362637362,0.4440706476030278,1194.0
208.0,1.7110024318052273e+18,0.4830287206266319,0.3972602739726027,0.2913513513513514,0.5030569821472243,0.6296703296703297,0.43650126156433977,1195.0
209.0,1.7110024318152003e+18,0.47127937336814624,0.4075342465753425,0.3318918918918919,0.4971875764245537,0.5945054945054945,0.44070647603027757,1193.0
210.0,1.7110024318252242e+18,0.4830287206266319,0.4052511415525114,0.32756756756756755,0.4996331621423331,0.6197802197802198,0.43650126156433977,1197.0
211.0,1.711002431835202e+18,0.4765013054830287,0.4155251141552511,0.3324324324324324,0.5006113964294449,0.6054945054945055,0.4432296047098402,1194.0
212.0,1.7110024318452237e+18,0.4830287206266319,0.4098173515981735,0.34054054054054056,0.49498654927855223,0.5725274725274725,0.4314550042052145,1194.0
213.0,1.7110024318552e+18,0.4608355091383812,0.4178082191780822,0.34594594594594597,0.49523110785033014,0.6131868131868132,0.4348191757779647,1194.0
214.0,1.7110024318652224e+18,0.4869451697127937,0.4417808219178082,0.37513513513513513,0.5008559550012228,0.6274725274725275,0.4381833473507149,1197.0
215.0,1.7110024318752005e+18,0.4660574412532637,0.408675799086758,0.33513513513513515,0.5025678650036683,0.6197802197802198,0.4415475189234651,1193.0
216.0,1.7110024318852227e+18,0.47127937336814624,0.3904109589041096,0.2945945945945946,0.495720224993886,0.6153846153846154,0.43313708999158956,1193.0
217.0,1.7110024318952054e+18,0.47127937336814624,0.4372146118721461,0.3945945945945946,0.5050134507214478,0.6120879120879121,0.44911690496215306,1194.0
218.0,1.7110024319052214e+18,0.5052219321148825,0.4486301369863014,0.34054054054054056,0.5057471264367817,0.6197802197802198,0.4381833473507149,1196.0
219.0,1.7110024319152013e+18,0.47127937336814624,0.432648401826484,0.3681081081081081,0.5023233064318905,0.6197802197802198,0.44238856181665265,1195.0
220.0,1.7110024319251932e+18,0.48825065274151436,0.4280821917808219,0.3427027027027027,0.5055025678650037,0.6736263736263737,0.4415475189234651,1195.0
221.0,1.7110024319352e+18,0.4804177545691906,0.4292237442922374,0.3637837837837838,0.5069699192956714,0.6593406593406593,0.4499579478553406,1195.0
222.0,1.7110024319452221e+18,0.4869451697127937,0.4200913242009132,0.3362162162162162,0.49620934213744194,0.6395604395604395,0.4415475189234651,1195.0
223.0,1.7110024319552e+18,0.46344647519582244,0.4029680365296804,0.34486486486486484,0.49400831499144043,0.6296703296703297,0.43650126156433977,1196.0
224.0,1.7110024319652204e+18,0.47127937336814624,0.3949771689497717,0.2951351351351351,0.5074590364392272,0.6318681318681318,0.4432296047098402,1195.0
225.0,1.7110024319752003e+18,0.47389033942558745,0.4246575342465753,0.3518918918918919,0.5006113964294449,0.6285714285714286,0.4449116904962153,1195.0
226.0,1.711002431985223e+18,0.47911227154047,0.4029680365296804,0.31675675675675674,0.5135730007336757,0.6538461538461539,0.4432296047098402,1197.0
227.0,1.7110024319952003e+18,0.4660574412532637,0.4280821917808219,0.33405405405405403,0.5001222792858889,0.5846153846153846,0.4280908326324643,1193.0
228.0,1.7110024320052232e+18,0.48433420365535246,0.4075342465753425,0.34054054054054056,0.5059916850085595,0.6373626373626373,0.44238856181665265,1198.0
229.0,1.711002432015202e+18,0.4660574412532637,0.4223744292237443,0.35027027027027025,0.5006113964294449,0.5923076923076923,0.43313708999158956,1196.0
230.0,1.7110024320252334e+18,0.4725848563968668,0.410958904109589,0.33945945945945943,0.5059916850085595,0.667032967032967,0.43313708999158956,1193.0
231.0,1.7110024320352026e+18,0.4725848563968668,0.4121004566210046,0.3302702702702703,0.5015896307165566,0.6714285714285714,0.4482758620689655,1195.0
232.0,1.7110024320452278e+18,0.4804177545691906,0.4006849315068493,0.30864864864864866,0.5013450721447786,0.654945054945055,0.447434819175778,1194.0
233.0,1.711002432055205e+18,0.4725848563968668,0.4143835616438356,0.3232432432432432,0.5030569821472243,0.5802197802197803,0.4449116904962153,1196.0
234.0,1.7110024320652285e+18,0.4830287206266319,0.3926940639269406,0.29081081081081084,0.4988994864269993,0.6285714285714286,0.432296047098402,1194.0
235.0,1.7110024320752023e+18,0.45430809399477806,0.4041095890410959,0.3264864864864865,0.48985081927121543,0.5846153846153846,0.43566021867115223,1194.0
236.0,1.711002432085226e+18,0.4608355091383812,0.3915525114155251,0.3227027027027027,0.4883834678405478,0.6021978021978022,0.42977291841883936,1193.0
237.0,1.7110024320952023e+18,0.4621409921671018,0.4052511415525114,0.3497297297297297,0.5055025678650037,0.6384615384615384,0.4482758620689655,1195.0
238.0,1.711002432105237e+18,0.48825065274151436,0.4098173515981735,0.31675675675675674,0.499877720714111,0.6516483516483517,0.4440706476030278,1195.0
239.0,1.7110024321152586e+18,0.47127937336814624,0.4246575342465753,0.3308108108108108,0.5018341892883346,0.6175824175824176,0.4432296047098402,1195.0
240.0,1.7110024321252303e+18,0.46475195822454307,0.3926940639269406,0.2983783783783784,0.4937637564196625,0.5626373626373626,0.41968040370058873,1192.0
241.0,1.7110024321352064e+18,0.45822454308093996,0.410958904109589,0.3318918918918919,0.5013450721447786,0.6021978021978022,0.4373423044575273,1195.0
242.0,1.7110024321452296e+18,0.4765013054830287,0.4063926940639269,0.32054054054054054,0.5006113964294449,0.6252747252747253,0.4348191757779647,1196.0
243.0,1.7110024321552026e+18,0.47127937336814624,0.4121004566210046,0.33297297297297296,0.5079481535827831,0.6692307692307692,0.4449116904962153,1195.0
244.0,1.7110024321652314e+18,0.47911227154047,0.4121004566210046,0.312972972972973,0.4991440449987772,0.621978021978022,0.43650126156433977,1195.0
245.0,1.7110024321752023e+18,0.4699738903394256,0.4132420091324201,0.3302702702702703,0.5023233064318905,0.6351648351648351,0.4440706476030278,1197.0
246.0,1.7110024321852326e+18,0.4699738903394256,0.4052511415525114,0.31405405405405407,0.4986549278552213,0.6329670329670329,0.43566021867115223,1197.0
247.0,1.7110024321952026e+18,0.4451697127937337,0.386986301369863,0.3248648648648649,0.4954756664221081,0.6010989010989011,0.432296047098402,1194.0
248.0,1.7110024322052134e+18,0.48825065274151436,0.4178082191780822,0.3216216216216216,0.5003668378576669,0.6274725274725275,0.4449116904962153,1194.0
249.0,1.7110024322152033e+18,0.47127937336814624,0.4223744292237443,0.34486486486486484,0.5067253607238934,0.6857142857142857,0.4432296047098402,1194.0
250.0,1.7110024322252372e+18,0.48433420365535246,0.4178082191780822,0.3264864864864865,0.5035460992907801,0.6802197802197802,0.4432296047098402,1195.0
251.0,1.7110024322352044e+18,0.46475195822454307,0.4178082191780822,0.34486486486486484,0.49620934213744194,0.5747252747252747,0.4348191757779647,1195.0
252.0,1.7110024322452388e+18,0.47911227154047,0.4029680365296804,0.32432432432432434,0.5011005135730008,0.6494505494505495,0.4381833473507149,1194.0
253.0,1.7110024322552018e+18,0.47389033942558745,0.4280821917808219,0.3518918918918919,0.4979212521398875,0.5769230769230769,0.4415475189234651,1196.0
254.0,1.7110024322652408e+18,0.4830287206266319,0.4235159817351598,0.3372972972972973,0.5015896307165566,0.6208791208791209,0.4432296047098402,1195.0
255.0,1.7110024322752028e+18,0.47127937336814624,0.4178082191780822,0.3427027027027027,0.5015896307165566,0.6318681318681318,0.44238856181665265,1192.0
256.0,1.7110024322852221e+18,0.4804177545691906,0.4200913242009132,0.33783783783783783,0.5015896307165566,0.6318681318681318,0.4432296047098402,1193.0
257.0,1.7110024322952013e+18,0.47127937336814624,0.4143835616438356,0.33513513513513515,0.5077035950110051,0.6131868131868132,0.4415475189234651,1196.0
258.0,1.7110024323052227e+18,0.4765013054830287,0.4212328767123288,0.3302702702702703,0.5008559550012228,0.5978021978021978,0.43650126156433977,1195.0
259.0,1.7110024323152538e+18,0.47127937336814624,0.4189497716894977,0.34054054054054056,0.504035216434336,0.6153846153846154,0.4415475189234651,1194.0
260.0,1.7110024323252268e+18,0.4869451697127937,0.4178082191780822,0.3427027027027027,0.4991440449987772,0.6296703296703297,0.43566021867115223,1196.0
261.0,1.711002432335203e+18,0.46475195822454307,0.408675799086758,0.3345945945945946,0.5028124235754463,0.6252747252747253,0.43986543313709,1193.0
262.0,1.7110024323452214e+18,0.48172323759791125,0.410958904109589,0.3248648648648649,0.5001222792858889,0.6406593406593407,0.4373423044575273,1193.0
263.0,1.7110024323552008e+18,0.47127937336814624,0.408675799086758,0.3427027027027027,0.5025678650036683,0.6120879120879121,0.4432296047098402,1195.0
264.0,1.711002432365229e+18,0.4830287206266319,0.4223744292237443,0.32756756756756755,0.5006113964294449,0.6208791208791209,0.42640874684608915,1193.0
265.0,1.7110024323752023e+18,0.46344647519582244,0.4075342465753425,0.33513513513513515,0.504524333577892,0.6406593406593407,0.4482758620689655,1197.0
266.0,1.7110024323852288e+18,0.47780678851174935,0.4132420091324201,0.3308108108108108,0.5050134507214478,0.6659340659340659,0.43986543313709,1196.0
267.0,1.7110024323952612e+18,0.4699738903394256,0.4189497716894977,0.3497297297297297,0.5037906578625581,0.6230769230769231,0.4381833473507149,1195.0
268.0,1.7110024324052367e+18,0.4869451697127937,0.4223744292237443,0.3335135135135135,0.4996331621423331,0.6274725274725275,0.43986543313709,1195.0
269.0,1.711002432415202e+18,0.4621409921671018,0.4189497716894977,0.34486486486486484,0.5052580092932257,0.6241758241758242,0.43986543313709,1196.0
270.0,1.7110024324252232e+18,0.5078328981723238,0.4143835616438356,0.3264864864864865,0.5006113964294449,0.6142857142857143,0.4280908326324643,1193.0
271.0,1.7110024324352028e+18,0.4725848563968668,0.4246575342465753,0.3481081081081081,0.5057471264367817,0.6505494505494506,0.45164003364171573,1195.0
272.0,1.7110024324452262e+18,0.489556135770235,0.4178082191780822,0.32594594594594595,0.4991440449987772,0.6406593406593407,0.4415475189234651,1194.0
273.0,1.711002432455201e+18,0.47127937336814624,0.4178082191780822,0.33945945945945943,0.5020787478601125,0.6186813186813187,0.4432296047098402,1198.0
274.0,1.7110024324652124e+18,0.4830287206266319,0.4143835616438356,0.3302702702702703,0.5011005135730008,0.6362637362637362,0.43650126156433977,1196.0
275.0,1.7110024324752013e+18,0.47127937336814624,0.4200913242009132,0.34,0.4979212521398875,0.5857142857142857,0.43566021867115223,1194.0
276.0,1.711002432485216e+18,0.4856396866840731,0.4189497716894977,0.3291891891891892,0.504035216434336,0.6,0.4415475189234651,1195.0
277.0,1.711002432495204e+18,0.45822454308093996,0.4212328767123288,0.34702702702702704,0.5069699192956714,0.6285714285714286,0.44238856181665265,1199.0
278.0,1.711002432505232e+18,0.47780678851174935,0.4132420091324201,0.3254054054054054,0.4986549278552213,0.634065934065934,0.4381833473507149,1197.0
279.0,1.7110024325152074e+18,0.4725848563968668,0.4235159817351598,0.35243243243243244,0.5079481535827831,0.6263736263736264,0.4440706476030278,1195.0
280.0,1.711002432525226e+18,0.4804177545691906,0.408675799086758,0.32,0.495964783565664,0.6208791208791209,0.4415475189234651,1196.0
281.0,1.711002432535202e+18,0.4830287206266319,0.4292237442922374,0.3491891891891892,0.5055025678650037,0.6472527472527473,0.4482758620689655,1195.0
282.0,1.7110024325452485e+18,0.45039164490861616,0.4052511415525114,0.3248648648648649,0.4979212521398875,0.6065934065934065,0.432296047098402,1192.0
283.0,1.7110024325562988e+18,0.4516971279373368,0.4200913242009132,0.3481081081081081,0.5028124235754463,0.6417582417582418,0.44238856181665265,1193.0
284.0,1.7110024325652283e+18,0.49477806788511747,0.4269406392694064,0.34756756756756757,0.49205184641721694,0.6197802197802198,0.43566021867115223,1197.0
285.0,1.7110024325752018e+18,0.4621409921671018,0.4212328767123288,0.34162162162162163,0.5067253607238934,0.656043956043956,0.43650126156433977,1197.0
286.0,1.7110024325852508e+18,0.48172323759791125,0.3995433789954338,0.31675675675675674,0.4913181707018831,0.610989010989011,0.42640874684608915,1193.0
287.0,1.7110024325952008e+18,0.4621409921671018,0.4155251141552511,0.34162162162162163,0.5008559550012228,0.6021978021978022,0.43650126156433977,1196.0
288.0,1.711002432605227e+18,0.47780678851174935,0.4041095890410959,0.32054054054054054,0.4996331621423331,0.6428571428571429,0.4381833473507149,1195.0
289.0,1.711002432615202e+18,0.4765013054830287,0.4200913242009132,0.34540540540540543,0.5011005135730008,0.5989010989010989,0.44238856181665265,1194.0
290.0,1.7110024326252278e+18,0.4908616187989556,0.4223744292237443,0.327027027027027,0.5025678650036683,0.6516483516483517,0.44238856181665265,1195.0
291.0,1.7110024326352072e+18,0.4804177545691906,0.4189497716894977,0.3443243243243243,0.5028124235754463,0.6274725274725275,0.456686291000841,1197.0
292.0,1.711002432645215e+18,0.47911227154047,0.4052511415525114,0.3145945945945946,0.5069699192956714,0.654945054945055,0.43313708999158956,1191.0
293.0,1.711002432655203e+18,0.46475195822454307,0.4075342465753425,0.33945945945945943,0.499877720714111,0.5967032967032967,0.4381833473507149,1198.0
294.0,1.7110024326652296e+18,0.4856396866840731,0.4235159817351598,0.34486486486486484,0.5025678650036683,0.6494505494505495,0.4381833473507149,1196.0
295.0,1.7110024326752015e+18,0.46736292428198434,0.4075342465753425,0.3362162162162162,0.4927855221325507,0.610989010989011,0.4432296047098402,1193.0
296.0,1.7110024326852273e+18,0.4765013054830287,0.410958904109589,0.3254054054054054,0.5013450721447786,0.6593406593406593,0.44575273338940286,1196.0
297.0,1.7110024326952015e+18,0.46866840731070497,0.4166666666666667,0.34594594594594597,0.5011005135730008,0.6241758241758242,0.4449116904962153,1196.0
298.0,1.7110024327052275e+18,0.489556135770235,0.4246575342465753,0.3491891891891892,0.49082905355832723,0.5857142857142857,0.43902439024390244,1195.0
299.0,1.7110024327152026e+18,0.47780678851174935,0.4269406392694064,0.35783783783783785,0.508192712154561,0.6626373626373626,0.4440706476030278,1196.0
300.0,1.7110024327252257e+18,0.4725848563968668,0.4029680365296804,0.3254054054054054,0.499877720714111,0.6142857142857143,0.4272497897392767,1194.0
301.0,1.711002432735202e+18,0.47127937336814624,0.4212328767123288,0.3545945945945946,0.5006113964294449,0.5802197802197803,0.4415475189234651,1196.0
302.0,1.7110024327452275e+18,0.4725848563968668,0.3904109589041096,0.2718918918918919,0.4944974321349963,0.521978021978022,0.4280908326324643,1194.0
303.0,1.7110024327552008e+18,0.46736292428198434,0.4132420091324201,0.34054054054054056,0.4954756664221081,0.5923076923076923,0.4339781328847771,1194.0
304.0,1.711002432765229e+18,0.4830287206266319,0.4098173515981735,0.33675675675675676,0.49400831499144043,0.6285714285714286,0.44238856181665265,1196.0
305.0,1.7110024327752026e+18,0.4556135770234987,0.3926940639269406,0.307027027027027,0.5008559550012228,0.6054945054945055,0.4440706476030278,1196.0
306.0,1.7110024327852298e+18,0.47127937336814624,0.4041095890410959,0.31945945945945947,0.4966984592809978,0.621978021978022,0.42640874684608915,1195.0
307.0,1.7110024327952003e+18,0.4765013054830287,0.4223744292237443,0.3389189189189189,0.5028124235754463,0.634065934065934,0.45164003364171573,1196.0
308.0,1.7110024328052332e+18,0.4804177545691906,0.4212328767123288,0.3227027027027027,0.4930300807043287,0.6065934065934065,0.43650126156433977,1195.0
309.0,1.7110024328152005e+18,0.46866840731070497,0.4257990867579909,0.38594594594594595,0.5172413793103449,0.6582417582417582,0.44238856181665265,1197.0
310.0,1.711002432825231e+18,0.49738903394255873,0.4098173515981735,0.3324324324324324,0.5018341892883346,0.6461538461538462,0.44575273338940286,1197.0
311.0,1.7110024328352154e+18,0.4608355091383812,0.4052511415525114,0.31135135135135134,0.4969430178527757,0.6,0.4381833473507149,1196.0
312.0,1.7110024328452365e+18,0.47911227154047,0.3995433789954338,0.3075675675675676,0.49816581071166544,0.6384615384615384,0.43566021867115223,1193.0
313.0,1.7110024328552015e+18,0.47127937336814624,0.410958904109589,0.3237837837837838,0.5047688921496698,0.6417582417582418,0.4440706476030278,1196.0
314.0,1.711002432865234e+18,0.4856396866840731,0.4292237442922374,0.372972972972973,0.5050134507214478,0.6043956043956044,0.43650126156433977,1196.0
315.0,1.7110024328752015e+18,0.47780678851174935,0.4280821917808219,0.36648648648648646,0.5069699192956714,0.5648351648351648,0.43566021867115223,1194.0
316.0,1.7110024328852157e+18,0.489556135770235,0.4041095890410959,0.30594594594594593,0.5094155050134507,0.610989010989011,0.43566021867115223,1194.0
317.0,1.711002432895202e+18,0.46736292428198434,0.408675799086758,0.3324324324324324,0.5006113964294449,0.5703296703296703,0.43650126156433977,1197.0
318.0,1.7110024329052378e+18,0.4765013054830287,0.4075342465753425,0.33135135135135135,0.5035460992907801,0.6362637362637362,0.4415475189234651,1195.0
319.0,1.7110024329152013e+18,0.46736292428198434,0.408675799086758,0.3356756756756757,0.4996331621423331,0.5967032967032967,0.4381833473507149,1195.0
320.0,1.7110024329252244e+18,0.47127937336814624,0.4098173515981735,0.34594594594594597,0.5025678650036683,0.6329670329670329,0.42977291841883936,1195.0
321.0,1.7110024329352008e+18,0.4699738903394256,0.4098173515981735,0.3605405405405405,0.49107361213010514,0.6120879120879121,0.44911690496215306,1195.0
322.0,1.7110024329452705e+18,0.47911227154047,0.4075342465753425,0.31351351351351353,0.4971875764245537,0.6065934065934065,0.43650126156433977,1197.0
323.0,1.7110024329552138e+18,0.45039164490861616,0.4223744292237443,0.3708108108108108,0.512350207874786,0.6659340659340659,0.4381833473507149,1197.0
324.0,1.7110024329652265e+18,0.47911227154047,0.4063926940639269,0.3178378378378378,0.5015896307165566,0.6901098901098901,0.4507989907485282,1195.0
325.0,1.711002432975266e+18,0.489556135770235,0.432648401826484,0.3583783783783784,0.4988994864269993,0.6164835164835165,0.4541631623212784,1196.0
326.0,1.7110024329852562e+18,0.47780678851174935,0.408675799086758,0.3291891891891892,0.49620934213744194,0.5747252747252747,0.44238856181665265,1196.0
327.0,1.7110024329952044e+18,0.47780678851174935,0.4292237442922374,0.3708108108108108,0.5025678650036683,0.6208791208791209,0.45164003364171573,1194.0
328.0,1.7110024330052268e+18,0.48172323759791125,0.4132420091324201,0.33837837837837836,0.4810467106872096,0.5868131868131868,0.4255677039529016,1193.0
329.0,1.7110024330152023e+18,0.47127937336814624,0.408675799086758,0.31405405405405407,0.49205184641721694,0.5967032967032967,0.4415475189234651,1196.0
330.0,1.711002433025227e+18,0.4908616187989556,0.4257990867579909,0.3308108108108108,0.49767669356810956,0.6120879120879121,0.43650126156433977,1197.0
331.0,1.7110024330352018e+18,0.47127937336814624,0.4269406392694064,0.3427027027027027,0.5055025678650037,0.610989010989011,0.4415475189234651,1196.0
332.0,1.7110024330452265e+18,0.4765013054830287,0.4075342465753425,0.32756756756756755,0.49229640498899485,0.6252747252747253,0.4314550042052145,1195.0
333.0,1.711002433055202e+18,0.4765013054830287,0.4315068493150685,0.35135135135135137,0.4984103692834434,0.6494505494505495,0.44238856181665265,1195.0
334.0,1.7110024330652278e+18,0.48433420365535246,0.4029680365296804,0.3145945945945946,0.4984103692834434,0.589010989010989,0.4348191757779647,1196.0
335.0,1.7110024330751997e+18,0.47127937336814624,0.4132420091324201,0.32432432432432434,0.4988994864269993,0.5857142857142857,0.4482758620689655,1192.0
336.0,1.7110024330852293e+18,0.47780678851174935,0.4121004566210046,0.31027027027027027,0.5062362435803375,0.6736263736263737,0.44238856181665265,1198.0
337.0,1.7110024330952028e+18,0.46866840731070497,0.4132420091324201,0.3172972972972973,0.4937637564196625,0.5791208791208792,0.43902439024390244,1196.0
338.0,1.711002433105227e+18,0.48172323759791125,0.4052511415525114,0.31027027027027027,0.5020787478601125,0.6835164835164835,0.4449116904962153,1195.0
339.0,1.7110024331152026e+18,0.46866840731070497,0.4235159817351598,0.3427027027027027,0.49620934213744194,0.621978021978022,0.4465937762825904,1197.0
340.0,1.711002433125233e+18,0.48825065274151436,0.4280821917808219,0.3286486486486486,0.5003668378576669,0.610989010989011,0.43902439024390244,1194.0
341.0,1.7110024331352026e+18,0.4725848563968668,0.432648401826484,0.3589189189189189,0.5011005135730008,0.6098901098901099,0.4415475189234651,1196.0
342.0,1.7110024331452378e+18,0.4830287206266319,0.4132420091324201,0.33297297297297296,0.5055025678650037,0.656043956043956,0.4348191757779647,1196.0
343.0,1.711002433155201e+18,0.4725848563968668,0.4155251141552511,0.3345945945945946,0.5094155050134507,0.6384615384615384,0.4440706476030278,1195.0
344.0,1.711002433165227e+18,0.4830287206266319,0.3972602739726027,0.3021621621621622,0.495720224993886,0.6054945054945055,0.4280908326324643,1192.0
345.0,1.7110024331752005e+18,0.4621409921671018,0.410958904109589,0.33513513513513515,0.5059916850085595,0.721978021978022,0.4339781328847771,1192.0
346.0,1.7110024331852344e+18,0.4751958224543081,0.3984018264840183,0.30486486486486486,0.5035460992907801,0.6736263736263737,0.4381833473507149,1197.0
347.0,1.7110024331952026e+18,0.4765013054830287,0.4098173515981735,0.3248648648648649,0.5096600635852286,0.6945054945054945,0.44911690496215306,1195.0
348.0,1.711002433205258e+18,0.4765013054830287,0.3995433789954338,0.31351351351351353,0.5133284421618978,0.689010989010989,0.43986543313709,1195.0
349.0,1.7110024332152125e+18,0.4725848563968668,0.4200913242009132,0.34756756756756757,0.5028124235754463,0.5747252747252747,0.43986543313709,1194.0
350.0,1.711002433225217e+18,0.49216710182767626,0.410958904109589,0.31189189189189187,0.504279775006114,0.6021978021978022,0.4415475189234651,1196.0
351.0,1.7110024332352023e+18,0.45822454308093996,0.4041095890410959,0.34378378378378377,0.5067253607238934,0.610989010989011,0.4339781328847771,1195.0
352.0,1.71100243324525e+18,0.48172323759791125,0.4132420091324201,0.34324324324324323,0.5084372707263389,0.7043956043956044,0.44238856181665265,1195.0
353.0,1.7110024332552015e+18,0.46475195822454307,0.4029680365296804,0.31891891891891894,0.49938860357055515,0.567032967032967,0.4415475189234651,1196.0
354.0,1.7110024332652288e+18,0.48172323759791125,0.4235159817351598,0.3248648648648649,0.5025678650036683,0.6527472527472528,0.43902439024390244,1195.0
355.0,1.711002433275254e+18,0.45039164490861616,0.3995433789954338,0.31891891891891894,0.495720224993886,0.6131868131868132,0.42977291841883936,1192.0
356.0,1.7110024332852378e+18,0.49216710182767626,0.4246575342465753,0.3589189189189189,0.5059916850085595,0.6615384615384615,0.4449116904962153,1195.0
357.0,1.7110024332952018e+18,0.47127937336814624,0.4132420091324201,0.32594594594594595,0.504035216434336,0.6065934065934065,0.44575273338940286,1197.0
358.0,1.711002433305257e+18,0.48825065274151436,0.4018264840182648,0.31135135135135134,0.5001222792858889,0.6131868131868132,0.4289318755256518,1191.0
359.0,1.711002433315209e+18,0.46344647519582244,0.4052511415525114,0.33945945945945943,0.49767669356810956,0.6945054945054945,0.4482758620689655,1194.0
360.0,1.7110024333252344e+18,0.46866840731070497,0.3915525114155251,0.2875675675675676,0.49816581071166544,0.6175824175824176,0.4213624894869638,1192.0
361.0,1.7110024333352026e+18,0.4556135770234987,0.4018264840182648,0.3302702702702703,0.5008559550012228,0.6120879120879121,0.4482758620689655,1196.0
362.0,1.7110024333452308e+18,0.4660574412532637,0.3984018264840183,0.3172972972972973,0.4930300807043287,0.6450549450549451,0.43566021867115223,1195.0
363.0,1.7110024333552008e+18,0.44778067885117495,0.3961187214611872,0.32054054054054054,0.5035460992907801,0.5571428571428572,0.4272497897392767,1192.0
364.0,1.7110024333652283e+18,0.4869451697127937,0.4132420091324201,0.31513513513513514,0.49523110785033014,0.6274725274725275,0.4432296047098402,1197.0
365.0,1.7110024333752013e+18,0.47780678851174935,0.4360730593607306,0.3589189189189189,0.4937637564196625,0.5769230769230769,0.44238856181665265,1196.0
366.0,1.71100243338523e+18,0.4660574412532637,0.3881278538812785,0.312972972972973,0.49767669356810956,0.5857142857142857,0.4306139613120269,1195.0
367.0,1.7110024333952015e+18,0.46866840731070497,0.4178082191780822,0.34162162162162163,0.4991440449987772,0.5923076923076923,0.43650126156433977,1197.0
368.0,1.7110024334052326e+18,0.48172323759791125,0.4143835616438356,0.3248648648648649,0.4988994864269993,0.6175824175824176,0.43650126156433977,1195.0
369.0,1.7110024334152655e+18,0.46866840731070497,0.4200913242009132,0.33837837837837836,0.49033993641477136,0.5472527472527473,0.4306139613120269,1194.0
370.0,1.7110024334252396e+18,0.4725848563968668,0.4018264840182648,0.3286486486486486,0.4954756664221081,0.5769230769230769,0.42977291841883936,1193.0
371.0,1.7110024334352013e+18,0.45300261096605743,0.3926940639269406,0.30594594594594593,0.5015896307165566,0.6263736263736264,0.43902439024390244,1196.0
372.0,1.7110024334451948e+18,0.489556135770235,0.4394977168949772,0.36108108108108106,0.5057471264367817,0.6527472527472528,0.4432296047098402,1195.0
373.0,1.7110024334552056e+18,0.46736292428198434,0.4143835616438356,0.34540540540540543,0.4988994864269993,0.5703296703296703,0.4348191757779647,1195.0
374.0,1.7110024334652178e+18,0.4751958224543081,0.3858447488584475,0.29783783783783785,0.5020787478601125,0.710989010989011,0.45248107653490327,1196.0
375.0,1.711002433475206e+18,0.46475195822454307,0.4235159817351598,0.3621621621621622,0.5113719735876743,0.7329670329670329,0.4432296047098402,1195.0
376.0,1.7110024334852275e+18,0.4869451697127937,0.4063926940639269,0.30648648648648646,0.4979212521398875,0.6329670329670329,0.43566021867115223,1196.0
377.0,1.7110024334952015e+18,0.48172323759791125,0.4269406392694064,0.3643243243243243,0.5020787478601125,0.6098901098901099,0.4415475189234651,1196.0
378.0,1.7110024335052593e+18,0.4869451697127937,0.4075342465753425,0.31891891891891894,0.5059916850085595,0.6406593406593407,0.43902439024390244,1195.0
379.0,1.7110024335152003e+18,0.4660574412532637,0.4269406392694064,0.3545945945945946,0.4979212521398875,0.6054945054945055,0.44238856181665265,1197.0
380.0,1.7110024335252324e+18,0.4960835509138381,0.4360730593607306,0.3281081081081081,0.49767669356810956,0.6208791208791209,0.4381833473507149,1194.0
381.0,1.711002433535203e+18,0.4699738903394256,0.410958904109589,0.33675675675675676,0.504279775006114,0.6032967032967033,0.4381833473507149,1197.0
382.0,1.7110024335452503e+18,0.4804177545691906,0.4178082191780822,0.3308108108108108,0.5096600635852286,0.6406593406593407,0.43650126156433977,1193.0
383.0,1.7110024335552046e+18,0.4830287206266319,0.4280821917808219,0.3324324324324324,0.5147957935925654,0.6175824175824176,0.4482758620689655,1195.0
384.0,1.7110024335652178e+18,0.48172323759791125,0.4189497716894977,0.3291891891891892,0.4966984592809978,0.5505494505494506,0.44575273338940286,1194.0
385.0,1.7110024335752038e+18,0.46736292428198434,0.410958904109589,0.3324324324324324,0.499877720714111,0.6329670329670329,0.4415475189234651,1195.0
386.0,1.7110024335852314e+18,0.4830287206266319,0.4223744292237443,0.3362162162162162,0.5037906578625581,0.689010989010989,0.4415475189234651,1196.0
387.0,1.7110024335952015e+18,0.46475195822454307,0.4121004566210046,0.35567567567567565,0.5006113964294449,0.6065934065934065,0.43902439024390244,1196.0
388.0,1.7110024336052588e+18,0.4804177545691906,0.410958904109589,0.3551351351351351,0.4988994864269993,0.6362637362637362,0.43986543313709,1196.0
389.0,1.7110024336152003e+18,0.4556135770234987,0.4018264840182648,0.31513513513513514,0.5025678650036683,0.6296703296703297,0.4432296047098402,1196.0
390.0,1.7110024336252275e+18,0.4725848563968668,0.3949771689497717,0.29081081081081084,0.5006113964294449,0.6626373626373626,0.4280908326324643,1194.0
391.0,1.7110024336352013e+18,0.4621409921671018,0.4155251141552511,0.3372972972972973,0.5030569821472243,0.6846153846153846,0.4432296047098402,1196.0
392.0,1.7110024336452378e+18,0.4765013054830287,0.4029680365296804,0.3178378378378378,0.495720224993886,0.6802197802197802,0.4339781328847771,1192.0
393.0,1.7110024336552018e+18,0.4725848563968668,0.4269406392694064,0.3518918918918919,0.4979212521398875,0.5912087912087912,0.44238856181665265,1195.0
394.0,1.7110024336652285e+18,0.47780678851174935,0.4178082191780822,0.34540540540540543,0.5025678650036683,0.6087912087912087,0.4280908326324643,1191.0
395.0,1.7110024336752018e+18,0.46475195822454307,0.4063926940639269,0.3318918918918919,0.49107361213010514,0.5241758241758242,0.4280908326324643,1189.0
396.0,1.7110024336852324e+18,0.48172323759791125,0.4269406392694064,0.37189189189189187,0.495720224993886,0.7,0.44070647603027757,1196.0
397.0,1.7110024336952e+18,0.47389033942558745,0.432648401826484,0.3816216216216216,0.5055025678650037,0.6098901098901099,0.44238856181665265,1198.0
398.0,1.7110024337052365e+18,0.4869451697127937,0.4052511415525114,0.3145945945945946,0.5001222792858889,0.6538461538461539,0.4415475189234651,1197.0
399.0,1.7110024337152028e+18,0.4660574412532637,0.4029680365296804,0.28,0.5059916850085595,0.6725274725274726,0.4415475189234651,1194.0
400.0,1.7110024337252375e+18,0.4725848563968668,0.3995433789954338,0.30648648648648646,0.5003668378576669,0.7241758241758242,0.4339781328847771,1193.0
401.0,1.711002433735202e+18,0.4830287206266319,0.4474885844748858,0.3572972972972973,0.49767669356810956,0.5351648351648352,0.44238856181665265,1195.0
402.0,1.7110024337452024e+18,0.49738903394255873,0.4143835616438356,0.32756756756756755,0.5035460992907801,0.5967032967032967,0.43902439024390244,1196.0
403.0,1.7110024337552538e+18,0.4765013054830287,0.4360730593607306,0.3535135135135135,0.5003668378576669,0.5791208791208792,0.4432296047098402,1195.0
404.0,1.7110024337652183e+18,0.4830287206266319,0.4075342465753425,0.33945945945945943,0.5001222792858889,0.756043956043956,0.4440706476030278,1195.0
405.0,1.7110024337752566e+18,0.4725848563968668,0.4223744292237443,0.3481081081081081,0.5015896307165566,0.6384615384615384,0.4558452481076535,1194.0
406.0,1.7110024337852232e+18,0.4934725848563969,0.4189497716894977,0.33405405405405403,0.5064808021521154,0.6230769230769231,0.44238856181665265,1196.0
407.0,1.711002433795201e+18,0.46736292428198434,0.4132420091324201,0.3372972972972973,0.504279775006114,0.6065934065934065,0.447434819175778,1196.0
408.0,1.711002433805211e+18,0.4765013054830287,0.3995433789954338,0.3162162162162162,0.4937637564196625,0.6131868131868132,0.4339781328847771,1192.0
409.0,1.711002433815257e+18,0.49216710182767626,0.4748858447488584,0.43135135135135133,0.4930300807043287,0.5538461538461539,0.4465937762825904,1196.0
410.0,1.711002433825228e+18,0.4751958224543081,0.3904109589041096,0.31027027027027027,0.49523110785033014,0.5978021978021978,0.4314550042052145,1193.0
411.0,1.7110024338352005e+18,0.4556135770234987,0.4041095890410959,0.34054054054054056,0.5023233064318905,0.5857142857142857,0.432296047098402,1192.0
412.0,1.711002433845228e+18,0.4699738903394256,0.4121004566210046,0.3281081081081081,0.5015896307165566,0.5604395604395604,0.4306139613120269,1192.0
413.0,1.7110024338552558e+18,0.46866840731070497,0.4098173515981735,0.33945945945945943,0.5025678650036683,0.6131868131868132,0.4381833473507149,1196.0
414.0,1.7110024338652237e+18,0.4869451697127937,0.4063926940639269,0.3335135135135135,0.5008559550012228,0.6241758241758242,0.4449116904962153,1195.0
415.0,1.711002433875202e+18,0.4699738903394256,0.4143835616438356,0.3335135135135135,0.5003668378576669,0.643956043956044,0.4440706476030278,1194.0
416.0,1.7110024338852285e+18,0.48825065274151436,0.4155251141552511,0.3254054054054054,0.5094155050134507,0.689010989010989,0.44575273338940286,1195.0
417.0,1.7110024338952023e+18,0.46475195822454307,0.408675799086758,0.3443243243243243,0.495964783565664,0.5582417582417583,0.4381833473507149,1197.0
418.0,1.711002433905251e+18,0.47780678851174935,0.4018264840182648,0.3016216216216216,0.4979212521398875,0.6406593406593407,0.43313708999158956,1193.0
419.0,1.7110024339152028e+18,0.47127937336814624,0.4189497716894977,0.34756756756756757,0.5030569821472243,0.6494505494505495,0.44238856181665265,1197.0
420.0,1.711002433925223e+18,0.48172323759791125,0.4041095890410959,0.3232432432432432,0.5015896307165566,0.656043956043956,0.4449116904962153,1197.0
421.0,1.7110024339352013e+18,0.4765013054830287,0.4383561643835616,0.3691891891891892,0.5094155050134507,0.689010989010989,0.4449116904962153,1195.0
422.0,1.711002433945234e+18,0.4830287206266319,0.4075342465753425,0.31891891891891894,0.4984103692834434,0.6164835164835165,0.4381833473507149,1196.0
423.0,1.7110024339552138e+18,0.47780678851174935,0.432648401826484,0.3362162162162162,0.49767669356810956,0.6285714285714286,0.43902439024390244,1195.0
424.0,1.7110024339652352e+18,0.49738903394255873,0.4143835616438356,0.3178378378378378,0.4888725849841037,0.5945054945054945,0.42977291841883936,1189.0
425.0,1.7110024339752015e+18,0.4725848563968668,0.4212328767123288,0.3545945945945946,0.491807287845439,0.5747252747252747,0.44238856181665265,1197.0
426.0,1.7110024339852227e+18,0.4751958224543081,0.3949771689497717,0.31405405405405407,0.49645390070921985,0.6197802197802198,0.432296047098402,1196.0
427.0,1.711002433995203e+18,0.47389033942558745,0.4178082191780822,0.36,0.5015896307165566,0.5923076923076923,0.4381833473507149,1196.0
428.0,1.7110024340052278e+18,0.4960835509138381,0.4394977168949772,0.3605405405405405,0.4937637564196625,0.6076923076923076,0.4339781328847771,1192.0
429.0,1.7110024340152023e+18,0.46475195822454307,0.4155251141552511,0.33135135135135135,0.5013450721447786,0.5384615384615384,0.4314550042052145,1191.0
430.0,1.7110024340252255e+18,0.4869451697127937,0.3995433789954338,0.30486486486486486,0.4971875764245537,0.6450549450549451,0.44575273338940286,1196.0
431.0,1.7110024340352668e+18,0.47127937336814624,0.4166666666666667,0.30594594594594593,0.5035460992907801,0.6098901098901099,0.4482758620689655,1196.0
432.0,1.7110024340452452e+18,0.4725848563968668,0.3949771689497717,0.31135135135135134,0.4979212521398875,0.6043956043956044,0.42977291841883936,1194.0
433.0,1.7110024340551997e+18,0.4660574412532637,0.4143835616438356,0.33675675675675676,0.5006113964294449,0.6087912087912087,0.4415475189234651,1197.0
434.0,1.7110024340652262e+18,0.48825065274151436,0.4178082191780822,0.3372972972972973,0.49767669356810956,0.6384615384615384,0.4381833473507149,1198.0
435.0,1.7110024340752013e+18,0.4660574412532637,0.4121004566210046,0.33405405405405403,0.504279775006114,0.6175824175824176,0.4415475189234651,1194.0
436.0,1.7110024340852247e+18,0.48172323759791125,0.4041095890410959,0.31513513513513514,0.49938860357055515,0.6417582417582418,0.4381833473507149,1197.0
437.0,1.7110024340952015e+18,0.47127937336814624,0.4200913242009132,0.33405405405405403,0.4937637564196625,0.4582417582417582,0.4146341463414634,1194.0
438.0,1.7110024341052221e+18,0.48172323759791125,0.4041095890410959,0.30648648648648646,0.495964783565664,0.6142857142857143,0.43650126156433977,1195.0
439.0,1.711002434115201e+18,0.4660574412532637,0.4383561643835616,0.3621621621621622,0.5035460992907801,0.6351648351648351,0.43902439024390244,1196.0
440.0,1.7110024341252265e+18,0.48172323759791125,0.410958904109589,0.3410810810810811,0.4942528735632184,0.6538461538461539,0.43986543313709,1194.0
441.0,1.7110024341352061e+18,0.4660574412532637,0.3995433789954338,0.3237837837837838,0.5055025678650037,0.6362637362637362,0.43566021867115223,1194.0
442.0,1.7110024341452273e+18,0.47780678851174935,0.4018264840182648,0.3237837837837838,0.5020787478601125,0.6384615384615384,0.43902439024390244,1195.0
443.0,1.7110024341552013e+18,0.4699738903394256,0.4166666666666667,0.352972972972973,0.4969430178527757,0.5923076923076923,0.4381833473507149,1195.0
444.0,1.711002434165228e+18,0.4830287206266319,0.3995433789954338,0.29081081081081084,0.5028124235754463,0.6516483516483517,0.43313708999158956,1194.0
445.0,1.7110024341752015e+18,0.46344647519582244,0.4132420091324201,0.3427027027027027,0.5023233064318905,0.621978021978022,0.4449116904962153,1197.0
446.0,1.7110024341852447e+18,0.4830287206266319,0.4075342465753425,0.31891891891891894,0.5025678650036683,0.6417582417582418,0.43566021867115223,1197.0
447.0,1.7110024341952038e+18,0.4725848563968668,0.4235159817351598,0.35027027027027025,0.5260454878943507,0.7593406593406593,0.45248107653490327,1195.0
448.0,1.7110024342052285e+18,0.46866840731070497,0.410958904109589,0.3410810810810811,0.4812912692589875,0.5824175824175825,0.42304457527333894,1192.0
449.0,1.7110024342152648e+18,0.47127937336814624,0.4132420091324201,0.33675675675675676,0.5008559550012228,0.621978021978022,0.4449116904962153,1195.0
450.0,1.711002434225226e+18,0.4856396866840731,0.410958904109589,0.3210810810810811,0.5028124235754463,0.6318681318681318,0.4415475189234651,1197.0
451.0,1.7110024342352038e+18,0.47127937336814624,0.4280821917808219,0.3589189189189189,0.5030569821472243,0.6318681318681318,0.4465937762825904,1195.0
452.0,1.7110024342452206e+18,0.47911227154047,0.4041095890410959,0.3037837837837838,0.4988994864269993,0.6571428571428571,0.44238856181665265,1197.0
453.0,1.7110024342552023e+18,0.4765013054830287,0.4337899543378995,0.34486486486486484,0.49327463927610665,0.5967032967032967,0.43986543313709,1196.0
454.0,1.7110024342652283e+18,0.4856396866840731,0.4041095890410959,0.32972972972972975,0.5028124235754463,0.6296703296703297,0.4381833473507149,1194.0
455.0,1.7110024342752015e+18,0.46866840731070497,0.4143835616438356,0.3410810810810811,0.5023233064318905,0.6197802197802198,0.4415475189234651,1193.0
456.0,1.711002434285228e+18,0.4830287206266319,0.4143835616438356,0.3232432432432432,0.4996331621423331,0.6329670329670329,0.43650126156433977,1195.0
457.0,1.7110024342952013e+18,0.48433420365535246,0.4452054794520548,0.3848648648648649,0.5064808021521154,0.6120879120879121,0.4499579478553406,1197.0
458.0,1.71100243430524e+18,0.4934725848563969,0.432648401826484,0.3389189189189189,0.4913181707018831,0.5637362637362637,0.4306139613120269,1193.0
459.0,1.7110024343152023e+18,0.4516971279373368,0.4246575342465753,0.3772972972972973,0.5037906578625581,0.5285714285714286,0.415475189234651,1195.0
460.0,1.7110024343252347e+18,0.4725848563968668,0.4041095890410959,0.3464864864864865,0.4988994864269993,0.6285714285714286,0.43986543313709,1196.0
461.0,1.7110024343352061e+18,0.46866840731070497,0.410958904109589,0.3427027027027027,0.4986549278552213,0.6197802197802198,0.4449116904962153,1196.0
462.0,1.71100243434523e+18,0.4830287206266319,0.4269406392694064,0.3372972972972973,0.5035460992907801,0.721978021978022,0.43650126156433977,1194.0
463.0,1.7110024343552028e+18,0.4660574412532637,0.4223744292237443,0.3481081081081081,0.5057471264367817,0.6406593406593407,0.4440706476030278,1195.0
464.0,1.7110024343652383e+18,0.4765013054830287,0.4006849315068493,0.29945945945945945,0.5035460992907801,0.667032967032967,0.43650126156433977,1195.0
465.0,1.7110024343752015e+18,0.48172323759791125,0.4189497716894977,0.31891891891891894,0.5121056493030081,0.6505494505494506,0.4415475189234651,1194.0
466.0,1.711002434385239e+18,0.47911227154047,0.4018264840182648,0.3108108108108108,0.5018341892883346,0.6571428571428571,0.44238856181665265,1198.0
467.0,1.7110024343952013e+18,0.4621409921671018,0.4006849315068493,0.3389189189189189,0.48911714355588165,0.5692307692307692,0.4339781328847771,1194.0
468.0,1.7110024344052175e+18,0.4556135770234987,0.3767123287671233,0.30486486486486486,0.4854487649792125,0.6142857142857143,0.4247266610597141,1195.0
469.0,1.7110024344152018e+18,0.4725848563968668,0.4189497716894977,0.34324324324324323,0.5030569821472243,0.6175824175824176,0.4432296047098402,1196.0
470.0,1.7110024344252255e+18,0.4856396866840731,0.4075342465753425,0.3254054054054054,0.5008559550012228,0.5791208791208792,0.4415475189234651,1197.0
471.0,1.7110024344352658e+18,0.46344647519582244,0.4223744292237443,0.34324324324324323,0.499877720714111,0.5923076923076923,0.4432296047098402,1196.0
472.0,1.7110024344452255e+18,0.47780678851174935,0.4098173515981735,0.31513513513513514,0.5011005135730008,0.6252747252747253,0.4381833473507149,1195.0
473.0,1.7110024344552008e+18,0.46344647519582244,0.4383561643835616,0.3908108108108108,0.5025678650036683,0.6329670329670329,0.44070647603027757,1195.0
474.0,1.7110024344652296e+18,0.4830287206266319,0.3972602739726027,0.32594594594594595,0.5030569821472243,0.6824175824175824,0.4507989907485282,1197.0
475.0,1.7110024344752026e+18,0.46736292428198434,0.4200913242009132,0.36486486486486486,0.5074590364392272,0.6637362637362637,0.4449116904962153,1193.0
476.0,1.711002434485229e+18,0.4765013054830287,0.3984018264840183,0.3216216216216216,0.4979212521398875,0.6186813186813187,0.4381833473507149,1198.0
477.0,1.711002434495201e+18,0.47127937336814624,0.4178082191780822,0.34540540540540543,0.5025678650036683,0.6714285714285714,0.43986543313709,1197.0
478.0,1.7110024345052288e+18,0.4830287206266319,0.410958904109589,0.3254054054054054,0.5037906578625581,0.6307692307692307,0.4432296047098402,1196.0
479.0,1.711002434515203e+18,0.47911227154047,0.4246575342465753,0.37027027027027026,0.4954756664221081,0.6274725274725275,0.44575273338940286,1196.0
480.0,1.7110024345252319e+18,0.47389033942558745,0.4006849315068493,0.30972972972972973,0.4986549278552213,0.6054945054945055,0.4280908326324643,1194.0
481.0,1.7110024345352046e+18,0.48825065274151436,0.4337899543378995,0.36324324324324325,0.5138175593054537,0.656043956043956,0.4499579478553406,1196.0
482.0,1.711002434545228e+18,0.4725848563968668,0.3926940639269406,0.3075675675675676,0.5020787478601125,0.676923076923077,0.44070647603027757,1197.0
483.0,1.7110024345552033e+18,0.4621409921671018,0.4178082191780822,0.34594594594594597,0.5001222792858889,0.6087912087912087,0.43986543313709,1195.0
484.0,1.7110024345652257e+18,0.48172323759791125,0.4189497716894977,0.3372972972972973,0.5023233064318905,0.7197802197802198,0.43986543313709,1194.0
485.0,1.7110024345752026e+18,0.48172323759791125,0.4554794520547945,0.39297297297297296,0.5025678650036683,0.6153846153846154,0.43902439024390244,1196.0
486.0,1.7110024345852362e+18,0.48825065274151436,0.4315068493150685,0.33945945945945943,0.49816581071166544,0.6120879120879121,0.43986543313709,1196.0
487.0,1.7110024345952023e+18,0.48433420365535246,0.4474885844748858,0.36486486486486486,0.5018341892883346,0.6076923076923076,0.4499579478553406,1196.0
488.0,1.7110024346052465e+18,0.4830287206266319,0.408675799086758,0.3210810810810811,0.5003668378576669,0.6197802197802198,0.43566021867115223,1196.0
489.0,1.7110024346152018e+18,0.4608355091383812,0.4200913242009132,0.3497297297297297,0.5030569821472243,0.6450549450549451,0.4432296047098402,1193.0
490.0,1.711002434625242e+18,0.48825065274151436,0.4726027397260274,0.43675675675675674,0.4896062606994375,0.6989010989010989,0.45248107653490327,1195.0
491.0,1.7110024346352896e+18,0.47389033942558745,0.4121004566210046,0.32756756756756755,0.49938860357055515,0.6296703296703297,0.447434819175778,1195.0
492.0,1.7110024346452324e+18,0.47780678851174935,0.4223744292237443,0.3427027027027027,0.504524333577892,0.6186813186813187,0.4314550042052145,1192.0
493.0,1.711002434655201e+18,0.44778067885117495,0.3938356164383562,0.3124324324324324,0.4974321349963316,0.6032967032967033,0.42977291841883936,1196.0
494.0,1.711002434665225e+18,0.4869451697127937,0.4132420091324201,0.3248648648648649,0.499877720714111,0.6307692307692307,0.4373423044575273,1197.0
495.0,1.7110024346752008e+18,0.4621409921671018,0.410958904109589,0.33837837837837836,0.49645390070921985,0.6010989010989011,0.4381833473507149,1193.0
496.0,1.7110024346852406e+18,0.46866840731070497,0.4006849315068493,0.32216216216216215,0.5067253607238934,0.6318681318681318,0.4381833473507149,1193.0
497.0,1.7110024346952087e+18,0.4869451697127937,0.4360730593607306,0.34594594594594597,0.5011005135730008,0.6604395604395604,0.43986543313709,1194.0
498.0,1.7110024347052332e+18,0.4869451697127937,0.3984018264840183,0.31351351351351353,0.5015896307165566,0.6571428571428571,0.4449116904962153,1194.0
499.0,1.711002434715202e+18,0.4608355091383812,0.4075342465753425,0.33837837837837836,0.5023233064318905,0.5923076923076923,0.4449116904962153,1196.0
500.0,1.711002434725227e+18,0.47911227154047,0.4223744292237443,0.33837837837837836,0.5108828564441183,0.6274725274725275,0.42977291841883936,1192.0
501.0,1.7110024347352015e+18,0.47911227154047,0.4372146118721461,0.3481081081081081,0.5035460992907801,0.5934065934065934,0.4449116904962153,1197.0
502.0,1.7110024347452265e+18,0.489556135770235,0.410958904109589,0.31351351351351353,0.5050134507214478,0.6615384615384615,0.43902439024390244,1194.0
503.0,1.711002434755201e+18,0.46866840731070497,0.4223744292237443,0.3772972972972973,0.5037906578625581,0.6197802197802198,0.4432296047098402,1195.0
504.0,1.7110024347652273e+18,0.4765013054830287,0.4006849315068493,0.3172972972972973,0.4986549278552213,0.676923076923077,0.4306139613120269,1191.0
505.0,1.7110024347752023e+18,0.4660574412532637,0.4075342465753425,0.3345945945945946,0.495720224993886,0.5571428571428572,0.4381833473507149,1195.0
506.0,1.7110024347852375e+18,0.4621409921671018,0.3926940639269406,0.30972972972972973,0.49498654927855223,0.6307692307692307,0.4314550042052145,1193.0
507.0,1.711002434795201e+18,0.4699738903394256,0.4280821917808219,0.3491891891891892,0.5006113964294449,0.6197802197802198,0.4432296047098402,1196.0
508.0,1.711002434805227e+18,0.4804177545691906,0.4143835616438356,0.32432432432432434,0.5015896307165566,0.6329670329670329,0.43902439024390244,1196.0
509.0,1.7110024348152026e+18,0.45822454308093996,0.4132420091324201,0.34540540540540543,0.4991440449987772,0.5967032967032967,0.4415475189234651,1196.0
510.0,1.7110024348252275e+18,0.48172323759791125,0.4178082191780822,0.3675675675675676,0.5111274150158963,0.6406593406593407,0.4449116904962153,1196.0
511.0,1.7110024348352643e+18,0.46736292428198434,0.4132420091324201,0.34540540540540543,0.5008559550012228,0.6120879120879121,0.4432296047098402,1196.0
512.0,1.711002434845247e+18,0.47911227154047,0.4075342465753425,0.3286486486486486,0.491562729273661,0.6010989010989011,0.432296047098402,1192.0
513.0,1.7110024348552018e+18,0.4830287206266319,0.4394977168949772,0.3567567567567568,0.5011005135730008,0.634065934065934,0.4465937762825904,1194.0
514.0,1.7110024348652242e+18,0.4595300261096606,0.3858447488584475,0.2918918918918919,0.4900953778429934,0.6252747252747253,0.4247266610597141,1193.0
515.0,1.7110024348752046e+18,0.45822454308093996,0.4178082191780822,0.3372972972972973,0.5037906578625581,0.6032967032967033,0.43566021867115223,1194.0
516.0,1.711002434885234e+18,0.4908616187989556,0.4269406392694064,0.3567567567567568,0.4930300807043287,0.5989010989010989,0.43566021867115223,1195.0
517.0,1.711002434895201e+18,0.46475195822454307,0.4132420091324201,0.3324324324324324,0.49645390070921985,0.5879120879120879,0.4432296047098402,1196.0
518.0,1.7110024349052316e+18,0.46475195822454307,0.3972602739726027,0.3172972972972973,0.49645390070921985,0.6054945054945055,0.43650126156433977,1195.0
519.0,1.7110024349152018e+18,0.4699738903394256,0.4292237442922374,0.3491891891891892,0.5047688921496698,0.6186813186813187,0.4449116904962153,1197.0
520.0,1.711002434925226e+18,0.4751958224543081,0.3961187214611872,0.3037837837837838,0.5094155050134507,0.7494505494505495,0.44911690496215306,1194.0
521.0,1.7110024349352092e+18,0.4699738903394256,0.4178082191780822,0.33837837837837836,0.4971875764245537,0.5956043956043956,0.4432296047098402,1195.0
522.0,1.7110024349452165e+18,0.4856396866840731,0.4200913242009132,0.33945945945945943,0.5008559550012228,0.6362637362637362,0.4381833473507149,1197.0
523.0,1.7110024349552023e+18,0.4725848563968668,0.4178082191780822,0.3481081081081081,0.5096600635852286,0.6802197802197802,0.4415475189234651,1196.0
524.0,1.7110024349652273e+18,0.48172323759791125,0.410958904109589,0.3291891891891892,0.4966984592809978,0.532967032967033,0.43650126156433977,1196.0
525.0,1.7110024349752026e+18,0.47780678851174935,0.4315068493150685,0.3762162162162162,0.5015896307165566,0.6010989010989011,0.4432296047098402,1197.0
526.0,1.711002434985232e+18,0.4765013054830287,0.4041095890410959,0.327027027027027,0.5011005135730008,0.6505494505494506,0.4381833473507149,1197.0
527.0,1.7110024349951997e+18,0.4621409921671018,0.4223744292237443,0.3621621621621622,0.5121056493030081,0.6450549450549451,0.4558452481076535,1196.0
528.0,1.7110024350052178e+18,0.4804177545691906,0.3995433789954338,0.3145945945945946,0.5006113964294449,0.6362637362637362,0.43566021867115223,1195.0
529.0,1.711002435015199e+18,0.47127937336814624,0.4132420091324201,0.33837837837837836,0.5035460992907801,0.6208791208791209,0.4432296047098402,1195.0
530.0,1.7110024350252163e+18,0.4804177545691906,0.3995433789954338,0.3345945945945946,0.5003668378576669,0.610989010989011,0.4339781328847771,1193.0
531.0,1.711002435035203e+18,0.4660574412532637,0.4200913242009132,0.34756756756756757,0.49938860357055515,0.6021978021978022,0.4415475189234651,1194.0
532.0,1.7110024350452326e+18,0.4660574412532637,0.3949771689497717,0.3183783783783784,0.4996331621423331,0.6472527472527473,0.43986543313709,1195.0
533.0,1.711002435055201e+18,0.4725848563968668,0.4269406392694064,0.3627027027027027,0.5050134507214478,0.610989010989011,0.43650126156433977,1196.0
534.0,1.7110024350652278e+18,0.48172323759791125,0.4075342465753425,0.31513513513513514,0.4925409635607728,0.6384615384615384,0.43902439024390244,1197.0
535.0,1.7110024350752013e+18,0.47127937336814624,0.4212328767123288,0.3427027027027027,0.5001222792858889,0.5989010989010989,0.4381833473507149,1194.0
536.0,1.711002435085191e+18,0.4856396866840731,0.4041095890410959,0.3172972972972973,0.495720224993886,0.6285714285714286,0.44238856181665265,1196.0
537.0,1.7110024350952044e+18,0.47389033942558745,0.4189497716894977,0.3308108108108108,0.5103937393005625,0.5978021978021978,0.4449116904962153,1195.0
538.0,1.7110024351052273e+18,0.48172323759791125,0.4143835616438356,0.31675675675675674,0.5079481535827831,0.6824175824175824,0.4381833473507149,1195.0
539.0,1.7110024351152033e+18,0.46475195822454307,0.4155251141552511,0.3372972972972973,0.5057471264367817,0.6032967032967033,0.44238856181665265,1194.0
540.0,1.7110024351252288e+18,0.4830287206266319,0.4155251141552511,0.32216216216216215,0.4937637564196625,0.6142857142857143,0.43902439024390244,1195.0
541.0,1.7110024351351864e+18,0.47780678851174935,0.4394977168949772,0.37675675675675674,0.5057471264367817,0.6208791208791209,0.4432296047098402,1197.0
542.0,1.7110024351451904e+18,0.4804177545691906,0.4223744292237443,0.3291891891891892,0.4988994864269993,0.6285714285714286,0.4381833473507149,1195.0
543.0,1.7110024351552005e+18,0.4765013054830287,0.4223744292237443,0.3286486486486486,0.504279775006114,0.6318681318681318,0.44575273338940286,1195.0
544.0,1.7110024351652308e+18,0.4804177545691906,0.3938356164383562,0.29567567567567565,0.4988994864269993,0.6208791208791209,0.4415475189234651,1194.0
545.0,1.711002435175206e+18,0.47389033942558745,0.4235159817351598,0.3308108108108108,0.5008559550012228,0.6065934065934065,0.44238856181665265,1195.0
546.0,1.7110024351852314e+18,0.49216710182767626,0.4041095890410959,0.3264864864864865,0.5059916850085595,0.6758241758241759,0.44575273338940286,1196.0
547.0,1.7110024351951992e+18,0.4699738903394256,0.4132420091324201,0.327027027027027,0.504524333577892,0.5857142857142857,0.43313708999158956,1193.0
548.0,1.7110024352052316e+18,0.48825065274151436,0.4257990867579909,0.34594594594594597,0.5037906578625581,0.6626373626373626,0.4348191757779647,1194.0
549.0,1.7110024352152028e+18,0.47389033942558745,0.4200913242009132,0.3356756756756757,0.5130838835901198,0.6802197802197802,0.45500420521446594,1195.0
550.0,1.7110024352252347e+18,0.4830287206266319,0.4246575342465753,0.3772972972972973,0.499877720714111,0.643956043956044,0.4373423044575273,1195.0
551.0,1.7110024352352038e+18,0.4699738903394256,0.4063926940639269,0.3232432432432432,0.499877720714111,0.6197802197802198,0.4432296047098402,1197.0
552.0,1.7110024352452168e+18,0.5026109660574413,0.4611872146118721,0.3994594594594595,0.5067253607238934,0.6362637362637362,0.4415475189234651,1197.0
553.0,1.7110024352552038e+18,0.4725848563968668,0.4132420091324201,0.33297297297297296,0.4979212521398875,0.6,0.43986543313709,1196.0
554.0,1.7110024352652209e+18,0.48172323759791125,0.4121004566210046,0.31351351351351353,0.4966984592809978,0.6758241758241759,0.43902439024390244,1194.0
555.0,1.7110024352752015e+18,0.47780678851174935,0.4223744292237443,0.35027027027027025,0.5035460992907801,0.6450549450549451,0.4499579478553406,1193.0
556.0,1.7110024352852588e+18,0.47780678851174935,0.4075342465753425,0.3281081081081081,0.495964783565664,0.6098901098901099,0.4373423044575273,1194.0
557.0,1.711002435295206e+18,0.4765013054830287,0.4463470319634703,0.36648648648648646,0.5077035950110051,0.6362637362637362,0.45164003364171573,1196.0
558.0,1.711002435305225e+18,0.47911227154047,0.4018264840182648,0.32,0.5020787478601125,0.6021978021978022,0.4381833473507149,1197.0
559.0,1.711002435315202e+18,0.48825065274151436,0.4372146118721461,0.36864864864864866,0.5015896307165566,0.589010989010989,0.44238856181665265,1196.0
560.0,1.7110024353252206e+18,0.4830287206266319,0.4132420091324201,0.32972972972972975,0.4942528735632184,0.5395604395604395,0.4255677039529016,1191.0
561.0,1.7110024353352005e+18,0.45691906005221933,0.408675799086758,0.3372972972972973,0.5077035950110051,0.6329670329670329,0.44070647603027757,1193.0
562.0,1.7110024353452209e+18,0.4960835509138381,0.4269406392694064,0.36702702702702705,0.5025678650036683,0.6505494505494506,0.4482758620689655,1196.0
563.0,1.711002435355203e+18,0.47127937336814624,0.4292237442922374,0.3389189189189189,0.5059916850085595,0.6582417582417582,0.45164003364171573,1196.0
564.0,1.7110024353652237e+18,0.47911227154047,0.3984018264840183,0.3178378378378378,0.495720224993886,0.5846153846153846,0.43313708999158956,1193.0
565.0,1.7110024353752013e+18,0.4765013054830287,0.4383561643835616,0.35405405405405405,0.5108828564441183,0.6362637362637362,0.4499579478553406,1196.0
566.0,1.71100243538523e+18,0.4830287206266319,0.408675799086758,0.3178378378378378,0.4996331621423331,0.6230769230769231,0.4415475189234651,1198.0
567.0,1.7110024353952018e+18,0.46475195822454307,0.4178082191780822,0.32432432432432434,0.5020787478601125,0.689010989010989,0.43566021867115223,1196.0
568.0,1.7110024354052244e+18,0.47780678851174935,0.3938356164383562,0.3108108108108108,0.49107361213010514,0.6186813186813187,0.4381833473507149,1196.0
569.0,1.7110024354152003e+18,0.4621409921671018,0.4132420091324201,0.3318918918918919,0.4986549278552213,0.5901098901098901,0.4381833473507149,1196.0
570.0,1.7110024354252168e+18,0.48825065274151436,0.4372146118721461,0.36,0.4966984592809978,0.5527472527472528,0.4348191757779647,1196.0
571.0,1.7110024354352635e+18,0.4725848563968668,0.4143835616438356,0.34054054054054056,0.4971875764245537,0.6131868131868132,0.43986543313709,1196.0
572.0,1.7110024354452224e+18,0.489556135770235,0.4132420091324201,0.3210810810810811,0.5099046221570066,0.6780219780219781,0.4415475189234651,1197.0
573.0,1.711002435455202e+18,0.4725848563968668,0.408675799086758,0.32216216216216215,0.495720224993886,0.5945054945054945,0.4415475189234651,1197.0
574.0,1.7110024354652285e+18,0.47780678851174935,0.3972602739726027,0.3108108108108108,0.5047688921496698,0.6692307692307692,0.44238856181665265,1197.0
575.0,1.711002435475201e+18,0.4765013054830287,0.4269406392694064,0.3491891891891892,0.5103937393005625,0.6461538461538462,0.4482758620689655,1195.0
576.0,1.7110024354852347e+18,0.4804177545691906,0.4200913242009132,0.35243243243243244,0.5037906578625581,0.6593406593406593,0.4348191757779647,1195.0
577.0,1.7110024354952015e+18,0.46866840731070497,0.4269406392694064,0.36648648648648646,0.5028124235754463,0.5758241758241758,0.44238856181665265,1195.0
578.0,1.7110024355052163e+18,0.4621409921671018,0.3949771689497717,0.31513513513513514,0.5003668378576669,0.5967032967032967,0.4213624894869638,1191.0
579.0,1.711002435515201e+18,0.4699738903394256,0.4121004566210046,0.33405405405405403,0.5015896307165566,0.6153846153846154,0.4381833473507149,1195.0
580.0,1.711002435525226e+18,0.48172323759791125,0.408675799086758,0.312972972972973,0.4927855221325507,0.5857142857142857,0.4314550042052145,1193.0
581.0,1.7110024355352067e+18,0.46344647519582244,0.4121004566210046,0.3172972972972973,0.4986549278552213,0.5967032967032967,0.432296047098402,1193.0
582.0,1.7110024355452186e+18,0.4830287206266319,0.4052511415525114,0.32594594594594595,0.5023233064318905,0.6494505494505495,0.4415475189234651,1196.0
583.0,1.7110024355552003e+18,0.46866840731070497,0.4235159817351598,0.3335135135135135,0.5008559550012228,0.6758241758241759,0.4465937762825904,1196.0
584.0,1.7110024355652252e+18,0.4699738903394256,0.4006849315068493,0.31891891891891894,0.495720224993886,0.6208791208791209,0.43313708999158956,1192.0
585.0,1.7110024355752023e+18,0.46344647519582244,0.4143835616438356,0.34486486486486484,0.5028124235754463,0.6197802197802198,0.4381833473507149,1197.0
586.0,1.7110024355852408e+18,0.48825065274151436,0.4166666666666667,0.31675675675675674,0.5030569821472243,0.6384615384615384,0.4432296047098402,1196.0
587.0,1.7110024355952003e+18,0.4608355091383812,0.4178082191780822,0.3491891891891892,0.4896062606994375,0.545054945054945,0.43902439024390244,1195.0
588.0,1.7110024356052257e+18,0.4804177545691906,0.410958904109589,0.32756756756756755,0.5006113964294449,0.6395604395604395,0.4415475189234651,1195.0
589.0,1.711002435615202e+18,0.4699738903394256,0.4189497716894977,0.35027027027027025,0.5001222792858889,0.6076923076923076,0.44238856181665265,1197.0
590.0,1.7110024356252278e+18,0.47780678851174935,0.3961187214611872,0.3081081081081081,0.5030569821472243,0.6406593406593407,0.43566021867115223,1194.0
591.0,1.7110024356352584e+18,0.45691906005221933,0.4121004566210046,0.3302702702702703,0.4969430178527757,0.5824175824175825,0.4339781328847771,1192.0
592.0,1.7110024356452227e+18,0.4856396866840731,0.4029680365296804,0.3108108108108108,0.4954756664221081,0.5648351648351648,0.4381833473507149,1197.0
593.0,1.711002435655203e+18,0.47780678851174935,0.4155251141552511,0.3545945945945946,0.504524333577892,0.567032967032967,0.43986543313709,1196.0
594.0,1.711002435665227e+18,0.4765013054830287,0.4098173515981735,0.3264864864864865,0.504035216434336,0.6406593406593407,0.4415475189234651,1195.0
595.0,1.711002435675201e+18,0.4699738903394256,0.4189497716894977,0.3654054054054054,0.5055025678650037,0.6582417582417582,0.4373423044575273,1195.0
596.0,1.711002435685271e+18,0.489556135770235,0.4075342465753425,0.32054054054054054,0.504035216434336,0.667032967032967,0.4415475189234651,1195.0
597.0,1.7110024356952558e+18,0.46475195822454307,0.4132420091324201,0.34216216216216216,0.5015896307165566,0.6373626373626373,0.4373423044575273,1196.0
598.0,1.7110024357052237e+18,0.47911227154047,0.3938356164383562,0.3016216216216216,0.4966984592809978,0.6120879120879121,0.43650126156433977,1194.0
599.0,1.7110024357152005e+18,0.47389033942558745,0.4235159817351598,0.36162162162162165,0.5015896307165566,0.6230769230769231,0.4440706476030278,1195.0
600.0,1.7110024357252247e+18,0.48433420365535246,0.3995433789954338,0.3108108108108108,0.5013450721447786,0.6505494505494506,0.4381833473507149,1196.0
601.0,1.711002435735204e+18,0.4660574412532637,0.4121004566210046,0.33837837837837836,0.5069699192956714,0.6307692307692307,0.43566021867115223,1194.0
602.0,1.7110024357452224e+18,0.47780678851174935,0.4052511415525114,0.3091891891891892,0.5035460992907801,0.6395604395604395,0.4381833473507149,1195.0
603.0,1.7110024357552005e+18,0.4765013054830287,0.4257990867579909,0.34864864864864864,0.4988994864269993,0.5571428571428572,0.44575273338940286,1194.0
604.0,1.711002435765223e+18,0.49216710182767626,0.4143835616438356,0.3254054054054054,0.4966984592809978,0.6010989010989011,0.43650126156433977,1194.0
605.0,1.7110024357752018e+18,0.46866840731070497,0.4315068493150685,0.3637837837837838,0.5028124235754463,0.6043956043956044,0.4381833473507149,1195.0
606.0,1.7110024357852436e+18,0.47127937336814624,0.3949771689497717,0.29783783783783785,0.49400831499144043,0.621978021978022,0.4238856181665265,1194.0
607.0,1.7110024357952015e+18,0.46866840731070497,0.4200913242009132,0.33675675675675676,0.5033015407190022,0.5857142857142857,0.4280908326324643,1195.0
608.0,1.7110024358052275e+18,0.46736292428198434,0.3972602739726027,0.30864864864864866,0.499877720714111,0.6538461538461539,0.4306139613120269,1192.0
609.0,1.7110024358152003e+18,0.46344647519582244,0.4132420091324201,0.34216216216216216,0.5008559550012228,0.6054945054945055,0.44238856181665265,1196.0
610.0,1.711002435825231e+18,0.49738903394255873,0.4394977168949772,0.3637837837837838,0.5074590364392272,0.6967032967032967,0.4432296047098402,1196.0
611.0,1.711002435835201e+18,0.47127937336814624,0.4360730593607306,0.3497297297297297,0.4969430178527757,0.6175824175824176,0.43986543313709,1196.0
612.0,1.7110024358452324e+18,0.4869451697127937,0.4075342465753425,0.31891891891891894,0.4971875764245537,0.6241758241758242,0.4415475189234651,1196.0
613.0,1.7110024358552013e+18,0.46475195822454307,0.410958904109589,0.3362162162162162,0.49938860357055515,0.5714285714285714,0.43566021867115223,1195.0
614.0,1.7110024358652334e+18,0.49216710182767626,0.4235159817351598,0.34,0.5030569821472243,0.6472527472527473,0.44238856181665265,1196.0
615.0,1.7110024358752005e+18,0.46475195822454307,0.4155251141552511,0.34486486486486484,0.5077035950110051,0.6241758241758242,0.43986543313709,1193.0
616.0,1.7110024358852588e+18,0.4804177545691906,0.4063926940639269,0.30486486486486486,0.5052580092932257,0.6472527472527473,0.4415475189234651,1197.0
617.0,1.7110024358952023e+18,0.4699738903394256,0.4269406392694064,0.3605405405405405,0.4944974321349963,0.5978021978021978,0.43902439024390244,1196.0
618.0,1.7110024359052416e+18,0.46344647519582244,0.3835616438356164,0.2648648648648649,0.5037906578625581,0.6802197802197802,0.4373423044575273,1197.0
619.0,1.7110024359152023e+18,0.4830287206266319,0.4235159817351598,0.34378378378378377,0.4996331621423331,0.5879120879120879,0.4415475189234651,1197.0
620.0,1.7110024359252242e+18,0.4856396866840731,0.4166666666666667,0.34054054054054056,0.5059916850085595,0.6285714285714286,0.43566021867115223,1195.0
621.0,1.711002435935274e+18,0.47780678851174935,0.432648401826484,0.34540540540540543,0.5047688921496698,0.634065934065934,0.4440706476030278,1194.0
622.0,1.7110024359452321e+18,0.48825065274151436,0.4178082191780822,0.3491891891891892,0.5025678650036683,0.6604395604395604,0.4415475189234651,1196.0
623.0,1.7110024359552658e+18,0.4621409921671018,0.4178082191780822,0.34702702702702704,0.5067253607238934,0.6692307692307692,0.43902439024390244,1196.0
624.0,1.7110024359652303e+18,0.47911227154047,0.4018264840182648,0.32,0.49816581071166544,0.6197802197802198,0.4432296047098402,1197.0
625.0,1.7110024359752015e+18,0.47780678851174935,0.4383561643835616,0.3848648648648649,0.5028124235754463,0.6120879120879121,0.4482758620689655,1196.0
626.0,1.7110024359852454e+18,0.48433420365535246,0.4052511415525114,0.3232432432432432,0.5015896307165566,0.6450549450549451,0.44575273338940286,1196.0
627.0,1.7110024359952033e+18,0.47389033942558745,0.4178082191780822,0.3335135135135135,0.5025678650036683,0.5989010989010989,0.4373423044575273,1196.0
628.0,1.7110024360052324e+18,0.49477806788511747,0.4246575342465753,0.34486486486486484,0.5006113964294449,0.5967032967032967,0.43313708999158956,1193.0
629.0,1.711002436015201e+18,0.4621409921671018,0.4235159817351598,0.3708108108108108,0.5216434336023478,0.710989010989011,0.43650126156433977,1195.0
630.0,1.711002436025225e+18,0.4830287206266319,0.4143835616438356,0.32594594594594595,0.4986549278552213,0.5472527472527473,0.43313708999158956,1194.0
631.0,1.7110024360352061e+18,0.45691906005221933,0.4189497716894977,0.35783783783783785,0.4991440449987772,0.5945054945054945,0.43566021867115223,1194.0
632.0,1.711002436045226e+18,0.4830287206266319,0.410958904109589,0.3210810810810811,0.5008559550012228,0.6351648351648351,0.4373423044575273,1196.0
633.0,1.7110024360552013e+18,0.4595300261096606,0.408675799086758,0.31891891891891894,0.49523110785033014,0.5978021978021978,0.43566021867115223,1196.0
634.0,1.7110024360652278e+18,0.48825065274151436,0.4178082191780822,0.3362162162162162,0.4988994864269993,0.6428571428571429,0.4415475189234651,1195.0
635.0,1.7110024360752064e+18,0.46866840731070497,0.4223744292237443,0.3643243243243243,0.5035460992907801,0.6,0.43986543313709,1194.0
636.0,1.7110024360852431e+18,0.4725848563968668,0.3949771689497717,0.31189189189189187,0.49816581071166544,0.5802197802197803,0.4289318755256518,1193.0
637.0,1.7110024360952015e+18,0.46475195822454307,0.4075342465753425,0.33945945945945943,0.5011005135730008,0.5978021978021978,0.43566021867115223,1194.0
638.0,1.711002436105226e+18,0.4908616187989556,0.4463470319634703,0.38756756756756755,0.5050134507214478,0.6582417582417582,0.44238856181665265,1195.0
639.0,1.7110024361152023e+18,0.4699738903394256,0.4155251141552511,0.3535135135135135,0.49767669356810956,0.6373626373626373,0.4415475189234651,1194.0
640.0,1.7110024361252273e+18,0.48825065274151436,0.4132420091324201,0.3318918918918919,0.495964783565664,0.6362637362637362,0.4373423044575273,1196.0
641.0,1.7110024361352026e+18,0.4516971279373368,0.4052511415525114,0.3410810810810811,0.5030569821472243,0.6450549450549451,0.4280908326324643,1193.0
642.0,1.7110024361451978e+18,0.46475195822454307,0.4155251141552511,0.3545945945945946,0.4937637564196625,0.5956043956043956,0.43313708999158956,1192.0
643.0,1.7110024361552023e+18,0.47780678851174935,0.4440639269406393,0.39837837837837836,0.5006113964294449,0.6571428571428571,0.4339781328847771,1193.0
644.0,1.711002436165228e+18,0.4869451697127937,0.4178082191780822,0.32756756756756755,0.5001222792858889,0.6208791208791209,0.43566021867115223,1194.0
645.0,1.7110024361752212e+18,0.46736292428198434,0.4212328767123288,0.35135135135135137,0.5052580092932257,0.6241758241758242,0.4415475189234651,1196.0
646.0,1.7110024361852186e+18,0.46736292428198434,0.3961187214611872,0.29945945945945945,0.5011005135730008,0.610989010989011,0.43650126156433977,1198.0
647.0,1.7110024361952023e+18,0.46344647519582244,0.4041095890410959,0.31675675675675674,0.4966984592809978,0.6153846153846154,0.4415475189234651,1194.0
648.0,1.7110024362052214e+18,0.489556135770235,0.4178082191780822,0.32594594594594595,0.49767669356810956,0.6175824175824176,0.43986543313709,1196.0
649.0,1.7110024362152026e+18,0.4608355091383812,0.4189497716894977,0.3535135135135135,0.5037906578625581,0.6296703296703297,0.43313708999158956,1192.0
650.0,1.7110024362252257e+18,0.47389033942558745,0.3995433789954338,0.31027027027027027,0.49645390070921985,0.6373626373626373,0.43313708999158956,1192.0
651.0,1.7110024362352018e+18,0.4660574412532637,0.4132420091324201,0.32756756756756755,0.5035460992907801,0.654945054945055,0.43650126156433977,1196.0
652.0,1.7110024362452232e+18,0.4869451697127937,0.410958904109589,0.32594594594594595,0.5025678650036683,0.634065934065934,0.43902439024390244,1197.0
653.0,1.7110024362552023e+18,0.46344647519582244,0.4098173515981735,0.3210810810810811,0.4944974321349963,0.6230769230769231,0.4381833473507149,1194.0
654.0,1.7110024362652244e+18,0.489556135770235,0.4178082191780822,0.34594594594594597,0.5020787478601125,0.6054945054945055,0.4465937762825904,1195.0
655.0,1.7110024362752018e+18,0.47127937336814624,0.4200913242009132,0.3491891891891892,0.4971875764245537,0.5824175824175825,0.4314550042052145,1191.0
656.0,1.7110024362852221e+18,0.47911227154047,0.4006849315068493,0.31027027027027027,0.49767669356810956,0.5637362637362637,0.4280908326324643,1194.0
657.0,1.7110024362951997e+18,0.48825065274151436,0.432648401826484,0.35783783783783785,0.5003668378576669,0.5978021978021978,0.43902439024390244,1195.0
658.0,1.71100243630522e+18,0.46866840731070497,0.410958904109589,0.3286486486486486,0.499877720714111,0.6252747252747253,0.4306139613120269,1195.0
659.0,1.711002436315201e+18,0.47911227154047,0.4372146118721461,0.3535135135135135,0.4996331621423331,0.610989010989011,0.4440706476030278,1194.0
660.0,1.7110024363252198e+18,0.48172323759791125,0.3949771689497717,0.30648648648648646,0.4979212521398875,0.6428571428571429,0.4373423044575273,1195.0
661.0,1.7110024363352026e+18,0.47127937336814624,0.4189497716894977,0.34486486486486484,0.5055025678650037,0.6296703296703297,0.4465937762825904,1197.0
662.0,1.711002436345235e+18,0.48172323759791125,0.4143835616438356,0.3210810810810811,0.49767669356810956,0.5593406593406594,0.432296047098402,1193.0
663.0,1.7110024363552033e+18,0.4765013054830287,0.4178082191780822,0.3362162162162162,0.4991440449987772,0.6065934065934065,0.4440706476030278,1196.0
664.0,1.7110024363652296e+18,0.4699738903394256,0.3949771689497717,0.2967567567567568,0.49033993641477136,0.6318681318681318,0.43313708999158956,1193.0
665.0,1.7110024363752049e+18,0.4765013054830287,0.4200913242009132,0.34378378378378377,0.5037906578625581,0.6131868131868132,0.4432296047098402,1197.0
666.0,1.7110024363852204e+18,0.4869451697127937,0.4063926940639269,0.31135135135135134,0.49816581071166544,0.6175824175824176,0.43986543313709,1196.0
667.0,1.711002436395202e+18,0.46736292428198434,0.4132420091324201,0.32972972972972975,0.5023233064318905,0.654945054945055,0.4415475189234651,1195.0
668.0,1.7110024364052244e+18,0.48172323759791125,0.4132420091324201,0.34162162162162163,0.4969430178527757,0.6032967032967033,0.4306139613120269,1193.0
669.0,1.711002436415202e+18,0.4699738903394256,0.4246575342465753,0.35567567567567565,0.5015896307165566,0.6054945054945055,0.44575273338940286,1197.0
670.0,1.7110024364252554e+18,0.4869451697127937,0.410958904109589,0.3237837837837838,0.5011005135730008,0.610989010989011,0.4381833473507149,1197.0
671.0,1.7110024364352046e+18,0.4804177545691906,0.432648401826484,0.36108108108108106,0.5028124235754463,0.6230769230769231,0.4432296047098402,1196.0
672.0,1.7110024364452319e+18,0.49477806788511747,0.4406392694063927,0.37567567567567567,0.5138175593054537,0.6868131868131868,0.4449116904962153,1196.0
673.0,1.7110024364552148e+18,0.46344647519582244,0.4143835616438356,0.3372972972972973,0.49400831499144043,0.5879120879120879,0.432296047098402,1193.0
674.0,1.7110024364652324e+18,0.4765013054830287,0.4052511415525114,0.3124324324324324,0.49474199070677427,0.621978021978022,0.43902439024390244,1197.0
675.0,1.711002436475264e+18,0.47127937336814624,0.4178082191780822,0.33675675675675676,0.5011005135730008,0.5879120879120879,0.4449116904962153,1196.0
676.0,1.711002436485223e+18,0.4869451697127937,0.4200913242009132,0.34756756756756757,0.495720224993886,0.634065934065934,0.4381833473507149,1194.0
677.0,1.711002436495202e+18,0.4765013054830287,0.4155251141552511,0.3389189189189189,0.4988994864269993,0.5923076923076923,0.4415475189234651,1197.0
678.0,1.7110024365052255e+18,0.46866840731070497,0.3961187214611872,0.30594594594594593,0.4986549278552213,0.6274725274725275,0.4381833473507149,1196.0
679.0,1.7110024365152018e+18,0.47389033942558745,0.4269406392694064,0.3427027027027027,0.5157740278796772,0.6978021978021978,0.4482758620689655,1194.0
680.0,1.7110024365252319e+18,0.4765013054830287,0.3995433789954338,0.3054054054054054,0.4966984592809978,0.6648351648351648,0.44238856181665265,1196.0
681.0,1.711002436535202e+18,0.46475195822454307,0.4189497716894977,0.34486486486486484,0.5003668378576669,0.6197802197802198,0.4449116904962153,1195.0
682.0,1.7110024365452362e+18,0.489556135770235,0.4360730593607306,0.3497297297297297,0.499877720714111,0.5604395604395604,0.4348191757779647,1195.0
683.0,1.7110024365552026e+18,0.4765013054830287,0.4280821917808219,0.34756756756756757,0.4979212521398875,0.5813186813186814,0.44238856181665265,1196.0
684.0,1.711002436565226e+18,0.4869451697127937,0.432648401826484,0.3827027027027027,0.5025678650036683,0.6241758241758242,0.4415475189234651,1194.0
685.0,1.7110024365752054e+18,0.47127937336814624,0.4166666666666667,0.34702702702702704,0.504035216434336,0.5373626373626373,0.4381833473507149,1196.0
686.0,1.711002436585219e+18,0.49216710182767626,0.410958904109589,0.3145945945945946,0.5055025678650037,0.667032967032967,0.44575273338940286,1194.0
687.0,1.7110024365952026e+18,0.46866840731070497,0.4223744292237443,0.3605405405405405,0.504035216434336,0.6010989010989011,0.4449116904962153,1193.0
688.0,1.7110024366052255e+18,0.4869451697127937,0.4155251141552511,0.3291891891891892,0.499877720714111,0.6186813186813187,0.4373423044575273,1194.0
689.0,1.7110024366152013e+18,0.47127937336814624,0.4212328767123288,0.34540540540540543,0.5001222792858889,0.6032967032967033,0.4306139613120269,1193.0
690.0,1.711002436625232e+18,0.4856396866840731,0.4063926940639269,0.31945945945945947,0.4996331621423331,0.6362637362637362,0.43902439024390244,1197.0
691.0,1.7110024366352018e+18,0.46866840731070497,0.4235159817351598,0.34864864864864864,0.5035460992907801,0.6186813186813187,0.4373423044575273,1196.0
692.0,1.7110024366452285e+18,0.4830287206266319,0.410958904109589,0.327027027027027,0.5008559550012228,0.6098901098901099,0.43902439024390244,1196.0
693.0,1.7110024366552015e+18,0.4621409921671018,0.4121004566210046,0.33405405405405403,0.48789435069699194,0.5758241758241758,0.4280908326324643,1193.0
694.0,1.7110024366651963e+18,0.4869451697127937,0.4212328767123288,0.33405405405405403,0.5047688921496698,0.6648351648351648,0.4415475189234651,1194.0
695.0,1.7110024366752689e+18,0.47127937336814624,0.4178082191780822,0.3324324324324324,0.5035460992907801,0.6362637362637362,0.45164003364171573,1194.0
696.0,1.7110024366852436e+18,0.47127937336814624,0.4052511415525114,0.3308108108108108,0.5172413793103449,0.6802197802197802,0.43986543313709,1195.0
697.0,1.7110024366952028e+18,0.45300261096605743,0.4143835616438356,0.3286486486486486,0.49620934213744194,0.5923076923076923,0.432296047098402,1194.0
698.0,1.711002436705234e+18,0.46866840731070497,0.3961187214611872,0.31891891891891894,0.4979212521398875,0.610989010989011,0.43313708999158956,1194.0
699.0,1.711002436715202e+18,0.47127937336814624,0.4315068493150685,0.37243243243243246,0.5079481535827831,0.5769230769230769,0.44070647603027757,1196.0
700.0,1.7110024367252485e+18,0.47780678851174935,0.4018264840182648,0.32,0.4986549278552213,0.6120879120879121,0.4339781328847771,1193.0
701.0,1.711002436735202e+18,0.46866840731070497,0.408675799086758,0.3286486486486486,0.5013450721447786,0.5967032967032967,0.44238856181665265,1194.0
702.0,1.7110024367452332e+18,0.489556135770235,0.4269406392694064,0.3443243243243243,0.49938860357055515,0.643956043956044,0.4432296047098402,1197.0
703.0,1.7110024367552028e+18,0.47127937336814624,0.4189497716894977,0.3535135135135135,0.5077035950110051,0.6417582417582418,0.447434819175778,1195.0
704.0,1.7110024367652352e+18,0.4804177545691906,0.4132420091324201,0.3345945945945946,0.504035216434336,0.6318681318681318,0.4348191757779647,1196.0
705.0,1.7110024367752015e+18,0.46344647519582244,0.4121004566210046,0.3389189189189189,0.49767669356810956,0.589010989010989,0.43902439024390244,1195.0
706.0,1.711002436785275e+18,0.4869451697127937,0.4200913242009132,0.32594594594594595,0.5074590364392272,0.676923076923077,0.4415475189234651,1195.0
707.0,1.7110024367952563e+18,0.47911227154047,0.4417808219178082,0.36864864864864866,0.5025678650036683,0.589010989010989,0.43986543313709,1194.0
708.0,1.7110024368052255e+18,0.4699738903394256,0.3972602739726027,0.31675675675675674,0.5069699192956714,0.656043956043956,0.4339781328847771,1194.0
709.0,1.7110024368152018e+18,0.46866840731070497,0.410958904109589,0.32594594594594595,0.499877720714111,0.6153846153846154,0.4415475189234651,1195.0
710.0,1.7110024368252337e+18,0.48433420365535246,0.4052511415525114,0.32594594594594595,0.4988994864269993,0.6318681318681318,0.432296047098402,1193.0
711.0,1.711002436835202e+18,0.4725848563968668,0.4246575342465753,0.37351351351351353,0.5035460992907801,0.610989010989011,0.4432296047098402,1195.0
712.0,1.711002436845249e+18,0.48825065274151436,0.4143835616438356,0.32756756756756755,0.5011005135730008,0.6142857142857143,0.42977291841883936,1193.0
713.0,1.7110024368552005e+18,0.46475195822454307,0.4235159817351598,0.33945945945945943,0.5015896307165566,0.6076923076923076,0.43986543313709,1196.0
714.0,1.7110024368652273e+18,0.47780678851174935,0.3926940639269406,0.29945945945945945,0.49767669356810956,0.667032967032967,0.43986543313709,1196.0
715.0,1.7110024368752635e+18,0.4660574412532637,0.4417808219178082,0.3886486486486487,0.5118610907312301,0.634065934065934,0.4415475189234651,1193.0
716.0,1.7110024368852244e+18,0.4765013054830287,0.3995433789954338,0.31351351351351353,0.4944974321349963,0.6571428571428571,0.432296047098402,1193.0
717.0,1.7110024368952046e+18,0.4699738903394256,0.4189497716894977,0.3389189189189189,0.5035460992907801,0.6450549450549451,0.44238856181665265,1194.0
718.0,1.711002436905229e+18,0.47780678851174935,0.4143835616438356,0.33675675675675676,0.5011005135730008,0.6296703296703297,0.4339781328847771,1194.0
719.0,1.7110024369152026e+18,0.46475195822454307,0.4178082191780822,0.33837837837837836,0.5025678650036683,0.6230769230769231,0.4415475189234651,1193.0
720.0,1.7110024369252298e+18,0.47911227154047,0.4132420091324201,0.3345945945945946,0.5030569821472243,0.6373626373626373,0.43986543313709,1193.0
721.0,1.7110024369352015e+18,0.47127937336814624,0.3926940639269406,0.30972972972972973,0.4859378821227684,0.6153846153846154,0.4373423044575273,1194.0
722.0,1.7110024369452303e+18,0.4660574412532637,0.3926940639269406,0.3145945945945946,0.49645390070921985,0.654945054945055,0.4373423044575273,1194.0
723.0,1.711002436955201e+18,0.4660574412532637,0.4143835616438356,0.33405405405405403,0.5008559550012228,0.6153846153846154,0.4415475189234651,1195.0
724.0,1.7110024369652283e+18,0.4765013054830287,0.4063926940639269,0.32756756756756755,0.499877720714111,0.6175824175824176,0.4339781328847771,1191.0
725.0,1.7110024369752026e+18,0.47911227154047,0.4269406392694064,0.3427027027027027,0.5057471264367817,0.634065934065934,0.45248107653490327,1197.0
726.0,1.7110024369852273e+18,0.48172323759791125,0.4143835616438356,0.3172972972972973,0.499877720714111,0.6472527472527473,0.4381833473507149,1195.0
727.0,1.7110024369952046e+18,0.4595300261096606,0.4178082191780822,0.34054054054054056,0.5084372707263389,0.6681318681318681,0.4432296047098402,1194.0
728.0,1.7110024370052137e+18,0.4765013054830287,0.3938356164383562,0.31891891891891894,0.49205184641721694,0.5824175824175825,0.42977291841883936,1193.0
729.0,1.7110024370152673e+18,0.47780678851174935,0.4246575342465753,0.3481081081081081,0.49816581071166544,0.6076923076923076,0.4381833473507149,1194.0
730.0,1.7110024370252275e+18,0.49216710182767626,0.4098173515981735,0.3210810810810811,0.4996331621423331,0.6274725274725275,0.4415475189234651,1194.0
731.0,1.7110024370352666e+18,0.4699738903394256,0.4223744292237443,0.34864864864864864,0.5030569821472243,0.634065934065934,0.4449116904962153,1193.0
732.0,1.7110024370452242e+18,0.4765013054830287,0.408675799086758,0.3172972972972973,0.4937637564196625,0.6,0.4306139613120269,1191.0
733.0,1.7110024370552026e+18,0.47127937336814624,0.4178082191780822,0.34324324324324323,0.4996331621423331,0.5934065934065934,0.447434819175778,1194.0
734.0,1.7110024370652216e+18,0.4765013054830287,0.3949771689497717,0.31891891891891894,0.49498654927855223,0.6131868131868132,0.4339781328847771,1192.0
735.0,1.7110024370752015e+18,0.4765013054830287,0.4315068493150685,0.3691891891891892,0.5020787478601125,0.6582417582417582,0.4432296047098402,1193.0
736.0,1.7110024370852206e+18,0.46475195822454307,0.3904109589041096,0.3027027027027027,0.4859378821227684,0.6285714285714286,0.43313708999158956,1193.0
737.0,1.7110024370952038e+18,0.46866840731070497,0.4189497716894977,0.33837837837837836,0.5037906578625581,0.6274725274725275,0.4381833473507149,1197.0
738.0,1.7110024371052278e+18,0.48433420365535246,0.4246575342465753,0.36,0.4988994864269993,0.6208791208791209,0.4373423044575273,1193.0
739.0,1.7110024371152015e+18,0.47127937336814624,0.4337899543378995,0.35135135135135137,0.5050134507214478,0.6120879120879121,0.4381833473507149,1195.0
740.0,1.711002437125226e+18,0.4934725848563969,0.4360730593607306,0.35567567567567565,0.5018341892883346,0.6626373626373626,0.4314550042052145,1192.0
741.0,1.7110024371352023e+18,0.46866840731070497,0.4269406392694064,0.3410810810810811,0.4991440449987772,0.6065934065934065,0.4415475189234651,1193.0
742.0,1.7110024371452198e+18,0.47911227154047,0.4075342465753425,0.3345945945945946,0.5013450721447786,0.6296703296703297,0.43902439024390244,1195.0
743.0,1.7110024371552e+18,0.4725848563968668,0.4018264840182648,0.31891891891891894,0.49058449498654927,0.6120879120879121,0.4449116904962153,1193.0
744.0,1.7110024371652288e+18,0.4869451697127937,0.3858447488584475,0.2843243243243243,0.495720224993886,0.6274725274725275,0.4465937762825904,1193.0
745.0,1.7110024371752018e+18,0.47389033942558745,0.4178082191780822,0.3335135135135135,0.5033015407190022,0.6131868131868132,0.44575273338940286,1197.0
746.0,1.7110024371852285e+18,0.47911227154047,0.408675799086758,0.3286486486486486,0.5028124235754463,0.6329670329670329,0.44070647603027757,1197.0
747.0,1.7110024371952036e+18,0.46475195822454307,0.4235159817351598,0.3481081081081081,0.5001222792858889,0.6142857142857143,0.4432296047098402,1196.0
748.0,1.7110024372052262e+18,0.4804177545691906,0.3972602739726027,0.3091891891891892,0.4971875764245537,0.6087912087912087,0.43650126156433977,1195.0
749.0,1.711002437215201e+18,0.45691906005221933,0.3972602739726027,0.31513513513513514,0.5011005135730008,0.5956043956043956,0.44238856181665265,1195.0
750.0,1.7110024372252204e+18,0.47127937336814624,0.3961187214611872,0.31405405405405407,0.4937637564196625,0.6208791208791209,0.4314550042052145,1192.0
751.0,1.711002437235202e+18,0.4660574412532637,0.4098173515981735,0.3362162162162162,0.5006113964294449,0.6142857142857143,0.4440706476030278,1196.0
752.0,1.7110024372451858e+18,0.489556135770235,0.4189497716894977,0.3308108108108108,0.495964783565664,0.6142857142857143,0.4415475189234651,1194.0
753.0,1.711002437255202e+18,0.48172323759791125,0.4280821917808219,0.33837837837837836,0.5064808021521154,0.6197802197802198,0.44911690496215306,1197.0
754.0,1.7110024372652247e+18,0.48433420365535246,0.4155251141552511,0.31891891891891894,0.4974321349963316,0.6010989010989011,0.43650126156433977,1193.0
755.0,1.7110024372752026e+18,0.46866840731070497,0.4200913242009132,0.34162162162162163,0.49523110785033014,0.5879120879120879,0.4415475189234651,1193.0
756.0,1.7110024372852293e+18,0.4869451697127937,0.4212328767123288,0.37135135135135133,0.495964783565664,0.5747252747252747,0.4415475189234651,1193.0
757.0,1.7110024372952046e+18,0.4725848563968668,0.4349315068493151,0.37405405405405406,0.4996331621423331,0.6472527472527473,0.44911690496215306,1197.0
758.0,1.7110024373052296e+18,0.47911227154047,0.4041095890410959,0.3210810810810811,0.5008559550012228,0.6197802197802198,0.4381833473507149,1194.0
759.0,1.7110024373152113e+18,0.47127937336814624,0.4166666666666667,0.3372972972972973,0.5006113964294449,0.6098901098901099,0.43986543313709,1195.0
760.0,1.7110024373252332e+18,0.4908616187989556,0.4337899543378995,0.3497297297297297,0.5067253607238934,0.643956043956044,0.43986543313709,1195.0
761.0,1.7110024373352566e+18,0.46475195822454307,0.4121004566210046,0.33405405405405403,0.49498654927855223,0.5923076923076923,0.4381833473507149,1195.0
762.0,1.7110024373452285e+18,0.4830287206266319,0.4235159817351598,0.3372972972972973,0.5037906578625581,0.6483516483516484,0.43902439024390244,1193.0
763.0,1.7110024373552013e+18,0.47127937336814624,0.4189497716894977,0.3518918918918919,0.5064808021521154,0.6285714285714286,0.43986543313709,1195.0
764.0,1.7110024373652362e+18,0.47780678851174935,0.3995433789954338,0.3091891891891892,0.5001222792858889,0.6362637362637362,0.43566021867115223,1196.0
765.0,1.7110024373752018e+18,0.47780678851174935,0.4360730593607306,0.36864864864864866,0.5047688921496698,0.6285714285714286,0.447434819175778,1197.0
766.0,1.7110024373852355e+18,0.4869451697127937,0.4178082191780822,0.33405405405405403,0.5008559550012228,0.6373626373626373,0.43986543313709,1197.0
767.0,1.7110024373952056e+18,0.4765013054830287,0.4155251141552511,0.3372972972972973,0.5006113964294449,0.6208791208791209,0.4432296047098402,1194.0
768.0,1.7110024374052477e+18,0.4869451697127937,0.4098173515981735,0.31567567567567567,0.5062362435803375,0.6736263736263737,0.4415475189234651,1194.0
769.0,1.7110024374151862e+18,0.4830287206266319,0.4452054794520548,0.38,0.5028124235754463,0.5835164835164836,0.4465937762825904,1194.0
770.0,1.7110024374252232e+18,0.4830287206266319,0.3972602739726027,0.31675675675675674,0.5001222792858889,0.6395604395604395,0.43566021867115223,1195.0
771.0,1.7110024374352015e+18,0.47127937336814624,0.432648401826484,0.34702702702702704,0.5015896307165566,0.6087912087912087,0.4381833473507149,1196.0
772.0,1.711002437445241e+18,0.4765013054830287,0.3995433789954338,0.3124324324324324,0.508192712154561,0.7131868131868132,0.4381833473507149,1195.0
773.0,1.711002437455201e+18,0.4621409921671018,0.4178082191780822,0.3605405405405405,0.5074590364392272,0.6637362637362637,0.44238856181665265,1195.0
774.0,1.7110024374652244e+18,0.5039164490861618,0.4383561643835616,0.3691891891891892,0.5037906578625581,0.6758241758241759,0.44070647603027757,1194.0
775.0,1.7110024374752008e+18,0.45691906005221933,0.4098173515981735,0.33513513513513515,0.49767669356810956,0.5692307692307692,0.432296047098402,1191.0
776.0,1.7110024374852216e+18,0.48172323759791125,0.4052511415525114,0.3237837837837838,0.504524333577892,0.6703296703296703,0.44575273338940286,1197.0
777.0,1.7110024374952225e+18,0.4765013054830287,0.4372146118721461,0.3535135135135135,0.5096600635852286,0.578021978021978,0.4432296047098402,1194.0
778.0,1.7110024375052142e+18,0.4869451697127937,0.4474885844748858,0.3891891891891892,0.5059916850085595,0.7241758241758242,0.4432296047098402,1196.0
779.0,1.7110024375152023e+18,0.4595300261096606,0.4052511415525114,0.3372972972972973,0.49620934213744194,0.5923076923076923,0.4348191757779647,1196.0
780.0,1.7110024375252262e+18,0.49216710182767626,0.4235159817351598,0.34486486486486484,0.5008559550012228,0.6604395604395604,0.4373423044575273,1195.0
781.0,1.7110024375352018e+18,0.4699738903394256,0.4360730593607306,0.37675675675675674,0.5050134507214478,0.6263736263736264,0.4432296047098402,1195.0
782.0,1.7110024375452524e+18,0.4869451697127937,0.4018264840182648,0.3178378378378378,0.5028124235754463,0.6494505494505495,0.43986543313709,1196.0
783.0,1.7110024375552028e+18,0.45822454308093996,0.4098173515981735,0.34378378378378377,0.5057471264367817,0.6406593406593407,0.4381833473507149,1193.0
784.0,1.7110024375652372e+18,0.48172323759791125,0.4029680365296804,0.3172972972972973,0.4930300807043287,0.6296703296703297,0.43650126156433977,1193.0
785.0,1.7110024375752028e+18,0.47127937336814624,0.4269406392694064,0.3389189189189189,0.5103937393005625,0.6318681318681318,0.4482758620689655,1197.0
786.0,1.7110024375852298e+18,0.48172323759791125,0.4178082191780822,0.33783783783783783,0.5018341892883346,0.634065934065934,0.43902439024390244,1196.0
787.0,1.7110024375952026e+18,0.46866840731070497,0.4223744292237443,0.34,0.5015896307165566,0.6164835164835165,0.4415475189234651,1196.0
788.0,1.7110024376052142e+18,0.47127937336814624,0.4018264840182648,0.31891891891891894,0.4984103692834434,0.6274725274725275,0.4314550042052145,1193.0
789.0,1.7110024376152003e+18,0.45430809399477806,0.410958904109589,0.33675675675675676,0.4988994864269993,0.5879120879120879,0.4381833473507149,1194.0
790.0,1.7110024376252227e+18,0.4765013054830287,0.3995433789954338,0.3210810810810811,0.5015896307165566,0.6131868131868132,0.4339781328847771,1192.0
791.0,1.7110024376352026e+18,0.4621409921671018,0.4166666666666667,0.34594594594594597,0.5055025678650037,0.6186813186813187,0.4415475189234651,1194.0
792.0,1.7110024376452572e+18,0.4830287206266319,0.4098173515981735,0.34054054054054056,0.5047688921496698,0.6417582417582418,0.4449116904962153,1194.0
793.0,1.7110024376552e+18,0.45691906005221933,0.4132420091324201,0.31189189189189187,0.5020787478601125,0.6307692307692307,0.4432296047098402,1194.0
794.0,1.711002437665228e+18,0.4830287206266319,0.4041095890410959,0.31945945945945947,0.5035460992907801,0.6208791208791209,0.4289318755256518,1191.0
795.0,1.7110024376752026e+18,0.47127937336814624,0.4246575342465753,0.3605405405405405,0.4971875764245537,0.578021978021978,0.4415475189234651,1193.0
796.0,1.7110024376852268e+18,0.47780678851174935,0.4029680365296804,0.32756756756756755,0.491562729273661,0.5923076923076923,0.4339781328847771,1192.0
797.0,1.711002437695204e+18,0.46475195822454307,0.4200913242009132,0.3410810810810811,0.5025678650036683,0.6494505494505495,0.4373423044575273,1195.0
798.0,1.711002437705225e+18,0.4908616187989556,0.4121004566210046,0.3232432432432432,0.5001222792858889,0.6153846153846154,0.43313708999158956,1194.0
799.0,1.7110024377152023e+18,0.47127937336814624,0.4189497716894977,0.3464864864864865,0.499877720714111,0.610989010989011,0.4432296047098402,1195.0
800.0,1.711002437725224e+18,0.48433420365535246,0.4246575342465753,0.35243243243243244,0.5023233064318905,0.6681318681318681,0.43986543313709,1195.0
801.0,1.711002437735202e+18,0.46736292428198434,0.410958904109589,0.3389189189189189,0.4996331621423331,0.6461538461538462,0.44575273338940286,1195.0
802.0,1.711002437745233e+18,0.48172323759791125,0.4098173515981735,0.31891891891891894,0.49645390070921985,0.6131868131868132,0.43313708999158956,1192.0
803.0,1.7110024377552005e+18,0.4699738903394256,0.4246575342465753,0.34378378378378377,0.5020787478601125,0.610989010989011,0.4348191757779647,1196.0
804.0,1.7110024377652252e+18,0.49869451697127937,0.4406392694063927,0.39297297297297296,0.5072144778674492,0.689010989010989,0.4432296047098402,1196.0
805.0,1.7110024377752023e+18,0.46736292428198434,0.4212328767123288,0.35405405405405405,0.5055025678650037,0.6648351648351648,0.4482758620689655,1196.0
806.0,1.7110024377852465e+18,0.48172323759791125,0.4098173515981735,0.3216216216216216,0.4979212521398875,0.6395604395604395,0.4339781328847771,1193.0
807.0,1.711002437795203e+18,0.46736292428198434,0.4235159817351598,0.34378378378378377,0.5015896307165566,0.6120879120879121,0.4415475189234651,1196.0
808.0,1.711002437805223e+18,0.4856396866840731,0.4063926940639269,0.31891891891891894,0.5079481535827831,0.6428571428571429,0.43650126156433977,1196.0
809.0,1.711002437815201e+18,0.46475195822454307,0.4200913242009132,0.3518918918918919,0.5030569821472243,0.6142857142857143,0.44070647603027757,1195.0
810.0,1.7110024378252262e+18,0.4765013054830287,0.4029680365296804,0.3281081081081081,0.49767669356810956,0.6241758241758242,0.43313708999158956,1194.0
811.0,1.7110024378352061e+18,0.4765013054830287,0.454337899543379,0.4118918918918919,0.5057471264367817,0.6285714285714286,0.4449116904962153,1195.0
812.0,1.7110024378452431e+18,0.48433420365535246,0.4098173515981735,0.3318918918918919,0.5006113964294449,0.6197802197802198,0.4339781328847771,1192.0
813.0,1.7110024378552005e+18,0.47389033942558745,0.4269406392694064,0.33675675675675676,0.5025678650036683,0.5978021978021978,0.4415475189234651,1196.0
814.0,1.7110024378652247e+18,0.48172323759791125,0.4052511415525114,0.32054054054054054,0.49938860357055515,0.6065934065934065,0.4314550042052145,1193.0
815.0,1.7110024378752038e+18,0.4725848563968668,0.4155251141552511,0.34378378378378377,0.5028124235754463,0.6120879120879121,0.43902439024390244,1196.0
816.0,1.7110024378852357e+18,0.48433420365535246,0.4189497716894977,0.3227027027027027,0.5013450721447786,0.6131868131868132,0.43313708999158956,1192.0
817.0,1.7110024378952008e+18,0.4660574412532637,0.408675799086758,0.3372972972972973,0.5028124235754463,0.6230769230769231,0.43902439024390244,1195.0
818.0,1.7110024379052324e+18,0.489556135770235,0.432648401826484,0.34324324324324323,0.5025678650036683,0.634065934065934,0.4432296047098402,1193.0
819.0,1.7110024379152013e+18,0.47911227154047,0.4315068493150685,0.3675675675675676,0.4937637564196625,0.6296703296703297,0.4432296047098402,1196.0
820.0,1.7110024379252278e+18,0.47389033942558745,0.4041095890410959,0.31891891891891894,0.4969430178527757,0.6461538461538462,0.43566021867115223,1193.0
821.0,1.7110024379352765e+18,0.46736292428198434,0.4189497716894977,0.3681081081081081,0.5064808021521154,0.6296703296703297,0.4440706476030278,1195.0
822.0,1.7110024379452308e+18,0.4830287206266319,0.4075342465753425,0.3362162162162162,0.5035460992907801,0.6384615384615384,0.4415475189234651,1193.0
823.0,1.7110024379552023e+18,0.47911227154047,0.4292237442922374,0.3464864864864865,0.5006113964294449,0.6197802197802198,0.447434819175778,1194.0
824.0,1.711002437965229e+18,0.48172323759791125,0.4063926940639269,0.3237837837837838,0.4966984592809978,0.6329670329670329,0.4415475189234651,1196.0
825.0,1.7110024379752668e+18,0.4621409921671018,0.4075342465753425,0.3254054054054054,0.4930300807043287,0.5879120879120879,0.43986543313709,1196.0
826.0,1.711002437985238e+18,0.4804177545691906,0.3892694063926941,0.29567567567567565,0.5030569821472243,0.654945054945055,0.43650126156433977,1194.0
827.0,1.711002437995264e+18,0.4595300261096606,0.4132420091324201,0.3281081081081081,0.5006113964294449,0.6065934065934065,0.4373423044575273,1197.0
828.0,1.7110024380052308e+18,0.4830287206266319,0.4075342465753425,0.3286486486486486,0.5001222792858889,0.6274725274725275,0.4415475189234651,1194.0
829.0,1.7110024380152008e+18,0.47127937336814624,0.4132420091324201,0.33945945945945943,0.4991440449987772,0.610989010989011,0.43566021867115223,1193.0
830.0,1.7110024380252255e+18,0.47911227154047,0.4075342465753425,0.3362162162162162,0.495720224993886,0.6318681318681318,0.42977291841883936,1193.0
831.0,1.7110024380352038e+18,0.47127937336814624,0.4166666666666667,0.35405405405405405,0.5018341892883346,0.6,0.43986543313709,1197.0
832.0,1.711002438045221e+18,0.49477806788511747,0.4212328767123288,0.3324324324324324,0.49767669356810956,0.6142857142857143,0.4381833473507149,1198.0
833.0,1.711002438055201e+18,0.47389033942558745,0.4315068493150685,0.36648648648648646,0.5103937393005625,0.6362637362637362,0.4482758620689655,1196.0
834.0,1.7110024380652293e+18,0.4830287206266319,0.4098173515981735,0.3237837837837838,0.49229640498899485,0.5439560439560439,0.4289318755256518,1190.0
835.0,1.7110024380752008e+18,0.4765013054830287,0.4212328767123288,0.3248648648648649,0.5077035950110051,0.6208791208791209,0.4449116904962153,1192.0
836.0,1.7110024380852206e+18,0.4725848563968668,0.3961187214611872,0.3124324324324324,0.4969430178527757,0.6736263736263737,0.4381833473507149,1194.0
837.0,1.7110024380952026e+18,0.48172323759791125,0.4440639269406393,0.35567567567567565,0.5121056493030081,0.6230769230769231,0.44238856181665265,1194.0
838.0,1.711002438105229e+18,0.47911227154047,0.4098173515981735,0.33135135135135135,0.49474199070677427,0.6230769230769231,0.4415475189234651,1195.0
839.0,1.7110024381152015e+18,0.46736292428198434,0.4075342465753425,0.3362162162162162,0.5015896307165566,0.6450549450549451,0.4449116904962153,1195.0
840.0,1.711002438125229e+18,0.5,0.4349315068493151,0.3708108108108108,0.5074590364392272,0.656043956043956,0.4482758620689655,1195.0
841.0,1.7110024381352044e+18,0.4660574412532637,0.4212328767123288,0.3491891891891892,0.5023233064318905,0.6175824175824176,0.4415475189234651,1198.0
842.0,1.711002438145232e+18,0.48172323759791125,0.4052511415525114,0.32216216216216215,0.5028124235754463,0.6384615384615384,0.4381833473507149,1194.0
843.0,1.7110024381552026e+18,0.46475195822454307,0.3995433789954338,0.3210810810810811,0.5037906578625581,0.6494505494505495,0.4507989907485282,1196.0
844.0,1.7110024381652288e+18,0.47911227154047,0.4018264840182648,0.31891891891891894,0.49400831499144043,0.5945054945054945,0.4465937762825904,1195.0
845.0,1.7110024381752013e+18,0.4621409921671018,0.408675799086758,0.32756756756756755,0.5069699192956714,0.6472527472527473,0.4415475189234651,1195.0
846.0,1.7110024381852483e+18,0.49477806788511747,0.4429223744292237,0.3691891891891892,0.5015896307165566,0.6098901098901099,0.432296047098402,1193.0
847.0,1.711002438195202e+18,0.4765013054830287,0.4337899543378995,0.37567567567567567,0.5111274150158963,0.6857142857142857,0.4440706476030278,1195.0
848.0,1.7110024382052308e+18,0.48825065274151436,0.4075342465753425,0.3178378378378378,0.4991440449987772,0.6296703296703297,0.44238856181665265,1195.0
849.0,1.711002438215201e+18,0.46344647519582244,0.4143835616438356,0.33945945945945943,0.4996331621423331,0.6153846153846154,0.4415475189234651,1195.0
850.0,1.7110024382252362e+18,0.48825065274151436,0.4052511415525114,0.30324324324324325,0.4984103692834434,0.7021978021978021,0.4440706476030278,1196.0
851.0,1.7110024382352028e+18,0.4830287206266319,0.4360730593607306,0.34324324324324323,0.5020787478601125,0.6538461538461539,0.45500420521446594,1194.0
852.0,1.7110024382452344e+18,0.47911227154047,0.3995433789954338,0.3021621621621622,0.5062362435803375,0.6274725274725275,0.4348191757779647,1195.0
853.0,1.7110024382552015e+18,0.4660574412532637,0.408675799086758,0.312972972972973,0.4991440449987772,0.6142857142857143,0.4415475189234651,1196.0
854.0,1.711002438265238e+18,0.47780678851174935,0.4006849315068493,0.3043243243243243,0.495964783565664,0.6120879120879121,0.4381833473507149,1195.0
855.0,1.7110024382752013e+18,0.48172323759791125,0.4452054794520548,0.372972972972973,0.5089263878698949,0.6659340659340659,0.4482758620689655,1193.0
856.0,1.7110024382852419e+18,0.4830287206266319,0.4006849315068493,0.3108108108108108,0.4988994864269993,0.6362637362637362,0.4440706476030278,1195.0
857.0,1.7110024382952e+18,0.4765013054830287,0.4178082191780822,0.33837837837837836,0.5096600635852286,0.654945054945055,0.44911690496215306,1196.0
858.0,1.711002438305224e+18,0.49738903394255873,0.4178082191780822,0.3091891891891892,0.49498654927855223,0.621978021978022,0.4465937762825904,1196.0
859.0,1.7110024383152553e+18,0.4556135770234987,0.4006849315068493,0.3286486486486486,0.4969430178527757,0.6065934065934065,0.43650126156433977,1194.0
860.0,1.7110024383252483e+18,0.48825065274151436,0.4029680365296804,0.30648648648648646,0.4886280264123258,0.5857142857142857,0.43566021867115223,1194.0
861.0,1.7110024383352044e+18,0.47127937336814624,0.4292237442922374,0.35783783783783785,0.504524333577892,0.589010989010989,0.432296047098402,1193.0
862.0,1.711002438345219e+18,0.489556135770235,0.4006849315068493,0.30648648648648646,0.4969430178527757,0.6681318681318681,0.4373423044575273,1195.0
863.0,1.7110024383552036e+18,0.46866840731070497,0.4143835616438356,0.3362162162162162,0.4986549278552213,0.6120879120879121,0.44070647603027757,1197.0
864.0,1.7110024383652265e+18,0.4830287206266319,0.3926940639269406,0.31189189189189187,0.5047688921496698,0.6318681318681318,0.43902439024390244,1195.0
865.0,1.7110024383752054e+18,0.4699738903394256,0.4280821917808219,0.3708108108108108,0.4974321349963316,0.5846153846153846,0.43650126156433977,1193.0
866.0,1.7110024383852513e+18,0.4830287206266319,0.4132420091324201,0.30594594594594593,0.4979212521398875,0.5626373626373626,0.432296047098402,1195.0
867.0,1.711002438395201e+18,0.46866840731070497,0.430365296803653,0.3708108108108108,0.5033015407190022,0.6681318681318681,0.43986543313709,1196.0
868.0,1.7110024384052257e+18,0.47389033942558745,0.3995433789954338,0.32432432432432434,0.4966984592809978,0.5747252747252747,0.41968040370058873,1194.0
869.0,1.711002438415201e+18,0.46736292428198434,0.4280821917808219,0.3691891891891892,0.504035216434336,0.6516483516483517,0.44238856181665265,1197.0
870.0,1.7110024384252285e+18,0.4869451697127937,0.4166666666666667,0.3281081081081081,0.4971875764245537,0.6428571428571429,0.4449116904962153,1195.0
871.0,1.7110024384352655e+18,0.48172323759791125,0.4383561643835616,0.3621621621621622,0.5030569821472243,0.5945054945054945,0.44070647603027757,1198.0
872.0,1.711002438445222e+18,0.49738903394255873,0.4155251141552511,0.29243243243243244,0.504035216434336,0.6329670329670329,0.4482758620689655,1197.0
873.0,1.7110024384552018e+18,0.47911227154047,0.4337899543378995,0.3691891891891892,0.491562729273661,0.6,0.43902439024390244,1194.0
874.0,1.7110024384652383e+18,0.4804177545691906,0.4041095890410959,0.3108108108108108,0.5008559550012228,0.6571428571428571,0.43650126156433977,1196.0
875.0,1.7110024384752003e+18,0.4765013054830287,0.4200913242009132,0.3481081081081081,0.5077035950110051,0.6164835164835165,0.432296047098402,1193.0
876.0,1.71100243848523e+18,0.4621409921671018,0.4006849315068493,0.3362162162162162,0.5025678650036683,0.6362637362637362,0.43566021867115223,1196.0
877.0,1.7110024384952023e+18,0.4556135770234987,0.4098173515981735,0.32594594594594595,0.5055025678650037,0.6285714285714286,0.4415475189234651,1197.0
878.0,1.711002438505216e+18,0.4765013054830287,0.3938356164383562,0.28864864864864864,0.5059916850085595,0.6450549450549451,0.4440706476030278,1197.0
879.0,1.7110024385152008e+18,0.46866840731070497,0.4200913242009132,0.33675675675675676,0.5079481535827831,0.6,0.4415475189234651,1197.0
880.0,1.7110024385252265e+18,0.47780678851174935,0.4075342465753425,0.3254054054054054,0.5015896307165566,0.6285714285714286,0.43313708999158956,1193.0
881.0,1.7110024385352033e+18,0.4660574412532637,0.4166666666666667,0.33135135135135135,0.4969430178527757,0.610989010989011,0.4432296047098402,1197.0
882.0,1.7110024385452316e+18,0.5078328981723238,0.4189497716894977,0.3362162162162162,0.4986549278552213,0.5659340659340659,0.44238856181665265,1194.0
883.0,1.7110024385552015e+18,0.4621409921671018,0.4189497716894977,0.35081081081081084,0.5030569821472243,0.5692307692307692,0.43902439024390244,1196.0
884.0,1.7110024385652168e+18,0.48433420365535246,0.4052511415525114,0.3237837837837838,0.4988994864269993,0.6274725274725275,0.4415475189234651,1193.0
885.0,1.7110024385752732e+18,0.4725848563968668,0.4212328767123288,0.35405405405405405,0.5062362435803375,0.6318681318681318,0.4415475189234651,1196.0
886.0,1.71100243858522e+18,0.4804177545691906,0.4075342465753425,0.32756756756756755,0.4991440449987772,0.5923076923076923,0.43566021867115223,1197.0
887.0,1.7110024385952026e+18,0.4765013054830287,0.4520547945205479,0.3708108108108108,0.5101491807287846,0.6285714285714286,0.4440706476030278,1197.0
888.0,1.7110024386052262e+18,0.47780678851174935,0.4029680365296804,0.31891891891891894,0.5023233064318905,0.6505494505494506,0.4289318755256518,1192.0
889.0,1.711002438615202e+18,0.47127937336814624,0.4178082191780822,0.33405405405405403,0.5023233064318905,0.621978021978022,0.4415475189234651,1198.0
890.0,1.7110024386252255e+18,0.49738903394255873,0.4315068493150685,0.35135135135135137,0.5035460992907801,0.6824175824175824,0.4440706476030278,1195.0
891.0,1.7110024386352036e+18,0.4765013054830287,0.4360730593607306,0.3816216216216216,0.4986549278552213,0.5725274725274725,0.4415475189234651,1195.0
892.0,1.7110024386452265e+18,0.4830287206266319,0.4075342465753425,0.31351351351351353,0.5025678650036683,0.6274725274725275,0.4280908326324643,1194.0
893.0,1.7110024386552008e+18,0.46475195822454307,0.4166666666666667,0.34054054054054056,0.5047688921496698,0.6197802197802198,0.43902439024390244,1195.0
894.0,1.711002438665229e+18,0.48433420365535246,0.4018264840182648,0.31567567567567567,0.49645390070921985,0.6241758241758242,0.4381833473507149,1196.0
895.0,1.7110024386752018e+18,0.46736292428198434,0.4269406392694064,0.3762162162162162,0.4937637564196625,0.5560439560439561,0.4188393608074012,1190.0
896.0,1.7110024386852308e+18,0.4869451697127937,0.4417808219178082,0.33837837837837836,0.5033015407190022,0.6197802197802198,0.44070647603027757,1194.0
897.0,1.711002438695203e+18,0.4608355091383812,0.4121004566210046,0.3464864864864865,0.49938860357055515,0.6,0.4381833473507149,1198.0
898.0,1.71100243870523e+18,0.4869451697127937,0.4029680365296804,0.3145945945945946,0.5001222792858889,0.6428571428571429,0.4339781328847771,1193.0
899.0,1.7110024387152015e+18,0.46736292428198434,0.4178082191780822,0.33675675675675676,0.5072144778674492,0.6274725274725275,0.44575273338940286,1198.0
900.0,1.7110024387252288e+18,0.4830287206266319,0.4121004566210046,0.32756756756756755,0.5050134507214478,0.6912087912087912,0.4415475189234651,1195.0
901.0,1.7110024387352028e+18,0.4556135770234987,0.4098173515981735,0.3372972972972973,0.499877720714111,0.6186813186813187,0.43902439024390244,1193.0
902.0,1.7110024387452196e+18,0.47780678851174935,0.4041095890410959,0.33135135135135135,0.4974321349963316,0.6175824175824176,0.43650126156433977,1195.0
903.0,1.7110024387552044e+18,0.46866840731070497,0.4383561643835616,0.3518918918918919,0.5020787478601125,0.6153846153846154,0.43986543313709,1194.0
904.0,1.7110024387652268e+18,0.48433420365535246,0.3995433789954338,0.2913513513513514,0.4966984592809978,0.6098901098901099,0.4381833473507149,1193.0
905.0,1.711002438775206e+18,0.46866840731070497,0.4121004566210046,0.33297297297297296,0.5067253607238934,0.6252747252747253,0.4440706476030278,1195.0
906.0,1.7110024387852352e+18,0.47389033942558745,0.4121004566210046,0.3335135135135135,0.49645390070921985,0.6098901098901099,0.43313708999158956,1195.0
907.0,1.7110024387952018e+18,0.4556135770234987,0.410958904109589,0.33783783783783783,0.5008559550012228,0.6274725274725275,0.4306139613120269,1193.0
908.0,1.7110024388052288e+18,0.489556135770235,0.410958904109589,0.3145945945945946,0.5033015407190022,0.6318681318681318,0.4415475189234651,1197.0
909.0,1.7110024388152013e+18,0.4765013054830287,0.4280821917808219,0.3356756756756757,0.5025678650036683,0.5967032967032967,0.43902439024390244,1196.0
910.0,1.7110024388252314e+18,0.4804177545691906,0.410958904109589,0.3308108108108108,0.495720224993886,0.5857142857142857,0.43566021867115223,1194.0
911.0,1.7110024388352005e+18,0.47127937336814624,0.4178082191780822,0.3318918918918919,0.5037906578625581,0.6065934065934065,0.4432296047098402,1196.0
912.0,1.7110024388452314e+18,0.4869451697127937,0.4132420091324201,0.32216216216216215,0.49474199070677427,0.6076923076923076,0.43902439024390244,1197.0
913.0,1.7110024388551997e+18,0.47389033942558745,0.4189497716894977,0.33135135135135135,0.5023233064318905,0.5989010989010989,0.4432296047098402,1196.0
914.0,1.711002438865235e+18,0.48172323759791125,0.3949771689497717,0.3037837837837838,0.5055025678650037,0.6351648351648351,0.4339781328847771,1191.0
915.0,1.7110024388751997e+18,0.46866840731070497,0.4178082191780822,0.3362162162162162,0.4954756664221081,0.5868131868131868,0.43902439024390244,1194.0
916.0,1.7110024388852378e+18,0.4765013054830287,0.3984018264840183,0.31189189189189187,0.48936170212765956,0.6021978021978022,0.42977291841883936,1194.0
917.0,1.711002438895204e+18,0.46344647519582244,0.4212328767123288,0.34486486486486484,0.4988994864269993,0.6021978021978022,0.44238856181665265,1194.0
918.0,1.7110024389052134e+18,0.48172323759791125,0.3938356164383562,0.30648648648648646,0.4988994864269993,0.656043956043956,0.4415475189234651,1196.0
919.0,1.7110024389152023e+18,0.47389033942558745,0.4200913242009132,0.36,0.5057471264367817,0.6472527472527473,0.43986543313709,1195.0
920.0,1.711002438925241e+18,0.47389033942558745,0.3926940639269406,0.32594594594594595,0.5059916850085595,0.7175824175824176,0.432296047098402,1193.0
921.0,1.7110024389352988e+18,0.4765013054830287,0.4189497716894977,0.35567567567567565,0.5020787478601125,0.6076923076923076,0.4381833473507149,1195.0
922.0,1.7110024389452564e+18,0.47780678851174935,0.4132420091324201,0.35783783783783785,0.48691611640988014,0.6197802197802198,0.43650126156433977,1197.0
923.0,1.7110024389552568e+18,0.46475195822454307,0.4178082191780822,0.3308108108108108,0.5064808021521154,0.6296703296703297,0.44238856181665265,1196.0
924.0,1.7110024389652244e+18,0.489556135770235,0.4132420091324201,0.3178378378378378,0.5030569821472243,0.6505494505494506,0.43902439024390244,1197.0
925.0,1.711002438975202e+18,0.4595300261096606,0.4075342465753425,0.3281081081081081,0.48985081927121543,0.5571428571428572,0.4238856181665265,1194.0
926.0,1.7110024389852232e+18,0.4765013054830287,0.3926940639269406,0.3054054054054054,0.495964783565664,0.6076923076923076,0.4348191757779647,1197.0
927.0,1.711002438995187e+18,0.46344647519582244,0.4178082191780822,0.3410810810810811,0.5008559550012228,0.5978021978021978,0.44238856181665265,1197.0
928.0,1.711002439005216e+18,0.4830287206266319,0.408675799086758,0.31945945945945947,0.5099046221570066,0.6450549450549451,0.43986543313709,1197.0
929.0,1.7110024390152018e+18,0.46475195822454307,0.4041095890410959,0.3124324324324324,0.48495964783565665,0.5538461538461539,0.4381833473507149,1195.0
930.0,1.7110024390252255e+18,0.4869451697127937,0.4018264840182648,0.32432432432432434,0.4986549278552213,0.6571428571428571,0.43313708999158956,1195.0
931.0,1.7110024390352005e+18,0.4751958224543081,0.4189497716894977,0.3237837837837838,0.5172413793103449,0.7065934065934066,0.45248107653490327,1194.0
932.0,1.711002439045263e+18,0.49216710182767626,0.4200913242009132,0.34054054054054056,0.4988994864269993,0.654945054945055,0.4415475189234651,1196.0
933.0,1.7110024390552e+18,0.46475195822454307,0.4212328767123288,0.33945945945945943,0.49938860357055515,0.5604395604395604,0.4381833473507149,1194.0
934.0,1.7110024390652306e+18,0.48433420365535246,0.4041095890410959,0.2972972972972973,0.5086818292981169,0.6901098901098901,0.4348191757779647,1195.0
935.0,1.7110024390752023e+18,0.45822454308093996,0.4063926940639269,0.33135135135135135,0.4986549278552213,0.6065934065934065,0.4272497897392767,1193.0
936.0,1.7110024390852275e+18,0.489556135770235,0.4155251141552511,0.3427027027027027,0.5013450721447786,0.6527472527472528,0.4432296047098402,1196.0
937.0,1.711002439095202e+18,0.47127937336814624,0.4178082191780822,0.34216216216216216,0.5074590364392272,0.689010989010989,0.447434819175778,1196.0
938.0,1.7110024391052275e+18,0.4908616187989556,0.4235159817351598,0.3481081081081081,0.5094155050134507,0.6648351648351648,0.44238856181665265,1194.0
939.0,1.7110024391152023e+18,0.4621409921671018,0.4155251141552511,0.35243243243243244,0.5113719735876743,0.6714285714285714,0.447434819175778,1196.0
940.0,1.7110024391252234e+18,0.48172323759791125,0.4018264840182648,0.3081081081081081,0.5160185864514552,0.7593406593406593,0.447434819175778,1198.0
941.0,1.711002439135202e+18,0.45822454308093996,0.4052511415525114,0.31405405405405407,0.504035216434336,0.6494505494505495,0.4482758620689655,1196.0
942.0,1.7110024391452316e+18,0.4869451697127937,0.4052511415525114,0.3372972972972973,0.4991440449987772,0.6362637362637362,0.4415475189234651,1195.0
943.0,1.7110024391552015e+18,0.4830287206266319,0.4554794520547945,0.40756756756756757,0.5099046221570066,0.6329670329670329,0.45248107653490327,1197.0
944.0,1.7110024391652234e+18,0.48433420365535246,0.408675799086758,0.32054054054054054,0.4996331621423331,0.6362637362637362,0.43566021867115223,1196.0
945.0,1.7110024391752026e+18,0.46736292428198434,0.4178082191780822,0.34594594594594597,0.5037906578625581,0.5846153846153846,0.43566021867115223,1195.0
946.0,1.7110024391852224e+18,0.48825065274151436,0.410958904109589,0.3335135135135135,0.499877720714111,0.6098901098901099,0.4339781328847771,1193.0
947.0,1.711002439195201e+18,0.46736292428198434,0.4280821917808219,0.3362162162162162,0.5094155050134507,0.6582417582417582,0.4415475189234651,1195.0
948.0,1.71100243920522e+18,0.47911227154047,0.408675799086758,0.31513513513513514,0.5067253607238934,0.6582417582417582,0.43902439024390244,1196.0
949.0,1.7110024392152013e+18,0.4660574412532637,0.3972602739726027,0.30972972972972973,0.4988994864269993,0.6010989010989011,0.4415475189234651,1195.0
950.0,1.7110024392252252e+18,0.46866840731070497,0.3915525114155251,0.312972972972973,0.5101491807287846,0.6120879120879121,0.4289318755256518,1193.0
951.0,1.7110024392352054e+18,0.47911227154047,0.4417808219178082,0.3924324324324324,0.5143066764490095,0.6505494505494506,0.4432296047098402,1196.0
952.0,1.7110024392452462e+18,0.49216710182767626,0.3995433789954338,0.30648648648648646,0.5035460992907801,0.6725274725274726,0.4432296047098402,1196.0
953.0,1.7110024392551926e+18,0.4765013054830287,0.4315068493150685,0.3589189189189189,0.5015896307165566,0.5923076923076923,0.4415475189234651,1195.0
954.0,1.7110024392652247e+18,0.4765013054830287,0.4075342465753425,0.3302702702702703,0.49767669356810956,0.5945054945054945,0.42977291841883936,1193.0
955.0,1.7110024392752013e+18,0.46475195822454307,0.4063926940639269,0.31135135135135134,0.5103937393005625,0.6802197802197802,0.44911690496215306,1194.0
956.0,1.7110024392852268e+18,0.47780678851174935,0.4018264840182648,0.3178378378378378,0.49474199070677427,0.5615384615384615,0.43566021867115223,1195.0
957.0,1.7110024392952044e+18,0.46344647519582244,0.410958904109589,0.3254054054054054,0.5035460992907801,0.6098901098901099,0.43650126156433977,1195.0
958.0,1.7110024393052216e+18,0.4869451697127937,0.4143835616438356,0.35405405405405405,0.5015896307165566,0.6208791208791209,0.4348191757779647,1195.0
959.0,1.7110024393152018e+18,0.47127937336814624,0.4178082191780822,0.3232432432432432,0.49816581071166544,0.5824175824175825,0.4482758620689655,1197.0
960.0,1.7110024393252224e+18,0.4725848563968668,0.3961187214611872,0.31189189189189187,0.5037906578625581,0.6802197802197802,0.43313708999158956,1193.0
961.0,1.7110024393352568e+18,0.46866840731070497,0.4178082191780822,0.31027027027027027,0.5077035950110051,0.6923076923076923,0.43986543313709,1196.0
962.0,1.7110024393452452e+18,0.48825065274151436,0.4269406392694064,0.3286486486486486,0.5089263878698949,0.6593406593406593,0.4432296047098402,1197.0
963.0,1.7110024393552033e+18,0.4608355091383812,0.408675799086758,0.34054054054054056,0.49816581071166544,0.6153846153846154,0.4381833473507149,1196.0
964.0,1.711002439365226e+18,0.47780678851174935,0.4155251141552511,0.3362162162162162,0.504035216434336,0.6945054945054945,0.4415475189234651,1196.0
965.0,1.7110024393752e+18,0.46736292428198434,0.4189497716894977,0.3232432432432432,0.4984103692834434,0.5934065934065934,0.43902439024390244,1197.0
966.0,1.711002439385226e+18,0.4804177545691906,0.4121004566210046,0.31891891891891894,0.4969430178527757,0.5813186813186814,0.43902439024390244,1197.0
967.0,1.7110024393952015e+18,0.4725848563968668,0.4315068493150685,0.3654054054054054,0.5030569821472243,0.589010989010989,0.43650126156433977,1197.0
968.0,1.7110024394052452e+18,0.4725848563968668,0.4052511415525114,0.3178378378378378,0.499877720714111,0.5769230769230769,0.4247266610597141,1192.0
969.0,1.7110024394152013e+18,0.47780678851174935,0.4280821917808219,0.3362162162162162,0.5064808021521154,0.6186813186813187,0.4415475189234651,1196.0
970.0,1.7110024394252252e+18,0.4804177545691906,0.3972602739726027,0.3172972972972973,0.5011005135730008,0.6021978021978022,0.4381833473507149,1196.0
971.0,1.7110024394352026e+18,0.46866840731070497,0.4166666666666667,0.34054054054054056,0.49816581071166544,0.5967032967032967,0.4381833473507149,1195.0
972.0,1.7110024394452385e+18,0.4765013054830287,0.3961187214611872,0.31027027027027027,0.49767669356810956,0.6120879120879121,0.42977291841883936,1193.0
973.0,1.7110024394552013e+18,0.45822454308093996,0.4029680365296804,0.31891891891891894,0.5062362435803375,0.6098901098901099,0.4449116904962153,1196.0
974.0,1.7110024394652273e+18,0.48172323759791125,0.4075342465753425,0.3254054054054054,0.5025678650036683,0.6197802197802198,0.4381833473507149,1196.0
975.0,1.7110024394752015e+18,0.47127937336814624,0.4200913242009132,0.33297297297297296,0.5011005135730008,0.6274725274725275,0.4482758620689655,1193.0
976.0,1.7110024394852242e+18,0.46866840731070497,0.3926940639269406,0.3021621621621622,0.5084372707263389,0.7120879120879121,0.4373423044575273,1196.0
977.0,1.7110024394952238e+18,0.47911227154047,0.4212328767123288,0.3427027027027027,0.49474199070677427,0.6065934065934065,0.4314550042052145,1194.0
978.0,1.7110024395052155e+18,0.4830287206266319,0.4132420091324201,0.3372972972972973,0.5013450721447786,0.6351648351648351,0.43566021867115223,1195.0
979.0,1.7110024395152015e+18,0.4765013054830287,0.4223744292237443,0.34162162162162163,0.5111274150158963,0.6802197802197802,0.4499579478553406,1194.0
980.0,1.711002439525217e+18,0.4830287206266319,0.4018264840182648,0.2881081081081081,0.5015896307165566,0.610989010989011,0.43986543313709,1197.0
981.0,1.711002439535199e+18,0.47911227154047,0.4178082191780822,0.3362162162162162,0.49816581071166544,0.6098901098901099,0.4381833473507149,1195.0
982.0,1.7110024395452406e+18,0.4830287206266319,0.4098173515981735,0.32756756756756755,0.5001222792858889,0.6054945054945055,0.43566021867115223,1196.0
983.0,1.7110024395552028e+18,0.47780678851174935,0.4257990867579909,0.3318918918918919,0.5074590364392272,0.6318681318681318,0.4432296047098402,1198.0
984.0,1.7110024395652352e+18,0.489556135770235,0.4098173515981735,0.32216216216216215,0.5064808021521154,0.6417582417582418,0.4415475189234651,1197.0
985.0,1.7110024395752015e+18,0.47389033942558745,0.4452054794520548,0.36648648648648646,0.5015896307165566,0.5659340659340659,0.4440706476030278,1196.0
986.0,1.7110024395852247e+18,0.47911227154047,0.410958904109589,0.33297297297297296,0.499877720714111,0.6065934065934065,0.43986543313709,1198.0
987.0,1.7110024395952054e+18,0.46866840731070497,0.4269406392694064,0.35945945945945945,0.5035460992907801,0.5923076923076923,0.43986543313709,1196.0
988.0,1.711002439605223e+18,0.4725848563968668,0.3949771689497717,0.31675675675675674,0.4969430178527757,0.6241758241758242,0.43650126156433977,1194.0
989.0,1.7110024396152008e+18,0.46475195822454307,0.4006849315068493,0.2918918918918919,0.4988994864269993,0.5835164835164836,0.42977291841883936,1193.0
990.0,1.7110024396252242e+18,0.4765013054830287,0.4006849315068493,0.31675675675675674,0.4966984592809978,0.6318681318681318,0.4348191757779647,1196.0
991.0,1.7110024396352005e+18,0.46475195822454307,0.4269406392694064,0.3589189189189189,0.4937637564196625,0.6120879120879121,0.4348191757779647,1196.0
992.0,1.7110024396452262e+18,0.48433420365535246,0.4098173515981735,0.3302702702702703,0.5023233064318905,0.6329670329670329,0.4449116904962153,1196.0
993.0,1.711002439655203e+18,0.46736292428198434,0.4292237442922374,0.36162162162162165,0.49938860357055515,0.6153846153846154,0.4415475189234651,1197.0
994.0,1.7110024396652283e+18,0.48825065274151436,0.4166666666666667,0.32972972972972975,0.49058449498654927,0.5758241758241758,0.43902439024390244,1195.0
995.0,1.711002439675201e+18,0.47127937336814624,0.4143835616438356,0.3389189189189189,0.5015896307165566,0.6065934065934065,0.4381833473507149,1195.0
996.0,1.7110024396852303e+18,0.47911227154047,0.4178082191780822,0.3237837837837838,0.4937637564196625,0.5835164835164836,0.4339781328847771,1194.0
997.0,1.7110024396952033e+18,0.47780678851174935,0.4269406392694064,0.35567567567567565,0.49938860357055515,0.589010989010989,0.4381833473507149,1196.0
998.0,1.711002439705236e+18,0.49216710182767626,0.4121004566210046,0.3264864864864865,0.5018341892883346,0.5659340659340659,0.44070647603027757,1197.0
999.0,1.7110024397152018e+18,0.46866840731070497,0.4189497716894977,0.3362162162162162,0.5191978478845684,0.7428571428571429,0.4449116904962153,1195.0
1000.0,1.7110024397252344e+18,0.4765013054830287,0.3949771689497717,0.3145945945945946,0.5020787478601125,0.6681318681318681,0.44575273338940286,1195.0
