seq,time,data[0],data[1],data[2],data[3],data[4],data[5],data[6]
201,1710302295123890373,2046,2096,2045,2053,2057,2049,1197
202,1710302295133893081,2062,2015,2069,2039,2044,2060,1196
203,1710302295143893745,2042,2086,2043,2064,2057,2045,1193
204,1710302295153907554,2064,2024,2061,2052,2044,2056,1198
205,1710302295163894192,2047,2078,2012,2066,2050,2045,1195
206,1710302295173891760,2064,2024,2067,2062,2040,2060,1198
207,1710302295183891512,2048,2086,2048,2077,2060,2045,1194
208,1710302295193901564,2068,2021,2057,2052,2045,2061,1196
209,1710302295203904752,2044,2082,2043,2069,2060,2045,1194
210,1710302295213900067,2066,2020,2038,2032,2045,2065,1197
211,1710302295223894870,2047,2093,2032,2062,2062,2047,1195
212,1710302295233896455,2064,2021,2065,2049,2043,2058,1196
213,1710302295243894084,2046,2088,2050,2060,2050,2047,1194
214,1710302295253894688,2070,2025,2069,2037,2047,2061,1197
215,1710302295263893789,2049,2085,2058,2056,2058,2045,1196
216,1710302295273892610,2063,2026,2072,2065,2050,2060,1198
217,1710302295283896550,2047,2092,2034,2062,2063,2047,1194
218,1710302295293898837,2062,2014,2066,2052,2056,2061,1198
219,1710302295303894261,2048,2088,2047,2061,2060,2045,1193
220,1710302295313897320,2067,2023,2056,2050,2047,2060,1199
221,1710302295323892323,2045,2093,2058,2053,2059,2048,1196
222,1710302295333892536,2061,2016,2061,2049,2045,2061,1197
223,1710302295343893521,2051,2085,2040,2065,2061,2048,1195
224,1710302295353895537,2063,2025,2066,2056,2050,2061,1196
225,1710302295363896221,2044,2073,2043,2048,2063,2046,1195
226,1710302295373896755,2070,2019,2069,2060,2054,2064,1196
227,1710302295383898281,2044,2084,2036,2048,2046,2046,1193
228,1710302295393895128,2073,2021,2066,2057,2052,2063,1198
229,1710302295403897505,2046,2084,2032,2065,2059,2045,1195
230,1710302295413895494,2064,2017,2066,2042,2042,2055,1196
231,1710302295423895707,2048,2096,2061,2059,2060,2052,1197
232,1710302295433892554,2066,2025,2061,2061,2052,2060,1197
233,1710302295443903698,2047,2080,2043,2061,2060,2048,1196
234,1710302295453893111,2059,2022,2069,2056,2053,2060,1196
235,1710302295463890118,2044,2081,2037,2013,2047,2045,1194
236,1710302295473896313,2065,2027,2068,2049,2045,2061,1196
237,1710302295483892578,2045,2082,2049,2061,2062,2044,1195
238,1710302295493895397,2072,2029,2109,2047,2048,2061,1197
239,1710302295503892784,2047,2083,2043,2063,2056,2047,1193
240,1710302295513892667,2057,2033,2079,2057,2044,2061,1197
241,1710302295523893331,2048,2078,2050,2072,2061,2045,1196
242,1710302295533915255,2066,2021,2065,2050,2040,2064,1197
243,1710302295543890541,2043,2080,2038,2056,2056,2045,1193
244,1710302295553894591,2066,2027,2069,2047,2049,2060,1193
245,1710302295563893622,2039,2083,2045,2056,2057,2048,1195
246,1710302295573897012,2066,2023,2059,2042,2050,2058,1197
247,1710302295583896323,2045,2084,2037,2072,2057,2049,1195
248,1710302295593896085,2067,2024,2078,2060,2042,2061,1195
249,1710302295603894144,2041,2085,2052,2089,2073,2048,1196
250,1710302295613895340,2070,2023,2069,2061,2043,2058,1195
251,1710302295623893148,2041,2080,2041,2064,2058,2048,1196
252,1710302295633892290,2068,2032,2117,2048,2046,2060,1195
253,1710302295643892803,2042,2082,2039,2068,2061,2046,1193
254,1710302295653892996,2065,2024,2073,2052,2044,2064,1195
255,1710302295663889263,2047,2088,2043,2046,2064,2052,1196
256,1710302295673892411,2066,2029,2075,2051,2047,2058,1196
257,1710302295683896682,2050,2082,2038,2064,2064,2048,1195
258,1710302295693897486,2064,2028,2068,2050,2046,2062,1196
259,1710302295703892500,2045,2082,2045,2058,2061,2047,1193
260,1710302295713906539,2074,2021,2066,2029,2046,2056,1198
261,1710302295723893086,2049,2080,2040,2054,2060,2045,1194
262,1710302295733914219,2061,2028,2090,2052,2048,2061,1197
263,1710302295743898622,2045,2078,2047,2049,2055,2050,1195
264,1710302295753893365,2069,2022,2066,2045,2048,2062,1198
265,1710302295763894891,2042,2081,2037,2075,2061,2047,1195
266,1710302295773895024,2069,2024,2070,2068,2052,2059,1200
267,1710302295783901449,2041,2078,2043,2073,2052,2045,1194
268,1710302295793898987,2066,2026,2072,2057,2037,2061,1198
269,1710302295803895563,2043,2076,2031,2073,2064,2046,1194
270,1710302295813898040,2061,2024,2065,2056,2046,2062,1197
271,1710302295823896069,2042,2075,2030,2056,2049,2046,1196
272,1710302295833897375,2068,2025,2075,2050,2042,2060,1196
273,1710302295843896716,2044,2081,2033,2047,2056,2048,1196
274,1710302295853892872,2071,2028,2072,2076,2050,2063,1199
275,1710302295863894869,2045,2076,2037,2059,2013,2042,1195
276,1710302295873897116,2061,2017,2068,2055,2051,2060,1196
277,1710302295883895055,2046,2083,2040,2057,2056,2047,1192
278,1710302295893895328,2060,2017,2054,2057,2043,2058,1196
279,1710302295903895151,2047,2093,2036,2056,2059,2045,1193
280,1710302295913895464,2063,2016,2052,2049,2046,2060,1196
281,1710302295923897190,2046,2072,2044,2029,2060,2050,1197
282,1710302295933897273,2057,2015,2058,2043,2043,2058,1196
283,1710302295943894510,2037,2042,2024,2057,2056,2048,1199
284,1710302295953895305,2069,2032,2080,2039,2046,2040,1193
285,1710302295963895107,2047,2075,2035,2058,2018,2044,1194
286,1710302295973895551,2053,2020,2049,2047,2045,2059,1198
287,1710302295983896505,2048,2090,2032,2067,2061,2047,1193
288,1710302295993895997,2069,2024,2056,2036,2046,2056,1198
289,1710302296003894066,2045,2079,2004,2057,2061,2049,1196
290,1710302296013896674,2067,2030,2104,2069,2048,2060,1195
291,1710302296023894543,2044,2077,2032,2066,2056,2041,1191
292,1710302296033894065,2063,2045,2069,2034,2049,2049,1194
293,1710302296043895250,2044,2078,2034,2056,2052,2043,1193
294,1710302296053893239,2070,2021,2072,2032,2047,2059,1197
295,1710302296063892671,2042,2077,2052,2065,2060,2044,1194
296,1710302296073896291,2060,2021,2066,2042,2049,2061,1197
297,1710302296083894010,2042,2088,2034,2046,2052,2047,1195
298,1710302296093894143,2073,2042,2144,2050,2057,2062,1196
299,1710302296103896781,2049,2084,2035,2064,2057,2047,1194
300,1710302296113893968,2068,2030,2052,2057,2049,2060,1198
301,1710302296123894292,2043,2085,2054,2061,2052,2051,1196
302,1710302296133893774,2066,2025,2039,2056,2051,2060,1197
303,1710302296143897144,2044,2082,2086,2033,2042,2043,1194
304,1710302296153893329,2064,2029,2068,2049,2045,2061,1195
305,1710302296163894003,2048,2112,2046,2085,2061,2051,1197
306,1710302296173893786,2065,2028,2052,2082,2033,2056,1196
307,1710302296183892346,2047,2075,2024,2052,2063,2045,1194
308,1710302296193895475,2064,2024,2063,2021,2064,2060,1197
309,1710302296203894546,2046,2077,2062,2066,2061,2046,1197
310,1710302296213895150,2068,2041,2168,2064,2048,2060,1195
311,1710302296223896476,2046,2076,2029,2105,2078,2052,1196
312,1710302296233898262,2064,2011,2054,2037,2029,2052,1197
313,1710302296243893366,2046,2073,2054,2104,2080,2046,1194
314,1710302296253892888,2061,2028,2073,2116,2073,2064,1196
315,1710302296263894855,2042,2081,2058,2095,2067,2050,1197
316,1710302296273895499,2063,2011,2052,2076,2058,2061,1196
317,1710302296283892596,2044,2081,2036,2082,2057,2049,1194
318,1710302296293892298,2063,2024,2069,2043,2056,2062,1197
319,1710302296303892212,2053,2098,2112,2077,2064,2051,1196
320,1710302296313892956,2064,2030,2068,2052,2052,2056,1198
321,1710302296323892428,2046,2076,2031,2073,2053,2049,1197
322,1710302296333899193,2066,2029,2075,2077,2052,2061,1195
323,1710302296343895349,2042,2084,2091,2065,2060,2050,1197
324,1710302296353897195,2069,2028,2056,2050,2033,2055,1196
325,1710302296363894714,2044,2083,2041,2039,2048,2046,1192
326,1710302296373899706,2069,2037,2102,2046,2044,2057,1196
327,1710302296383899839,2046,2078,2053,2070,2046,2047,1193
328,1710302296393895914,2065,2026,2066,2051,2054,2061,1196
329,1710302296403895187,2042,2074,2036,2030,2038,2045,1192
330,1710302296413896272,2068,2028,2070,2053,2048,2061,1196
331,1710302296423896244,2041,2076,2050,2031,2050,2044,1195
332,1710302296433895917,2068,2030,2080,2029,2021,2052,1196
333,1710302296443896450,2049,2080,2054,2061,2055,2045,1191
334,1710302296453896744,2067,2038,2073,2043,2051,2058,1196
335,1710302296463903660,2044,2067,2053,2033,2040,2044,1193
336,1710302296473897001,2066,2018,2064,2018,2033,2056,1196
337,1710302296483897544,2046,2065,2041,2070,2053,2043,1195
338,1710302296493898439,2062,2034,2077,2106,2058,2060,1196
339,1710302296503898011,2050,2084,2054,2077,2058,2051,1198
340,1710302296513899487,2065,2035,2064,2065,2042,2060,1196
341,1710302296523899360,2043,2069,2008,2084,2059,2048,1196
342,1710302296533898952,2065,2030,2061,2056,2056,2058,1197
343,1710302296543899596,2046,2072,2048,2064,2061,2050,1194
344,1710302296553899729,2068,2024,2055,2050,2046,2056,1196
345,1710302296563899872,2046,2076,2042,2048,2067,2049,1196
346,1710302296573900156,2062,2026,2069,2069,2041,2056,1196
347,1710302296583900850,2049,2074,2043,2052,2056,2049,1197
348,1710302296593900763,2064,2032,2064,2052,2052,2058,1195
349,1710302296603901056,2049,2072,2052,2072,2064,2054,1196
350,1710302296613902282,2070,2034,2063,2041,2049,2061,1194
351,1710302296623940056,2049,2075,2039,2072,2064,2052,1196
352,1710302296633939819,2058,2033,2062,2077,2044,2061,1194
353,1710302296643942006,2047,2076,2040,2043,2061,2047,1193
354,1710302296653941167,2065,2031,2062,2050,2050,2056,1195
355,1710302296663941570,2046,2072,2044,2061,2057,2052,1198
356,1710302296673941734,2062,2034,2059,2092,2075,2057,1196
357,1710302296683941767,2047,2066,2047,2056,2057,2048,1196
358,1710302296693942301,2062,2036,2066,2042,2054,2054,1198
359,1710302296703942675,2045,2074,2045,2052,2051,2051,1196
360,1710302296713943208,2060,2034,2030,2065,2064,2060,1198
361,1710302296723948772,2053,2064,2037,2062,2060,2050,1197
362,1710302296733944527,2060,2034,2065,2076,2050,2057,1198
363,1710302296743943989,2050,2073,2056,2079,2057,2050,1195
364,1710302296753944603,2057,2036,2064,2100,2059,2060,1195
365,1710302296763945227,2054,2072,2045,2058,2058,2060,1196
366,1710302296773944749,2066,2040,2062,2055,2055,2060,1195
367,1710302296783930415,2048,2072,2046,2058,2064,2051,1195
368,1710302296793930128,2064,2034,2070,2056,2061,2065,1197
369,1710302296803928387,2041,2058,2037,2090,2055,2044,1192
370,1710302296813929612,2059,2032,2063,2038,2043,2056,1196
371,1710302296823929865,2049,2066,2042,2084,2057,2045,1193
372,1710302296833929418,2060,2034,2052,2084,2068,2053,1198
373,1710302296843927708,2051,2073,2060,2073,2058,2050,1196
374,1710302296853927631,2064,2033,2069,2060,2052,2056,1196
375,1710302296863926982,2049,2079,2054,2053,2080,2050,1196
376,1710302296873926664,2058,2036,2065,2056,2053,2058,1196
377,1710302296883924834,2049,2072,2060,2062,2055,2052,1197
378,1710302296893924596,2062,2037,2063,2042,2047,2057,1198
379,1710302296903925692,2057,2096,2046,2069,2064,2051,1197
380,1710302296913925194,2065,2040,2054,2057,2053,2056,1198
381,1710302296923922752,2045,2056,2033,2075,2062,2048,1197
382,1710302296933922384,2064,2040,2068,2047,2054,2057,1197
383,1710302296943921155,2056,2074,2047,2077,2063,2056,1197
384,1710302296953923863,2059,2037,2042,2042,2053,2057,1197
385,1710302296963921201,2050,2076,2059,2040,2056,2053,1196
386,1710302296973920633,2064,2037,2064,2056,2052,2057,1196
387,1710302296983920605,2049,2080,2073,2055,2052,2052,1196
388,1710302296993916982,2058,2042,2072,2073,2056,2056,1198
389,1710302297003917506,2048,2069,2051,2049,2056,2049,1197
390,1710302297013916968,2061,2040,2062,2065,2059,2061,1194
391,1710302297023915808,2050,2066,2052,2060,2060,2050,1196
392,1710302297033915551,2058,2040,2056,2049,2044,2058,1196
393,1710302297043915945,2053,2094,2058,2060,2054,2048,1198
394,1710302297053915036,2060,2039,2073,2053,2056,2058,1195
395,1710302297063914930,2052,2068,2045,2045,2049,2050,1197
396,1710302297073912799,2058,2041,2053,2085,2056,2056,1195
397,1710302297083913202,2050,2076,2053,2080,2058,2048,1195
398,1710302297093913195,2059,2041,2056,2059,2052,2058,1196
399,1710302297103911415,2049,2059,2046,2049,2056,2054,1197
400,1710302297113911869,2068,2037,2027,2040,2044,2056,1197
401,1710302297123910619,2048,2065,2049,2056,2049,2049,1196
402,1710302297133911455,2064,2037,2053,2043,2047,2060,1196
403,1710302297143910285,2046,2065,2045,2044,2040,2048,1194
404,1710302297153909096,2061,2043,2064,2040,2054,2057,1195
405,1710302297163906775,2055,2064,2051,2058,2056,2056,1197
406,1710302297173906517,2059,2036,2060,2059,2057,2053,1195
407,1710302297183914054,2054,2076,2069,2068,2057,2053,1196
408,1710302297193905682,2052,2039,2045,2054,2041,2052,1195
409,1710302297203904633,2052,2097,2066,2075,2061,2056,1196
410,1710302297213906370,2060,2039,2058,2078,2054,2054,1194
411,1710302297223906493,2044,2062,2046,2049,2046,2054,1197
412,1710302297233903250,2059,2046,2063,2049,2051,2056,1195
413,1710302297243902962,2054,2065,2054,2054,2044,2052,1197
414,1710302297253902505,2060,2047,2059,2080,2052,2053,1197
415,1710302297263902067,2045,2064,2038,2057,2055,2050,1198
416,1710302297273902060,2060,2036,2057,2052,2049,2056,1196
417,1710302297283898918,2053,2056,2046,2059,2056,2054,1197
418,1710302297293907296,2060,2044,2056,2056,2045,2056,1195
419,1710302297303898192,2051,2059,2051,2049,2056,2053,1196
420,1710302297313898396,2055,2038,2051,2052,2057,2053,1197
421,1710302297323898279,2051,2057,2064,2052,2052,2051,1196
422,1710302297333897350,2059,2038,2052,2038,2048,2054,1197
423,1710302297343898285,2052,2059,2056,2048,2038,2050,1196
424,1710302297353902907,2060,2047,2058,2053,2052,2052,1194
425,1710302297363897810,2056,2065,2054,2079,2061,2053,1197
426,1710302297373899917,2064,2046,2061,2074,2057,2058,1198
427,1710302297383900061,2050,2061,2051,2058,2072,2052,1196
428,1710302297393898891,2058,2053,2052,2077,2053,2053,1194
429,1710302297403899286,2053,2074,2061,2076,2060,2056,1197
430,1710302297413897505,2060,2043,2058,2064,2066,2054,1194
431,1710302297423896947,2050,2062,2052,2057,2054,2050,1196
432,1710302297433895598,2060,2044,2076,2056,2058,2058,1196
433,1710302297443898156,2051,2056,2047,2034,2052,2053,1196
434,1710302297453896586,2062,2050,2064,2053,2053,2056,1194
435,1710302297463897882,2049,2057,2047,2047,2042,2050,1196
436,1710302297473896372,2062,2052,2061,2045,2043,2055,1195
437,1710302297483896996,2052,2061,2049,2048,2053,2052,1197
438,1710302297493895807,2056,2047,2057,2075,2011,2052,1196
439,1710302297503894447,2052,2064,2056,2064,2057,2052,1197
440,1710302297513896334,2057,2050,2065,2062,2062,2056,1195
441,1710302297523904343,2053,2050,2048,2070,2052,2056,1199
442,1710302297533898234,2066,2052,2068,2056,2055,2054,1196
443,1710302297543895972,2050,2057,2049,2057,2053,2050,1197
444,1710302297553898941,2061,2048,2045,2040,2044,2056,1195
445,1710302297563897502,2052,2058,2050,2056,2047,2052,1194
446,1710302297573897394,2062,2050,2046,2050,2060,2057,1196
447,1710302297583899611,2056,2057,2050,2045,2042,2049,1197
448,1710302297593902010,2055,2047,2066,2056,2052,2056,1196
449,1710302297603897564,2053,2045,2061,2080,2060,2054,1196
450,1710302297613897477,2060,2037,2046,2010,2042,2054,1196
451,1710302297623897090,2056,2062,2055,2060,2060,2054,1196
452,1710302297633900068,2059,2050,2056,2041,2049,2053,1197
453,1710302297643897827,2053,2059,2058,2085,2066,2056,1197
454,1710302297653899123,2056,2045,2037,2085,2076,2057,1197
455,1710302297663897924,2051,2063,2062,2064,2056,2053,1196
456,1710302297673896865,2061,2051,2068,2064,2060,2057,1198
457,1710302297683902048,2054,2059,2053,2058,2053,2051,1197
458,1710302297693897763,2060,2042,2055,2057,2054,2053,1196
459,1710302297703897234,2059,2088,2072,2064,2062,2056,1196
460,1710302297713899733,2052,2045,2063,2077,2050,2056,1196
461,1710302297723896249,2054,2058,2058,2064,2051,2052,1196
462,1710302297733897705,2056,2051,2056,2032,2046,2053,1198
463,1710302297743898820,2052,2057,2055,2052,2056,2052,1195
464,1710302297753897290,2058,2057,2073,2064,2057,2056,1196
465,1710302297763899026,2054,2056,2053,2030,2060,2057,1196
466,1710302297773897427,2057,2051,2054,2057,2053,2053,1197
467,1710302297783898061,2054,2069,2052,2048,2049,2053,1196
468,1710302297793899988,2059,2034,2052,2068,2056,2054,1195
469,1710302297803897957,2053,2049,2037,2014,2053,2054,1198
470,1710302297813898922,2057,2052,2054,2050,2050,2052,1196
471,1710302297823898334,2052,2056,2058,2092,2066,2056,1196
472,1710302297833899569,2057,2052,2062,2073,2083,2051,1196
473,1710302297843899422,2058,2060,2062,2033,2060,2058,1197
474,1710302297853899856,2054,2048,2048,2065,2049,2053,1195
475,1710302297863897976,2060,2053,2064,2046,2049,2053,1197
476,1710302297873907878,2057,2047,2049,2051,2068,2052,1196
477,1710302297883897140,2058,2057,2053,2049,2049,2052,1197
478,1710302297893899057,2055,2053,2056,2040,2047,2056,1196
479,1710302297903897277,2052,2054,2052,2069,2039,2050,1197
480,1710302297913898282,2061,2058,2072,2079,2061,2055,1200
481,1710302297923898015,2057,2057,2054,2028,2040,2054,1197
482,1710302297933898990,2058,2051,2061,2071,2054,2054,1197
483,1710302297943898802,2058,2056,2052,2052,2052,2056,1195
484,1710302297953942838,2054,2045,2053,2052,2059,2060,1194
485,1710302297963943192,2061,2069,2066,2049,2050,2055,1198
486,1710302297973943716,2062,2051,2049,2059,2064,2053,1197
487,1710302297983943418,2056,2052,2030,2070,2066,2059,1196
488,1710302297993943773,2054,2047,2052,2058,2056,2052,1197
489,1710302298003944216,2056,2061,2046,2052,2051,2052,1196
490,1710302298013944350,2056,2048,2045,2051,2048,2054,1196
491,1710302298023944303,2049,2056,2056,2058,2042,2051,1197
492,1710302298033944617,2056,2041,2050,2052,2053,2056,1198
493,1710302298043944460,2053,2044,2057,2045,2041,2053,1197
494,1710302298053946276,2056,2045,2046,2068,2062,2055,1199
495,1710302298063946220,2056,2056,2056,2059,2052,2056,1197
496,1710302298073945962,2057,2048,2044,2023,2046,2053,1194
497,1710302298083945726,2052,2060,2068,2061,2052,2057,1196
498,1710302298093947201,2056,2052,2056,2045,2036,2053,1197
499,1710302298103948077,2056,2060,2057,2064,2056,2056,1197
500,1710302298113947819,2060,2053,2064,2047,2044,2056,1197
501,1710302298123920221,2055,2048,2056,2045,2044,2056,1196
502,1710302298133923009,2059,2052,2037,2040,2046,2053,1200
503,1710302298143920508,2053,2061,2067,2042,2053,2056,1198
504,1710302298153921002,2052,2043,2044,2068,2073,2056,1195
505,1710302298163920054,2061,2053,2066,2060,2045,2052,1198
506,1710302298173919485,2054,2052,2049,2100,2065,2056,1196
507,1710302298183916553,2057,2052,2052,2027,2061,2052,1197
508,1710302298193916496,2056,2051,2045,2052,2055,2053,1197
509,1710302298203916439,2056,2053,2059,2053,2053,2053,1198
510,1710302298213915331,2056,2067,2060,2052,2074,2056,1195
511,1710302298223915734,2057,2074,2052,2037,2038,2053,1197
512,1710302298233914275,2054,2058,2052,2049,2050,2049,1196
513,1710302298243914238,2050,2052,2054,2063,2052,2056,1195
514,1710302298253915134,2058,2053,2048,2025,2051,2053,1196
515,1710302298263912662,2056,2056,2056,2059,2055,2059,1195
516,1710302298273914279,2056,2048,2052,2053,2052,2053,1194
517,1710302298283912187,2058,2056,2056,2051,2050,2053,1197
518,1710302298293911830,2056,2058,2065,2040,2062,2056,1196
519,1710302298303911943,2057,2054,2065,2085,2056,2060,1196
520,1710302298313911135,2059,2072,2081,2046,2070,2056,1198
521,1710302298323909205,2052,2043,2045,2065,2047,2052,1196
522,1710302298333908737,2054,2053,2060,2057,2059,2050,1197
523,1710302298343940741,2049,2055,2053,2046,2053,2053,1197
524,1710302298353910046,2050,2051,2052,2029,2064,2051,1194
525,1710302298363909729,2052,2057,2058,2063,2054,2052,1198
526,1710302298373908479,2053,2052,2052,2057,2050,2056,1196
527,1710302298383908664,2053,2052,2058,2053,2056,2054,1197
528,1710302298393904869,2054,2047,2053,2057,2058,2052,1197
529,1710302298403905554,2056,2068,2060,2044,2050,2054,1197
530,1710302298413905527,2053,2055,2069,2042,2041,2044,1193
531,1710302298423905230,2056,2056,2062,2031,2043,2056,1196
532,1710302298433903149,2056,2074,2056,2047,2064,2058,1195
533,1710302298443958337,2054,2052,2047,2062,2051,2052,1196
534,1710302298453941508,2052,2053,2045,2037,2039,2048,1197
535,1710302298463902888,2058,2053,2063,2067,2073,2053,1197
536,1710302298473899586,2052,2050,2051,2085,2060,2057,1196
537,1710302298483899619,2056,2060,2065,2065,2050,2053,1197
538,1710302298493900424,2054,2044,2058,2068,2060,2052,1196
539,1710302298503899695,2056,2035,2063,2068,2045,2053,1197
540,1710302298513900010,2056,2046,2049,2056,2049,2051,1197
541,1710302298523896676,2056,2054,2072,2073,2061,2057,1198
542,1710302298533900016,2056,2055,2067,2072,2061,2052,1196
543,1710302298543899188,2062,2051,2047,2054,2052,2057,1198
544,1710302298553896496,2058,2059,2060,2056,2074,2053,1196
545,1710302298563903713,2052,2047,2057,2084,2052,2056,1197
546,1710302298573895741,2058,2057,2054,2085,2059,2052,1196
547,1710302298583894512,2056,2041,2046,2070,2052,2054,1195
548,1710302298593893563,2059,2057,2053,2049,2050,2052,1197
549,1710302298603894168,2060,2063,2064,2050,2038,2053,1197
550,1710302298613893991,2056,2059,2059,2064,2059,2056,1195
551,1710302298623895056,2057,2052,2072,2073,2057,2053,1196
552,1710302298633931237,2053,2056,2054,2045,2065,2056,1196
553,1710302298643935209,2058,2049,2050,2064,2053,2056,1197
554,1710302298653929541,2053,2058,2052,2068,2055,2052,1196
555,1710302298663894418,2052,2040,2046,2081,2066,2054,1194
556,1710302298673927533,2054,2050,2072,2041,2040,2055,1197
557,1710302298683928389,2057,2040,2058,2056,2049,2056,1197
558,1710302298693892885,2052,2059,2052,2092,2065,2053,1197
559,1710302298703893219,2056,2052,2058,2052,2058,2059,1196
560,1710302298713923850,2056,2057,2044,2033,2054,2052,1197
561,1710302298723896131,2053,2046,2048,2052,2054,2054,1197
562,1710302298733924938,2053,2052,2049,2044,2053,2046,1195
563,1710302298743923679,2059,2056,2082,2060,2061,2053,1197
564,1710302298753922220,2056,2058,2044,2062,2044,2051,1196
565,1710302298763896774,2056,2051,2053,2045,2037,2049,1199
566,1710302298773924861,2049,2057,2046,2064,2066,2052,1196
567,1710302298783894387,2059,2056,2064,2068,2053,2059,1197
568,1710302298793920921,2053,2040,2045,2066,2060,2047,1192
569,1710302298803896177,2058,2042,2052,2049,2046,2058,1195
570,1710302298813920466,2052,2056,2036,2053,2058,2056,1195
571,1710302298823919016,2059,2047,2067,2032,2044,2053,1195
572,1710302298833921274,2055,2065,2072,2068,2063,2056,1195
573,1710302298843916739,2058,2049,2058,2041,2047,2056,1197
574,1710302298853916602,2057,2065,2052,2057,2060,2051,1195
575,1710302298863894483,2056,2044,2048,2028,2049,2052,1194
576,1710302298873915767,2059,2098,2070,2060,2054,2053,1197
577,1710302298883929035,2057,2043,2057,2027,2038,2052,1197
578,1710302298893909662,2056,2056,2047,2058,2060,2051,1196
579,1710302298903913452,2053,2056,2063,2065,2062,2052,1197
580,1710302298913912924,2054,2059,2049,2069,2056,2052,1198
581,1710302298923909752,2056,2047,2056,2050,2040,2056,1200
582,1710302298933893243,2054,2064,2049,2056,2059,2054,1196
583,1710302298943911422,2058,2040,2060,2053,2053,2058,1195
584,1710302298953911154,2052,2056,2045,2057,2060,2053,1197
585,1710302298963890368,2056,2035,2044,2029,2040,2053,1195
586,1710302298973892716,2055,2063,2052,2033,2045,2048,1196
587,1710302298983907597,2060,2048,2062,2052,2048,2058,1198
588,1710302298993905837,2056,2060,2048,2042,2052,2051,1197
589,1710302299003904899,2057,2045,2066,2064,2050,2056,1196
590,1710302299013902217,2052,2058,2044,2050,2050,2049,1196
591,1710302299023904134,2059,2054,2068,2052,2047,2055,1194
592,1710302299033904798,2056,2063,2049,2069,2061,2052,1195
593,1710302299043891577,2056,2045,2062,2050,2049,2056,1196
594,1710302299053901499,2051,2052,2032,2052,2057,2050,1196
595,1710302299063890822,2055,2043,2060,2081,2053,2058,1197
596,1710302299073899933,2047,2051,2055,2065,2056,2045,1191
597,1710302299083892101,2058,2041,2052,2050,2048,2056,1194
598,1710302299093900842,2053,2056,2045,2044,2050,2050,1195
599,1710302299103898772,2061,2047,2055,2026,2051,2056,1198
600,1710302299113899355,2056,2064,2052,2047,2056,2053,1198
601,1710302299123920189,2058,2040,2052,2035,2045,2056,1197
602,1710302299133899603,2055,2061,2041,2053,2060,2052,1196
603,1710302299143893555,2057,2033,2056,2092,2072,2061,1196
604,1710302299153897656,2053,2058,2044,2077,2068,2051,1194
605,1710302299163894052,2058,2042,2058,2063,2068,2058,1197
606,1710302299173898605,2048,2040,2037,2050,2054,2048,1197
607,1710302299183896073,2059,2038,2055,2048,2048,2056,1197
608,1710302299193898932,2052,2067,2047,2060,2056,2049,1196
609,1710302299203896742,2057,2044,2057,2018,2053,2056,1198
610,1710302299213894270,2050,2062,2046,2040,2056,2049,1194
611,1710302299223898582,2057,2034,2048,2065,2056,2057,1196
612,1710302299233893024,2056,2058,2043,2070,2061,2050,1196
613,1710302299243894661,2063,2041,2065,2063,2059,2056,1196
614,1710302299253895767,2052,2062,2060,2063,2064,2052,1196
615,1710302299263893746,2061,2039,2059,2055,2064,2060,1196
616,1710302299273897717,2053,2062,2047,2074,2084,2053,1196
617,1710302299283893703,2058,2045,2066,2054,2056,2056,1196
618,1710302299293895460,2052,2064,2049,2056,2058,2048,1195
619,1710302299303896736,2055,2044,2063,2060,2049,2056,1195
620,1710302299313894114,2051,2064,2046,2061,2060,2052,1198
621,1710302299323893036,2060,2049,2066,2062,2056,2054,1195
622,1710302299333904851,2048,2052,2057,2053,2052,2045,1194
623,1710302299343898152,2061,2036,2061,2052,2057,2057,1197
624,1710302299353903386,2052,2056,2046,2045,2066,2050,1195
625,1710302299363894131,2060,2039,2063,2060,2046,2056,1195
626,1710302299373897331,2052,2064,2046,2063,2060,2050,1196
627,1710302299383903605,2061,2042,2065,2067,2053,2055,1198
628,1710302299393897448,2050,2067,2047,2056,2072,2051,1195
629,1710302299403893023,2061,2043,2056,2051,2056,2056,1194
630,1710302299413894509,2054,2073,2060,2046,2055,2049,1196
631,1710302299423898380,2057,2048,2083,2032,2024,2048,1196
632,1710302299433890999,2050,2056,2043,2064,2056,2049,1197
633,1710302299443892455,2060,2043,2064,2026,2044,2056,1195
634,1710302299453890856,2050,2064,2046,2060,2060,2047,1193
635,1710302299463891490,2062,2038,2071,2060,2046,2057,1196
636,1710302299473891614,2052,2064,2043,2051,2055,2048,1196
637,1710302299483893141,2065,2047,2067,2043,2049,2058,1196
638,1710302299493891340,2052,2067,2059,2074,2062,2046,1191
639,1710302299503892236,2061,2044,2064,2052,2054,2058,1195
640,1710302299513904722,2049,2065,2042,2060,2052,2049,1197
641,1710302299523903193,2056,2038,2066,2056,2049,2055,1196
642,1710302299533921982,2056,2070,2040,2082,2064,2050,1197
643,1710302299543907999,2057,2027,2053,2051,2046,2052,1197
644,1710302299553909385,2047,2054,2047,2056,2062,2048,1194
645,1710302299563899790,2057,2040,2064,2029,2033,2052,1196
646,1710302299573899974,2050,2066,2046,2072,2061,2053,1194
647,1710302299583897273,2062,2039,2058,2046,2053,2057,1198
648,1710302299593902095,2051,2068,2063,2064,2064,2047,1194
649,1710302299603896548,2059,2041,2080,2063,2050,2058,1194
650,1710302299613893986,2050,2060,2048,2049,2052,2049,1195
651,1710302299623897827,2064,2035,2062,2064,2040,2056,1197
652,1710302299633897450,2048,2066,2046,2045,2053,2052,1196
653,1710302299643899817,2063,2043,2063,2052,2062,2060,1196
654,1710302299653896204,2048,2071,2042,2064,2058,2050,1197
655,1710302299663894554,2061,2041,2068,2053,2047,2057,1197
656,1710302299673895921,2050,2068,2051,2046,2052,2056,1196
657,1710302299683898409,2063,2048,2067,2062,2044,2057,1195
658,1710302299693896949,2050,2051,2034,2043,2044,2047,1194
659,1710302299703895250,2060,2043,2065,2052,2053,2060,1195
660,1710302299713895343,2046,2067,2037,2060,2064,2052,1199
661,1710302299723893182,2064,2041,2069,2044,2052,2057,1197
662,1710302299733893176,2051,2062,2040,2088,2065,2048,1196
663,1710302299743895473,2058,2040,2064,2050,2044,2064,1195
664,1710302299753904224,2054,2062,2042,2057,2050,2044,1192
665,1710302299763892424,2057,2033,2064,2046,2047,2056,1196
666,1710302299773903148,2052,2087,2047,2053,2062,2047,1192
667,1710302299783894115,2062,2036,2051,2044,2045,2056,1196
668,1710302299793897083,2051,2065,2045,2058,2058,2058,1195
669,1710302299803893270,2061,2042,2074,2065,2049,2058,1196
670,1710302299813894676,2048,2065,2046,2069,2061,2049,1195
671,1710302299823891313,2059,2040,2072,2036,2046,2056,1197
672,1710302299833907307,2055,2072,2046,2052,2072,2050,1194
673,1710302299843885829,2061,2031,2060,2056,2061,2058,1194
674,1710302299853897124,2050,2062,2043,2072,2047,2048,1196
675,1710302299863883792,2059,2058,2072,2059,2051,2057,1198
676,1710302299873879167,2056,2065,2046,2062,2060,2051,1198
677,1710302299883884832,2061,2041,2072,2057,2043,2054,1196
678,1710302299893887580,2051,2073,2047,2047,2053,2049,1196
679,1710302299903882985,2062,2040,2075,2049,2042,2057,1196
680,1710302299913882377,2056,2068,2047,2059,2074,2053,1197
681,1710302299923883733,2060,2046,2064,2053,2053,2058,1196
682,1710302299933884989,2052,2094,2048,2053,2053,2052,1197
683,1710302299943884000,2062,2035,2069,2077,2056,2056,1198
684,1710302299953883353,2050,2065,2049,2066,2060,2048,1196
685,1710302299963883537,2064,2045,2065,2048,2050,2062,1198
686,1710302299973883880,2050,2066,2045,2064,2059,2047,1194
687,1710302299983881700,2060,2033,2058,2061,2053,2052,1196
688,1710302299993886913,2050,2089,2051,2065,2061,2048,1196
689,1710302300003883219,2060,2035,2059,2039,2041,2056,1197
690,1710302300013883574,2049,2069,2041,2059,2058,2048,1195
691,1710302300023881302,2064,2041,2064,2046,2059,2056,1197
692,1710302300033886306,2056,2080,2053,2057,2060,2053,1195
693,1710302300043882242,2065,2042,2067,2064,2046,2056,1194
694,1710302300053887416,2050,2070,2046,2058,2061,2056,1197
695,1710302300063884803,2061,2020,2065,2060,2041,2056,1196
696,1710302300073882323,2044,2062,2040,2078,2069,2045,1194
697,1710302300083882867,2062,2033,2060,2041,2040,2057,1194
698,1710302300093883893,2050,2073,2061,2056,2064,2049,1197
699,1710302300103883355,2067,2034,2066,2054,2046,2058,1195
700,1710302300113886525,2044,2073,2039,2056,2060,2052,1198
701,1710302300123887861,2062,2049,2066,2048,2046,2056,1197
702,1710302300133884528,2050,2073,2048,2054,2057,2049,1198
703,1710302300143884662,2062,2042,2082,2046,2033,2056,1197
704,1710302300153884445,2046,2064,2053,2058,2060,2052,1196
705,1710302300163882125,2067,2036,2074,2037,2044,2058,1195
706,1710302300173883681,2045,2071,2038,2064,2060,2051,1194
707,1710302300183882422,2061,2033,2072,2052,2049,2057,1197
708,1710302300193888167,2049,2069,2049,2057,2063,2048,1197
709,1710302300203888731,2060,2040,2075,2059,2060,2057,1197
710,1710302300213882854,2045,2065,2042,2061,2049,2044,1196
711,1710302300223882065,2068,2028,2066,2048,2044,2059,1196
712,1710302300233886137,2053,2063,2037,2052,2065,2050,1195
713,1710302300243884929,2060,2035,2056,2056,2050,2057,1196
714,1710302300253885352,2050,2071,2042,2066,2065,2049,1196
715,1710302300263885356,2059,2036,2068,2040,2044,2058,1196
716,1710302300273887283,2045,2066,2041,2077,2068,2047,1192
717,1710302300283883330,2061,2040,2064,2048,2045,2054,1196
718,1710302300293886589,2047,2062,2042,2047,2044,2045,1194
719,1710302300303885330,2064,2039,2068,2059,2047,2060,1195
720,1710302300313885785,2045,2049,2027,2060,2059,2050,1196
721,1710302300323886150,2069,2046,2066,2053,2049,2060,1195
722,1710302300333887735,2056,2072,2049,2068,2064,2047,1194
723,1710302300343885214,2060,2044,2064,2051,2044,2058,1195
724,1710302300353882583,2045,2072,2040,2057,2058,2048,1194
725,1710302300363888458,2064,2036,2074,2072,2060,2061,1195
726,1710302300373888992,2053,2076,2047,2048,2061,2050,1197
727,1710302300383888565,2061,2036,2065,2047,2048,2055,1198
728,1710302300393888589,2044,2072,2039,2058,2059,2046,1193
729,1710302300403888873,2059,2045,2070,2053,2037,2059,1198
730,1710302300413888816,2047,2064,2035,2067,2060,2046,1192
731,1710302300423888559,2062,2041,2068,2045,2042,2058,1197
732,1710302300433889214,2050,2065,2035,2056,2061,2047,1191
733,1710302300443888928,2058,2031,2060,2048,2047,2055,1196
734,1710302300453889451,2048,2076,2048,2064,2064,2050,1195
735,1710302300463889596,2060,2036,2065,2052,2048,2058,1197
736,1710302300473889930,2049,2072,2040,2055,2060,2045,1193
737,1710302300483890014,2062,2030,2068,2030,2038,2057,1196
738,1710302300493890438,2044,2063,2029,2046,2060,2049,1199
739,1710302300503891303,2059,2028,2057,2042,2045,2057,1197
740,1710302300513891127,2053,2072,2051,2073,2068,2049,1198
741,1710302300523891321,2061,2024,2064,2057,2038,2056,1196
742,1710302300533877768,2046,2068,2036,2065,2064,2050,1197
743,1710302300543890927,2059,2026,2067,2043,2048,2060,1197
744,1710302300553891392,2049,2077,2042,2059,2061,2048,1194
745,1710302300563891454,2061,2028,2064,2047,2050,2060,1197
746,1710302300573891779,2045,2074,2047,2084,2066,2052,1196
747,1710302300583878698,2065,2038,2068,2050,2048,2061,1197
748,1710302300593892187,2043,2080,2041,2053,2066,2045,1194
749,1710302300603892641,2061,2032,2077,2060,2059,2062,1196
750,1710302300613877216,2049,2083,2045,2072,2069,2052,1196
751,1710302300623892839,2063,2028,2064,2054,2053,2061,1197
752,1710302300633894015,2044,2093,2048,2073,2078,2049,1196
753,1710302300643877968,2065,2030,2062,2047,2043,2062,1195
754,1710302300653877440,2050,2080,2046,2057,2062,2047,1193
755,1710302300663895288,2064,2030,2066,2045,2045,2058,1195
756,1710302300673878250,2048,2077,2032,2061,2062,2047,1192
757,1710302300683879044,2067,2044,2068,2039,2038,2058,1196
758,1710302300693896260,2050,2077,2036,2061,2064,2047,1195
759,1710302300703878210,2064,2026,2060,2053,2047,2056,1197
760,1710302300713879466,2045,2108,2042,2056,2058,2047,1194
761,1710302300723881493,2058,2025,2072,2066,2046,2060,1196
762,1710302300733879814,2049,2072,2039,2064,2073,2049,1195
763,1710302300743880388,2060,2025,2071,2053,2041,2063,1195
764,1710302300753881615,2049,2083,2046,2056,2057,2048,1196
765,1710302300763889021,2065,2025,2068,2055,2049,2061,1196
766,1710302300773883845,2051,2081,2043,2040,2058,2044,1194
767,1710302300783884230,2061,2025,2068,2040,2044,2061,1197
768,1710302300793884835,2054,2105,2040,2057,2052,2045,1193
769,1710302300803884938,2065,2022,2073,2047,2044,2060,1196
770,1710302300813884150,2048,2078,2043,2059,2056,2044,1194
771,1710302300823884305,2067,2020,2070,2051,2048,2060,1196
772,1710302300833883877,2048,2085,2037,2089,2064,2048,1196
773,1710302300843887517,2062,2036,2084,2045,2043,2065,1196
774,1710302300853885026,2045,2082,2040,2060,2062,2047,1194
775,1710302300863912572,2065,2025,2070,2049,2042,2058,1198
776,1710302300873886226,2047,2088,2044,2060,2064,2050,1196
777,1710302300883882422,2066,2024,2076,2052,2041,2052,1194
778,1710302300893886243,2048,2082,2045,2072,2064,2047,1192
779,1710302300903883662,2067,2026,2086,2058,2050,2065,1197
780,1710302300913884106,2044,2076,2035,2052,2061,2045,1196
781,1710302300923881705,2067,2024,2068,2045,2056,2058,1195
782,1710302300933880046,2041,2092,2045,2050,2056,2047,1193
783,1710302300943882324,2064,2021,2066,2048,2043,2062,1197
784,1710302300953886835,2047,2078,2041,2043,2060,2048,1196
785,1710302300963883913,2066,2025,2077,2037,2047,2057,1196
786,1710302300973882605,2050,2080,2043,2058,2060,2047,1193
787,1710302300983883641,2066,2014,2065,2053,2049,2062,1199
788,1710302300993887360,2045,2067,2030,2049,2048,2042,1193
789,1710302301003888316,2069,2021,2068,2054,2044,2059,1197
790,1710302301013886156,2045,2079,2041,2059,2055,2045,1193
791,1710302301023885719,2064,2024,2072,2042,2046,2058,1196
792,1710302301033885893,2048,2080,2041,2058,2040,2040,1192
793,1710302301043888812,2068,2021,2061,2055,2050,2060,1197
794,1710302301053883957,2044,2074,2038,2072,2064,2047,1193
795,1710302301063884080,2066,2022,2064,2055,2051,2062,1196
796,1710302301073886208,2045,2084,2041,2061,2060,2046,1194
797,1710302301083885490,2065,2026,2071,2046,2048,2064,1196
798,1710302301093885955,2044,2084,2040,2062,2066,2042,1191
799,1710302301103884366,2064,2047,2081,2050,2050,2062,1198
800,1710302301113885803,2046,2081,2036,2053,2068,2052,1197
801,1710302301123887349,2066,2024,2072,2054,2050,2060,1195
802,1710302301133884668,2043,2090,2044,2053,2045,2044,1192
803,1710302301143887296,2064,2025,2068,2072,2049,2064,1197
804,1710302301153884585,2045,2080,2034,2052,2057,2046,1192
805,1710302301163885841,2066,2022,2069,2052,2045,2057,1197
806,1710302301173884843,2044,2070,2029,2052,2058,2048,1196
807,1710302301183885137,2070,2030,2075,2041,2045,2062,1195
808,1710302301193884800,2045,2097,2040,2057,2058,2047,1192
809,1710302301203885686,2064,2027,2068,2048,2061,2060,1194
810,1710302301213884668,2045,2094,2047,2060,2062,2049,1196
811,1710302301223898448,2064,2022,2075,2044,2056,2060,1195
812,1710302301233893000,2044,2077,2036,2056,2056,2046,1194
813,1710302301243878557,2068,2023,2074,2088,2052,2061,1196
814,1710302301253893168,2041,2074,2030,2053,2056,2045,1194
815,1710302301263891058,2068,2027,2078,2046,2046,2060,1196
816,1710302301273888467,2049,2072,2035,2064,2061,2046,1193
817,1710302301283891216,2064,2022,2065,2058,2060,2063,1195
818,1710302301293886842,2042,2075,2034,2042,2062,2047,1193
819,1710302301303886315,2066,2028,2066,2049,2049,2061,1197
820,1710302301313891227,2044,2081,2030,2048,2071,2048,1197
821,1710302301323887524,2069,2026,2069,2054,2041,2059,1193
822,1710302301333888098,2047,2080,2039,2058,2061,2048,1195
823,1710302301343914803,2064,2037,2070,2093,2070,2064,1197
824,1710302301353873118,2046,2064,2033,2047,2058,2044,1193
825,1710302301363879334,2070,2033,2070,2052,2045,2064,1196
826,1710302301373886010,2043,2076,2036,2049,2058,2048,1196
827,1710302301383896053,2064,2027,2064,2054,2050,2058,1196
828,1710302301393890465,2047,2084,2041,2053,2069,2044,1194
829,1710302301403890459,2064,2027,2064,2051,2042,2058,1196
830,1710302301413887126,2046,2076,2054,2067,2072,2043,1193
831,1710302301423888543,2061,2029,2073,2045,2028,2055,1196
832,1710302301433875272,2044,2080,2036,2037,2051,2044,1192
833,1710302301443882730,2065,2023,2070,2059,2047,2057,1196
834,1710302301453885759,2046,2080,2041,2088,2065,2051,1195
835,1710302301463881425,2061,2029,2072,2053,2049,2059,1196
836,1710302301473899012,2043,2078,2036,2062,2065,2052,1196
837,1710302301483887723,2061,2029,2073,2040,2035,2057,1194
838,1710302301493884451,2041,2080,2035,2054,2060,2045,1193
839,1710302301503886108,2069,2039,2095,2036,2050,2059,1196
840,1710302301513882736,2040,2082,2036,2061,2064,2049,1193
841,1710302301523892318,2066,2026,2070,2058,2050,2062,1196
842,1710302301533881631,2047,2080,2041,2069,2065,2044,1194
843,1710302301543884551,2064,2021,2072,2053,2046,2058,1195
844,1710302301553888211,2046,2100,2047,2058,2052,2045,1193
845,1710302301563881332,2062,2024,2067,2045,2050,2059,1196
846,1710302301573883048,2047,2077,2038,2056,2058,2047,1194
847,1710302301583880467,2065,2024,2064,2057,2042,2058,1195
848,1710302301593880281,2046,2080,2035,2062,2062,2047,1193
849,1710302301603884282,2067,2038,2072,2032,2049,2056,1197
850,1710302301613892381,2044,2076,2042,2060,2062,2047,1193
851,1710302301623875243,2068,2015,2063,2052,2049,2064,1195
852,1710302301633880216,2045,2071,2035,2072,2074,2047,1192
853,1710302301643887514,2066,2029,2072,2043,2009,2054,1197
854,1710302301653894720,2041,2072,2047,2062,2064,2047,1194
855,1710302301664090924,2064,2028,2068,2052,2044,2058,1195
856,1710302301673891061,2045,2080,2035,2058,2064,2045,1192
857,1710302301683897657,2065,2029,2060,2047,2048,2062,1200
858,1710302301693891680,2047,2110,2046,2067,2064,2046,1195
859,1710302301703898947,2065,2025,2065,2043,2046,2058,1195
860,1710302301713879274,2048,2087,2039,2046,2057,2048,1196
861,1710302301723878867,2064,2027,2076,2058,2065,2058,1196
862,1710302301733889009,2045,2083,2035,2057,2059,2043,1192
863,1710302301743888853,2067,2024,2065,2046,2045,2056,1197
864,1710302301753884418,2049,2085,2043,2050,2040,2047,1193
865,1710302301763905381,2068,2032,2085,2050,2038,2062,1198
866,1710302301773898322,2040,2078,2033,2061,2058,2046,1192
867,1710302301783897605,2072,2056,2079,2052,2045,2062,1197
868,1710302301793902157,2048,2082,2034,2054,2065,2047,1193
869,1710302301803887323,2066,2025,2069,2057,2048,2061,1194
870,1710302301813891434,2039,2078,2038,2058,2060,2047,1193
871,1710302301823887490,2070,2039,2081,2056,2047,2061,1194
872,1710302301833888005,2042,2072,2032,2058,2060,2045,1194
873,1710302301843886245,2072,2025,2068,2050,2047,2059,1195
874,1710302301853886259,2044,2077,2036,2064,2060,2045,1194
875,1710302301863888407,2066,2026,2076,2046,2042,2058,1197
876,1710302301873884353,2044,2080,2038,2048,2043,2047,1194
877,1710302301883884758,2065,2031,2073,2049,2041,2062,1197
878,1710302301893888519,2045,2084,2036,2055,2056,2044,1193
879,1710302301903884334,2064,2029,2073,2056,2052,2060,1196
880,1710302301913885640,2043,2084,2048,2061,2060,2048,1197
881,1710302301923902776,2071,2030,2069,2053,2045,2061,1198
882,1710302301933886730,2045,2084,2036,2057,2064,2045,1195
883,1710302301943875392,2066,2038,2090,2053,2039,2059,1196
884,1710302301953888841,2045,2080,2041,2049,2062,2050,1196
885,1710302301963893765,2065,2026,2072,2046,2047,2060,1198
886,1710302301973890372,2045,2086,2041,2064,2071,2049,1199
887,1710302301983890887,2062,2026,2076,2050,2044,2059,1198
888,1710302301993886481,2050,2085,2047,2062,2050,2042,1195
889,1710302302003886846,2069,2028,2088,2059,2058,2062,1196
890,1710302302013886350,2045,2077,2048,2062,2065,2049,1197
891,1710302302023888227,2066,2026,2070,2052,2046,2061,1195
892,1710302302033886558,2044,2078,2036,2047,2046,2044,1193
893,1710302302043885901,2066,2028,2072,2062,2086,2065,1197
894,1710302302053888650,2041,2080,2034,2061,2059,2047,1197
895,1710302302063888072,2063,2036,2080,2061,2047,2061,1196
896,1710302302073888397,2042,2079,2038,2053,2051,2044,1194
897,1710302302083887589,2061,2030,2072,2049,2045,2061,1197
898,1710302302093891671,2049,2080,2044,2063,2059,2046,1192
899,1710302302103896614,2068,2036,2075,2064,2048,2060,1197
900,1710302302113889194,2049,2113,2061,2069,2077,2047,1194
901,1710302302123911911,2064,2024,2068,2051,2047,2064,1196
902,1710302302133902808,2045,2088,2044,2045,2061,2052,1196
903,1710302302143886141,2068,2030,2070,2044,2048,2060,1198
904,1710302302153884652,2043,2081,2045,2079,2064,2046,1193
905,1710302302163894164,2062,2036,2065,2045,2053,2060,1197
906,1710302302173891683,2045,2082,2044,2057,2056,2045,1194
907,1710302302183881798,2062,2019,2062,2048,2035,2060,1197
908,1710302302193891069,2048,2077,2033,2045,2053,2044,1194
909,1710302302203899088,2068,2031,2064,2072,2046,2061,1198
910,1710302302213890636,2048,2082,2040,2059,2060,2046,1196
911,1710302302223897764,2063,2031,2073,2045,2037,2059,1196
912,1710302302233918306,2044,2090,2048,2056,2062,2049,1197
913,1710302302243894375,2066,2051,2077,2060,2052,2061,1196
914,1710302302253915218,2049,2084,2044,2078,2066,2044,1195
915,1710302302263883702,2067,2021,2072,2056,2039,2060,1196
916,1710302302273891641,2042,2079,2033,2054,2058,2043,1194
917,1710302302283895132,2068,2027,2069,2056,2061,2060,1196
918,1710302302293896007,2045,2076,2034,2068,2062,2047,1195
919,1710302302303894969,2064,2019,2059,2068,2053,2061,1197
920,1710302302313903549,2051,2084,2050,2064,2060,2046,1196
921,1710302302323882363,2065,2017,2057,2049,2049,2060,1198
922,1710302302333895662,2044,2081,2038,2064,2058,2047,1193
923,1710302302343895576,2065,2011,2067,2051,2045,2057,1197
924,1710302302353906811,2045,2072,2040,2046,2024,2042,1193
925,1710302302363887168,2064,2029,2065,2047,2042,2057,1198
926,1710302302373902460,2040,2077,2035,2040,2040,2043,1192
927,1710302302383896874,2066,2023,2067,2047,2051,2058,1195
928,1710302302393898941,2047,2086,2041,2056,2058,2047,1193
929,1710302302403940434,2060,2022,2065,2058,2047,2060,1196
930,1710302302413877689,2048,2075,2041,2067,2057,2048,1193
931,1710302302423892120,2064,2026,2065,2050,2031,2060,1197
932,1710302302433881083,2049,2082,2038,2064,2059,2049,1195
933,1710302302443903890,2062,2027,2063,2067,2009,2052,1197
934,1710302302453910196,2043,2082,2040,2058,2059,2047,1194
935,1710302302463905641,2066,2029,2061,2046,2044,2059,1196
936,1710302302473873073,2048,2108,2043,2056,2058,2047,1194
937,1710302302483871645,2063,2029,2065,2058,2044,2059,1197
938,1710302302493880565,2042,2081,2041,2058,2060,2047,1193
939,1710302302503925514,2065,2032,2065,2063,2064,2060,1195
940,1710302302513887536,2048,2084,2049,2036,2061,2046,1196
941,1710302302523884033,2066,2028,2071,2049,2050,2061,1195
942,1710302302533871894,2044,2081,2036,2056,2068,2049,1196
943,1710302302543880224,2065,2020,2062,2038,2046,2060,1196
944,1710302302553919402,2045,2080,2038,2057,2054,2046,1193
945,1710302302563893537,2063,2021,2064,2042,2042,2060,1197
946,1710302302573885495,2050,2085,2042,2066,2057,2048,1197
947,1710302302583891380,2062,2024,2069,2063,2049,2059,1196
948,1710302302593890523,2045,2085,2039,2064,2058,2054,1195
949,1710302302603911777,2064,2026,2070,2049,2047,2058,1196
950,1710302302613877997,2046,2082,2042,2059,2060,2047,1194
951,1710302302623885015,2069,2021,2060,2038,2042,2057,1196
952,1710302302633850854,2042,2077,2037,2064,2060,2047,1194
953,1710302302643881937,2065,2033,2068,2040,2050,2057,1197
954,1710302302653864788,2047,2072,2043,2061,2064,2045,1194
955,1710302302663903716,2064,2031,2072,2043,2057,2059,1197
956,1710302302673887088,2045,2080,2036,2062,2064,2045,1195
957,1710302302683885459,2060,2031,2070,2064,2052,2056,1197
958,1710302302693894510,2045,2082,2038,2068,2060,2046,1197
959,1710302302703882641,2064,2037,2068,2052,2046,2062,1197
960,1710302302713874981,2043,2080,2036,2052,2052,2044,1195
961,1710302302723879353,2071,2042,2073,2044,2045,2058,1196
962,1710302302733881240,2046,2076,2042,2068,2059,2046,1195
963,1710302302743889289,2064,2026,2061,2064,2041,2059,1197
964,1710302302753886538,2048,2081,2040,2064,2065,2049,1194
965,1710302302763917250,2066,2024,2073,2048,2038,2057,1198
966,1710302302773892056,2045,2085,2039,2077,2058,2047,1195
967,1710302302783893252,2069,2024,2082,2052,2049,2060,1196
968,1710302302793879340,2045,2064,2031,2069,2061,2049,1196
969,1710302302803893561,2063,2021,2064,2039,2045,2061,1197
970,1710302302813892492,2041,2075,2032,2062,2060,2045,1193
971,1710302302823883850,2065,2027,2065,2052,2048,2060,1195
972,1710302302833883233,2047,2084,2040,2040,2057,2046,1194
973,1710302302843882716,2064,2027,2073,2090,2049,2061,1195
974,1710302302853893991,2045,2080,2035,2034,2050,2043,1193
975,1710302302863886731,2066,2029,2070,2059,2052,2060,1196
976,1710302302873888799,2043,2067,2052,2064,2060,2046,1194
977,1710302302883886688,2062,2014,2061,2049,2047,2056,1195
978,1710302302893923382,2043,2084,2036,2056,2057,2049,1196
979,1710302302903882037,2061,2026,2069,2054,2040,2060,1197
980,1710302302913884506,2042,2083,2039,2069,2064,2047,1195
981,1710302302923889810,2067,2028,2070,2048,2052,2059,1197
982,1710302302933888441,2048,2084,2044,2082,2064,2037,1194
983,1710302302943907932,2062,2025,2069,2050,2049,2062,1196
984,1710302302953896504,2048,2090,2052,2053,2057,2047,1193
985,1710302302963890036,2062,2026,2066,2049,2046,2061,1196
986,1710302302973882926,2045,2080,2037,2059,2065,2047,1193
987,1710302302983888450,2066,2027,2069,2053,2041,2060,1197
988,1710302302993890188,2043,2080,2050,2064,2061,2047,1192
989,1710302303003888448,2065,2025,2068,2048,2050,2058,1197
990,1710302303013881779,2043,2092,2056,2064,2062,2046,1193
991,1710302303023899598,2063,2021,2077,2032,2044,2060,1196
992,1710302303033893330,2048,2078,2034,2070,2059,2046,1193
993,1710302303043895017,2061,2027,2066,2075,2052,2060,1197
994,1710302303053884802,2046,2073,2039,2064,2058,2049,1196
995,1710302303063885216,2062,2018,2064,2050,2044,2058,1197
996,1710302303073903515,2049,2081,2037,2064,2059,2045,1192
997,1710302303083899070,2061,2027,2075,2050,2052,2060,1196
998,1710302303093901740,2044,2076,2041,2059,2056,2050,1195
999,1710302303103880284,2065,2040,2068,2040,2020,2056,1195
1000,1710302303113877883,2044,2077,2033,2064,2061,2044,1193
1001,1710302303123898586,2061,2012,2059,2049,2045,2069,1195
1002,1710302303133892137,2041,2076,2037,2051,2046,2047,1194
1003,1710302303143886361,2068,2025,2064,2035,2037,2057,1199
1004,1710302303153883510,2045,2080,2039,2054,2036,2040,1195
1005,1710302303163888383,2062,2029,2068,2045,2046,2059,1197
1006,1710302303173910539,2048,2075,2034,2067,2062,2046,1193
1007,1710302303183906285,2064,2024,2056,2048,2044,2058,1197
1008,1710302303193933139,2052,2108,2045,2050,2059,2047,1194
1009,1710302303203906823,2066,2028,2068,2052,2040,2057,1198
1010,1710302303213896970,2046,2080,2044,2058,2062,2045,1193
1011,1710302303223899679,2061,2026,2061,2047,2046,2060,1198
1012,1710302303233914651,2052,2105,2057,2064,2056,2042,1193
1013,1710302303243895489,2063,2025,2062,2045,2039,2058,1196
1014,1710302303253893098,2046,2083,2043,2060,2066,2043,1194
1015,1710302303263893232,2068,2033,2069,2052,2049,2062,1198
1016,1710302303273897855,2048,2083,2040,2064,2072,2049,1195
1017,1710302303283893431,2065,2027,2066,2044,2009,2057,1197
1018,1710302303293909135,2042,2076,2037,2079,2061,2044,1192
1019,1710302303303903308,2065,2012,2065,2054,2047,2058,1195
1020,1710302303313897530,2044,2069,2036,2060,2062,2045,1197
1021,1710302303323975301,2069,2028,2066,2056,2049,2061,1197
1022,1710302303333898740,2049,2082,2049,2064,2057,2046,1193
1023,1710302303343903665,2061,2020,2072,2047,2042,2060,1197
1024,1710302303353892868,2047,2072,2034,2072,2062,2048,1196
1025,1710302303363894024,2060,2026,2068,2054,2064,2060,1195
1026,1710302303373893657,2041,2076,2041,2064,2061,2047,1195
1027,1710302303383919570,2063,2044,2066,2081,2047,2059,1194
1028,1710302303393905568,2043,2078,2043,2068,2062,2048,1196
1029,1710302303403902657,2061,2027,2068,2038,2040,2058,1195
1030,1710302303413896149,2044,2087,2042,2059,2069,2046,1193
1031,1710302303423904378,2070,2052,2074,2050,2049,2060,1196
1032,1710302303433920272,2047,2080,2037,2059,2061,2046,1193
1033,1710302303443888376,2063,2025,2066,2049,2060,2058,1197
1034,1710302303453901645,2047,2076,2039,2065,2059,2045,1194
1035,1710302303463893464,2062,2036,2077,2038,2043,2058,1197
1036,1710302303473888549,2044,2076,2041,2050,2056,2046,1196
1037,1710302303483902549,2064,2030,2066,2022,2041,2059,1196
1038,1710302303493912542,2047,2091,2052,2062,2059,2045,1195
1039,1710302303503913768,2065,2033,2077,2052,2048,2063,1196
1040,1710302303513876431,2045,2081,2040,2063,2066,2048,1200
1041,1710302303523889109,2064,2029,2069,2060,2048,2058,1197
1042,1710302303533887441,2045,2072,2028,2056,2059,2047,1192
1043,1710302303543876023,2066,2025,2068,2051,2042,2058,1199
1044,1710302303553892017,2042,2080,2042,2056,2047,2040,1195
1045,1710302303563883224,2065,2038,2084,2027,2045,2056,1196
1046,1710302303573886134,2046,2077,2040,2056,2056,2049,1197
1047,1710302303583895485,2063,2018,2070,2042,2014,2058,1194
1048,1710302303593872116,2046,2073,2036,2054,2047,2053,1196
1049,1710302303603886938,2064,2026,2064,2040,2040,2065,1197
1050,1710302303613886050,2046,2088,2040,2061,2067,2049,1195
1051,1710302303623887898,2064,2025,2071,2054,2053,2058,1196
1052,1710302303634341137,2047,2084,2041,2050,2061,2054,1196
1053,1710302303643880752,2064,2028,2068,2056,2055,2065,1196
1054,1710302303653884133,2046,2080,2041,2064,2058,2045,1194
1055,1710302303663886952,2064,2029,2068,2057,2041,2078,1196
1056,1710302303673881295,2047,2080,2042,2061,2057,2042,1193
1057,1710302303683937636,2072,2035,2072,2059,2056,2076,1197
1058,1710302303693902363,2047,2077,2036,2042,2058,2040,1192
1059,1710302303703885245,2061,2026,2065,2052,2049,2049,1195
1060,1710302303713888165,2042,2080,2036,2049,2066,2065,1197
1061,1710302303723907996,2062,2030,2069,2049,2049,2044,1196
1062,1710302303733891980,2049,2078,2041,2063,2061,2033,1194
1063,1710302303743889720,2060,2030,2068,2044,2034,2042,1194
1064,1710302303753887399,2042,2078,2039,2092,2072,2138,1196
1065,1710302303763880780,2061,2024,2064,2046,2048,2094,1196
1066,1710302303773883990,2045,2080,2044,2075,2057,2028,1194
1067,1710302303783881721,2066,2032,2069,2046,2056,2094,1195
1068,1710302303793894549,2052,2091,2045,2059,2072,2134,1197
1069,1710302303803886267,2062,2024,2068,2052,2046,2064,1197
1070,1710302303813881031,2047,2082,2038,2044,2056,2016,1193
1071,1710302303823881205,2069,2031,2067,2062,2044,2050,1198
1072,1710302303833893803,2053,2088,2061,2068,2032,1992,1193
1073,1710302303843899258,2064,2024,2072,2072,2078,2073,1197
1074,1710302303853879345,2042,2082,2041,2056,2056,2096,1196
1075,1710302303863881903,2060,2024,2061,2025,1992,2042,1193
1076,1710302303873880164,2047,2081,2042,2090,2060,1920,1195
1077,1710302303883890918,2061,2022,2068,2056,2056,2065,1197
1078,1710302303893884259,2049,2083,2040,2015,2041,2085,1197
1079,1710302303903886518,2063,2024,2061,2031,2028,2068,1196
1080,1710302303913882375,2045,2082,2040,2063,2057,2045,1195
1081,1710302303923880315,2066,2030,2066,2020,2005,2117,1198
1082,1710302303933920935,2049,2096,2052,2078,2064,2037,1195
1083,1710302303943883228,2065,2026,2057,2010,2022,2077,1197
1084,1710302303953883071,2052,2082,2046,2073,2074,2045,1192
1085,1710302303963878907,2060,2024,2068,2004,2032,2064,1197
1086,1710302303973883591,2047,2091,2050,2032,2037,2092,1195
1087,1710302303983891470,2065,2031,2066,2009,2044,2032,1192
1088,1710302303993895822,2043,2078,2034,2088,2049,2050,1195
1089,1710302304003884014,2061,2049,2077,2077,2033,2056,1196
1090,1710302304013897132,2047,2080,2037,2060,2074,2059,1197
1091,1710302304023881287,2064,2025,2078,2128,2105,2052,1195
1092,1710302304033896570,2048,2089,2039,2012,2042,2036,1195
1093,1710302304043888338,2068,2030,2069,2086,2040,2064,1195
1094,1710302304053892901,2045,2082,2034,2009,2018,2044,1192
1095,1710302304063879120,2063,2018,2072,2068,2095,2064,1195
1096,1710302304073919560,2049,2062,2054,2039,2047,2016,1190
1097,1710302304083878607,2049,2062,2054,2039,2047,2016,1190
1098,1710302304093902386,2049,2062,2054,2039,2047,2016,1190
1099,1710302304103886150,2049,2062,2054,2039,2047,2016,1190
1100,1710302304113881755,2049,2062,2054,2039,2047,2016,1190
1101,1710302304123886339,2049,2062,2054,2039,2047,2016,1190
1102,1710302304133885120,2049,2062,2054,2039,2047,2016,1190
1103,1710302304143898389,2049,2062,2054,2039,2047,2016,1190
1104,1710302304153877925,2049,2062,2054,2039,2047,2016,1190
1105,1710302304163873732,2049,2062,2054,2039,2047,2016,1190
1106,1710302304173879637,2049,2062,2054,2039,2047,2016,1190
1107,1710302304183893577,2049,2062,2054,2039,2047,2016,1190
1108,1710302304193906246,2049,2062,2054,2039,2047,2016,1190
1109,1710302304203895179,2049,2062,2054,2039,2047,2016,1190
1110,1710302304213884803,2049,2062,2054,2039,2047,2016,1190
1111,1710302304223892913,2049,2062,2054,2039,2047,2016,1190
1112,1710302304233903287,2049,2062,2054,2039,2047,2016,1190
1113,1710302304243895626,2049,2062,2054,2039,2047,2016,1190
1114,1710302304253883377,2049,2062,2054,2039,2047,2016,1190
1115,1710302304263884804,2049,2062,2054,2039,2047,2016,1190
1116,1710302304273890759,2049,2062,2054,2039,2047,2016,1190
1117,1710302304283888740,2049,2062,2054,2039,2047,2016,1190
1118,1710302304293898343,2049,2062,2054,2039,2047,2016,1190
1119,1710302304303882116,2049,2062,2054,2039,2047,2016,1190
1120,1710302304313909061,2049,2062,2054,2039,2047,2016,1190
1121,1710302304323878557,2049,2062,2054,2039,2047,2016,1190
1122,1710302304333877981,2049,2062,2054,2039,2047,2016,1190
1123,1710302304343889977,2049,2062,2054,2039,2047,2016,1190
1124,1710302304353911632,2049,2062,2054,2039,2047,2016,1190
1125,1710302304363893272,2049,2062,2054,2039,2047,2016,1190
1126,1710302304373884900,2049,2062,2054,2039,2047,2016,1190
1127,1710302304383885205,2049,2062,2054,2039,2047,2016,1190
1128,1710302304393915958,2049,2062,2054,2039,2047,2016,1190
1129,1710302304403890934,2049,2062,2054,2039,2047,2016,1190
1130,1710302304413886720,2049,2062,2054,2039,2047,2016,1190
1131,1710302304423883759,2049,2062,2054,2039,2047,2016,1190
1132,1710302304433884245,2049,2062,2054,2039,2047,2016,1190
1133,1710302304443885671,2049,2062,2054,2039,2047,2016,1190
1134,1710302304453885204,2049,2062,2054,2039,2047,2016,1190
1135,1710302304463888385,2049,2062,2054,2039,2047,2016,1190
1136,1710302304473887788,2049,2062,2054,2039,2047,2016,1190
1137,1710302304483888273,2070,2039,2060,2089,2060,2069,1167
1138,1710302304493915599,2044,2081,2034,2060,2045,2052,1193
1139,1710302304503906396,2062,2016,2054,2025,2027,2061,1196
1140,1710302304513890129,2047,2096,2044,2066,2064,2046,1196
1141,1710302304523888329,2064,2021,2064,2059,2052,2061,1196
1142,1710302304533886942,2044,2080,2040,2052,2045,2045,1192
1143,1710302304543892245,2068,2028,2072,2057,2052,2056,1195
1144,1710302304553888803,2044,2083,2037,2060,2060,2037,1194
1145,1710302304563892435,2067,2026,2074,2068,2077,2063,1197
1146,1710302304573891958,1973,2077,2042,2041,2026,2043,1195
1147,1710302304583892673,2068,2030,2066,2068,2040,2072,1196
1148,1710302304593903778,2100,2088,2049,2091,2072,2067,1195
1149,1710302304603894776,2048,2026,2068,2052,2044,2056,1198
1150,1710302304613894138,2056,2084,2040,2036,2060,2052,1196
1151,1710302304623892629,2044,2031,2072,2064,2051,2045,1192
1152,1710302304633893115,2034,2085,2040,2072,2052,2052,1196
1153,1710302304643910913,2018,2018,2058,2012,2029,2085,1198
1154,1710302304653904324,2066,2093,2042,2066,2061,2009,1194
1155,1710302304663893218,2075,2029,2077,2057,2044,2052,1197
1156,1710302304673894484,2045,2086,2041,2058,2062,2083,1195
1157,1710302304683897113,2301,2086,2041,2058,2062,2083,1195
1158,1710302304693904602,2041,2018,2065,2041,2040,2065,1194
1159,1710302304703891872,2066,2083,2035,2073,2057,1989,1193
1160,1710302304713894361,2041,2076,2069,2060,2011,2045,1194
1161,1710302304723895386,2065,2019,2038,2066,2082,2130,1197
1162,1710302304733880002,2048,2087,2055,2013,2029,2092,1196
1163,1710302304743916154,2055,2028,2042,2066,2081,2042,1195
1164,1710302304753893976,2020,2100,2070,2047,2050,2061,1198
1165,1710302304763878753,2076,2032,2040,2076,2084,2068,1197
1166,1710302304773880149,2037,2085,2065,2062,2064,2038,1194
1167,1710302304783879231,2056,2021,2038,2031,2067,2023,1194
1168,1710302304793906857,2047,2082,2069,2040,2050,2098,1195
1169,1710302304803893367,2064,2026,2034,2059,2104,2046,1192
1170,1710302304813877811,2045,2088,2073,2050,2033,2041,1193
1171,1710302304823887814,2058,2027,2044,2056,2050,2008,1193
1172,1710302304833880595,2052,2083,2071,2056,2072,2043,1193
1173,1710302304843926035,2058,2018,2042,2066,2072,2134,1195
1174,1710302304853898858,2040,2081,2058,2049,2021,2085,1195
1175,1710302304863900304,2060,2024,2289,2079,2061,2084,1196
1176,1710302304873881554,2060,2024,2069,2072,2040,2090,1196
1177,1710302304883881778,2060,2024,2069,2072,2040,2090,1196
1178,1710302304893904886,2060,2024,2069,2072,2040,2090,1196
1179,1710302304903917995,2060,2024,2069,2072,2040,2090,1196
