seq,time,data[0],data[1],data[2],data[3],data[4],data[5],data[6]
201,1710920701081538510,2061,2051,2076,2057,2052,2024,1192
202,1710920701091541726,2033,2062,1994,2049,2053,2047,1193
203,1710920701101538119,2062,2044,2052,2052,2049,2044,1192
204,1710920701111543320,2072,2068,2078,2066,2073,2056,1196
205,1710920701121507462,2095,2102,2025,2068,2057,2049,1196
206,1710920701131478006,2068,2073,2096,2065,2065,2046,1194
207,1710920701141510548,2040,2065,2092,2042,2054,2020,1192
208,1710920701151476414,2111,2122,2081,2081,2067,2080,1195
209,1710920701161505620,2042,2017,2011,2062,2046,2031,1194
210,1710920701171478599,2059,2046,2056,2094,2084,2075,1196
211,1710920701181507174,2065,2101,2069,2056,2060,2108,1196
212,1710920701191476065,2018,2022,2091,2050,2028,2036,1193
213,1710920701201501163,2062,2061,2058,2044,2047,2044,1192
214,1710920701211484532,2056,2020,2022,2073,2078,2070,1195
215,1710920701221506393,2021,2003,2015,2002,2030,2024,1193
216,1710920701231485524,2070,2051,2050,2093,2067,2083,1197
217,1710920701241507506,2031,1998,1981,2044,2045,2045,1194
218,1710920701251476597,2088,2078,2137,2042,2056,2080,1197
219,1710920701261506595,2053,2073,2048,1966,2006,2024,1194
220,1710920701271476648,2050,2005,2027,2056,2053,2049,1196
221,1710920701281499642,2076,2068,2074,2059,2047,1995,1195
222,1710920701291484664,2076,2100,2097,2016,2016,2027,1192
223,1710920701301507328,2049,2043,2073,2083,2072,2053,1196
224,1710920701311543356,2040,2017,1966,2048,2049,2071,1196
225,1710920701321548727,2045,2056,2056,2044,2027,2025,1193
226,1710920701331588653,2069,2087,2083,2056,2059,2057,1195
227,1710920701341545822,2073,2120,2079,2059,2060,2037,1192
228,1710920701351550592,2041,2000,2052,2034,2064,2044,1192
229,1710920701361564268,2049,2043,2037,2056,2043,2029,1194
230,1710920701371552566,2037,2054,2010,2116,2084,2086,1196
231,1710920701381547276,2048,1944,2018,1989,2001,2020,1194
232,1710920701391547787,1948,1993,2020,2063,2054,2014,1192
233,1710920701401548419,2060,2085,2090,2096,2080,2069,1197
234,1710920701411547177,2091,2088,2100,2067,2069,2074,1195
235,1710920701421554622,2036,2039,2056,2053,2041,2028,1193
236,1710920701431546727,2090,2070,2045,2059,2073,2057,1196
237,1710920701441542650,2170,2094,2079,1986,2032,2052,1196
238,1710920701451545485,2080,1988,1989,2047,2084,2056,1197
239,1710920701461534314,1994,2057,2048,2145,2072,2024,1194
240,1710920701471546789,2116,2095,2090,2072,2070,2066,1198
241,1710920701481539795,2037,2021,2021,2084,2066,2047,1195
242,1710920701491536279,2092,2081,2106,2021,2056,2058,1197
243,1710920701501534436,2081,2084,2041,2059,2031,2033,1192
244,1710920701511547200,2037,2016,2072,2190,2136,2063,1194
245,1710920701521542291,2106,2210,2079,1795,1961,2016,1193
246,1710920701531538535,2156,2129,2046,1943,1998,2054,1195
247,1710920701541539817,1962,1938,2038,2069,2045,1985,1193
248,1710920701551580755,2120,2086,2069,2085,2080,2099,1196
249,1710920701561536251,2160,2146,2045,2094,2058,2021,1193
250,1710920701571539608,2044,1821,2014,2114,2062,2056,1196
251,1710920701581545279,2164,2050,2059,2067,2065,2035,1194
252,1710920701591539479,2115,1942,2077,2212,2112,2056,1196
253,1710920701601541272,2116,2034,2050,2136,2113,2089,1195
254,1710920701611538136,2254,2212,2072,2009,2052,2032,1194
255,1710920701621546052,2222,1997,2056,1970,1983,2052,1196
256,1710920701631541183,2098,2037,2038,2086,2064,2027,1192
257,1710920701641541063,2104,2362,2038,2022,2036,2054,1196
258,1710920701651540853,2105,2041,2042,2117,2097,2057,1196
259,1710920701661542106,2015,1924,2060,2128,2104,2084,1197
260,1710920701671544040,2062,2021,2029,1970,2035,2160,1197
261,1710920701681544271,2028,1931,2031,2037,2056,2065,1197
262,1710920701691543770,2123,2404,2143,1950,2038,2073,1196
263,1710920701701550362,1981,2029,2052,2094,2032,1993,1188
264,1710920701711543771,1997,1965,2034,2096,2056,2002,1194
265,1710920701721542558,2064,2200,2052,2057,2033,2042,1193
266,1710920701731542198,2021,2051,2077,2082,2075,2019,1191
267,1710920701741543180,2111,1992,2085,2058,2047,2028,1193
268,1710920701751542259,2076,2223,2169,2189,2112,2073,1197
269,1710920701761543381,1988,1985,2018,1929,1988,2040,1192
270,1710920701771544514,1924,2035,2054,2018,2016,1989,1192
271,1710920701781547670,2081,2076,2033,2072,2044,2046,1193
272,1710920701791553201,2114,2342,2129,2072,2046,2037,1192
273,1710920701801523325,2040,1970,2011,2075,2040,2025,1193
274,1710920701811515290,2073,2165,2081,2053,2029,2076,1196
275,1710920701821546158,2121,2299,2094,2130,2090,2028,1194
276,1710920701831547081,2082,1841,1979,2071,2034,2065,1196
277,1710920701841531872,2042,1992,2017,2179,2097,2082,1196
278,1710920701851527303,2152,2108,2106,2136,2106,2052,1195
279,1710920701861531693,2024,1926,1936,1962,1972,2052,1196
280,1710920701871531943,2078,2185,2092,2166,2148,2101,1195
281,1710920701881552653,2116,2258,2024,2037,2048,2072,1195
282,1710920701892158724,1960,1993,2033,2161,2109,2086,1195
283,1710920701901521985,2129,2149,2131,2130,2095,2078,1194
284,1710920701911514441,2022,1994,2028,1885,1964,2015,1192
285,1710920701921499964,2139,2073,2036,2084,2081,2074,1192
286,1710920701931566461,2091,2084,2086,2040,2049,2034,1194
287,1710920701941533408,2025,2172,2037,2065,2051,2055,1195
288,1710920701951559969,2092,1944,2039,1958,2031,2104,1195
289,1710920701961551012,1919,2231,2056,1971,2036,2056,1192
290,1710920701971532147,2068,2064,2065,2075,2046,2018,1193
291,1710920701981562054,2004,2029,2043,2128,2070,2019,1192
292,1710920701991535454,1896,1956,2028,2042,2097,2060,1194
293,1710920702001537438,2036,1982,2061,1992,2013,2037,1192
294,1710920702011523251,2044,2122,2112,2093,2078,2046,1192
295,1710920702021533942,1939,1924,2004,1925,1985,2020,1194
296,1710920702031537198,1885,2018,2046,1941,1992,2040,1194
297,1710920702041536257,2023,1951,2096,1799,2016,2065,1197
298,1710920702051529174,1941,2026,2049,2080,2088,2147,1196
299,1710920702061529424,2077,2016,2056,2137,2100,2098,1195
300,1710920702071536748,2026,2098,2063,1949,2070,2122,1195
301,1710920702081516721,1948,1833,2031,2132,2060,2020,1192
302,1710920702091533633,2007,1980,2029,2046,2040,2005,1193
303,1710920702101535417,2046,1989,2008,2071,2027,2009,1192
304,1710920702111541309,1970,2115,2149,2062,2021,2043,1192
305,1710920702121547109,1880,2014,2072,2092,2053,2036,1194
306,1710920702131540788,2090,2160,2013,2106,1976,2052,1196
307,1710920702141528264,2009,2000,2018,2084,2084,2052,1196
308,1710920702151528174,2027,2113,2042,1870,1969,2040,1192
309,1710920702161552361,2025,1933,1966,2226,2068,1991,1192
310,1710920702171508558,1883,1894,2036,2046,2076,2049,1194
311,1710920702181504421,2074,2302,2097,2077,2068,2085,1197
312,1710920702191533215,2011,1980,1985,2090,2076,2083,1194
313,1710920702201551411,2093,2055,2033,1909,2008,2072,1194
314,1710920702211531824,1944,2021,2070,2064,2053,2041,1192
315,1710920702221568313,1999,2040,2072,1917,1986,2082,1196
316,1710920702231533116,2051,2042,2052,2047,2011,2031,1194
317,1710920702241529850,2128,2058,2085,2110,2088,2120,1195
318,1710920702251524350,2130,2012,2032,2061,2025,2056,1196
319,1710920702261526475,2012,1904,2047,2057,2070,2041,1193
320,1710920702271552474,2115,2500,2108,2009,2042,2087,1197
321,1710920702281532888,2121,2087,2083,2106,2084,2088,1196
322,1710920702291539040,2117,2044,2044,2176,2117,2107,1196
323,1710920702301538759,1896,1893,1982,1581,1885,1972,1191
324,1710920702311534751,2129,2040,2052,2096,2075,2085,1195
325,1710920702321534942,2076,1768,2045,2088,2084,2052,1196
326,1710920702331546725,2142,2206,2083,2169,2090,2056,1196
327,1710920702341532198,2079,2024,2057,2144,2041,1975,1194
328,1710920702351530815,2025,2029,2078,2013,2029,2045,1193
329,1710920702361565231,2114,2165,2113,2014,2032,2088,1196
330,1710920702371531828,2168,2320,2076,2081,2099,2044,1192
331,1710920702381536938,2163,2048,2058,2090,2058,2024,1192
332,1710920702391524324,1974,2037,2076,2133,2102,2080,1193
333,1710920702401546096,2109,2092,2130,2120,2092,2109,1197
334,1710920702411518403,2082,2015,2054,2001,2022,2041,1193
335,1710920702421556807,1864,1988,2040,2046,1972,1913,1192
336,1710920702431537961,2087,2213,2032,2041,2040,2040,1192
337,1710920702441539795,2160,2215,2073,2067,2085,2062,1197
338,1710920702451528935,1818,2017,2073,1953,2002,2060,1198
339,1710920702461527943,2133,2138,2096,2132,2096,2095,1195
340,1710920702471542501,2082,2068,2092,2144,2126,2150,1197
341,1710920702481532953,2187,2112,2034,1970,2011,2064,1196
342,1710920702491540247,2044,2002,2128,2104,2081,2130,1197
343,1710920702501557891,2121,2005,2073,2078,2100,2034,1192
344,1710920702511534357,2013,2342,2086,1805,1948,2052,1196
345,1710920702521535449,2123,2077,2080,1968,2021,2123,1195
346,1710920702531536441,2092,2092,2136,2128,2120,2128,1194
347,1710920702541538625,2056,2116,2036,2021,2018,2044,1192
348,1710920702551536912,1905,2034,2086,1930,2012,2044,1192
349,1710920702561534599,2010,2029,2145,2120,2116,2004,1194
350,1710920702571549176,2119,2294,2174,2136,2110,2020,1192
351,1710920702581538186,1996,2015,2056,2097,2092,2153,1197
352,1710920702591535792,2086,1993,2072,1956,2010,2112,1195
353,1710920702601535852,1714,1828,2049,1803,1956,2096,1197
354,1710920702611533218,2084,2154,2087,2068,2088,2039,1192
355,1710920702621570598,2104,2039,1964,2051,2061,2004,1194
356,1710920702631540762,2034,2034,2044,1942,2049,2027,1194
357,1710920702641538468,2186,2198,2061,1872,1943,1948,1192
358,1710920702651537897,2047,2008,2005,1928,2012,2047,1195
359,1710920702661536114,1986,2184,2042,2072,2101,2090,1195
360,1710920702671535293,2037,2067,2068,2004,2014,2033,1193
361,1710920702681536566,2053,2110,2114,2207,2140,2070,1193
362,1710920702691537899,2087,2065,2034,2154,2056,2074,1194
363,1710920702701552957,1958,1836,1994,1842,1936,2007,1191
364,1710920702711570170,2126,2081,2084,2059,2053,2058,1194
365,1710920702721540204,2077,1973,2085,2065,2067,2040,1194
366,1710920702731540094,2071,2089,2034,2061,2053,1993,1193
367,1710920702741539313,2024,2053,2068,1996,2042,2058,1194
368,1710920702751534113,2087,2048,1947,2082,2061,2079,1196
369,1710920702761535546,2099,2068,2041,2122,2091,2094,1194
370,1710920702771542209,2072,2036,2067,2078,2092,2077,1195
371,1710920702781547609,1967,1966,1988,2194,2035,2020,1192
372,1710920702791529155,2102,2000,2006,2120,2096,2100,1197
373,1710920702801540156,2122,2066,2072,2045,2064,2105,1195
374,1710920702811538032,2008,1934,1922,1951,2015,2084,1195
375,1710920702821539946,2088,2016,2053,2080,2081,2117,1196
376,1710920702831525840,2059,2068,2049,1998,2026,2045,1195
377,1710920702841538805,2084,2218,2120,2101,2070,2054,1194
378,1710920702851538625,2044,2114,2029,2000,1997,1997,1193
379,1710920702861538925,2118,2128,2058,2058,2073,2074,1195
380,1710920702871538135,1940,1940,2053,1783,1956,1980,1191
381,1710920702881546120,2049,2043,2074,2120,2072,2083,1195
382,1710920702891540018,2092,1848,2059,2058,2045,2029,1192
383,1710920702901554265,2074,2078,2008,1722,1840,1986,1192
384,1710920702911540510,2154,2116,2132,2129,2100,2149,1196
385,1710920702921606375,2028,1883,2003,2024,2011,2044,1193
386,1710920702931604251,2060,2129,2124,2298,2178,2116,1196
387,1710920702941543566,2030,1965,2104,2190,2086,2050,1193
388,1710920702951539349,2010,2095,2152,2221,2152,1945,1192
389,1710920702961540952,2129,1946,2046,2186,2069,2081,1195
390,1710920702971531444,2095,2056,2043,2116,2084,2068,1196
391,1710920702981543317,1940,2086,2046,2067,2049,1916,1192
392,1710920702991542005,2034,2046,2075,2030,2052,2040,1193
393,1710920703001546083,1977,1921,2054,2000,2075,2126,1196
394,1710920703011540924,2011,2088,2026,2209,2078,2114,1195
395,1710920703021598833,2043,1972,2066,2108,2073,2070,1196
396,1710920703031535032,1944,1934,1912,2111,2102,2089,1193
397,1710920703041555031,2000,2105,2032,1926,2026,2060,1194
398,1710920703051545814,2070,2001,2045,2026,2041,2037,1191
399,1710920703061545363,1949,2058,2054,2108,2037,2019,1192
400,1710920703071587353,2057,2057,2142,2121,2040,2033,1192
401,1710920703081586451,1987,1834,1960,2029,2041,2003,1193
402,1710920703091595089,2057,1928,2025,2183,2107,2056,1195
403,1710920703101581873,2146,2113,2050,1887,1960,2024,1192
404,1710920703111584458,2101,2104,2138,2080,2048,2050,1193
405,1710920703121582134,2020,1854,2200,2057,2053,2026,1194
406,1710920703131576203,2058,2426,2158,2087,2104,2053,1195
407,1710920703141577335,2088,2071,2104,2152,2120,2108,1194
408,1710920703151577677,2098,2155,2097,2262,2085,2116,1195
409,1710920703161577987,2073,2092,2150,2275,2114,2064,1196
410,1710920703171576845,2080,2066,2044,2178,2110,2019,1189
411,1710920703181576154,1978,1979,2027,2027,2038,2082,1195
412,1710920703191532672,2049,2033,2026,2034,2069,2028,1190
413,1710920703201575544,2048,2179,2056,2062,2046,2019,1193
414,1710920703211583229,2053,2005,2102,2109,2085,1960,1194
415,1710920703221575474,2026,2016,2059,2108,2065,2074,1195
416,1710920703231553633,1967,1961,2012,2139,2108,2095,1196
417,1710920703241531401,1994,2008,2099,2101,2122,2125,1197
418,1710920703251529067,2063,1997,1989,2042,2043,2094,1195
419,1710920703261571067,2310,2373,2176,2303,2216,2243,1196
420,1710920703271573322,2104,2088,2058,2053,2080,2088,1195
421,1710920703281576237,2044,2032,2044,2050,2076,2118,1197
422,1710920703291571418,2116,2020,2064,2159,2137,2104,1195
423,1710920703301580656,2013,1990,2077,2083,2055,2042,1189
424,1710920703311586227,2088,1926,2065,2132,2100,2057,1195
425,1710920703321566179,2029,2188,2178,1922,2010,1993,1193
426,1710920703331568804,2126,2036,2044,2072,2034,2081,1193
427,1710920703341565408,2082,2014,2070,2145,2101,2032,1193
428,1710920703351566400,2067,1948,2074,2064,2096,2141,1195
429,1710920703361568304,1984,1869,1920,2118,2000,2050,1196
430,1710920703371563535,2108,2092,2072,2133,2097,2130,1194
431,1710920703381566191,2101,1931,2022,2080,2030,2011,1192
432,1710920703391563916,1972,1804,2014,2096,2049,1968,1193
433,1710920703401563876,2140,2014,2067,2040,2056,2062,1198
434,1710920703411568766,2073,2157,2128,2163,2136,2122,1195
435,1710920703421562735,1988,1944,1955,2169,2040,2074,1196
436,1710920703431564208,2108,2059,2034,2074,2085,2110,1193
437,1710920703441560972,2062,2045,1862,2048,2040,2014,1192
438,1710920703451562155,2007,2136,2084,1964,1965,1948,1192
439,1710920703461563156,2001,1910,2042,2134,2096,2056,1197
440,1710920703471561173,2106,2087,2057,2088,2065,2077,1197
441,1710920703481506730,2045,1972,2066,1816,1941,1992,1194
442,1710920703491561234,2091,2020,2046,2055,2052,2031,1194
443,1710920703501559360,2131,2026,2094,2087,2150,2110,1195
444,1710920703511559551,2044,2066,2123,1935,1992,2041,1194
445,1710920703521558289,2081,2067,2117,2145,2114,2080,1196
446,1710920703531557437,1883,2456,2138,2124,2090,2008,1194
447,1710920703541557157,2040,2031,2084,2170,2110,2065,1194
448,1710920703551577786,2043,2008,2068,2050,2024,2025,1191
449,1710920703561561686,2000,1921,2029,2099,2053,2052,1195
450,1710920703571556156,2077,2140,2078,2048,2079,2089,1195
451,1710920703581554773,1999,1973,2028,2040,2088,2056,1193
452,1710920703591556547,2048,2056,2145,2022,2019,2060,1196
453,1710920703601559934,2078,2072,2037,2142,2054,2041,1194
454,1710920703611552330,1973,2037,2082,2036,1994,1993,1193
455,1710920703621551609,2091,1996,2003,1984,2033,2008,1192
456,1710920703631552941,2046,2008,2057,2069,2069,2065,1196
457,1710920703641552721,2109,2300,2200,2209,2120,2087,1195
458,1710920703651560486,2057,2086,2049,2010,2036,2065,1196
459,1710920703661545137,1992,2132,2006,1898,1976,1968,1194
460,1710920703671551419,2093,2001,2049,1949,2004,2037,1196
461,1710920703681549977,2134,2093,1966,2066,2081,1996,1195
462,1710920703691572630,2055,1986,2052,1961,2018,2061,1194
463,1710920703701558022,2077,2043,2019,2173,2084,2067,1194
464,1710920703711548805,2045,2042,2099,1938,2017,2047,1194
465,1710920703721549006,2025,1958,2045,1900,2026,2109,1196
466,1710920703731547263,2032,2007,2041,2011,1999,2036,1194
467,1710920703741553585,2150,2275,2091,2206,2080,2044,1193
468,1710920703751553054,2090,2047,2069,2080,2070,2080,1195
469,1710920703761545610,2073,2048,2068,2080,2064,2036,1193
470,1710920703771545440,2002,2133,2120,2050,2042,2040,1193
471,1710920703781543387,2130,2272,2064,2064,2083,2053,1196
472,1710920703791563856,2034,1963,1996,2082,2143,2064,1193
473,1710920703801497781,2034,2008,1946,2172,2075,2048,1196
474,1710920703811545201,1983,2059,2072,2026,2058,2041,1195
475,1710920703821545030,2009,1946,2008,1802,1904,2078,1197
476,1710920703831544871,2038,1965,2088,2001,2035,2076,1195
477,1710920703841543739,2061,2080,2044,2138,2106,2068,1194
478,1710920703851547877,2084,2125,2070,2057,2095,2104,1195
479,1710920703861546064,2042,1978,2009,1954,2035,2086,1196
480,1710920703871542557,2034,2072,2076,2134,2101,2041,1192
481,1710920703881542557,2112,2009,2077,2066,2107,2160,1194
482,1710920703891548790,2012,2037,2042,2001,1993,1999,1192
483,1710920703901538180,2053,2060,2037,1976,2037,2057,1191
484,1710920703911544201,2020,2510,2117,2279,2053,1992,1191
485,1710920703921544222,2105,2059,2112,2096,2108,2090,1195
486,1710920703931544352,1980,2044,2058,2072,2017,1971,1192
487,1710920703941543832,2113,2091,1948,2071,2017,2060,1196
488,1710920703951542259,2095,2098,2117,2037,2096,2077,1196
489,1710920703961546437,2016,1999,1998,2075,1986,1967,1192
490,1710920703971546357,2051,2075,2069,2156,2118,2047,1192
491,1710920703981546407,2072,2084,2052,2024,2049,2088,1195
492,1710920703991553361,1961,1986,2035,2121,2041,2051,1195
493,1710920704001537150,2086,2003,2162,2094,2068,2082,1196
494,1710920704011545246,2092,2061,2099,2082,2085,2128,1197
495,1710920704021542982,2002,2074,2058,1936,1951,2036,1194
496,1710920704031540838,2008,2036,2018,2107,2077,2015,1193
497,1710920704041551899,2113,2248,2108,2083,2116,2093,1196
498,1710920704051538814,2008,2005,2090,2100,2080,2054,1194
499,1710920704061543694,2072,2083,2123,2117,2087,2048,1194
500,1710920704071546689,2012,1962,1986,2122,2068,2066,1196
501,1710920704081551359,2052,1972,2029,2144,2097,2052,1197
502,1710920704091553333,2142,2171,2047,2092,2079,2163,1195
503,1710920704101544236,2142,2124,2093,1849,1965,2073,1194
504,1710920704111543124,2006,2008,2165,2086,2068,2050,1195
505,1710920704121543274,2000,2043,2014,2055,2074,1973,1194
506,1710920704131559455,2062,2049,2068,2192,2096,2038,1193
507,1710920704141543295,2063,2249,2085,2198,2123,2027,1192
508,1710920704151542734,2065,1999,2043,2051,2056,2062,1196
509,1710920704161542103,2100,2057,2004,2114,2069,2057,1195
510,1710920704171542714,2066,2001,2064,1967,2001,2065,1194
511,1710920704181545690,2072,2084,2062,2029,2016,2095,1197
512,1710920704191538697,2024,1997,2026,1972,1965,2064,1195
513,1710920704201541964,2081,2066,2074,2044,2070,2098,1196
514,1710920704211543366,2072,2062,2071,1965,2012,2099,1196
515,1710920704221540270,2041,2034,2091,2117,2106,2089,1194
516,1710920704231551852,2067,2095,2130,2104,2092,2080,1197
517,1710920704241547665,2071,1926,2112,2066,2041,2036,1193
518,1710920704251547926,2031,2045,2053,1998,1987,2014,1192
519,1710920704261556612,2068,2078,2016,2064,2052,2064,1195
520,1710920704271541794,2056,2038,1957,2099,2088,2072,1195
521,1710920704281546784,2088,1989,1981,2046,2052,2048,1197
522,1710920704291541534,1966,1920,2030,2088,2076,2022,1193
523,1710920704301541515,2053,2052,2008,2059,2034,2072,1194
524,1710920704311544150,1996,2077,2038,2265,2085,2000,1193
525,1710920704321540633,2058,2010,2007,2154,2105,2073,1196
526,1710920704331545372,2047,2048,2017,2086,2100,2108,1197
527,1710920704341544802,2024,2064,2003,1926,2001,1992,1193
528,1710920704351543028,2055,2015,1985,2098,2098,2085,1197
529,1710920704361540924,2056,2084,2059,2041,2000,2020,1192
530,1710920704371541295,2031,2036,2152,2094,2087,2078,1197
531,1710920704381547527,2140,2092,2108,2200,2109,2001,1193
532,1710920704391545353,2100,2048,2064,2096,2083,2077,1195
533,1710920704401542227,2030,2016,2052,2001,2057,2072,1196
534,1710920704411542389,2058,2068,2040,1868,1979,2038,1194
535,1710920704421541948,2117,1964,2100,2116,2041,1984,1195
536,1710920704431553199,2059,2001,2129,2156,2122,2105,1197
537,1710920704441543311,2029,2038,2077,2141,2084,2081,1195
538,1710920704451542169,2068,2053,2065,2074,2074,2046,1192
539,1710920704461541818,2071,2025,2039,2114,2080,2028,1193
540,1710920704471542209,2044,2162,2072,2089,2077,2072,1194
541,1710920704481551527,2008,2040,1925,1916,1955,1946,1193
542,1710920704491548241,2072,2024,1993,2042,2060,2039,1192
543,1710920704501560223,2032,2031,2042,2064,2037,1976,1191
544,1710920704511568139,2032,2118,2000,1945,2061,2092,1196
545,1710920704521542611,2092,2033,2045,2101,2088,2098,1195
546,1710920704531543412,2023,1911,2022,2075,2030,2057,1194
547,1710920704541545026,2082,2137,2061,2066,2061,2081,1194
548,1710920704551543684,2041,2038,1979,2051,2036,2118,1196
549,1710920704561541409,2078,2043,2074,2044,2032,2079,1195
550,1710920704571545788,2085,2075,2072,2072,2084,2118,1196
551,1710920704581578340,2004,2096,2019,1796,2001,2079,1194
552,1710920704591536551,2128,2128,2075,2026,2050,2053,1195
553,1710920704601570375,2096,2111,2112,2111,2093,2052,1196
554,1710920704611573350,2060,2008,1999,2036,2066,2080,1196
555,1710920704621568933,2034,2002,1920,1831,1958,2012,1194
556,1710920704631586446,2083,1999,2112,2091,2082,2074,1196
557,1710920704641565086,2060,2034,2052,2012,2038,2081,1194
558,1710920704651566299,2048,1984,2008,1952,2004,2054,1195
559,1710920704661566489,2065,2029,1996,2088,2073,2058,1194
560,1710920704671572049,2114,2085,2139,2113,2112,2081,1195
561,1710920704681557672,2028,2134,2031,1819,1853,2030,1193
562,1710920704691568383,2058,2044,2064,2128,2097,2072,1194
563,1710920704701565998,2110,2057,2096,2035,2032,2145,1194
564,1710920704711567381,2096,2036,2084,2034,2048,2091,1194
565,1710920704721563805,2052,2067,2056,2127,2083,2097,1197
566,1710920704731556231,1946,1977,1959,1729,1886,1979,1194
567,1710920704741561982,2037,2011,2051,2047,2072,2060,1194
568,1710920704751559317,2011,1923,1977,2026,2043,2036,1193
569,1710920704761578193,2052,2066,2073,2113,2095,2066,1195
570,1710920704771559317,2028,2077,2129,1988,2058,2078,1196
571,1710920704781567603,2027,2021,2056,2040,1998,2012,1192
572,1710920704791561382,2076,2123,2106,2011,2042,2067,1193
573,1710920704801531004,2077,2083,2039,1978,2020,2092,1196
574,1710920704811550291,2058,2060,2085,2129,2125,2156,1194
575,1710920704821558346,2098,2128,2077,2091,2113,2057,1196
576,1710920704831559148,2041,2008,1963,2101,2092,2075,1194
577,1710920704841558447,2028,2004,2082,2135,2094,2073,1196
578,1710920704851556925,2093,2083,2090,2199,2096,2007,1193
579,1710920704861554961,2096,2102,2053,2093,2057,2066,1195
580,1710920704871570380,2099,2170,2051,1969,2023,2074,1197
581,1710920704881557987,2107,2081,2097,2049,2054,1968,1192
582,1710920704891556324,2086,2104,2036,2006,2028,2037,1194
583,1710920704901554611,2088,2058,2078,1996,2066,2059,1192
584,1710920704911552938,2125,2072,2075,2039,2047,2101,1195
585,1710920704921555062,2002,2067,2148,1884,1959,2035,1191
586,1710920704931568508,2041,2075,2057,1970,2045,2105,1196
587,1710920704941553530,2070,2070,2053,2166,2095,2077,1194
588,1710920704951523173,2084,2027,2077,2072,2068,2088,1195
589,1710920704961555043,2058,2036,2053,2028,2013,2047,1192
590,1710920704971552528,2072,2134,2090,2195,2073,2042,1192
591,1710920704981541458,2100,2060,2095,2186,2123,2074,1195
592,1710920704991543582,2061,2064,2058,2061,2069,2060,1195
593,1710920705001547108,2036,1996,2031,2094,2044,2021,1192
594,1710920705011546397,2072,2038,2096,2072,2082,2090,1195
595,1710920705021550155,2076,1989,2019,1885,2032,2062,1194
596,1710920705031547941,2068,2093,1996,2005,1962,2011,1192
597,1710920705041547319,2081,2061,1998,2123,2116,2074,1196
598,1710920705051547460,2064,2049,2022,2086,2080,2100,1193
599,1710920705061547961,2017,2013,2008,1849,1949,2005,1193
600,1710920705072447288,2076,2094,2119,2114,2090,2073,1197
601,1710920705081549795,2028,2019,2065,2095,2112,2089,1196
602,1710920705091556558,2021,2009,1968,1779,1926,2015,1192
603,1710920705101514488,2080,2065,2070,2031,2032,2056,1192
604,1710920705111552421,2062,2049,2130,1966,2011,2056,1195
605,1710920705121528906,2061,2037,2097,1944,2026,2067,1195
606,1710920705131530690,2091,2096,2088,2106,2067,2059,1194
607,1710920705141533786,2044,2060,2044,2007,2028,2056,1194
608,1710920705151553644,2100,2065,2074,2022,2044,2116,1195
609,1710920705161553985,2081,2280,2052,2056,2082,2082,1195
610,1710920705171537834,1978,1992,2088,2073,2094,2012,1192
611,1710920705181538716,2059,2041,2050,1945,2030,2029,1194
612,1710920705191545689,2061,2091,2076,2086,2048,2024,1193
613,1710920705201539037,2065,2040,2041,2159,2065,2050,1195
614,1710920705211556350,2080,2012,2044,2078,2061,2074,1196
615,1710920705221561600,2048,1984,2031,1832,1976,2024,1192
616,1710920705231539608,2057,2004,1988,2094,2080,2082,1195
617,1710920705241539799,2060,1964,2047,2126,2102,2104,1197
618,1710920705251540430,2056,2009,2079,2163,2095,2072,1194
619,1710920705261577300,2044,2008,2050,2052,2055,2049,1195
620,1710920705271540731,1989,1966,2032,2054,2024,2017,1195
621,1710920705281557082,2068,2036,2018,1987,2026,2052,1197
622,1710920705291543036,2084,2060,2038,2064,2076,2088,1196
623,1710920705301541653,2064,2080,2056,1883,1953,2020,1191
624,1710920705311565819,2056,2078,2066,2040,2064,2080,1197
625,1710920705321556381,2050,2182,2069,2056,2049,2034,1193
626,1710920705331562343,1979,2037,2052,2212,2098,2073,1196
627,1710920705341530563,2060,2058,2086,2033,2045,2047,1193
628,1710920705351533749,2052,2035,2055,2081,2085,2056,1195
629,1710920705361569016,1985,1889,2029,2125,2054,1938,1192
630,1710920705371508682,2100,2105,2089,2154,2113,2113,1195
631,1710920705381540823,2060,1983,2002,2124,2085,2037,1195
632,1710920705391536134,2038,2029,2004,2072,2045,2080,1196
633,1710920705401536936,2041,2011,2036,1994,2045,2002,1192
634,1710920705411576321,2021,1982,1981,2091,2086,2001,1193
635,1710920705421566071,2146,2104,2033,2154,2056,2004,1192
636,1710920705431533189,2104,2101,2129,2093,2102,2103,1195
637,1710920705441535714,2069,2111,2046,2015,1960,2054,1195
638,1710920705451532358,2072,2085,2105,2137,2110,2080,1197
639,1710920705461536926,2045,2053,2061,2058,2047,2063,1197
640,1710920705471537267,1977,2025,2061,2187,2074,2042,1192
641,1710920705481535594,2128,2299,2081,2141,2105,2057,1194
642,1710920705491535665,2060,2033,2042,2017,2063,2051,1194
643,1710920705501533270,2041,2144,2042,2054,2044,2018,1192
644,1710920705511563357,2078,2071,2053,2109,2086,2072,1196
645,1710920705521567555,2088,2103,2090,2071,2053,2031,1192
646,1710920705531532239,1980,2108,2047,1721,1896,1889,1193
647,1710920705541532178,2074,2068,2066,2047,2023,2071,1196
648,1710920705551544011,2076,1957,2069,2091,2082,2088,1194
649,1710920705561536166,2050,2028,2045,2032,2059,2064,1196
650,1710920705571534634,2052,2010,2073,1997,2025,2043,1192
651,1710920705581536848,2168,2081,2107,2117,2129,2141,1197
652,1710920705591536107,2105,2084,2020,2019,2040,2073,1193
653,1710920705601549102,2096,2052,2032,2081,2058,2104,1196
654,1710920705611529424,2104,2219,2066,2080,2063,2084,1195
655,1710920705621527631,2056,1951,2030,2093,2100,2093,1197
656,1710920705631526799,2079,2024,2051,2098,2082,2069,1198
657,1710920705641528623,2161,1994,1964,1925,1982,2021,1195
658,1710920705651534805,2081,2194,2089,1951,2009,2102,1197
659,1710920705661550355,2079,2056,2051,2105,2089,2098,1196
660,1710920705671552980,1970,1917,2004,2140,2016,2003,1192
661,1710920705681545326,2064,2054,2051,2136,2076,2066,1195
662,1710920705691541409,2078,2142,2040,2041,2073,2095,1194
663,1710920705701542932,2052,2034,2042,2049,2041,1992,1191
664,1710920705711540718,2122,2148,2126,2061,2056,2078,1197
665,1710920705721534075,2048,2082,2060,2155,2071,2042,1192
666,1710920705731531911,2042,2124,2114,2165,2090,1987,1193
667,1710920705741532833,2061,2064,2062,1996,2037,2066,1196
668,1710920705751531120,1952,1860,2030,2173,2094,1982,1193
669,1710920705761536070,2094,2004,2067,2059,2075,2100,1195
670,1710920705771546740,2069,1961,2026,2077,2079,2125,1195
671,1710920705781548604,2033,2025,2029,1955,1983,2023,1193
672,1710920705791525089,2025,2044,2020,2115,2064,2044,1193
673,1710920705801533866,2054,2121,2097,2250,2120,1981,1192
674,1710920705811543424,2116,2079,2018,2053,2056,2102,1196
675,1710920705821529558,2072,2071,2072,2113,2104,2077,1197
676,1710920705831530941,2038,2064,2101,2047,2061,2057,1194
677,1710920705841540028,2033,2051,2002,2039,2051,1998,1193
678,1710920705851546501,2096,2144,2069,2008,2047,2078,1196
679,1710920705861543185,2008,1936,2050,2176,2112,2203,1194
680,1710920705871550218,2085,2015,2062,2126,2066,2109,1194
681,1710920705881535320,2081,2068,2060,2083,2056,2038,1192
682,1710920705891562862,2188,2153,2085,2148,2125,2180,1198
683,1710920705901544738,2021,2056,2029,1801,1984,2034,1192
684,1710920705911532145,2071,2037,1977,2053,2077,2100,1198
685,1710920705921548155,2015,2025,2027,1957,2024,2013,1193
686,1710920705931533046,2072,2052,2045,2106,2089,2041,1196
687,1710920705941560799,2088,2007,2099,1973,2028,2022,1194
688,1710920705951508540,2024,2068,2098,2189,2072,1914,1193
689,1710920705961539058,2096,2058,2013,1991,2019,2034,1193
690,1710920705971534199,2068,2084,2076,2025,2039,2058,1198
691,1710920705981540221,2052,2021,1998,2073,2056,2056,1193
692,1710920705991536384,2106,2241,2112,2133,2065,2092,1194
693,1710920706001527737,2078,1916,2024,2081,2050,2008,1192
694,1710920706011531985,1989,2008,1993,2072,2041,1987,1192
695,1710920706021531405,2078,2043,2045,2030,2034,1998,1193
696,1710920706031532297,2061,1998,2117,2162,2090,2144,1196
697,1710920706041529591,2084,2138,2043,1938,2025,2072,1196
698,1710920706051545582,1993,2038,2074,2053,2040,2084,1195
699,1710920706061568976,2037,1988,2047,2042,2072,2069,1193
700,1710920706071537657,1908,2012,1959,1938,1964,1895,1192
701,1710920706081538639,2059,2045,2084,1932,2019,2074,1195
702,1710920706091528570,2057,2035,2022,2093,2066,1999,1192
703,1710920706101531665,2029,2340,2070,1982,2028,1885,1190
704,1710920706111539370,2072,2096,2072,2061,2067,2107,1197
705,1710920706121540503,2045,2050,2052,2186,2077,2104,1194
706,1710920706131540363,2068,2028,2058,2004,2065,2118,1195
707,1710920706141538339,2063,2068,1973,2048,2052,2056,1196
708,1710920706151540914,1988,1918,2040,2061,2052,2011,1193
709,1710920706161541676,2027,1980,2021,2017,2005,2008,1190
710,1710920706171541255,2094,2050,2063,2096,2104,2094,1194
711,1710920706181564389,2107,2053,2033,2029,2011,2057,1195
712,1710920706191543359,2029,1985,2100,1972,2050,2075,1195
713,1710920706201543009,1864,2116,1989,1898,1955,1909,1192
714,1710920706211541807,2092,2038,2050,2002,2062,2102,1195
715,1710920706221547978,2041,2041,2059,2041,2030,2050,1195
716,1710920706231549030,2004,2115,2009,2133,2057,2021,1193
717,1710920706241544282,2056,1974,1999,2070,2082,2088,1196
718,1710920706251543200,2053,2046,2066,2189,2153,2081,1194
719,1710920706261541416,2043,2067,2134,2072,2106,2057,1194
720,1710920706271528872,2085,2140,2104,2070,2121,2062,1196
721,1710920706281542378,2094,2082,2079,2041,2064,2047,1193
722,1710920706291543159,2098,2035,2069,2139,2082,2037,1192
723,1710920706301543150,2096,2056,2053,2108,2068,2068,1194
724,1710920706311543410,2049,2051,2074,1882,1979,2024,1192
725,1710920706321531337,2091,2097,2097,2137,2108,2087,1193
726,1710920706331540635,2021,2009,2043,1802,1948,1999,1192
727,1710920706341528983,2026,2092,2051,2069,2072,2021,1192
728,1710920706351530386,2126,2052,2072,2112,2100,2133,1194
729,1710920706361532160,1920,1953,2013,1749,1836,1953,1191
730,1710920706371542519,2008,2016,2065,2151,2098,2068,1195
731,1710920706381528423,2102,2053,2068,2133,2086,2022,1192
732,1710920706391532992,2064,2056,2041,1836,1932,1983,1194
733,1710920706401533453,2074,2044,2025,2069,2061,2040,1194
734,1710920706411530778,2059,2072,2058,2218,2092,2050,1195
735,1710920706421549703,1970,1956,2076,2085,2047,2014,1195
736,1710920706431539754,2083,2119,2126,2076,2078,2052,1195
737,1710920706441534936,2012,2017,2071,2077,2114,2103,1195
738,1710920706451533914,2014,1964,2045,1807,1948,1999,1191
739,1710920706461533222,2069,2033,2052,2045,2072,2019,1191
740,1710920706471545756,2073,2066,2082,2068,2064,2126,1195
741,1710920706481530808,2083,2029,2056,2094,2066,2069,1194
742,1710920706491531760,2072,2080,2091,2010,2059,2094,1195
743,1710920706501531510,2076,2057,2018,2133,2060,2046,1193
744,1710920706511535397,2057,2170,2080,2102,2090,2072,1196
745,1710920706521542882,2058,1999,2022,2096,2069,2081,1195
746,1710920706531524337,2071,1936,2079,1977,2029,2059,1194
747,1710920706541531691,2038,1978,2096,2064,2070,2041,1192
748,1710920706551523335,2088,2129,2089,2103,2116,2092,1194
749,1710920706561529667,1974,2015,2110,2155,2081,2080,1196
750,1710920706571540618,2081,2159,2037,2077,2064,2068,1195
751,1710920706581530860,2032,2008,2067,2122,2122,2104,1197
752,1710920706591532132,2082,1979,2112,2173,2130,2116,1197
753,1710920706601532703,2038,2052,2046,2125,2103,2124,1196
754,1710920706611530839,1944,2029,2095,2024,1948,2024,1192
755,1710920706621532062,2089,2050,2044,2072,2064,2051,1196
756,1710920706631541570,2017,1976,2045,2055,2063,2072,1195
757,1710920706641532894,2081,2099,2028,2116,2072,2068,1195
758,1710920706651532533,2034,2123,2097,2094,2037,2044,1193
759,1710920706661530329,1949,2036,2075,2062,2016,2021,1192
760,1710920706671544457,2026,2028,2112,2007,2047,2078,1198
761,1710920706681534808,2090,2076,2056,2002,2029,1986,1193
762,1710920706691538906,2060,2057,2070,2152,2108,2096,1196
763,1710920706701535921,2004,1992,2063,2005,2047,2029,1192
764,1710920706711542042,2064,2080,2104,2128,2076,2072,1198
765,1710920706721532204,2072,2127,2099,1830,1984,2004,1193
766,1710920706731532354,2093,2068,2044,2160,2088,2144,1197
767,1710920706741536041,1994,1928,1993,1944,2003,2041,1194
768,1710920706751534498,2050,2033,2041,2126,2096,2074,1196
769,1710920706761534388,2049,2066,2056,2021,2035,2034,1193
770,1710920706771537154,1932,1944,2013,2050,2032,1991,1191
771,1710920706781540630,2040,1974,2020,2022,2068,2058,1197
772,1710920706791531523,2073,2073,2049,2047,2089,2068,1196
773,1710920706801534709,1996,2165,2033,2152,2066,2002,1195
774,1710920706811538356,2084,2053,2044,1897,1990,2067,1196
775,1710920706821532345,2053,2044,2048,2046,2029,2035,1193
776,1710920706831532615,2124,2106,2129,2229,2096,2065,1195
777,1710920706841533988,2101,1972,2105,2208,2145,2125,1194
778,1710920706851533488,2096,2086,2130,2098,2090,2077,1193
779,1710920706861533858,2019,2029,2145,2064,2043,1994,1194
780,1710920706871548947,2052,1983,2031,2101,2038,2060,1196
781,1710920706881529571,2133,2157,2093,2144,2089,2013,1194
782,1710920706891536584,2028,2093,1949,1695,1904,2020,1193
783,1710920706901535412,2077,2068,2059,2084,2070,2070,1194
784,1710920706911532416,2092,2099,2082,2077,2089,2070,1194
785,1710920706921534159,2016,2109,2033,1914,1972,2020,1190
786,1710920706931530342,2025,2030,2146,2024,2065,2064,1196
787,1710920706941530443,2120,2090,2049,1941,2029,2020,1192
788,1710920706951534200,2036,2012,2065,2155,2046,2056,1193
789,1710920706961536274,2082,2123,2102,1922,1993,2064,1197
790,1710920706971527417,2047,2068,2049,2044,2061,2094,1194
791,1710920706981532677,2014,1985,2064,2152,2096,2054,1196
792,1710920706991532698,2062,2056,1954,2221,2139,2078,1196
793,1710920707001530904,2068,1976,2122,2090,2081,2065,1194
794,1710920707011533168,2017,2031,2028,2099,2049,2066,1197
795,1710920707021528230,2082,2073,2051,2089,2048,2042,1192
796,1710920707031536065,2078,2077,2069,1921,2026,2108,1196
797,1710920707041534191,1916,1952,1949,1908,1984,2007,1193
798,1710920707051534652,2057,2021,2066,2056,2084,2032,1193
799,1710920707061534662,2061,2080,2068,2100,2071,2065,1195
800,1710920707071533018,1968,2064,2084,2119,2071,2036,1193
801,1710920707081538459,2084,2102,2094,2104,2075,2065,1193
802,1710920707091538980,2074,2041,2060,2035,2084,2072,1194
803,1710920707101533360,2016,1976,2056,1666,1915,2025,1193
804,1710920707111535644,2060,2018,2024,2084,2057,2097,1195
805,1710920707121540042,2086,2160,2054,1893,2026,2036,1192
806,1710920707131556443,2014,2045,2084,2112,2092,2088,1194
807,1710920707141535885,2060,2002,2050,1975,2031,2072,1194
808,1710920707151533741,2064,2141,2043,2045,2048,2060,1195
809,1710920707161539051,2064,1929,2046,2054,2037,2069,1195
810,1710920707171527148,1964,2015,2074,1996,1999,2018,1193
811,1710920707181535474,2035,2025,2037,2093,2101,2089,1195
812,1710920707191532448,2077,2048,2080,2094,2107,2074,1194
813,1710920707201534092,2031,2088,2089,2075,2045,2000,1191
814,1710920707211564309,2059,2174,2048,2025,2037,2051,1196
815,1710920707221557947,2028,1917,2052,1925,2017,2031,1194
816,1710920707231515476,2032,1994,2026,2220,2088,2033,1192
817,1710920707241536887,2069,2031,2039,2126,2104,2052,1195
818,1710920707251533861,2050,2042,2086,2104,2074,2032,1194
819,1710920707261535875,2079,2028,2001,2068,2066,2006,1194
820,1710920707271535054,2098,2213,2096,2120,2088,2049,1197
821,1710920707281536016,2005,2008,2051,2046,2032,2030,1191
822,1710920707291533521,2052,2081,2080,2121,2040,1981,1191
823,1710920707301548239,2080,1977,2121,2112,2078,2077,1193
824,1710920707311528963,2010,1981,2054,2080,2059,2088,1195
825,1710920707321533832,2074,2088,2039,2032,2029,2056,1195
826,1710920707331532640,2049,2048,2075,2032,2069,2051,1196
827,1710920707341533120,2073,2059,2021,2089,2044,2043,1194
828,1710920707351467756,2090,2167,2072,2107,2109,2090,1194
829,1710920707361534463,2001,2171,2012,1867,1942,2002,1192
830,1710920707371532129,2078,2085,2076,2104,2101,2080,1196
831,1710920707381537018,2080,2134,2068,2026,2052,2064,1196
832,1710920707391525406,2089,2112,2076,2020,2092,2108,1194
833,1710920707401527981,1995,1939,2025,1876,1956,2036,1192
834,1710920707411533391,2059,2040,2089,2080,2074,2066,1195
835,1710920707421539343,2069,2063,2077,2043,2061,2051,1195
836,1710920707431535075,2052,2056,2024,2053,2064,2072,1195
837,1710920707441555263,2080,2073,2097,2085,2085,2134,1197
838,1710920707451535325,1692,1641,1818,1818,1954,2002,1193
839,1710920707461534674,2076,2059,2053,2172,2107,2094,1194
840,1710920707471531869,2075,2104,2081,2106,2057,2060,1195
841,1710920707481532480,2034,2028,2040,2048,2040,2044,1192
842,1710920707491533532,2074,2076,2076,2176,2112,2072,1196
843,1710920707501534013,2093,2092,2114,2169,2091,2036,1192
844,1710920707511538221,2080,2054,2027,2037,2040,2024,1194
845,1710920707521534595,2068,2055,2096,2017,2076,2101,1196
846,1710920707531534054,2006,2022,2002,1876,1984,2032,1193
847,1710920707541548671,2052,2037,2028,2149,2113,2024,1192
848,1710920707551533603,2052,2022,2033,2116,2080,2050,1194
849,1710920707561536508,2092,2082,2065,2034,2036,2061,1195
850,1710920707571533503,2057,2057,2011,1930,1967,2033,1193
851,1710920707581452770,2049,2057,2031,2000,2030,2035,1192
852,1710920707591490782,2062,2059,2140,2160,2136,2085,1194
853,1710920707601525608,2047,2102,2022,2108,2057,1946,1193
854,1710920707611530457,2029,1997,2047,2121,2132,2046,1193
855,1710920707621530668,2095,2125,1996,2088,2056,2150,1195
856,1710920707631528774,2012,2040,2074,1976,2023,1992,1190
857,1710920707641501232,2064,2057,2048,2114,2092,2075,1196
858,1710920707651532472,2016,2024,2016,1933,2013,2056,1194
859,1710920707661534004,2073,2077,2134,2171,2105,2074,1196
860,1710920707671522683,2029,2053,2064,2171,2088,2037,1192
861,1710920707681531049,2082,2024,2038,2113,2068,2034,1192
862,1710920707691526891,2055,2116,2084,2056,2061,2076,1194
863,1710920707701532602,2080,2044,2057,1945,2020,2077,1193
864,1710920707711529446,2035,2073,2085,1922,1994,1961,1193
865,1710920707721533233,2088,2157,2080,2025,2056,2050,1197
866,1710920707731531720,2100,2044,2050,2115,2046,2072,1197
867,1710920707741556007,2068,2036,2020,1973,1996,1996,1193
868,1710920707751533954,2051,1985,2043,2020,2055,2053,1196
869,1710920707761536900,2061,2044,2030,1881,1970,2017,1192
870,1710920707771533514,2082,2120,2002,1957,2047,2066,1195
871,1710920707781496985,2050,2049,2064,2065,2040,2032,1191
872,1710920707791540037,2125,2090,2045,2064,2094,2052,1193
873,1710920707801501494,2033,1910,1999,1979,2019,1993,1193
874,1710920707811535639,2052,2056,1946,1931,1974,2022,1194
875,1710920707821533144,2001,1945,2062,2093,2056,2032,1194
876,1710920707831533815,2060,2006,2050,2112,2082,2045,1194
877,1710920707841521431,2040,2080,2089,1944,1930,1992,1193
878,1710920707851532452,2089,2070,2064,2036,2037,2081,1197
879,1710920707861536531,2059,2134,2032,2011,2036,2085,1196
880,1710920707871533355,2056,2037,2052,2138,2084,2047,1194
881,1710920707881534567,2089,2111,2074,2016,2063,2010,1192
882,1710920707891553152,2081,2008,2077,1893,1984,2046,1192
883,1710920707901538474,2067,2096,2060,2065,2054,2064,1192
884,1710920707911538665,2103,2134,2102,2054,2045,2068,1197
885,1710920707921539156,2050,1987,1973,2130,2066,2072,1193
886,1710920707931538976,1968,1937,2065,2013,2042,2104,1195
887,1710920707941549275,2008,1885,2044,2018,2057,2058,1194
888,1710920707951540709,2022,2051,2081,1970,2096,2101,1194
889,1710920707961544336,2048,2046,2066,1962,1989,2026,1192
890,1710920707971540398,2024,2145,2092,2147,2100,2014,1191
891,1710920707981546280,2060,2004,2038,2106,2092,2065,1193
892,1710920707991538004,2060,2157,2116,2079,2069,2049,1196
893,1710920708001542553,2044,2047,2044,2044,2050,2011,1190
894,1710920708011542573,2020,2027,1991,1951,2042,1985,1190
895,1710920708021542553,2044,1980,2093,2145,2095,2069,1199
896,1710920708031543224,2061,2025,2011,2058,2060,2041,1192
897,1710920708041544036,2069,2078,2023,1972,1969,2036,1191
898,1710920708051544397,2058,1990,2052,2061,2071,2022,1192
899,1710920708061545509,2069,2060,2064,1982,2016,2064,1196
900,1710920708071544206,2043,2065,2038,2041,2016,2052,1193
901,1710920708081564454,2057,2046,2064,2060,2056,2042,1191
902,1710920708091549596,2009,2004,1942,1977,1969,2025,1192
903,1710920708101545849,2125,2060,2063,2141,2109,2087,1192
904,1710920708111547092,2072,2082,2077,2105,2061,2080,1194
905,1710920708121547212,2063,2056,2046,2080,2043,2043,1193
906,1710920708131530069,2056,2029,1996,2059,2065,2061,1193
907,1710920708141547452,1985,1992,1953,1886,1968,1964,1191
908,1710920708151530711,2024,2078,2104,2076,2075,2127,1195
909,1710920708161535690,1998,2022,2040,2032,2002,2031,1193
910,1710920708171517706,2053,2036,2029,2044,2053,2037,1193
911,1710920708181521814,2064,2056,2024,1966,1990,2036,1190
912,1710920708191532925,2014,2074,2059,2089,2023,1983,1192
913,1710920708201533306,2074,2173,2066,1973,2006,2054,1195
914,1710920708211533596,1967,2175,2059,2050,2087,2094,1196
915,1710920708221557091,2095,2156,2106,2196,2068,2022,1192
916,1710920708231533576,2047,2020,2012,2187,2088,2062,1194
917,1710920708241532835,2086,2132,2135,2140,2086,2045,1192
918,1710920708251529249,2128,2184,2086,2086,2081,2092,1195
919,1710920708261531843,2094,2081,2070,2009,2028,2064,1194
920,1710920708271534087,2095,2108,2038,1918,1995,2055,1195
921,1710920708281535189,1958,2008,2036,1985,1999,2002,1194
922,1710920708291534388,2092,2127,2076,2069,2037,2057,1194
923,1710920708301493179,2055,2064,2098,2059,2046,2018,1190
924,1710920708311530069,2013,1960,2005,2066,2029,2030,1192
925,1710920708321530100,2026,2004,2039,2010,2043,2032,1193
926,1710920708331523227,2033,1954,2038,2077,2092,2088,1194
927,1710920708341533076,2085,2070,2080,2128,2080,2073,1194
928,1710920708351533096,2064,2097,2053,2109,2057,2074,1196
929,1710920708361534468,2062,2044,2089,2085,2057,2014,1192
930,1710920708371534929,2076,2204,2076,1995,1979,2075,1193
931,1710920708381531062,2071,2076,2073,2086,2072,2076,1195
932,1710920708391535319,2061,2026,2064,2112,2094,2032,1191
933,1710920708401537624,2017,1997,1975,1920,1992,2027,1192
934,1710920708411535250,2005,2000,2109,2073,2058,2017,1193
935,1710920708421510693,2076,2093,2054,2124,2082,2058,1195
936,1710920708431534869,2086,2046,2055,1963,2024,2078,1195
937,1710920708441531593,2065,2066,2025,2056,2044,2012,1193
938,1710920708451534538,2029,1898,1949,2042,2053,2068,1198
939,1710920708461532505,2053,2017,2033,2121,2046,1997,1195
940,1710920708471533106,2059,2040,2062,1887,1984,2040,1193
941,1710920708481556000,2009,1994,2043,1929,1996,1993,1193
942,1710920708491539979,2069,2098,2046,2064,2064,2005,1193
943,1710920708501538175,2086,2114,2102,2134,2121,2072,1194
944,1710920708511536292,2096,2141,2050,2090,2028,2068,1195
945,1710920708521526664,1994,2036,2010,1928,1978,2036,1192
946,1710920708531529308,2068,2094,2112,2000,2065,2078,1193
947,1710920708541536022,2075,2116,2047,2071,2031,2028,1192
948,1710920708551533848,2050,2040,2056,2069,2064,2077,1196
949,1710920708561535771,2067,2034,2036,2018,2052,2070,1194
950,1710920708571525502,2036,2074,2104,2072,2074,2059,1195
951,1710920708581536352,2076,2044,2039,2092,2075,2096,1196
952,1710920708591536783,2064,2036,2068,2039,2068,2104,1196
953,1710920708601536282,1996,2024,2073,2121,2074,2074,1197
954,1710920708611546251,2056,2072,2105,2067,2056,2063,1195
955,1710920708621527115,2056,2100,2081,2012,2013,2096,1195
956,1710920708631529249,2061,2130,2058,2124,2093,2065,1196
957,1710920708641532194,2033,2001,2085,2021,2015,2022,1194
958,1710920708651535701,2046,2053,2022,1938,1974,2046,1192
959,1710920708661538256,2060,2124,1988,2019,2015,2015,1193
960,1710920708671541682,2024,2085,2083,2025,2014,2072,1193
961,1710920708681539458,2088,2061,2054,2090,2075,2018,1189
962,1710920708691538697,2074,2006,2034,2092,2073,2066,1195
963,1710920708701551842,2038,1989,2012,2110,2052,2039,1190
964,1710920708711527886,2092,2159,2060,2086,2052,2051,1196
965,1710920708721535230,2063,2030,2047,2096,2065,2004,1193
966,1710920708731533858,1956,1876,2030,2004,2033,2053,1192
967,1710920708741533307,2006,1980,1998,2141,2076,2048,1194
968,1710920708751547494,2047,2020,2053,1986,1995,2084,1195
969,1710920708761534499,2074,2109,2109,2099,2114,2010,1194
970,1710920708771532756,2090,2068,2043,2142,2117,2084,1197
971,1710920708781551151,2060,2023,2040,2096,2080,2056,1195
972,1710920708791526334,2099,2084,2072,2030,2069,2057,1197
973,1710920708801540590,2058,2005,1985,2057,2068,2077,1196
974,1710920708811531413,2050,2030,2077,1973,2032,2077,1194
975,1710920708821527767,2070,2049,2053,2130,2047,2041,1196
976,1710920708831516205,2044,2112,2058,2054,2044,2040,1192
977,1710920708841528839,1987,2024,2094,1992,2025,2038,1193
978,1710920708851535671,2084,2080,2110,1993,2042,2003,1192
979,1710920708861527656,2069,2149,2066,2001,2005,2034,1193
980,1710920708871534629,2074,2159,2049,2162,2136,2085,1196
981,1710920708881534449,2096,2097,2072,2064,2091,2072,1195
982,1710920708891536653,1972,2014,2044,1970,1973,2016,1192
983,1710920708901551722,2069,2075,2106,2125,2065,2025,1192
984,1710920708911529620,2072,2043,2046,2100,2069,2090,1196
985,1710920708921539138,1995,2050,2104,2108,2040,2017,1193
986,1710920708931534049,2058,2105,2080,2121,2064,2075,1197
987,1710920708941535160,2014,2045,2052,2112,2090,2060,1193
988,1710920708951555339,2062,2062,2065,2094,2088,2099,1196
989,1710920708961531554,2064,2038,2058,2176,2061,2044,1192
990,1710920708971538007,2043,2066,2052,2074,2088,2146,1195
991,1710920708981536614,2088,2072,2056,2085,2082,2055,1194
992,1710920708991539679,2060,2015,2053,2027,2062,2100,1196
993,1710920709001535161,2027,2035,1985,2053,2025,2047,1192
994,1710920709011546633,2000,2006,2026,2048,2032,2012,1192
995,1710920709021544328,2077,2068,2042,2082,2044,2079,1196
996,1710920709031546382,2062,2055,2088,2094,2105,2084,1196
997,1710920709041556041,2045,2101,2071,2064,2010,2027,1193
998,1710920709051539199,2000,2003,2040,2096,2000,1969,1193
999,1710920709061539890,2059,2080,2036,2101,2064,2082,1196
1000,1710920709071537395,2078,2098,2070,2070,2077,2051,1195
1001,1710920709081536954,2060,2078,2055,1940,1961,2028,1194
1002,1710920709091548756,2068,2072,2067,2012,2040,2067,1194
1003,1710920709101527366,2050,2036,2042,1898,2019,2037,1194
1004,1710920709111537295,2018,2057,2074,2020,2036,2033,1193
1005,1710920709121533667,2075,2032,1964,2076,2078,2058,1196
1006,1710920709131532796,2041,2058,2074,2173,2088,2088,1195
1007,1710920709141535351,2066,2028,2098,2040,2087,2043,1194
1008,1710920709151530412,2057,2034,2062,2028,2058,2041,1192
1009,1710920709161531153,1976,1985,2024,2084,2072,1970,1194
1010,1710920709171536213,2089,2069,2047,2072,2084,2073,1197
1011,1710920709181536403,2048,2049,2092,2088,2034,2025,1193
1012,1710920709191542124,2081,2080,2096,2133,2088,2074,1196
1013,1710920709201544628,2056,2040,2035,1987,2036,2052,1193
1014,1710920709211544298,2008,2022,2052,2056,2062,2006,1193
1015,1710920709221534850,2015,2012,2140,2056,2094,2038,1194
1016,1710920709231535561,2047,2041,2057,2046,2076,2078,1195
1017,1710920709241543376,2075,2093,2068,2013,2040,2067,1196
1018,1710920709251542465,1978,2047,2041,2047,2053,2040,1193
1019,1710920709261537655,2082,2042,2054,2059,2050,2053,1197
1020,1710920709271537234,2057,2044,2061,2075,2065,2076,1194
1021,1710920709281544007,1990,2014,1904,1916,2002,2024,1192
1022,1710920709291541242,2090,2073,2093,2174,2112,2086,1197
1023,1710920709301541081,2061,2050,2024,2019,2036,2067,1194
1024,1710920709311543055,2080,2056,2047,2153,2062,2060,1194
1025,1710920709321542965,2094,2068,2042,1999,2012,2056,1196
1026,1710920709331548335,2136,2096,2105,2138,2093,2089,1195
1027,1710920709341546341,2080,2073,2121,2038,2038,2025,1194
1028,1710920709351541212,2041,2017,2134,2128,2085,2018,1192
1029,1710920709361528708,2029,2075,2073,2071,2070,2008,1196
1030,1710920709371543626,2045,2050,2062,2088,2035,2024,1193
1031,1710920709381541141,2072,2049,2051,2043,2073,2013,1193
1032,1710920709391543967,2056,2006,2004,2116,2059,2069,1195
1033,1710920709401545369,2030,1989,2037,2042,2087,2067,1196
1034,1710920709411545930,2041,2004,2056,2109,2071,2056,1195
1035,1710920709421545860,2043,2073,2068,2117,2091,2060,1196
1036,1710920709431552362,2046,2040,2001,2058,2105,2066,1194
1037,1710920709441547433,2059,2032,2054,2152,2080,2029,1193
1038,1710920709451531684,2080,2072,2126,2136,2062,2054,1195
1039,1710920709461532294,2072,2025,2069,2016,2033,2034,1193
1040,1710920709471548415,2024,2071,2060,2154,2086,2028,1193
1041,1710920709481552282,2036,1988,2034,2121,2086,2042,1193
1042,1710920709491561480,2074,2075,2080,2072,2039,2061,1197
1043,1710920709501528597,2061,2113,2092,2119,2098,2050,1193
1044,1710920709511484123,2042,2064,2097,2056,2030,2024,1192
1045,1710920709521533266,2050,2000,1958,2081,2047,2040,1193
1046,1710920709531536883,1958,2088,2062,1868,1976,2019,1192
1047,1710920709541540410,2081,2080,2028,2025,2066,2031,1194
1048,1710920709551532455,2044,2034,2077,2034,2028,2064,1195
1049,1710920709561530190,2017,2064,2049,2133,2101,2068,1194
1050,1710920709571557672,2052,2095,2053,2066,2058,2064,1195
1051,1710920709581523137,2043,2025,2084,2137,2085,2078,1195
1052,1710920709591532164,2013,2033,2105,2122,2093,2098,1193
1053,1710920709601531773,2072,2080,2082,2140,2082,2023,1192
1054,1710920709611532875,2066,2124,2026,2118,2112,2064,1196
1055,1710920709621536562,2062,2030,2051,2072,2100,2067,1196
1056,1710920709631542533,2048,2032,2005,2105,2040,2061,1195
1057,1710920709641531873,2078,2012,2039,2018,2044,2044,1193
1058,1710920709651532765,2120,2132,2091,2076,2100,2088,1195
1059,1710920709661532965,2061,2056,2026,1907,2020,2048,1194
1060,1710920709671536151,2061,1995,2053,2085,2092,2111,1197
1061,1710920709681538225,2056,2025,2048,1900,2003,1997,1192
1062,1710920709691536131,2053,2049,2046,2111,2027,2085,1195
1063,1710920709701536271,2087,2099,2083,2097,2099,2061,1193
1064,1710920709711517055,2094,2018,2012,2108,2061,2033,1193
1065,1710920709721536191,1994,1976,2009,2052,2017,1972,1194
1066,1710920709731528296,2060,2097,2109,2093,2100,2054,1193
1067,1710920709741531833,2047,1948,2011,2017,2053,2076,1195
1068,1710920709751529218,2045,2047,2087,2116,2067,2003,1189
1069,1710920709761529118,2085,2104,2093,2116,2109,2042,1191
1070,1710920709771569264,2014,2133,2075,2184,2122,1994,1194
1071,1710920709781540509,2112,2017,2022,2128,2060,2028,1193
1072,1710920709791533866,2045,2039,2072,2064,2117,2115,1196
1073,1710920709801531291,2057,2069,2090,2024,2052,2040,1193
1074,1710920709811537293,2068,2033,2080,2192,2112,2062,1196
1075,1710920709821528086,2096,1957,1911,1945,2029,2054,1197
1076,1710920709831525731,2045,2050,2087,2128,2085,2045,1193
1077,1710920709841533806,2059,2034,2104,2057,2081,2043,1192
1078,1710920709851537934,2088,2034,2072,1978,2018,2056,1195
1079,1710920709861531482,2077,2017,2049,2091,2076,2026,1192
1080,1710920709871545108,2047,2034,2046,1952,2018,2074,1195
1081,1710920709881530430,2092,2097,2080,2043,2072,2076,1195
1082,1710920709891534087,2052,2044,2057,2089,2060,2067,1194
1083,1710920709901532513,2009,1952,2009,1914,1973,1995,1189
1084,1710920709911541811,2098,2233,2112,2068,2076,2046,1193
1085,1710920709921529528,2156,2088,2058,2112,2079,2100,1197
1086,1710920709931533094,2060,2086,2074,2083,2068,2129,1195
1087,1710920709941531031,2060,2032,2000,2054,2043,2092,1196
1088,1710920709951532845,2052,2002,1980,2010,2040,2049,1196
1089,1710920709961530270,2057,2041,2068,2138,2082,2121,1195
1090,1710920709971537744,2061,2125,2105,2128,2073,2100,1196
1091,1710920709981534638,2099,2086,2053,2138,2108,2064,1194
1092,1710920709991539888,2029,2056,2060,2300,2105,2074,1194
1093,1710920710001517324,2031,1972,1968,2115,2072,2072,1196
1094,1710920710011534317,2072,2030,2057,2075,2062,2085,1194
1095,1710920710021535419,2065,2028,1981,2082,2069,2051,1196
1096,1710920710031527153,2072,2056,2042,1924,2024,2072,1197
1097,1710920710041524709,2019,2042,2056,2097,2101,2061,1196
1098,1710920710051529829,2085,2070,2025,2172,2098,2059,1196
1099,1710920710061539567,2072,2048,1982,2101,2028,2047,1192
1100,1710920710071533585,2104,2084,2081,2101,2093,2068,1197
1101,1710920710081530699,2017,2052,2037,1910,1954,1986,1193
1102,1710920710091534587,2072,2090,2029,2094,2072,2075,1194
1103,1710920710101484392,2089,2085,2080,2065,2048,2047,1189
1104,1710920710111538264,2064,1957,2036,2081,2060,2082,1194
1105,1710920710121544526,2066,2007,1979,1989,2012,2044,1192
1106,1710920710131532603,2046,2042,2076,2176,2109,2121,1195
1107,1710920710141533765,2093,2065,2056,2172,2086,2093,1195
1108,1710920710151532042,2098,2132,2086,2000,2044,2090,1195
1109,1710920710161533284,1984,2032,2096,1928,1980,1958,1193
1110,1710920710171527112,2067,2165,2105,2066,2083,2076,1197
1111,1710920710181539596,2073,2057,2056,2062,2050,2037,1192
1112,1710920710191532602,2017,2174,2043,1936,2021,1970,1194
1113,1710920710201537071,2076,2005,2040,2130,2100,2033,1194
1114,1710920710211550066,2032,2039,2081,2112,2121,2084,1195
1115,1710920710221529316,2072,2047,2048,2084,2024,1974,1193
1116,1710920710231533214,2028,2032,2032,2104,2060,2035,1194
1117,1710920710241532682,2072,2043,2065,2090,2067,2054,1196
1118,1710920710251546589,2042,2026,2114,2114,2088,2093,1197
1119,1710920710261506302,2007,1989,2054,2065,1999,2029,1193
1120,1710920710271541809,2027,2088,2047,2082,2052,2038,1193
1121,1710920710281506983,2096,2045,2044,2022,2037,2082,1197
1122,1710920710291531610,2008,2141,2066,1624,1847,1928,1191
1123,1710920710301531379,2066,2043,2034,2139,2096,2080,1196
1124,1710920710311528253,2065,2072,2120,2065,2092,2057,1195
1125,1710920710321535898,2045,2037,2024,1920,1972,1937,1193
1126,1710920710331523915,2084,2043,2025,2049,2018,2069,1194
1127,1710920710341512043,2086,2160,2094,2057,2054,2022,1194
1128,1710920710351524175,2054,2027,2064,2168,2132,2068,1194
1129,1710920710361532742,2040,2027,2044,2088,2053,2025,1193
1130,1710920710371535817,2080,2073,2080,2072,2108,2082,1197
1131,1710920710381539775,2046,2058,2054,2100,2064,2005,1192
1132,1710920710391537591,2010,2008,2079,2106,2088,2075,1196
1133,1710920710401534675,2002,2009,1980,2078,2072,2061,1195
1134,1710920710411535136,2031,2044,2036,2066,2073,2050,1196
1135,1710920710421533543,2040,2069,2080,2012,2013,2042,1195
1136,1710920710431530737,1996,1988,2074,2161,2049,2054,1196
1137,1710920710441541027,2057,2022,1936,2116,2086,2056,1193
1138,1710920710451544383,2031,2100,2060,2168,2126,2130,1195
1139,1710920710461536959,2034,2036,1998,2057,2040,2041,1193
1140,1710920710471534544,2078,2093,2069,2132,2128,2093,1195
1141,1710920710481533271,2069,2125,2048,2026,1997,2021,1194
1142,1710920710491535776,2073,2097,2036,2081,2082,2058,1196
1143,1710920710501531849,2045,2058,2118,2094,2070,2065,1193
1144,1710920710511537720,2065,2074,2088,2116,2093,2087,1195
1145,1710920710521536979,2088,2063,2060,2074,2045,2068,1195
1146,1710920710531535275,2043,2027,2024,2073,2068,2030,1193
1147,1710920710541537780,2101,2058,2077,2088,2054,2074,1194
1148,1710920710551527320,2057,2058,2068,2092,2087,2074,1197
1149,1710920710561534233,2073,2000,2093,2114,2074,2058,1196
1150,1710920710571535405,2025,2000,2061,1986,2010,2020,1192
1151,1710920710581529264,2074,2054,2041,2037,2020,2032,1192
1152,1710920710591484879,2065,2048,2029,2066,2081,2077,1196
1153,1710920710601522340,2064,2021,2068,2075,2090,2108,1197
1154,1710920710611533301,2040,2037,1973,1964,1984,2068,1198
1155,1710920710621532179,2081,2099,1980,1992,2025,2059,1197
1156,1710920710631533361,2016,2045,2068,2030,2036,2039,1192
1157,1710920710641529804,2058,2044,2038,2068,2060,2031,1194
1158,1710920710651534052,2022,2120,1974,2010,1969,2040,1193
1159,1710920710661531597,2056,2044,2027,2194,2086,2063,1197
1160,1710920710671537178,2056,2041,2019,2076,2056,2054,1196
1161,1710920710681536176,2057,2058,2096,2141,2095,2034,1194
1162,1710920710691538620,2068,2193,2101,2184,2116,2073,1194
1163,1710920710701535465,2066,2090,2091,2052,2024,2044,1192
1164,1710920710711528692,2049,2050,2000,2094,2057,2008,1192
1165,1710920710721529212,2004,2066,2078,1987,2008,1992,1193
1166,1710920710731533871,2050,2026,2061,2031,2064,2090,1195
1167,1710920710741558799,2060,2064,2084,2105,2042,2024,1195
1168,1710920710751532919,2053,2052,2050,2060,2030,2053,1195
1169,1710920710761532649,2042,2042,2041,2074,2044,2077,1196
1170,1710920710771530635,2039,2052,2084,2097,2063,2062,1197
1171,1710920710781560231,2052,2009,2036,1976,2039,2052,1195
1172,1710920710791527449,2054,2005,2042,2095,2092,2096,1197
1173,1710920710801524423,2023,1986,1999,2054,2056,2065,1194
1174,1710920710811532788,2094,2108,2090,2133,2103,2073,1197
1175,1710920710821537317,2060,2040,2060,2099,2036,2036,1194
1176,1710920710831557806,2056,2046,2112,2113,2100,2078,1195
1177,1710920710841542728,2017,1989,2016,1664,1901,1974,1194
1178,1710920710851537116,2027,2046,2026,2022,2106,2082,1196
1179,1710920710861535924,2067,2082,2053,2117,2089,2043,1194
1180,1710920710871534762,2075,2088,2095,2112,2073,2066,1195
1181,1710920710881536836,2062,2052,2015,1961,2020,2011,1192
1182,1710920710891537367,2080,2042,1961,2096,2072,2103,1196
1183,1710920710901530053,2064,2060,2049,2005,2050,2056,1194
1184,1710920710911536245,2057,1985,2061,2034,2054,2056,1194
1185,1710920710921547646,2080,2053,2042,2133,2088,2042,1193
1186,1710920710931544139,2056,2039,2036,2113,2089,2072,1194
1187,1710920710941547275,2064,2051,2048,2062,2056,2086,1194
1188,1710920710951537076,2004,2026,2021,2010,2051,2006,1192
1189,1710920710961537807,2046,2014,2092,2053,2069,2070,1197
1190,1710920710971535452,2009,2017,2071,2082,2060,2067,1196
1191,1710920710981544449,2090,2104,2056,2084,2045,2052,1195
1192,1710920710991552555,2066,2066,2117,2096,2060,2109,1195
1193,1710920711001530774,2019,2109,2047,1892,1946,1916,1192
1194,1710920711011535201,2084,2079,2104,2056,2092,2106,1196
1195,1710920711021535703,2058,1997,2038,2066,2066,2050,1195
1196,1710920711031535832,2098,2065,2086,2118,2118,2112,1198
1197,1710920711041537536,2044,2113,2016,2028,2012,1978,1194
1198,1710920711051543728,2042,2010,2059,2126,2124,2098,1196
1199,1710920711061540031,2060,2012,2064,2120,2088,2081,1194
1200,1710920711071539009,2052,2023,2085,2104,2073,2068,1197
1201,1710920711081540241,2057,2055,2050,1872,1967,2020,1193
1202,1710920711091537416,2025,2057,2062,2164,2133,2050,1197
1203,1710920711101536794,2061,2020,2122,2076,2057,1994,1191
1204,1710920711111537896,2090,2132,2065,2056,2060,2065,1196
1205,1710920711121538357,2088,2059,2066,2129,2074,2090,1195
1206,1710920711131537675,2072,2094,2081,2017,2072,2070,1196
1207,1710920711141540711,2036,2108,2074,1885,1989,2056,1193
1208,1710920711151546151,2030,2024,2057,2156,2090,2090,1195
1209,1710920711161542013,2083,2038,1930,2005,1997,2015,1193
1210,1710920711171542634,2024,2077,2061,1928,2024,2026,1194
1211,1710920711182909007,2081,2044,2064,1992,2057,2062,1195
1212,1710920711191557031,2066,2066,2030,2003,2051,2076,1194
1213,1710920711201547764,1975,1896,1966,1976,1968,2026,1193
1214,1710920711211548254,2065,2093,2031,2075,2063,2070,1197
1215,1710920711221548695,2070,2027,2086,2052,2052,2025,1193
1216,1710920711231556480,2068,2004,2015,1985,2012,2092,1195
1217,1710920711241547002,2072,2089,2080,2039,2058,2044,1192
1218,1710920711251549136,2052,2057,2045,2084,2104,2098,1195
1219,1710920711261555357,2003,1961,2104,2064,2036,2005,1192
1220,1710920711271553634,2064,2080,2098,2213,2133,2075,1197
1221,1710920711281549867,2057,2062,2060,2074,2078,2075,1195
1222,1710920711291549245,2036,2064,2108,2081,2078,2072,1194
1223,1710920711301548293,2041,1995,2052,2028,2017,2049,1194
1224,1710920711311531762,2066,2020,2105,2084,2085,2096,1195
1225,1710920711321549756,2043,2022,2024,2159,2090,2078,1195
1226,1710920711331552361,2036,2075,2098,2138,2074,2077,1196
1227,1710920711341553513,2072,2051,2120,2009,2023,2030,1192
1228,1710920711351554144,2056,2049,2049,1905,1957,2041,1193
1229,1710920711361554083,2054,2018,2072,2084,2093,2072,1194
1230,1710920711371564844,2130,2171,2058,2177,2074,2060,1193
1231,1710920711381535999,2072,2093,2078,2132,2066,2065,1196
1232,1710920711391535107,2098,2105,2107,2165,2109,2050,1194
1233,1710920711401531841,2120,2148,2057,1923,1978,2010,1193
1234,1710920711411533825,2040,2043,2044,2002,2031,2069,1195
1235,1710920711421535258,2076,2102,2061,2024,2027,2042,1193
1236,1710920711431553371,2058,2128,2109,2052,2072,2080,1196
1237,1710920711441536700,2084,2114,2108,2090,2109,2068,1196
1238,1710920711451479130,2072,2077,2136,2097,2101,2062,1195
1239,1710920711461535067,2046,2053,2030,2089,2037,2040,1193
1240,1710920711471515880,2061,2028,2060,2132,2093,2039,1191
1241,1710920711481537030,2078,2291,2074,2004,2024,2026,1193
1242,1710920711491534025,2041,2049,2043,2114,2066,2053,1195
1243,1710920711501536098,2056,2041,2069,2088,2064,2037,1190
1244,1710920711511534045,2096,2051,2038,1965,2054,2052,1196
1245,1710920711521531419,2097,2109,2057,2056,2015,2042,1191
1246,1710920711531539124,2031,1987,2024,2077,2081,2060,1194
1247,1710920711541533563,2069,2034,2053,2009,2056,2040,1193
1248,1710920711551529906,2060,2056,2045,2061,2068,2052,1195
1249,1710920711561530286,2028,2147,2094,1996,2044,2003,1192
1250,1710920711571534174,2106,2089,2050,2068,2086,2088,1192
1251,1710920711581534715,2106,2097,2058,2047,2040,2057,1196
1252,1710920711591533102,2054,2160,2089,2112,2066,2012,1192
1253,1710920711601542059,2116,2145,2078,2104,2104,2056,1194
1254,1710920711611525908,2072,2059,2047,2040,2053,2057,1193
1255,1710920711621530867,2078,2070,2072,2082,2073,2057,1195
1256,1710920711631515057,2040,2059,2032,2045,2028,2088,1193
1257,1710920711641534574,2013,2052,2066,1946,2048,2037,1192
1258,1710920711651528151,2097,2037,2074,2062,2095,2076,1195
1259,1710920711661530977,2069,2123,2054,1996,2025,2057,1197
1260,1710920711671530375,2066,2075,2092,2162,2079,2068,1196
1261,1710920711681531718,2065,2051,2033,2088,2068,2034,1192
1262,1710920711691539553,2066,2085,2098,2076,2104,2027,1192
1263,1710920711701535394,2096,2117,2028,1978,2012,2045,1189
1264,1710920711711532659,2028,2117,2066,2162,2081,2037,1192
1265,1710920711721532248,2084,1993,2077,1992,2018,2043,1193
1266,1710920711731538921,2049,2046,2047,2086,2073,2072,1196
1267,1710920711741530695,2048,2065,2069,2083,2001,1989,1192
1268,1710920711751530845,2056,2050,2056,2050,2062,2085,1195
1269,1710920711761533119,2053,2089,2096,2093,2073,2031,1194
1270,1710920711771530404,2089,2040,2038,2107,2104,2075,1194
1271,1710920711781543419,2099,2101,2065,1855,1948,2041,1192
1272,1710920711791532688,2057,2093,2132,2093,2077,2077,1195
1273,1710920711801529963,2072,2065,2030,2137,2093,2088,1195
1274,1710920711811554700,2057,2084,2063,2057,2038,2001,1193
1275,1710920711821534040,2093,2129,1933,2058,2087,2061,1195
1276,1710920711831533910,2055,1997,2044,2088,2077,2069,1196
1277,1710920711841538449,2004,2011,2046,2011,2026,2058,1194
1278,1710920711851539941,2076,2024,2040,1965,2008,2056,1194
1279,1710920711861537297,2070,2048,2071,2057,2044,2042,1193
1280,1710920711871533178,2063,2068,2165,2074,2069,2096,1196
1281,1710920711881539430,2029,1985,2082,2051,2044,1990,1193
1282,1710920711891536715,2068,2101,2075,2162,2101,2077,1195
1283,1710920711901539220,2048,2025,1988,1887,1952,2006,1192
1284,1710920711911542135,2098,2052,2045,2062,2102,2059,1195
1285,1710920711921528900,2041,1984,1929,1974,2008,2024,1193
1286,1710920711931532236,2056,2068,2054,2097,2062,2060,1195
1287,1710920711941531134,2052,2042,2062,2005,2023,2038,1194
1288,1710920711951542616,2042,2154,2074,2023,2031,2010,1192
1289,1710920711961532136,2068,2052,2069,2068,2064,2049,1194
1290,1710920711971537366,2068,2077,2084,2100,2082,2057,1195
1291,1710920711981537636,2043,2117,2044,2146,2072,2052,1194
1292,1710920711991541563,2100,2040,2050,2022,2045,2057,1195
1293,1710920712001539228,2064,2083,2098,2034,2015,2064,1195
1294,1710920712011499654,2090,1980,2086,2125,2101,2096,1195
1295,1710920712021515313,2041,1931,2056,2102,2052,2053,1196
1296,1710920712031538287,2074,2056,2056,1957,2015,2064,1194
1297,1710920712041566530,2046,2073,2072,2097,2060,2064,1195
1298,1710920712051535381,2045,2034,2076,1930,1957,2018,1191
1299,1710920712061546421,2051,2040,2084,2065,2050,2027,1194
1300,1710920712071537695,2047,2085,2062,2053,2038,2009,1196
1301,1710920712081542073,2064,2072,2014,2022,2024,1960,1192
1302,1710920712091540921,2078,2064,2026,2084,2040,2073,1195
1303,1710920712101542123,2062,2046,2064,2071,2103,2061,1194
1304,1710920712111538887,2030,1960,2013,2040,2076,2089,1195
1305,1710920712121531172,2026,1985,1958,1884,1924,1996,1192
1306,1710920712131537384,2049,2089,2128,2092,2070,2088,1195
1307,1710920712141537143,2064,2077,2054,2043,2015,2037,1193
1308,1710920712151542131,2079,2080,2124,2092,2069,2110,1195
1309,1710920712161539998,2104,2160,2104,2048,2068,2093,1195
1310,1710920712171538154,2049,2032,2081,2120,2100,2064,1195
1311,1710920712181546870,2077,2076,2053,2035,2073,2043,1193
1312,1710920712191536079,2056,2069,2064,2056,2054,2058,1193
1313,1710920712201539095,2106,2042,2120,2184,2077,2092,1197
1314,1710920712211547631,2022,2028,2126,2090,2065,2077,1196
1315,1710920712221536450,2056,2080,2056,2104,2055,2046,1194
1316,1710920712231536289,2059,2061,2065,2082,2061,2065,1195
1317,1710920712241535498,2061,2064,2041,1995,2044,2060,1194
1318,1710920712251537852,2003,2045,2116,2168,2083,2046,1193
1319,1710920712261512884,2066,1992,1944,2077,2044,2075,1195
1320,1710920712271539214,2060,2052,2072,2108,2060,2065,1198
1321,1710920712281540366,2061,2046,2056,2092,2073,2058,1196
1322,1710920712291539344,2044,2050,2079,2015,2038,2037,1193
1323,1710920712301562007,2064,2015,2006,2005,2038,2050,1195
1324,1710920712311532371,2084,2093,2072,2131,2094,2079,1197
1325,1710920712321542950,2064,2044,1990,1810,1942,2025,1193
1326,1710920712331540646,2048,2052,2024,2128,2116,2072,1196
1327,1710920712341539143,2048,2064,2058,2079,2009,2023,1193
1328,1710920712351534274,2133,2116,2035,2105,2080,2077,1196
1329,1710920712361535385,2080,2140,1979,2037,2037,2034,1193
1330,1710920712371542559,2077,2020,2079,2120,2109,2072,1197
1331,1710920712381548149,2025,2050,2044,1931,1972,2028,1192
1332,1710920712391542539,2056,2057,2079,2073,2073,2085,1195
1333,1710920712401532359,1995,2000,2040,2040,2006,2041,1193
1334,1710920712411542318,2105,2067,2061,2072,2053,2033,1193
1335,1710920712421542097,2035,1994,2043,2108,2020,2004,1193
1336,1710920712431542668,1999,2040,2013,2046,2022,2022,1194
1337,1710920712441574799,2043,2008,2016,2014,2026,2016,1193
1338,1710920712451542297,2060,2060,2088,2076,2029,2062,1196
1339,1710920712461539372,2060,1997,2040,2032,2070,2086,1198
1340,1710920712471541285,2088,2116,2080,2057,1994,2085,1198
1341,1710920712481543129,2088,2209,2075,2069,2069,2062,1196
1342,1710920712491541816,2049,2101,2146,2074,2094,2047,1194
1343,1710920712502153376,2014,2068,2038,1980,2008,2015,1192
1344,1710920712511480419,2143,2036,2069,2167,2090,2098,1196
1345,1710920712521504374,2064,2088,2026,1950,1964,1998,1192
1346,1710920712531546484,2081,2112,2032,2024,2048,2017,1192
1347,1710920712541541775,2050,1979,2022,1950,2021,2036,1195
1348,1710920712551542837,2056,2103,2081,2084,2099,2048,1196
1349,1710920712561538729,2086,2073,2052,2020,2040,2070,1196
1350,1710920712571525173,2063,2060,2017,2114,2107,2078,1196
1351,1710920712581495326,2056,2160,2037,2021,2024,2024,1192
1352,1710920712591544510,2082,2045,2078,2128,2061,2094,1194
1353,1710920712601541063,2114,2222,2085,2101,2049,2040,1193
1354,1710920712611546974,2040,2031,2068,2032,2047,2057,1197
1355,1710920712621533719,2008,2000,2037,2043,2047,2040,1194
1356,1710920712631531494,2065,2055,2148,2172,2102,2076,1196
1357,1710920712641548316,2082,2223,2137,2035,2022,2048,1196
1358,1710920712651539640,2056,2065,2062,2062,2100,2083,1194
1359,1710920712661547524,2021,1945,2047,1797,1985,2008,1194
1360,1710920712671531203,2077,2041,2064,2128,2067,2068,1194
1361,1710920712681551331,2041,2052,1989,2046,2057,2057,1195
1362,1710920712691526965,2008,2027,2009,1968,2013,1974,1193
1363,1710920712701522226,2083,2236,2120,2022,2034,2022,1191
1364,1710920712711533347,2072,2091,2044,2040,2064,2077,1194
1365,1710920712721534248,2076,2071,2108,2074,2053,2044,1193
1366,1710920712731583131,2084,2057,2114,2160,2105,2107,1198
1367,1710920712741537414,2081,1997,2074,2100,2076,2048,1195
1368,1710920712751531552,2056,2069,2084,1957,2022,2022,1191
1369,1710920712761531773,2056,2037,2050,2141,2038,2069,1195
1370,1710920712771532323,2067,2076,2076,2132,2085,2072,1195
1371,1710920712781537313,2068,2049,2092,2068,2076,2073,1195
1372,1710920712791528987,2060,2061,2079,2117,2064,2061,1196
1373,1710920712801539938,1920,1864,2044,2012,2024,2008,1194
1374,1710920712811536240,2072,2065,2086,2115,2089,2080,1197
1375,1710920712821533565,2077,2086,1997,2037,2053,2072,1197
1376,1710920712831553452,2037,2046,2056,1997,2050,2064,1195
1377,1710920712841533184,2058,2016,1986,2034,2047,2032,1192
1378,1710920712851533925,2080,2172,2060,1974,2001,2065,1195
1379,1710920712861537472,2089,2073,2031,2045,2032,2060,1196
1380,1710920712871537452,1985,2009,2056,2056,2042,2043,1192
1381,1710920712881547510,2077,2022,2073,2031,2072,2043,1192
1382,1710920712891538012,2069,2076,2039,2012,2057,2062,1196
1383,1710920712901538363,2161,2175,2064,2021,2057,2050,1195
1384,1710920712911532712,2013,1973,2035,1842,1978,2029,1193
1385,1710920712921551467,2036,2092,2077,2128,2090,2039,1192
1386,1710920712931549544,2065,2064,2096,2140,2085,2062,1195
1387,1710920712941537711,2094,2152,2108,2134,2064,2032,1193
1388,1710920712951534104,2047,2072,2097,2066,2077,2084,1195
1389,1710920712961532230,2017,2018,2008,1925,1984,2064,1195
1390,1710920712971530176,2096,2208,2104,1976,2030,2057,1195
1391,1710920712981558079,2018,1987,2052,2096,2079,2036,1193
1392,1710920712991535276,2085,2152,2137,2084,2096,2096,1194
1393,1710920713001524715,2034,2010,2037,2161,2120,2030,1193
1394,1710920713011531478,2068,2031,2040,2019,2012,2039,1194
1395,1710920713021534444,2027,2052,2064,2033,2050,2040,1196
1396,1710920713031568949,2059,2076,2101,2104,2083,2055,1197
1397,1710920713041529795,2045,2049,2036,2039,2027,2003,1193
1398,1710920713051534724,2058,2007,2083,2117,2106,2068,1195
1399,1710920713061535375,2068,2113,2024,2104,2079,2084,1196
1400,1710920713071533982,2064,2086,2069,2060,2046,2058,1195
1401,1710920713081555913,2061,1994,2013,2068,2083,2030,1194
1402,1710920713091535164,2074,2149,2041,2122,2077,2070,1197
1403,1710920713101536827,2052,2036,2024,2029,2047,2052,1195
1404,1710920713111533461,2060,2059,2014,2068,2060,2110,1195
1405,1710920713121531546,2022,1929,2022,2240,2128,2101,1196
1406,1710920713131541254,1981,2094,2096,2093,2047,2049,1196
1407,1710920713141529432,2057,2018,2045,2055,2051,2046,1192
1408,1710920713151530453,2076,2101,2093,2076,2069,2106,1195
1409,1710920713161532457,2057,2027,2028,2032,2050,2086,1195
1410,1710920713171529211,2022,2009,2015,2082,2093,2079,1195
1411,1710920713181539219,2050,2035,2037,2027,1997,2024,1194
1412,1710920713191530793,2044,2112,2074,1839,1919,1983,1191
1413,1710920713201534119,2028,2065,1981,2101,2080,2052,1197
1414,1710920713211534049,2075,2045,2072,2108,2068,2060,1197
1415,1710920713221534269,2054,2084,2046,2068,2013,2046,1196
1416,1710920713231533648,2056,2046,2014,2052,2054,2062,1197
1417,1710920713241549047,2050,2066,2078,2157,2126,2024,1192
1418,1710920713251548957,2043,2037,2012,2003,1998,2066,1196
1419,1710920713261546191,2073,2047,2010,1958,1993,2052,1194
1420,1710920713271561831,2026,2040,2057,2061,2057,2057,1194
1421,1710920713281572481,2048,2042,2068,2046,2037,2029,1193
1422,1710920713291540530,2054,2089,2121,2089,2075,2094,1195
1423,1710920713301542894,2026,2027,1986,1960,2017,2026,1192
1424,1710920713311544086,2047,2031,2070,2036,2050,2068,1193
1425,1710920713321543004,2090,2105,2042,2084,2064,2013,1192
1426,1710920713331543945,2056,2047,2053,1989,2013,2050,1197
1427,1710920713341542643,2101,2064,2050,2102,2095,2069,1195
1428,1710920713351543284,2018,2071,2045,2075,2061,2052,1195
1429,1710920713361543624,2066,2060,2040,2028,2045,2041,1195
1430,1710920713371562049,2037,2176,2073,2074,2060,2034,1194
1431,1710920713381549335,2028,1987,2032,2067,2029,2038,1193
1432,1710920713391546329,2057,1973,2140,2074,2081,2034,1192
1433,1710920713401542612,2036,2008,2090,1774,1981,2032,1194
1434,1710920713411538714,2052,2045,2076,2086,2088,2082,1195
1435,1710920713421547040,2038,2013,2064,2072,2040,2021,1194
1436,1710920713431549655,2083,2108,2076,2136,2101,2074,1197
1437,1710920713441548462,2060,1948,2052,2012,2058,2112,1196
1438,1710920713451543453,2031,2064,2044,1869,1961,2042,1194
1439,1710920713461546849,2126,2064,2061,2058,2034,2062,1194
1440,1710920713471560645,2069,2070,1996,2064,2037,2046,1193
1441,1710920713481548091,2036,2072,2009,2053,2064,2025,1193
1442,1710920713491541968,2021,1977,2081,2065,2093,2052,1196
1443,1710920713501545636,2114,2118,2080,2044,2065,2037,1191
1444,1710920713511546266,2071,2064,2096,1984,2049,2065,1195
1445,1710920713521558740,2062,2035,2037,2015,2024,2030,1194
1446,1710920713531542379,2058,2064,2005,2025,2049,2041,1192
1447,1710920713541550824,2044,2049,2061,1940,1992,2032,1192
1448,1710920713551543370,2064,2059,2057,2041,2030,2053,1193
1449,1710920713561546235,2001,1988,2029,2068,2035,2020,1196
1450,1710920713571555062,2040,1985,2037,2038,2066,2045,1192
1451,1710920713581549421,2072,1960,2059,2094,2101,2040,1193
1452,1710920713591552256,2009,2011,2033,1890,1947,1998,1192
1453,1710920713601544031,2072,2056,2056,2072,2061,2057,1196
1454,1710920713611550473,2086,2081,2076,2017,2068,2104,1198
1455,1710920713621524944,2019,2042,2070,1933,1985,2054,1195
1456,1710920713631544511,2050,2077,2076,2081,2065,2054,1194
1457,1710920713641539681,2052,2043,2050,2064,2081,2049,1195
1458,1710920713651539551,2045,2029,1977,1892,1998,2050,1196
1459,1710920713661497621,2064,2054,2089,2035,2032,2044,1192
1460,1710920713671502881,2050,1975,2042,2068,2057,2056,1196
1461,1710920713681544821,1994,1967,2044,2097,2042,2002,1193
1462,1710920713691545361,2052,1981,1972,2048,2054,2072,1197
1463,1710920713701543758,2065,2047,2056,2043,2053,2079,1192
1464,1710920713711538077,1993,2004,2059,2135,2071,2025,1192
1465,1710920713721540261,2062,2034,2084,2104,2052,2054,1197
1466,1710920713731534209,2082,2128,2071,2058,2007,2029,1193
1467,1710920713741532175,1945,2088,1951,1977,1989,1985,1192
1468,1710920713751529450,2072,2073,2069,2052,2053,2061,1196
1469,1710920713761529610,2033,1988,2001,2045,2032,2086,1196
1470,1710920713771553405,2009,2004,2044,1896,1954,2019,1193
1471,1710920713782153494,2043,1970,2044,2082,2052,2058,1195
1472,1710920713791539859,2047,2020,2072,2030,2040,2039,1192
1473,1710920713801546331,2054,2056,2040,2032,2062,2026,1193
1474,1710920713811544107,2062,2067,2064,2108,2128,2067,1196
1475,1710920713821561449,2054,2008,2061,2091,2107,2075,1196
1476,1710920713831536682,2036,2130,2056,1688,1892,1985,1192
1477,1710920713841535800,2070,2053,2074,2066,2020,2042,1194
1478,1710920713851536230,2074,2013,2088,2081,2107,2070,1197
1479,1710920713861547051,2029,2061,2088,2089,2064,2040,1192
1480,1710920713871538625,2053,2053,2060,2073,2069,2071,1196
1481,1710920713881535208,2057,2068,2070,2068,2084,2080,1196
1482,1710920713891536450,1995,2197,2068,2117,2048,1986,1192
1483,1710920713901533114,2040,2042,2057,2114,2077,2006,1190
1484,1710920713911536199,2057,2059,2140,2052,2098,2073,1195
1485,1710920713921538173,2013,1984,2025,1960,2000,2028,1193
1486,1710920713931551368,2061,2077,2088,2074,2080,2064,1194
1487,1710920713941534095,2048,2071,2062,2052,2085,2056,1194
1488,1710920713951531530,1994,1966,2032,1978,1991,1992,1193
1489,1710920713961534596,2059,2031,2046,2044,2053,2025,1192
1490,1710920713971548452,2064,2075,2074,2069,2072,2073,1196
1491,1710920713981526981,2062,2089,2106,2088,2050,2028,1192
1492,1710920713991539184,2073,2036,2089,2072,2032,2049,1194
1493,1710920714001534945,2072,2090,2053,2076,2077,2062,1195
1494,1710920714011535026,2053,2040,2061,2068,2006,2069,1194
1495,1710920714021548571,2080,2108,2056,2120,2084,2032,1191
1496,1710920714031529855,2062,2078,2076,2066,2093,2044,1193
1497,1710920714041539252,2064,2052,2041,2053,2050,2052,1195
1498,1710920714051534944,1996,2024,2057,2016,2016,1997,1192
1499,1710920714061535755,2093,2153,2058,2063,2049,2072,1196
1500,1710920714071543019,2084,2092,2068,2056,2072,2037,1191
1501,1710920714081537027,2041,2098,2070,1981,1996,2036,1191
1502,1710920714091539642,2061,2056,2061,2116,2097,2080,1194
1503,1710920714101538149,2066,2062,2082,2097,2105,2061,1192
1504,1710920714111536837,2062,2093,2157,2044,2106,2088,1193
1505,1710920714121546104,2021,1994,2028,2018,2014,1998,1192
1506,1710920714131538258,2064,2024,2081,2075,2041,2086,1195
1507,1710920714141540783,2027,2009,2045,2016,2042,2036,1190
1508,1710920714151540161,2054,1930,2058,2101,2067,2076,1196
1509,1710920714161543047,2101,2206,2079,2145,2120,2096,1196
1510,1710920714171534971,2054,2052,2040,2090,2074,2033,1193
1511,1710920714181537646,2099,2056,2085,2037,2090,2085,1195
1512,1710920714191537345,2044,2034,2006,2092,2102,2044,1191
1513,1710920714201537636,1996,1974,2000,2037,2027,2024,1194
1514,1710920714211541894,2038,1956,2065,2042,2083,2089,1194
1515,1710920714221544819,2020,1976,2035,2088,1963,2029,1194
1516,1710920714231537284,2071,2059,2082,2112,2104,2080,1193
1517,1710920714241539398,2060,2008,2064,2118,2080,2057,1194
1518,1710920714251539808,2009,1976,2002,1971,2050,2048,1197
1519,1710920714261540630,2042,2151,2104,2108,2109,2084,1195
1520,1710920714271537423,2086,2053,2084,2029,2047,2112,1195
1521,1710920714281540890,1896,2091,1988,2029,1954,1992,1192
1522,1710920714291541731,2092,2112,2090,2144,2092,2092,1195
1523,1710920714301541851,2083,2176,2073,2047,2056,2054,1192
1524,1710920714311543655,2024,2028,2044,1992,2000,2023,1194
1525,1710920714321539987,2060,1989,2033,2089,2060,2037,1190
1526,1710920714331542121,2082,2030,2061,2107,2074,2066,1195
1527,1710920714341543734,2027,1972,1985,1589,1856,2020,1192
1528,1710920714351543343,2068,2050,2045,2086,2120,2057,1194
1529,1710920714361550025,2107,2229,2066,2051,2056,2012,1192
1530,1710920714371541188,2029,2042,2068,1958,2038,2096,1196
1531,1710920714381545416,2053,2023,2070,2050,2056,2052,1194
1532,1710920714391546127,2065,2037,2050,2052,2037,2114,1194
1533,1710920714401546568,2065,1987,2058,2029,2019,2069,1197
1534,1710920714411548942,2062,2118,2013,2064,2047,2062,1197
1535,1710920714421525978,2090,2115,2065,2098,2083,2073,1195
1536,1710920714431546537,2036,2113,2032,1725,1928,2020,1191
1537,1710920714441530757,2053,2036,2012,2103,2088,2057,1193
1538,1710920714451548420,2005,2110,2092,2120,2041,2056,1194
1539,1710920714461548469,2053,2058,2056,2066,2035,2020,1191
1540,1710920714471533772,2063,1974,1941,2092,2045,2045,1193
1541,1710920714481549191,2005,2012,2056,2093,2082,2061,1196
1542,1710920714491531527,2068,2115,2124,2011,2058,2037,1193
1543,1710920714501553899,2068,2056,2045,2014,1986,2026,1191
1544,1710920714511531006,2076,2072,2084,2104,2038,2077,1196
1545,1710920714521553057,2025,1972,1976,2035,2061,2047,1192
1546,1710920714531533941,2062,2160,2100,2090,2044,2049,1194
1547,1710920714541533439,2052,1953,2073,2025,2036,2037,1191
1548,1710920714551533278,2088,2057,2118,2147,2122,2110,1195
1549,1710920714561533259,2071,2091,2076,2116,2094,2102,1194
1550,1710920714571530593,2052,1988,2045,2120,2068,2098,1197
1551,1710920714581534059,2025,2056,2076,1968,2004,2030,1192
1552,1710920714591539359,2067,2110,2101,2081,2085,2088,1195
1553,1710920714601516295,2051,2017,2054,2015,2020,2044,1193
1554,1710920714611540411,2117,2108,2064,2084,2032,2044,1193
1555,1710920714621532606,2092,2093,2073,2114,2090,2022,1192
1556,1710920714631532886,2098,2108,2093,2149,2085,2067,1194
1557,1710920714641563835,2053,1976,2073,2128,2090,2042,1193
1558,1710920714651532164,2031,2029,2085,2092,2123,2076,1195
1559,1710920714661525712,2065,2058,2073,2044,2046,2044,1192
1560,1710920714671535229,2066,2014,2056,2017,2054,2118,1197
1561,1710920714681534438,2008,2011,2015,2002,2022,1994,1192
1562,1710920714691534097,2029,2102,2067,2062,2103,2093,1195
1563,1710920714701536201,2065,2034,2053,2141,2124,2044,1192
1564,1710920714711532223,2063,2058,2024,2115,2084,2061,1194
1565,1710920714721532594,2009,2009,2011,2088,2094,2048,1193
1566,1710920714731535489,2061,2068,2094,2062,2050,2040,1193
1567,1710920714741548443,2054,2074,2078,2013,2074,2024,1193
1568,1710920714751536631,2051,2067,2080,2082,2051,2034,1192
1569,1710920714761531160,2042,2102,2012,2126,2080,2024,1192
1570,1710920714771532712,2070,2074,2065,2114,2098,2056,1195
1571,1710920714781553922,2050,2066,2068,2020,2012,2027,1191
1572,1710920714791544925,2057,2066,2058,2109,2079,2073,1195
1573,1710920714801526670,2020,2105,2066,2040,2082,2009,1192
1574,1710920714811545235,2020,2002,2000,2223,2090,2014,1192
1575,1710920714821534515,2039,1993,2076,2092,2086,2083,1194
1576,1710920714831531950,2026,1993,1984,2047,2095,2074,1195
1577,1710920714841535837,2026,2008,2060,2065,2086,2041,1192
1578,1710920714851532120,2069,2058,2056,2094,2057,2073,1195
1579,1710920714861534474,2061,2156,2025,2093,2071,2058,1195
1580,1710920714871535465,2037,1994,2056,2077,2078,2059,1194
1581,1710920714881554191,2054,2041,2113,2210,2127,2111,1195
1582,1710920714891586161,2081,2017,2068,2112,2015,2054,1196
1583,1710920714901523171,2042,2002,2077,2090,2075,2050,1194
1584,1710920714911526998,1968,2076,2016,1976,1998,2080,1196
1585,1710920714921527018,2024,2030,2060,2059,2040,2041,1192
1586,1710920714931526597,2032,2089,2116,2028,2057,2047,1195
1587,1710920714941533610,2076,2060,2052,2016,2023,2037,1193
1588,1710920714951530264,2089,2012,2068,2064,2072,2039,1193
1589,1710920714961538138,2066,2057,2092,2088,2068,2040,1192
1590,1710920714971534050,2041,2094,2195,1965,2009,2049,1195
1591,1710920714981557264,2086,2040,2052,2072,2067,2056,1196
1592,1710920714991545962,2058,2040,2020,2024,2047,2041,1193
1593,1710920715001531955,2088,2037,2008,2116,2080,2071,1196
1594,1710920715011527787,2076,2076,2059,2076,2052,2072,1195
1595,1710920715021526625,2005,2018,2044,2095,2060,2047,1194
1596,1710920715031546402,2002,2008,2030,2057,2054,2050,1195
1597,1710920715041534570,2066,2019,2031,2061,2085,2052,1196
1598,1710920715051527616,2068,2080,2045,2076,2061,2069,1194
1599,1710920715061532896,2020,1996,2065,2064,2032,2024,1192
1600,1710920715071528827,2073,2131,2096,2136,2083,2056,1194
1601,1710920715081538305,2051,2068,2132,2137,2067,2082,1195
1602,1710920715091531211,1994,2065,2085,2094,2055,2096,1195
1603,1710920715101532103,2094,2053,2018,2129,2100,2060,1193
1604,1710920715111534537,2064,2044,2065,2005,2027,2074,1194
1605,1710920715121534186,2088,2096,2028,2010,2040,2056,1194
1606,1710920715131542072,2064,2103,2034,2104,2074,2015,1192
1607,1710920715141544616,2076,2060,2080,2033,2020,2037,1192
1608,1710920715151539115,2046,2044,2059,1864,1973,2034,1193
1609,1710920715161534345,2068,1981,2066,2058,2084,2083,1195
1610,1710920715171531119,2077,2115,2058,2067,2073,2075,1192
1611,1710920715181565404,2050,2065,2044,2058,2056,2028,1193
1612,1710920715191523304,2045,1949,2096,2058,2064,2088,1195
1613,1710920715201536468,2004,1972,2030,2032,2037,2053,1194
1614,1710920715211536989,2057,2054,2050,2024,2037,2068,1196
1615,1710920715221534734,2076,2112,2077,2074,2044,2048,1195
1616,1710920715231536037,2074,2037,2052,1988,2015,2018,1191
1617,1710920715241539904,2051,2003,2008,2061,2043,2049,1193
1618,1710920715251537399,2024,1957,1949,1929,2026,2034,1192
1619,1710920715261530195,2084,2066,2037,2170,2046,2028,1192
1620,1710920715271535315,2055,2049,2062,2083,2092,2092,1194
1621,1710920715281522951,2093,2188,2108,2059,2056,2053,1196
1622,1710920715291533490,2040,2092,2109,2121,2145,2076,1195
1623,1710920715301532828,2038,2008,2101,2061,2080,2019,1189
1624,1710920715311534782,2057,2072,2084,2104,2112,2080,1194
1625,1710920715321531175,1936,2008,2045,2061,2036,2062,1194
1626,1710920715331539551,2045,2016,2064,2116,2068,2060,1196
1627,1710920715341536675,2081,2051,2064,2073,2058,2038,1192
1628,1710920715351532397,2036,1979,2036,2026,2062,2034,1193
1629,1710920715361534791,2043,1969,2076,2128,2040,2031,1196
1630,1710920715371537716,2059,2060,2048,2138,2092,2072,1195
1631,1710920715381535261,2073,2138,2067,2106,2084,2070,1195
1632,1710920715391536793,2030,2040,2026,2028,1996,2015,1193
1633,1710920715401533086,2054,2039,2025,2050,2051,2057,1197
1634,1710920715411537024,2061,2011,2052,2101,2083,2076,1195
1635,1710920715421533296,2027,1987,2032,1952,2021,2072,1195
1636,1710920715431529279,2056,2101,2015,2086,2068,2018,1192
1637,1710920715441534969,2037,2131,2044,2073,2059,2046,1194
1638,1710920715451535389,2055,2018,2056,2082,2074,2069,1196
1639,1710920715461536651,2053,2069,2043,2080,2079,2050,1193
1640,1710920715471553703,2080,2008,2010,1876,1972,2018,1192
1641,1710920715481537883,2075,2048,2064,2018,2058,2058,1197
1642,1710920715491535739,2070,2050,2080,2089,2075,2008,1194
1643,1710920715501537041,1988,2181,2102,1972,1966,1952,1189
1644,1710920715511558481,2066,2074,2082,2053,2069,2077,1197
1645,1710920715521527612,2068,2049,2055,2140,2080,2074,1196
1646,1710920715531539254,2015,1981,1992,2091,2064,2050,1195
1647,1710920715541542801,2068,2088,2054,2050,2032,2040,1193
1648,1710920715551539675,2006,2088,1987,1981,1967,2014,1192
1649,1710920715561539704,2036,1980,2057,2056,2046,2047,1193
1650,1710920715571535206,2053,2065,2077,2069,2082,2052,1194
1651,1710920715581537409,2053,2048,2054,2019,2044,2090,1196
1652,1710920715591537669,2002,2035,2061,2024,2052,2047,1192
1653,1710920715601537489,2072,2032,1989,2018,2040,2087,1195
1654,1710920715611540765,2065,2036,2089,2120,2075,2061,1195
1655,1710920715621524934,2068,2056,2057,2101,2056,2040,1193
1656,1710920715631551385,2068,2048,2085,2090,2053,2054,1196
1657,1710920715641543319,2120,2179,2064,2048,2067,2037,1192
1658,1710920715651543870,2075,2027,2000,1888,2013,2058,1196
1659,1710920715661549540,2042,2008,2073,2095,2069,2076,1195
1660,1710920715671542927,2048,2055,2062,2018,2027,2018,1192
1661,1710920715681544660,2035,2003,2096,2056,2064,2058,1196
1662,1710920715691549689,2033,1953,2050,2057,2069,2072,1196
1663,1710920715701559909,2041,2053,2101,1875,1966,2002,1191
1664,1710920715711539109,2008,2028,2101,2308,2146,2126,1196
1665,1710920715721544819,2058,2036,2082,2153,2100,2052,1196
1666,1710920715731529280,2033,2009,2047,1981,2010,2041,1191
1667,1710920715741528448,2060,2013,1992,2115,2062,2054,1195
1668,1710920715751534068,2048,2031,2061,2090,2044,2058,1196
1669,1710920715761547022,2066,2001,2057,2080,2080,2069,1194
1670,1710920715771530982,2102,2104,2126,2106,2076,2099,1196
1671,1710920715781560538,2087,2116,2071,2004,2017,2049,1195
1672,1710920715791529849,2021,2007,2059,2033,2026,2048,1195
1673,1710920715801531802,2076,2033,2032,1997,2018,2021,1194
1674,1710920715811530159,2077,2029,2044,1928,1903,2034,1192
1675,1710920715821530038,2012,1932,2004,2125,2061,2023,1194
1676,1710920715831532413,2012,2045,2048,2094,2080,2072,1194
1677,1710920715841563291,2050,2060,2098,2142,2105,2089,1193
1678,1710920715851538484,2052,2004,2086,2192,2095,2076,1194
1679,1710920715861527122,2052,2057,2047,2052,2064,2072,1195
1680,1710920715871529106,2050,2046,2077,2089,2040,2037,1192
1681,1710920715881536489,1886,1843,2056,1854,1996,2067,1195
1682,1710920715891530738,2073,2064,2064,2221,2088,2093,1195
1683,1710920715901576664,2060,2005,2066,2037,2050,2057,1193
1684,1710920715911557869,2059,2051,1976,2093,2064,2084,1194
1685,1710920715921530707,2050,1998,2029,2141,2051,2027,1193
1686,1710920715931530316,2056,1962,2050,2047,2009,2032,1191
1687,1710920715941534023,2058,2030,2093,2086,2058,2076,1194
1688,1710920715951534614,2096,2170,2056,1992,2047,2012,1193
1689,1710920715961531978,2027,1969,2046,2008,2037,2045,1193
1690,1710920715971529884,2088,2059,2067,2094,2036,2072,1196
1691,1710920715981533039,2074,2044,2042,1986,2070,2057,1195
1692,1710920715991533580,2138,2138,2050,2004,2041,2047,1192
1693,1710920716001530424,2106,2052,2064,1969,2041,2037,1194
1694,1710920716011533901,2056,2051,2090,2050,2049,2047,1195
1695,1710920716021530574,2087,2041,2032,1997,2068,2113,1197
1696,1710920716031530523,2001,2048,2042,1974,1975,1988,1192
1697,1710920716041531695,2069,2058,2053,2073,2056,2072,1195
1698,1710920716051531945,2025,2028,2069,2113,2123,2104,1197
1699,1710920716061533177,2046,2051,2080,2059,2098,2042,1192
1700,1710920716071531133,1997,1882,1909,2079,2118,2054,1195
1701,1710920716081550770,2072,2041,2039,1946,2000,2045,1192
1702,1710920716091592709,2040,1980,2073,2096,2044,2010,1192
1703,1710920716101538275,2106,2153,2056,1999,2040,2050,1193
1704,1710920716111523277,2110,2049,2005,2108,2245,2109,1196
1705,1710920716121533125,2108,2136,2060,2266,2160,2060,1194
1706,1710920716131533606,2036,2077,2116,2112,2128,2040,1191
1707,1710920716141532814,2088,2189,2064,2096,2105,2047,1194
1708,1710920716151533355,2010,1999,2038,1892,1992,2030,1194
1709,1710920716161533314,2014,2055,2008,1960,2083,2029,1192
1710,1710920716171531120,2056,2106,2045,2136,2176,2097,1194
1711,1710920716181533775,2079,2146,2114,2099,2098,2080,1193
1712,1710920716191547400,2060,2103,2106,2069,1993,2056,1194
1713,1710920716201533403,2100,2086,2064,2083,2047,2067,1194
1714,1710920716211533142,2116,2136,2083,2132,2110,2011,1191
1715,1710920716221531769,1949,1913,2059,2162,2024,2021,1194
1716,1710920716231532290,2067,2033,2085,1984,1956,1963,1192
1717,1710920716241531428,2056,2085,2040,2077,2101,2093,1194
1718,1710920716251544743,2034,2022,2048,2068,2069,2048,1193
1719,1710920716261525356,2050,2134,2074,2041,2049,2060,1194
1720,1710920716271530686,2040,2056,2077,2052,2106,2069,1194
1721,1710920716281536366,2026,2039,2058,1954,2037,2088,1195
1722,1710920716291542377,2055,2079,2113,2012,2090,2086,1195
1723,1710920716301536115,2053,2029,2037,2078,2079,2082,1193
1724,1710920716311533701,2091,2070,2052,1932,2037,2068,1193
1725,1710920716321531576,2062,2126,2084,2115,2116,2064,1196
1726,1710920716331537106,2008,2053,2059,1983,2062,2006,1192
1727,1710920716341536384,2068,2013,2062,2141,2069,2027,1192
1728,1710920716351535713,2072,2141,2062,2076,2068,2086,1194
1729,1710920716361530863,2065,2096,2056,2070,1978,1983,1193
1730,1710920716371531274,2053,2122,2056,1921,1960,2027,1190
1731,1710920716381537085,2054,2077,2058,2064,2040,2051,1196
1732,1710920716391530081,2051,2081,2058,2095,2104,2062,1195
1733,1710920716401540470,2062,2088,2100,2081,2026,2048,1196
1734,1710920716411534519,2048,2057,2082,2080,2033,2048,1196
1735,1710920716421537153,2124,2156,2061,2040,2045,2050,1196
1736,1710920716431534268,2095,2064,2099,2207,2149,2045,1192
1737,1710920716441534788,2026,2038,2084,2112,2046,2016,1194
1738,1710920716451531381,2043,2027,2076,2120,2107,2082,1196
1739,1710920716461531701,2102,2172,2092,2094,2118,2088,1195
1740,1710920716471531731,2027,2162,2025,1929,1978,1997,1192
1741,1710920716481562399,2081,2085,2077,2081,2082,2021,1194
1742,1710920716491555737,2049,2039,2021,2050,2003,2093,1196
1743,1710920716501535908,2018,1996,2049,2140,2107,2040,1191
1744,1710920716511533002,2069,2029,2052,2105,2112,2084,1194
1745,1710920716521534865,2118,1927,1988,2058,2048,2061,1195
1746,1710920716531537320,2036,2175,2086,2183,2100,2057,1195
1747,1710920716541536378,2063,2026,2024,2074,2072,2085,1192
1748,1710920716551531368,2071,2047,2056,2097,2154,2067,1193
1749,1710920716561533933,2083,2112,2112,2132,2168,2066,1193
1750,1710920716571545885,2108,2132,1986,2124,2092,2048,1193
1751,1710920716581534703,2093,2044,2022,2056,2091,2074,1192
1752,1710920716591535615,2153,2100,2052,2144,2116,2042,1192
1753,1710920716601533019,2016,2029,2037,1899,2014,2024,1191
1754,1710920716611529863,2057,2034,2075,2118,2082,2074,1196
1755,1710920716621542256,2087,2253,2096,1980,1913,2046,1191
1756,1710920716631555311,2040,2032,2126,2100,2055,2052,1197
1757,1710920716641534441,2138,2098,1989,2069,2086,2069,1195
1758,1710920716651541584,2093,2056,2063,2096,2040,2060,1194
1759,1710920716661549669,2057,2042,2055,2120,2104,2068,1196
1760,1710920716671535642,2076,2154,2059,1875,1938,2062,1198
1761,1710920716681536513,2060,2082,1940,2072,2077,2085,1194
1762,1710920716691541262,2033,2082,2061,1948,2056,2052,1195
1763,1710920716701545961,2019,2051,2052,1931,2066,2015,1189
1764,1710920716711547694,2058,2059,2057,2059,2101,2056,1194
1765,1710920716721525060,2010,2016,2016,2112,2116,2025,1192
1766,1710920716731531492,2056,2050,2024,2041,1964,2005,1192
1767,1710920716741530710,2051,2057,2049,2075,2013,2036,1192
1768,1710920716751529357,2056,2026,2049,2068,2042,2073,1196
1769,1710920716761532493,2089,1948,2040,2008,2005,2084,1194
1770,1710920716771535298,2004,2028,2023,2060,2018,2053,1195
1771,1710920716781547000,2032,2021,2125,2101,2110,2053,1194
1772,1710920716791535898,2076,2050,2072,2024,1850,2040,1193
1773,1710920716801534245,2140,2068,2062,2011,2082,2052,1196
1774,1710920716811537802,2048,2061,2018,1900,2008,2052,1198
1775,1710920716821551658,2040,2188,2129,2049,2113,2048,1196
1776,1710920716831530598,2033,2045,2065,2019,2096,2073,1194
1777,1710920716841528593,2053,2117,2054,1989,1962,2054,1196
1778,1710920716851526689,2021,1993,2141,2085,2019,2041,1192
1779,1710920716861526558,2056,2012,2077,2076,2124,2061,1195
1780,1710920716871528983,2064,2039,2060,2091,2037,2056,1196
1781,1710920716881557557,2060,2038,2005,1928,2045,2064,1195
1782,1710920716891532319,2040,2031,2033,2072,2040,2086,1196
1783,1710920716901532849,1995,1955,1993,2092,2005,2045,1193
1784,1710920716911548949,2021,2061,1999,2085,2106,2078,1196
1785,1710920716921537668,2054,1999,2067,2109,2168,2012,1192
1786,1710920716931546063,2052,1947,1969,2057,2044,2074,1194
1787,1710920716941539070,2046,2024,2021,2206,2114,2040,1193
1788,1710920716951533379,2032,1964,2056,2049,2061,2061,1196
1789,1710920716961534280,2077,2080,2076,2047,2035,2045,1194
1790,1710920716971553085,2026,1961,1996,1934,2001,2044,1191
1791,1710920716981531624,2061,2061,2108,2120,2192,2097,1196
1792,1710920716991542885,2039,1898,2001,2036,2115,1992,1193
1793,1710920717001544128,2086,2106,2099,2156,2121,2112,1196
1794,1710920717011544608,2085,1992,2067,2094,2140,2088,1195
1795,1710920717021531753,2081,2042,2040,2101,2109,2076,1195
1796,1710920717031519650,2007,2127,1984,2076,2011,1999,1192
1797,1710920717041425150,2028,2047,2056,2088,2094,2088,1194
1798,1710920717051526933,2074,2089,2084,2066,2036,2074,1193
1799,1710920717061525450,2057,1969,2035,2013,2038,2061,1195
1800,1710920717071533294,2037,2062,2096,2040,1849,2052,1194
1801,1710920717081533875,2073,2021,1993,2036,2052,2020,1192
1802,1710920717091527232,2057,2072,2021,2034,2061,2069,1195
1803,1710920717101534225,2062,2065,2096,2112,2098,2080,1194
1804,1710920717111531981,1996,2027,2057,2059,2015,2014,1191
1805,1710920717121543732,1983,1978,2066,2026,2016,2049,1194
1806,1710920717131543361,2110,2082,2072,2059,2168,2064,1193
1807,1710920717141541377,2018,1951,2024,1974,2041,1990,1192
1808,1710920717151539243,2064,2048,2062,2044,2072,2044,1194
1809,1710920717161541817,2064,2016,2055,2073,2079,1993,1192
1810,1710920717171533220,2012,2019,2066,2042,2001,1958,1193
1811,1710920717181548238,2083,2045,2083,2081,2092,2081,1194
1812,1710920717191545383,2046,2009,2104,2035,2065,2041,1192
1813,1710920717201545463,1992,1979,1964,1800,1919,1977,1194
1814,1710920717211541725,2096,2106,2079,2079,2096,2038,1193
1815,1710920717221543949,2023,2024,2038,2018,2052,2045,1192
1816,1710920717231533138,2091,2295,2063,2128,2088,2065,1196
1817,1710920717241533649,2091,2068,2085,2002,2094,2098,1194
1818,1710920717251533328,2067,2188,2053,2057,2025,2058,1194
1819,1710920717261533889,2059,2044,2072,2134,2107,2040,1192
1820,1710920717271533888,1977,1946,2013,2036,2046,2006,1193
1821,1710920717281538306,2129,2107,2017,2034,2052,2044,1193
1822,1710920717291536012,2056,2038,2049,2046,2062,2057,1194
1823,1710920717301535710,2056,2070,2027,2104,2057,2044,1190
1824,1710920717311536732,1928,1940,2008,2034,1977,1980,1194
1825,1710920717321534317,2047,2026,2050,2021,2082,2064,1195
1826,1710920717331541861,2064,2026,2053,2054,2064,2073,1195
1827,1710920717341538875,2012,2028,2057,2048,1956,2012,1194
1828,1710920717351538934,2041,2006,2046,2121,2120,2054,1196
1829,1710920717361538904,2016,2009,2045,2029,2003,2045,1192
1830,1710920717371557770,2008,1938,1988,2097,2060,2072,1194
1831,1710920717381539114,2049,2025,2056,2072,2100,2084,1196
1832,1710920717391541148,2045,2047,2044,2082,2061,2063,1197
1833,1710920717401545075,2040,2046,2046,2044,2033,2035,1192
1834,1710920717411540205,2035,2056,2043,2293,2092,2045,1192
1835,1710920717421538401,2040,2040,2092,2051,2050,2039,1194
1836,1710920717431541066,2106,2102,2125,2083,2048,2064,1194
1837,1710920717441540865,1983,1986,2061,1978,1973,1961,1191
1838,1710920717451542026,2060,1951,2020,2040,2022,2048,1194
1839,1710920717461543980,2067,2088,2064,2085,2082,2023,1192
1840,1710920717471540854,2030,2023,2064,1984,2024,2090,1196
1841,1710920717481549570,2101,2067,2112,1941,1888,2048,1195
1842,1710920717491543308,2143,2015,2060,2020,1933,2092,1197
1843,1710920717501550100,2013,2036,2037,1938,1977,2029,1190
1844,1710920717511544659,2056,2028,2072,1939,1955,2052,1195
1845,1710920717521545200,2085,2168,2062,2112,2068,2055,1196
1846,1710920717531545771,2065,2101,2047,2042,2029,2048,1195
1847,1710920717541530392,2031,2040,2028,2186,2207,2052,1195
1848,1710920717551523187,2034,2078,2056,2161,2120,1974,1192
1849,1710920717561545920,2055,2028,2040,2019,2072,2032,1192
1850,1710920717571527495,2133,2006,2093,2141,2202,2098,1197
1851,1710920717581546621,2025,2077,2112,2150,2110,2043,1190
1852,1710920717591546510,2060,2044,2042,2041,2028,2042,1193
1853,1710920717601555206,2024,2013,2067,2015,2059,2036,1192
1854,1710920717611530609,2073,2073,2062,2096,2075,2065,1196
1855,1710920717621531340,2037,2066,2069,2131,2169,2087,1195
1856,1710920717631531070,1994,2020,2004,2047,2035,2051,1197
1857,1710920717641533995,2095,2125,2064,2091,1973,2052,1197
1858,1710920717651552419,2023,2103,2084,2134,2128,2080,1196
1859,1710920717661531279,2067,2035,2021,2248,2107,2052,1195
1860,1710920717671534955,2066,2045,2067,2127,2056,2069,1195
1861,1710920717681551857,2049,2030,2049,1968,2010,2054,1197
1862,1710920717691533401,2026,2118,2078,2053,1998,1988,1192
1863,1710920717701549021,2045,2077,2111,2067,2028,2060,1194
1864,1710920717711535725,2035,2072,2094,2034,2034,2030,1195
1865,1710920717721535384,2092,2042,2017,2066,2078,2048,1193
1866,1710920717731533510,2062,2063,2052,2109,2082,2088,1193
1867,1710920717741559900,2063,2068,2075,2109,2063,2055,1195
1868,1710920717751538729,2033,1968,2047,2072,2060,2057,1195
1869,1710920717761532648,2046,2014,2019,1976,1879,2029,1193
1870,1710920717771532096,2088,2050,2067,2033,2055,1988,1191
1871,1710920717781534921,2029,2037,2104,1921,1938,1996,1192
1872,1710920717791531434,2062,2036,2062,2116,2093,2077,1196
1873,1710920717801529831,2069,2016,2031,2131,2110,2031,1193
1874,1710920717811556902,2009,2081,2148,2141,2176,2032,1193
1875,1710920717821535942,2104,2174,2096,2018,2085,2052,1194
1876,1710920717831532574,2075,2089,2058,2112,2090,2114,1197
1877,1710920717841531883,2035,2055,2123,1871,1886,1992,1193
1878,1710920717851534848,2097,2116,2116,2120,2130,2084,1197
1879,1710920717861538705,2043,2001,2046,2044,2076,2056,1196
1880,1710920717871530951,2038,1984,2069,2027,1972,2040,1194
1881,1710920717881535177,2003,2053,2053,2101,2074,2077,1196
1882,1710920717891534676,2066,2052,1992,2103,2084,2060,1197
1883,1710920717901566416,2008,2128,2005,2120,2037,1936,1190
1884,1710920717911531680,2061,1998,2082,2081,1931,2066,1196
1885,1710920717921529947,2069,2036,2006,2024,2057,2061,1193
1886,1710920717931530617,2025,2108,2069,2073,2102,2073,1192
1887,1710920717941530667,2061,2042,2098,2052,2009,2049,1195
1888,1710920717951534133,2064,2038,2057,2097,2045,2048,1196
1889,1710920717961533411,2012,2037,2054,2152,2056,2048,1197
1890,1710920717971533551,2011,2025,2042,1965,2008,2055,1194
1891,1710920717981543259,2048,2044,2070,2118,1998,2053,1196
1892,1710920717991532819,2074,2025,2125,2181,2083,1993,1192
1893,1710920718001546335,2064,2044,2046,2032,2085,2019,1191
1894,1710920718011539482,2080,2049,2064,2080,2090,2058,1193
1895,1710920718021537537,2061,2053,2065,2010,2042,2059,1194
1896,1710920718031541765,2032,2046,2048,1963,2003,2026,1193
1897,1710920718041550601,2050,2009,2056,2095,2057,2068,1197
1898,1710920718051524892,2037,2116,2002,2104,2034,2057,1194
1899,1710920718061534549,2071,2054,2040,1960,2056,2072,1196
1900,1710920718071519691,2117,2084,2096,2070,2052,2052,1195
1901,1710920718081536292,1992,1988,2033,1768,1985,2010,1193
1902,1710920718091527025,2085,2068,2068,2098,2120,2089,1197
1903,1710920718101535049,2030,1995,2056,2077,2071,2033,1192
1904,1710920718111538625,2068,1986,2006,2114,2078,2112,1197
1905,1710920718121533946,2068,2040,2106,2024,2069,2077,1194
1906,1710920718131490524,2046,2027,2044,1886,1972,2041,1190
1907,1710920718141530548,2059,2060,2030,2112,2121,2056,1195
1908,1710920718151538604,2062,1978,2063,1988,2038,2074,1195
1909,1710920718161539896,2077,2058,2016,1990,2068,2064,1194
1910,1710920718171532642,2029,1988,2076,2066,2089,2078,1196
1911,1710920718181545225,2053,2010,2037,1962,2009,2036,1194
1912,1710920718191527120,2035,2020,2053,2007,2044,2036,1191
1913,1710920718201527691,2043,2013,2049,2044,2050,2067,1198
1914,1710920718211534865,2076,2152,2042,1943,1992,2052,1195
1915,1710920718221535134,2060,2027,2024,2047,2055,2019,1194
1916,1710920718231552998,2058,2056,2086,2078,1990,2061,1194
1917,1710920718241531487,2060,2038,2068,2087,2107,2081,1197
1918,1710920718251527238,2049,2043,2069,2061,2061,2036,1193
1919,1710920718261530664,2057,2060,2072,2008,2040,2045,1194
1920,1710920718271528349,2058,2059,2062,2073,2056,2057,1197
1921,1710920718281531876,2058,2039,2059,2074,2033,2064,1195
1922,1710920718291521165,1996,2049,2076,2123,2107,2085,1195
1923,1710920718301532726,2073,2019,2093,2047,2012,2064,1194
1924,1710920718311533457,2091,2067,2073,2066,2079,2068,1193
1925,1710920718321532896,2066,2068,2088,2065,2070,2055,1198
1926,1710920718331539088,2058,2041,2061,2006,2008,2052,1195
1927,1710920718341535329,2052,2032,2060,2057,2069,2057,1195
1928,1710920718351538064,2039,1990,2024,1992,2002,2048,1196
1929,1710920718361536080,2049,2012,2057,2053,2061,2053,1195
1930,1710920718371534928,2049,2006,2064,2110,2073,2045,1194
1931,1710920718381546088,2053,2052,2082,2082,2054,2061,1194
1932,1710920718391535538,2050,2070,2084,2026,2061,2072,1196
1933,1710920718401536189,2034,2018,1956,2008,1956,1999,1194
1934,1710920718411530338,2076,2046,2100,2088,2062,2090,1195
1935,1710920718421534835,1943,1906,2051,1809,1956,2010,1194
1936,1710920718431541838,2078,2104,2047,2047,2040,2065,1196
1937,1710920718441534744,2059,2061,2053,2056,2062,2060,1195
1938,1710920718451543932,2068,2099,2037,2089,2041,2110,1198
1939,1710920718461536226,1988,2148,2068,2132,2093,2073,1196
1940,1710920718471560001,2043,1986,2085,2059,2053,2060,1196
1941,1710920718481537207,2057,2126,2064,2088,2072,2057,1195
1942,1710920718491549350,2040,2044,2052,2005,2004,2014,1195
1943,1710920718501543238,2009,2064,2045,2081,2077,2055,1196
1944,1710920718511538078,2072,2071,2048,2036,2026,2053,1195
1945,1710920718521540332,2063,2035,2038,2051,2045,2046,1191
1946,1710920718531532517,2008,2064,1974,2244,2071,2033,1192
1947,1710920718541532286,2153,2107,2014,1923,2038,2031,1193
1948,1710920718551534008,2006,1961,2002,2104,2068,2042,1195
1949,1710920718561531794,2072,2073,2043,2064,2059,2056,1196
1950,1710920718571534449,2040,2009,2024,1872,1920,2030,1192
1951,1710920718581537143,2088,2109,2077,1914,1977,2046,1193
1952,1710920718591534738,2068,2068,2101,2077,2122,2062,1197
1953,1710920718601533055,2048,2003,2060,1938,1970,2003,1194
1954,1710920718611544957,2083,2056,2105,2044,2025,2061,1194
1955,1710920718621541650,2072,2040,2045,1991,2045,2098,1196
1956,1710920718631556307,2045,2112,1999,2084,2062,2075,1197
1957,1710920718641537531,2053,2020,2100,2026,2015,2083,1197
1958,1710920718651539305,2059,2038,2037,2040,2003,2045,1194
1959,1710920718661558611,2088,2093,2072,2035,2076,2040,1193
1960,1710920718671539183,2041,2192,2045,2053,2046,1981,1192
1961,1710920718681533272,2070,2033,2041,2138,2091,2084,1196
1962,1710920718691539012,2058,2051,2050,2054,2058,2033,1194
1963,1710920718701541276,2041,2058,2066,2028,2060,2053,1193
1964,1710920718711563908,2083,2040,2064,2065,2035,2046,1193
1965,1710920718721546555,1951,1992,2050,2032,2036,2057,1193
1966,1710920718731539963,2063,2036,2061,2048,2044,2044,1192
1967,1710920718741541485,2054,2073,2065,2052,2073,2086,1198
1968,1710920718751540933,2077,2036,2058,2084,2016,2056,1195
1969,1710920718761544700,2069,2139,2068,2056,2054,2073,1197
1970,1710920718771553006,2038,2044,2056,2134,2068,2003,1192
1971,1710920718781549478,2100,2104,2069,2134,2088,2037,1194
1972,1710920718791542925,2052,2012,2020,2100,2029,2072,1195
1973,1710920718801543646,2052,2022,2060,2040,2020,2057,1195
1974,1710920718811561630,2061,2006,2059,2025,2047,2028,1192
1975,1710920718821539368,2052,2060,2065,2012,2054,2045,1195
1976,1710920718831546611,2156,2040,2074,2024,2066,2120,1193
1977,1710920718841547212,2084,2101,1998,2116,2113,2104,1195
1978,1710920718851544797,2062,2064,2082,2076,2067,2056,1193
1979,1710920718861553032,2056,2053,2027,2118,2090,2048,1192
1980,1710920718871541209,2008,2018,2049,1895,1949,2031,1193
1981,1710920718881546248,2051,2033,2062,2077,2117,2066,1195
1982,1710920718891546128,2057,2046,2054,1996,1980,2069,1195
1983,1710920718901534164,2092,2064,2084,2037,2089,2121,1193
1984,1710920718911550354,2068,2069,2061,2094,2072,2041,1193
1985,1710920718921561395,2093,2052,2142,1993,1995,2056,1196
1986,1710920718931533362,2050,2050,2040,2057,2067,2040,1192
1987,1710920718941531458,1987,1995,2034,1922,2040,2042,1193
1988,1710920718951535214,2048,2081,2036,1960,1992,2042,1192
1989,1710920718961554601,2075,2121,2064,2061,2066,2018,1192
1990,1710920718971535424,2038,2068,2106,1986,2041,2049,1193
1991,1710920718981519794,2068,2069,2018,2019,2047,2054,1194
1992,1710920718991538659,2051,2076,2074,2074,2077,2064,1194
1993,1710920719001536995,2062,2052,2059,2105,2104,2080,1194
1994,1710920719011548317,2028,2041,2058,2048,2075,2029,1191
1995,1710920719021534831,2056,2072,2079,2012,1984,2061,1196
1996,1710920719031534499,1984,1943,2078,2102,2106,2070,1194
1997,1710920719041532024,2060,2016,2069,2079,2027,2040,1192
1998,1710920719051555658,2024,2040,2041,2046,2080,2024,1192
1999,1710920719061533095,2072,2083,2066,2033,2065,2047,1193
2000,1710920719071537503,2075,2054,2052,2047,2050,2072,1194
2001,1710920719081544175,2057,2042,2061,2026,2085,2058,1196
2002,1710920719091534506,2010,2168,2099,2058,2092,2014,1193
2003,1710920719101557820,2059,2077,2109,2096,2095,2042,1189
2004,1710920719111536710,2047,2058,2052,2123,2104,2060,1196
2005,1710920719121532281,2072,2085,2068,2076,2066,2012,1190
2006,1710920719131531829,2047,2032,2092,2098,2025,2004,1192
2007,1710920719141531629,2152,2166,2086,2069,2069,2028,1193
2008,1710920719151546417,2074,2044,2052,2099,2043,2067,1194
2009,1710920719161532920,2077,2136,2033,1940,2008,2046,1192
2010,1710920719171534823,2060,2069,2052,2084,2073,2066,1194
2011,1710920719181558348,2012,2034,2062,2056,2037,2019,1192
2012,1710920719191533199,2061,1992,2064,2067,2036,2031,1192
2013,1710920719201536876,2091,2056,2082,1967,2054,2088,1197
2014,1710920719211550652,2052,2074,2097,2093,2022,2044,1192
2015,1710920719221537947,2070,2161,2083,2095,2086,2083,1196
2016,1710920719231537936,2038,1974,2072,2057,2024,2019,1193
2017,1710920719241532225,2080,2076,2026,2011,2032,2089,1196
2018,1710920719251540711,2069,2052,2072,2065,2073,2052,1197
2019,1710920719261537244,2035,2009,2102,2060,2024,2026,1193
2020,1710920719271534318,2070,2084,2057,2138,2056,2083,1196
2021,1710920719281536492,2095,2159,2083,2030,2064,2011,1192
2022,1710920719291534578,2056,1976,1993,1940,1994,2057,1195
2023,1710920719301531110,2059,2047,2050,2104,2098,2089,1193
2024,1710920719311526702,2040,2025,2046,2041,2057,2051,1195
2025,1710920719321530048,2068,2067,2041,1849,1996,2026,1191
2026,1710920719331530337,2064,2044,2086,2080,2061,2078,1196
2027,1710920719341554673,2092,2233,2065,2109,2047,2027,1195
2028,1710920719351552329,2050,2048,2034,1960,1993,1966,1192
2029,1710920719361534013,2068,2138,2073,2070,2049,2061,1196
2030,1710920719371537800,2047,2046,2035,1972,1972,2054,1196
2031,1710920719381539272,2060,1992,2064,2088,2056,2060,1193
2032,1710920719391527159,2034,1969,2032,2064,2047,2046,1194
2033,1710920719401531246,2068,2008,2047,2109,2044,2049,1196
2034,1710920719411537207,1992,1998,2016,1973,2046,2076,1196
2035,1710920719421535433,2074,2119,2115,2090,2113,2067,1195
2036,1710920719431535794,2046,2050,2049,2117,2062,2067,1196
2037,1710920719441539710,1996,1997,2042,1929,2037,2036,1193
2038,1710920719451535322,2061,2053,2059,2107,2038,2050,1196
2039,1710920719461530833,2076,2070,2075,2065,2089,2042,1191
2040,1710920719471531824,2052,2042,1975,2085,2066,2076,1194
2041,1710920719481590755,2101,2117,2112,2057,2054,2072,1193
2042,1710920719491546531,2012,2000,2027,1938,1986,1996,1192
2043,1710920719501535740,2066,2061,2077,2118,2076,2062,1193
2044,1710920719511534327,2026,2064,2082,2104,2035,2056,1196
2045,1710920719521538905,2010,2057,2077,2025,2029,2032,1192
2046,1710920719531552331,2028,1997,2076,2148,2134,2026,1194
2047,1710920719541497747,2047,2068,2019,1985,1984,2021,1191
2048,1710920719551524727,2056,2080,2110,2064,2053,2002,1192
2049,1710920719561533584,2088,2057,2085,2096,2081,2072,1197
2050,1710920719571530708,2049,2060,2014,2081,2052,2054,1193
2051,1710920719581538351,2062,2040,2072,2073,2040,2041,1195
2052,1710920719591520317,2012,2009,2069,2036,1962,2050,1195
2053,1710920719601532299,2112,2152,2076,2076,2062,2084,1197
2054,1710920719611533791,2071,2073,2048,2034,2098,2066,1196
2055,1710920719621534993,2080,2150,2052,2022,2022,2075,1196
2056,1710920719631554340,2035,2084,2019,2074,2054,2025,1192
2057,1710920719641537197,2009,2044,2055,2003,2058,2051,1197
2058,1710920719651537456,2056,2062,2059,2075,2077,2084,1198
2059,1710920719661536033,2050,2020,2043,2088,2104,2058,1197
2060,1710920719671531735,2065,2120,2074,2116,2051,2061,1196
2061,1710920719681547084,2099,2047,2078,2045,2116,2080,1197
2062,1710920719691519801,1977,1940,1999,1893,1984,1988,1193
2063,1710920719701536643,2043,2024,2006,1944,2068,2072,1194
2064,1710920719711534419,2067,2058,2054,2032,2061,2050,1194
2065,1710920719721534798,2060,2045,2031,2008,2006,2045,1191
2066,1710920719731537844,2064,2082,2058,2035,2043,2059,1196
2067,1710920719741532173,2056,2053,2051,2160,2132,2058,1196
2068,1710920719751532603,2094,2158,2123,2080,2065,2026,1192
2069,1710920719761530709,2026,2003,2040,2074,1998,2056,1196
2070,1710920719771542571,2032,2057,2060,2076,2057,2031,1192
2071,1710920719781545376,2056,2048,2074,2124,2105,2102,1196
2072,1710920719791534484,2074,2184,2101,2114,2045,2125,1193
2073,1710920719801533312,2049,2026,2056,2093,2057,2012,1193
2074,1710920719811531388,2068,1960,2052,2021,1995,2052,1194
2075,1710920719821532870,2078,2087,2028,2054,2058,2065,1195
2076,1710920719831534493,2064,2028,2025,2046,2050,2040,1193
2077,1710920719841538270,2072,2088,2062,1953,1945,2036,1193
2078,1710920719851532177,2066,2061,2061,2012,2033,2045,1192
2079,1710920719861539491,2060,2075,2116,2015,2092,2112,1196
2080,1710920719871546313,2100,2280,2041,2025,2056,2056,1196
2081,1710920719881539791,2056,2078,2116,2113,2070,2093,1196
2082,1710920719891540912,2017,2064,2084,2110,2069,2087,1195
2083,1710920719901535181,2005,2028,1996,2073,2056,2050,1195
2084,1710920719911532956,2081,2142,2076,2018,2042,2062,1196
2085,1710920719921560829,2060,2073,2068,2125,2064,2089,1194
2086,1710920719931557291,2020,2024,2045,2088,2117,2082,1195
2087,1710920719941537754,2041,2012,2062,2053,2084,2059,1195
2088,1710920719951535900,1973,1984,2032,2112,2081,2008,1192
2089,1710920719961533965,2046,2044,2042,2061,2066,2056,1195
2090,1710920719971534396,2034,2077,2098,2077,2070,2034,1190
2091,1710920719981558802,2042,2024,2064,2056,2037,2057,1193
2092,1710920719991532461,2036,2021,2124,2154,2132,2050,1193
2093,1710920720001539194,2075,2012,2100,2031,2014,2096,1197
2094,1710920720011532882,2028,2034,2104,1996,2059,2045,1192
2095,1710920720021533442,2036,2064,2071,2097,1996,2004,1192
2096,1710920720031546877,2114,2084,2064,2048,2021,2076,1194
2097,1710920720041526207,2057,2089,2069,2006,2051,2048,1194
2098,1710920720051531668,2098,2135,2035,2009,2003,2067,1197
2099,1710920720061532147,2052,2052,2061,2053,2052,2052,1194
2100,1710920720071530294,2059,2040,2047,2026,1993,2047,1191
2101,1710920720081534301,1975,2034,2056,1992,2058,2084,1196
2102,1710920720091522868,2041,1996,2098,2033,2060,2072,1196
2103,1710920720101531444,2064,2085,2094,2078,2086,2075,1193
2104,1710920720111531885,2037,1975,2039,2082,2028,2008,1192
2105,1710920720121531403,2066,2019,2030,2043,2021,2075,1196
2106,1710920720131540590,2059,2013,1991,2135,2004,2041,1193
2107,1710920720141533717,2061,2116,2089,2080,2105,2022,1194
2108,1710920720151530890,1983,2028,2017,2028,1961,1950,1193
2109,1710920720161531461,2058,2034,1984,2018,2017,2068,1196
2110,1710920720171532894,2043,2057,2042,2006,2035,2058,1195
2111,1710920720181530779,2047,2052,2065,2136,2081,2062,1195
2112,1710920720191551578,2032,2028,2003,2128,2070,2013,1192
2113,1710920720201533974,2088,2092,2058,2073,2069,2096,1196
2114,1710920720211532330,2068,2134,2161,2096,2029,1993,1192
2115,1710920720221534103,2104,2105,2064,2094,2083,2056,1194
2116,1710920720231527511,2044,2096,2058,1956,1961,2074,1196
2117,1710920720241527199,2068,2028,2060,2025,1994,2066,1196
2118,1710920720251525125,2054,2047,2043,2068,2110,2066,1196
2119,1710920720261525495,2073,2072,2057,2030,2056,2046,1192
2120,1710920720271536755,2076,2061,2140,2036,2033,2016,1193
2121,1710920720281548387,2092,2105,2076,2178,2045,2010,1194
2122,1710920720291536264,2072,1957,2053,1700,1850,2041,1195
2123,1710920720301533328,2061,2025,2071,2029,2065,2072,1193
2124,1710920720311538848,2017,2140,2057,2077,2053,2064,1195
2125,1710920720321533748,2033,2017,2049,1906,1980,2046,1192
2126,1710920720331537734,2047,2008,1999,2080,2057,2026,1193
2127,1710920720341544176,2035,1972,2012,2076,1993,2045,1193
2128,1710920720351537283,2074,1961,2067,2116,2025,2078,1198
2129,1710920720361535880,2077,2067,2060,2075,2060,2079,1195
2130,1710920720371520069,2043,2033,2031,2061,2014,2087,1195
2131,1710920720381538564,2058,2116,2070,2057,2076,2004,1192
2132,1710920720391548331,2151,2110,2080,2031,1972,2048,1196
2133,1710920720401535046,2048,1980,2076,2030,2068,2045,1193
2134,1710920720411536639,1997,1938,1975,2224,2162,2068,1196
2135,1710920720421534244,2066,2064,2090,2048,2019,2073,1194
2136,1710920720431538190,2048,2094,2064,1929,2046,2013,1192
2137,1710920720441535956,2060,2036,2043,2146,2133,2036,1194
2138,1710920720451540044,1997,1977,1976,2002,1984,2034,1192
2139,1710920720461539481,2051,2029,2073,2113,2221,2061,1195
2140,1710920720471543439,2040,2036,2047,2093,2020,2017,1194
2141,1710920720481552325,2050,2085,1979,1928,2002,2017,1192
2142,1710920720491538248,2079,2044,2052,2034,1955,2052,1196
2143,1710920720501537927,2047,1974,1989,2066,1984,2061,1194
2144,1710920720511538477,2066,2032,2022,1872,1892,2032,1192
2145,1710920720521500394,2080,2109,2061,2116,2114,2084,1194
2146,1710920720531540720,2053,1958,2048,2072,2057,2070,1195
2147,1710920720541539998,2052,2080,2078,2049,2038,2055,1196
2148,1710920720551540589,2029,2000,2079,2084,2082,2005,1192
2149,1710920720561541621,2068,2046,2074,1980,2121,2092,1195
2150,1710920720571541510,2056,2044,2044,2027,2088,2072,1195
2151,1710920720581541539,2069,2088,2077,2144,2167,2110,1194
2152,1710920720591540848,2042,2042,2036,1888,2052,2002,1192
2153,1710920720601558341,2064,2047,2000,2090,2133,2149,1197
2154,1710920720611538993,2024,2132,2036,2109,1990,2009,1191
2155,1710920720621542479,2117,2037,2054,2196,2106,2084,1196
2156,1710920720631542810,2030,2047,2072,2025,1960,2017,1192
2157,1710920720641543009,2050,2056,2088,2314,2162,2061,1194
2158,1710920720651551445,2067,2096,2098,2033,1893,2035,1193
2159,1710920720661541245,2078,2161,2052,2051,2069,2035,1192
2160,1710920720671544871,2044,2033,2072,2072,2059,2065,1195
2161,1710920720681544891,2092,2077,2061,2107,2155,2044,1191
2162,1710920720691545532,1989,1978,2011,2077,2084,2045,1192
2163,1710920720701545441,2063,2022,2077,2047,2036,2086,1194
2164,1710920720711545570,2056,2043,2079,2110,2117,2013,1193
2165,1710920720721545490,2025,2019,1948,2050,2037,2058,1195
2166,1710920720731536322,2049,2093,2033,2074,2057,2045,1193
2167,1710920720741561659,2078,2142,2071,2086,2088,2056,1194
2168,1710920720751494041,2084,2083,2070,1984,2154,2050,1197
2169,1710920720761489442,2071,2096,2065,2163,2124,2107,1194
2170,1710920720771500672,2001,2026,2081,2056,1978,1990,1192
2171,1710920720781511402,2070,2122,2122,2104,2042,2078,1195
2172,1710920720791548692,2081,2192,2087,2079,2057,2052,1195
2173,1710920720801530137,2072,2036,2092,1960,2002,2062,1196
2174,1710920720811555925,2067,2059,2026,1999,2058,2015,1192
2175,1710920720821533653,2041,2044,2056,2196,2028,2063,1197
2176,1710920720831533101,2072,2020,2069,2129,2134,2092,1194
2177,1710920720841568007,2057,2037,2108,1964,1923,2029,1193
2178,1710920720851530905,2064,2086,2095,1968,1967,2068,1194
2179,1710920720861496720,2050,2003,2054,1982,2033,2071,1195
2180,1710920720871527468,2054,1977,1998,2057,2084,2063,1195
2181,1710920720881553217,2022,1955,2024,1993,1986,2039,1194
2182,1710920720891516065,1988,1982,2030,2088,2115,2028,1193
2183,1710920720901532025,2066,2070,2066,2029,2070,2065,1193
2184,1710920720911532887,2037,1992,2001,2080,2045,2010,1193
2185,1710920720921536713,2118,2236,2064,2057,1960,2061,1196
2186,1710920720931533717,2048,2037,2048,1986,1969,2032,1193
2187,1710920720941538746,2030,2057,2063,2044,1961,2014,1192
2188,1710920720951527103,2043,2020,2058,2001,1960,2017,1192
2189,1710920720961534838,2043,2065,2120,2076,2094,2080,1194
2190,1710920720971530339,2068,2075,2084,2132,2097,2059,1195
2191,1710920720981537351,2008,2062,2038,2032,2040,2064,1195
2192,1710920720991556327,2062,2080,2084,2053,1826,2007,1192
2193,1710920721001534064,2053,1988,2006,2032,1976,2050,1195
2194,1710920721011540967,2068,2056,2048,2026,1993,2054,1196
2195,1710920721021535616,2072,2084,2045,2020,2076,2049,1197
2196,1710920721031533983,2034,2060,2050,2060,2005,2011,1193
2197,1710920721041546706,2052,2040,2084,2080,2064,2074,1194
2198,1710920721051493825,2009,1985,2033,2107,2107,2033,1195
2199,1710920721061544080,2070,2032,2067,1935,1824,2055,1195
2200,1710920721071538228,2072,2054,2088,2096,2122,2040,1191
2201,1710920721081536505,2048,2037,2040,2079,2056,2039,1192
2202,1710920721091523739,2164,2107,2075,2117,2054,2082,1194
2203,1710920721101533738,2069,2091,2156,2123,2106,2050,1193
2204,1710920721111537185,2056,2104,2080,2019,2005,2042,1193
2205,1710920721121534618,2047,2034,2078,2125,2084,2049,1195
2206,1710920721131540009,2052,2033,2048,2088,2064,2045,1193
2207,1710920721141536762,2065,2060,2011,2013,1988,2059,1194
2208,1710920721151535188,1985,1939,2040,2148,2126,2022,1193
2209,1710920721161536530,2061,1976,2093,2120,2104,2053,1196
2210,1710920721171532592,2047,2043,2082,2094,2004,2064,1196
2211,1710920721181636128,1960,1962,2024,1944,1896,2077,1195
2212,1710920721191527412,2062,2066,2038,1973,2047,2021,1192
