seq,time,data[0],data[1],data[2],data[3],data[4],data[5],data[6]
201,1711441699272460820,2051,2049,2049,2054,2050,2052,1197
202,1711441699282464257,2058,2053,2035,2052,2049,2053,1196
203,1711441699292466442,2054,2059,2066,2053,2065,2056,1196
204,1711441699302468057,2064,2056,2059,2067,2065,2061,1196
205,1711441699312460823,2059,2076,2074,2077,2053,2052,1196
206,1711441699322463780,2053,2049,2050,2052,2053,2052,1196
207,1711441699332459973,2044,2034,2027,2060,2050,2050,1196
208,1711441699342461036,2058,2086,2084,2052,2044,2051,1196
209,1711441699352462019,2054,2046,2036,2062,2064,2058,1195
210,1711441699362467620,2054,2045,2024,2038,2050,2054,1195
211,1711441699372468142,2064,2091,2224,2070,2068,2059,1196
212,1711441699382468393,2051,2045,2030,2081,2050,2050,1194
213,1711441699392462613,2053,2050,2061,2040,2029,2047,1193
214,1711441699402462884,2056,2066,2047,2084,2078,2055,1197
215,1711441699412463276,2053,2041,2042,2069,2069,2058,1195
216,1711441699422463016,2057,2058,2126,2061,2064,2058,1195
217,1711441699432462346,2058,2054,2052,2072,2055,2054,1194
218,1711441699442463188,2050,2040,2040,2056,2060,2056,1197
219,1711441699452474851,2052,2039,2032,2044,2045,2059,1196
220,1711441699462461847,2052,2060,2044,2045,2041,2049,1197
221,1711441699472459633,2062,2040,2022,2046,2037,2056,1197
222,1711441699482460085,2055,2037,2059,2085,2068,2057,1196
223,1711441699492472681,2056,2053,2056,2065,2068,2057,1196
224,1711441699502470697,2058,2057,2058,2053,2054,2054,1195
225,1711441699512465358,2056,2054,2053,2061,2054,2052,1196
226,1711441699522461712,2060,2057,2058,2049,2045,2057,1196
227,1711441699532506278,2061,2061,2062,2024,2015,2050,1195
228,1711441699542459990,2053,2051,2047,2057,2061,2054,1197
229,1711441699552461343,2056,2056,2072,2084,2079,2057,1194
230,1711441699562462566,2066,2056,2061,2052,2110,2054,1194
231,1711441699572459581,2056,2064,2068,2051,2047,2056,1195
232,1711441699582474050,2052,2044,2047,2053,2056,2060,1193
233,1711441699592487717,2056,2045,2052,2077,2057,2057,1195
234,1711441699602471497,2057,2049,2041,2072,2062,2050,1196
235,1711441699612465275,2053,2053,2059,2068,2080,2057,1195
236,1711441699622507778,2054,2053,2054,2052,2056,2056,1195
237,1711441699632474064,2053,2053,2060,2052,2057,2056,1196
238,1711441699642470778,2056,2061,2063,2059,2052,2055,1196
239,1711441699652458836,2057,2044,2042,2029,2043,2053,1197
240,1711441699662454709,2048,2039,2031,2081,2049,2052,1197
241,1711441699672457616,2052,2065,2094,2104,2100,2061,1199
242,1711441699682468928,2058,2061,2066,2061,2052,2056,1195
243,1711441699692473748,2056,2048,2041,2065,2059,2059,1194
244,1711441699702437900,2056,2056,2055,2056,2052,2053,1199
245,1711441699712467658,2056,2052,2052,2056,2058,2053,1196
246,1711441699722466165,2056,2057,2049,2052,2054,2056,1197
247,1711441699732482187,2056,2064,2062,2052,2050,2053,1195
248,1711441699742467089,2053,2091,2100,2080,2069,2062,1194
249,1711441699752464925,2055,2044,2004,2075,2068,2050,1196
250,1711441699762464365,2052,2056,2058,2034,2034,2052,1194
251,1711441699772466801,2053,2047,2050,2046,2043,2050,1198
252,1711441699782470409,2054,2050,2045,2056,2056,2053,1195
253,1711441699792468355,2057,2050,2050,2065,2062,2058,1194
254,1711441699802469248,2054,2048,2017,2062,2056,2054,1194
255,1711441699812479588,2060,2060,2052,2050,2052,2056,1197
256,1711441699822465732,2056,2049,2052,2052,2052,2052,1196
257,1711441699832509648,2057,2058,2061,2064,2068,2056,1195
258,1711441699842471075,2066,2098,2103,2061,2058,2060,1198
259,1711441699852461137,2049,2035,2040,2050,2052,2048,1196
260,1711441699862486666,2060,2053,2043,2052,2052,2057,1196
261,1711441699872462140,2056,2045,2012,2048,2055,2056,1197
262,1711441699882471639,2053,2059,2047,2053,2043,2049,1196
263,1711441699892470467,2058,2064,2064,2045,2076,2056,1197
264,1711441699902479655,2062,2108,2054,2056,2044,2048,1195
265,1711441699912457674,2053,2064,2094,2066,2048,2056,1195
266,1711441699922453136,2053,2058,2049,2052,2061,2047,1193
267,1711441699932461843,2060,2065,2078,2054,2043,2057,1198
268,1711441699942472625,2060,2046,2057,2083,2065,2056,1197
269,1711441699952445704,2054,2041,2039,2084,2109,2053,1196
270,1711441699962448370,2062,2059,2058,2055,2045,2057,1196
271,1711441699972452789,2058,2062,2085,2067,2062,2053,1195
272,1711441699982458070,2057,2055,2004,2063,2047,2049,1196
273,1711441699992417834,2051,2049,2058,2054,2066,2056,1194
274,1711441700002450367,2052,2047,2040,2063,2062,2040,1195
275,1711441700012451901,2062,2068,2079,2064,2052,2063,1195
276,1711441700022455017,2048,2054,2021,2051,2039,2049,1195
277,1711441700032456079,2058,2076,2057,2052,2060,2055,1197
278,1711441700042451100,2051,2026,2047,2064,2057,2054,1195
279,1711441700052453114,2056,2047,2037,2037,2042,2051,1198
280,1711441700062456731,2064,2064,2056,2057,2047,2051,1197
281,1711441700072505696,2053,2046,2050,2053,2054,2052,1197
282,1711441700082450590,2056,2064,2043,2053,2050,2044,1194
283,1711441700092454457,2058,2075,2034,2052,2044,2052,1196
284,1711441700102457133,2049,2064,2052,2051,2053,2052,1200
285,1711441700112458265,2064,2087,2098,2047,2060,2057,1195
286,1711441700122470899,2053,2053,2063,2054,2064,2053,1197
287,1711441700132454738,2061,2049,2066,2045,2052,2056,1197
288,1711441700142460400,2043,2002,1982,2043,2053,2058,1196
289,1711441700152460981,2056,2054,2104,2054,2056,2058,1196
290,1711441700162461552,2052,2056,2086,2055,2046,2045,1192
291,1711441700172464038,2059,2060,2056,2054,2037,2050,1194
292,1711441700182461652,2053,2041,2038,2057,2044,2051,1196
293,1711441700192446203,2061,2076,2094,2057,2056,2053,1196
294,1711441700202465040,2057,2042,2032,2054,2052,2053,1196
295,1711441700212465281,2057,2067,2053,2060,2050,2052,1197
296,1711441700222476312,2056,2053,2022,2043,2048,2052,1195
297,1711441700232441675,2062,2091,2132,2057,2056,2058,1196
298,1711441700242448058,2050,2044,2015,2052,2052,2050,1198
299,1711441700252469048,2053,2060,2032,2057,2058,2057,1195
300,1711441700262451665,2065,2069,2127,2042,2057,2059,1198
301,1711441700272452897,2057,2054,2045,2065,2059,2056,1198
302,1711441700282452928,2058,2086,2105,2057,2052,2054,1197
303,1711441700292452668,2050,2036,2029,2056,2050,2054,1195
304,1711441700302449272,2059,2078,2107,2058,2053,2056,1197
305,1711441700312448290,2056,2046,2052,2056,2049,2050,1195
306,1711441700322455524,2056,2057,2045,2055,2052,2052,1196
307,1711441700332456165,2052,2041,2029,2056,2049,2046,1192
308,1711441700342457498,2052,2064,2118,2056,2054,2065,1195
309,1711441700352454903,2059,2043,2055,2056,2056,2056,1196
310,1711441700362449052,2046,2040,2035,2050,2051,2053,1196
311,1711441700372451877,2054,2043,2035,2056,2056,2057,1197
312,1711441700382456747,2064,2071,2023,2064,2052,2055,1195
313,1711441700392455105,2053,2030,2020,2045,2048,2053,1197
314,1711441700402447329,2057,2065,2049,2052,2056,2052,1198
315,1711441700412448502,2060,2053,2141,2065,2061,2059,1197
316,1711441700422448492,2056,2052,2030,2056,2056,2050,1197
317,1711441700432456478,2062,2100,2072,2056,2056,2053,1196
318,1711441700442454053,2050,2041,2047,2054,2051,2052,1196
319,1711441700452450647,2058,2065,2069,2065,2056,2054,1197
320,1711441700462451699,2046,2029,2032,2052,2050,2054,1197
321,1711441700472447501,2052,2042,2020,2052,2051,2051,1199
322,1711441700482453102,2054,2056,2023,2054,2050,2054,1196
323,1711441700492449235,2058,2056,2056,2056,2056,2056,1197
324,1711441700502452551,2056,2056,2064,2056,2054,2056,1196
325,1711441700512454225,2052,2044,2036,2057,2052,2056,1198
326,1711441700522454496,2050,2048,2042,2058,2060,2056,1195
327,1711441700532456299,2052,2035,2064,2058,2056,2051,1196
328,1711441700542453835,2071,2095,2106,2068,2057,2057,1197
329,1711441700552452032,2055,2048,2044,2059,2053,2056,1194
330,1711441700562455669,2056,2076,2056,2056,2051,2052,1194
331,1711441700572452924,2053,2050,2045,2056,2053,2060,1197
332,1711441700582454477,2060,2052,2038,2059,2047,2046,1194
333,1711441700592470257,2054,2032,2026,2056,2060,2053,1197
334,1711441700602465068,2056,2031,2028,2054,2055,2052,1197
335,1711441700612466241,2057,2045,2021,2061,2061,2050,1196
336,1711441700622468695,2058,2067,2053,2049,2054,2052,1194
337,1711441700632458736,2056,2056,2032,2053,2050,2047,1193
338,1711441700642440902,2056,2060,2090,2050,2059,2057,1196
339,1711441700652460079,2063,2084,2212,2069,2061,2056,1197
340,1711441700662461492,2061,2076,2060,2055,2056,2054,1195
341,1711441700672467744,2059,2064,2050,2054,2057,2058,1198
342,1711441700682449159,2047,2027,2034,2055,2052,2052,1199
343,1711441700692454078,2062,2060,2038,2059,2052,2056,1197
344,1711441700702452986,2050,2064,2071,2051,2049,2046,1195
345,1711441700712453517,2058,2060,2060,2056,2052,2052,1196
346,1711441700722451614,2056,2060,2040,2056,2053,2053,1197
347,1711441700732448449,2052,2034,2064,2060,2056,2053,1197
348,1711441700742456794,2056,2044,2042,2056,2054,2053,1198
349,1711441700752453358,2052,2044,2040,2053,2056,2052,1196
350,1711441700762453248,2061,2058,2063,2056,2053,2057,1193
351,1711441700772483216,2064,2061,2058,2066,2058,2053,1194
352,1711441700782455012,2057,2056,2073,2053,2052,2052,1194
353,1711441700792458208,2052,2044,2056,2056,2052,2052,1197
354,1711441700802458579,2062,2082,2068,2056,2047,2054,1197
355,1711441700812457778,2062,2111,2098,2057,2052,2054,1197
356,1711441700822465423,2056,2057,2084,2058,2053,2049,1196
357,1711441700832449552,2054,2066,2050,2053,2051,2055,1197
358,1711441700842459021,2061,2073,2072,2064,2057,2054,1196
359,1711441700852461827,2057,2077,2054,2059,2056,2052,1197
360,1711441700862462498,2053,2054,2043,2054,2052,2060,1195
361,1711441700872471435,2054,2053,2059,2056,2050,2049,1196
362,1711441700882476716,2057,2041,2047,2057,2050,2051,1196
363,1711441700892548364,2058,2050,2049,2058,2054,2056,1194
364,1711441700902460104,2048,2042,2015,2052,2050,2049,1196
365,1711441700912458721,2060,2064,2046,2056,2056,2056,1195
366,1711441700922456107,2057,2053,2023,2054,2053,2051,1196
367,1711441700932485553,2062,2050,2053,2056,2056,2054,1196
368,1711441700942462379,2048,2003,2030,2054,2064,2066,1197
369,1711441700952462740,2071,2046,2062,2066,2052,2058,1197
370,1711441700962445236,2055,2056,2053,2054,2055,2054,1193
371,1711441700972463642,2052,2053,2050,2052,2052,2048,1196
372,1711441700982488731,2060,2074,2116,2060,2055,2057,1196
373,1711441700992465366,2057,2046,2043,2056,2052,2048,1196
374,1711441701002453724,2056,2043,2018,2055,2054,2054,1196
375,1711441701012451520,2060,2053,2046,2062,2060,2059,1197
376,1711441701022454625,2057,2065,2052,2056,2051,2053,1195
377,1711441701032490223,2056,2061,2069,2058,2054,2054,1197
378,1711441701042491475,2056,2043,2042,2057,2056,2051,1197
379,1711441701052465946,2058,2041,2028,2054,2060,2053,1198
380,1711441701062466687,2050,2053,2062,2056,2053,2052,1196
381,1711441701072469872,2057,2085,2076,2057,2053,2054,1195
382,1711441701082451086,2053,2064,2072,2054,2058,2051,1196
383,1711441701092457528,2060,2061,2059,2060,2051,2064,1195
384,1711441701102450364,2050,2036,2024,2047,2046,2047,1193
385,1711441701112453820,2053,2056,2064,2056,2053,2053,1193
386,1711441701122452156,2056,2060,2053,2054,2056,2052,1195
387,1711441701132462426,2056,2046,2044,2054,2056,2056,1195
388,1711441701142453438,2057,2085,2061,2048,2044,2051,1195
389,1711441701152448739,2053,2068,2108,2060,2057,2056,1197
390,1711441701162449279,2059,2057,2050,2057,2054,2052,1193
391,1711441701172477924,2053,2051,2041,2057,2052,2054,1193
392,1711441701182466642,2055,2042,2028,2052,2053,2053,1196
393,1711441701192451372,2064,2060,2106,2061,2056,2052,1195
394,1711441701202443677,2049,2026,1991,2052,2052,2047,1195
395,1711441701212450289,2056,2069,2035,2058,2056,2055,1196
396,1711441701222442184,2050,2032,1993,2051,2052,2053,1196
397,1711441701232449918,2056,2066,2094,2056,2053,2055,1194
398,1711441701242452463,2058,2049,2046,2052,2049,2053,1195
399,1711441701252448514,2049,2043,2048,2051,2052,2057,1196
400,1711441701262446570,2056,2044,2045,2059,2052,2053,1195
401,1711441701272447622,2059,2082,2065,2050,2045,2052,1197
402,1711441701282445157,2053,2057,2049,2054,2053,2056,1195
403,1711441701292453423,2050,2043,2064,2056,2056,2056,1197
404,1711441701302449504,2053,2050,2043,2054,2052,2052,1195
405,1711441701312452991,2061,2056,2047,2064,2060,2057,1197
406,1711441701322456146,2056,2067,2089,2064,2059,2050,1195
407,1711441701332466947,2067,2097,2072,2064,2066,2057,1197
408,1711441701342445836,2048,2036,2042,2053,2051,2049,1199
409,1711441701352444693,2054,2017,2041,2059,2056,2056,1196
410,1711441701362444853,2062,2048,2068,2056,2056,2057,1194
411,1711441701372431397,2059,2069,2096,2060,2056,2057,1194
412,1711441701382456525,2047,2034,2008,2052,2050,2047,1193
413,1711441701392453979,2056,2056,2054,2053,2057,2056,1196
414,1711441701402449701,2061,2047,2065,2053,2053,2056,1197
415,1711441701412455141,2058,2054,2046,2053,2052,2052,1197
416,1711441701422455882,2058,2032,2017,2053,2056,2052,1196
417,1711441701432443588,2058,2060,2030,2058,2052,2053,1196
418,1711441701442442595,2051,2036,2047,2049,2047,2048,1195
419,1711441701452450421,2052,2049,2005,2054,2052,2050,1197
420,1711441701462450590,2057,2077,2068,2057,2052,2052,1197
421,1711441701472456101,2049,2044,2037,2056,2054,2054,1198
422,1711441701482481479,2050,2016,2040,2056,2052,2054,1196
423,1711441701492464686,2056,2037,2049,2054,2050,2053,1199
424,1711441701502456641,2058,2067,2078,2060,2061,2064,1197
425,1711441701512454656,2053,2044,2029,2051,2047,2050,1197
426,1711441701522460948,2058,2051,2037,2052,2052,2049,1196
427,1711441701532442231,2041,2021,2000,2056,2056,2055,1197
428,1711441701542462901,2058,2058,2061,2057,2052,2056,1196
429,1711441701552462019,2049,2042,2040,2053,2050,2052,1195
430,1711441701562475865,2055,2045,2040,2056,2052,2060,1194
431,1711441701572446929,2056,2036,2029,2056,2053,2056,1195
432,1711441701582457569,2055,2052,2047,2054,2056,2054,1196
433,1711441701592456357,2058,2064,2040,2058,2057,2056,1193
434,1711441701602454522,2054,2050,2037,2052,2053,2051,1194
435,1711441701612459682,2054,2050,2040,2058,2053,2055,1196
436,1711441701622474891,2056,2080,2068,2054,2052,2052,1197
437,1711441701632447097,2059,2066,2112,2062,2055,2056,1194
438,1711441701642445845,2062,2061,2058,2056,2057,2061,1195
439,1711441701652450052,2048,2031,2072,2060,2061,2057,1195
440,1711441701662451926,2058,2046,2053,2056,2054,2052,1196
441,1711441701672492984,2055,2051,2069,2062,2056,2052,1198
442,1711441701682445542,2061,2079,2104,2057,2058,2056,1195
443,1711441701692457484,2056,2056,2040,2057,2053,2054,1195
444,1711441701702453236,2059,2064,2076,2059,2059,2058,1196
445,1711441701712457735,2052,2044,2030,2059,2056,2056,1195
446,1711441701722511197,2059,2040,2034,2053,2056,2052,1201
447,1711441701732482792,2057,2037,2020,2053,2052,2053,1195
448,1711441701742450429,2052,2045,2031,2052,2054,2052,1196
449,1711441701752447513,2053,2052,2050,2057,2058,2056,1196
450,1711441701762457382,2064,2082,2068,2056,2054,2052,1195
451,1711441701772455087,2054,2050,2049,2053,2056,2056,1198
452,1711441701782455247,2059,2066,2053,2056,2057,2053,1195
453,1711441701792452852,2057,2047,2010,2058,2052,2053,1195
454,1711441701802446149,2052,2048,2040,2052,2056,2050,1195
455,1711441701812446138,2056,2064,2065,2058,2056,2055,1197
456,1711441701822451649,2053,2056,2081,2060,2055,2056,1194
457,1711441701832454163,2053,2020,2024,2058,2046,2050,1195
458,1711441701842451247,2058,2037,2040,2058,2052,2053,1197
459,1711441701852451097,2055,2045,2056,2056,2058,2052,1197
460,1711441701862451927,2062,2070,2086,2061,2058,2052,1198
461,1711441701872469872,2069,2077,2076,2064,2060,2059,1200
462,1711441701882452618,2054,2053,2072,2057,2056,2053,1196
463,1711441701892453780,2052,2048,2037,2056,2056,2056,1196
464,1711441701902455963,2054,2065,2035,2054,2052,2054,1197
465,1711441701912455863,2062,2072,2129,2070,2057,2052,1196
466,1711441701922460261,2056,2053,2053,2052,2050,2056,1197
467,1711441701932455141,2062,2053,2053,2056,2050,2052,1197
468,1711441701942458528,2058,2052,2041,2057,2056,2056,1196
469,1711441701952458787,2048,2052,2038,2054,2052,2052,1195
470,1711441701962459408,2052,2044,2047,2052,2054,2050,1196
471,1711441701972463215,2058,2063,2107,2059,2056,2056,1195
472,1711441701982459908,2050,2041,2027,2048,2051,2054,1198
473,1711441701992462182,2060,2073,2072,2056,2059,2052,1196
474,1711441702002462202,2051,2039,2030,2056,2050,2052,1197
475,1711441702012463353,2054,2056,2066,2058,2057,2054,1195
476,1711441702022481277,2055,2100,2067,2056,2050,2049,1198
477,1711441702032442091,2056,2037,2089,2060,2065,2060,1197
478,1711441702042448252,2048,2032,2028,2052,2052,2052,1196
479,1711441702052447460,2056,2050,2037,2058,2052,2053,1192
480,1711441702062443411,2056,2056,2050,2053,2054,2056,1196
481,1711441702072472696,2060,2046,2014,2056,2052,2052,1197
482,1711441702082466163,2056,2065,2090,2054,2050,2050,1195
483,1711441702092449259,2062,2076,2053,2057,2056,2052,1198
484,1711441702102449629,2060,2050,2042,2056,2052,2054,1196
485,1711441702112447213,2047,2025,2006,2056,2054,2052,1197
486,1711441702122453053,2061,2085,2148,2062,2057,2056,1196
487,1711441702132448804,2052,2036,2036,2056,2055,2056,1193
488,1711441702142455115,2053,2056,2060,2057,2054,2052,1195
489,1711441702152445486,2053,2048,2041,2056,2056,2053,1195
490,1711441702162449282,2059,2098,2056,2059,2054,2053,1193
491,1711441702172477074,2053,2042,2046,2056,2053,2053,1196
492,1711441702182456223,2049,2041,2028,2056,2052,2056,1196
493,1711441702192447726,2058,2075,2069,2060,2056,2053,1197
494,1711441702202458756,2048,2038,2041,2058,2054,2054,1193
495,1711441702212475828,2056,2049,2045,2060,2053,2053,1194
496,1711441702222479233,2061,2107,2112,2061,2055,2058,1196
497,1711441702232465296,2050,2043,2042,2056,2053,2053,1194
498,1711441702242456759,2054,2056,2058,2056,2055,2052,1194
499,1711441702252452740,2054,2047,2056,2056,2060,2054,1195
500,1711441702262454884,2058,2047,2031,2060,2056,2055,1194
501,1711441702272452388,2059,2044,2041,2055,2050,2053,1194
502,1711441702282468678,2046,2000,2024,2057,2056,2057,1196
503,1711441702292449701,2068,2053,2080,2063,2060,2054,1194
504,1711441702302447054,2053,2052,2068,2057,2052,2050,1198
505,1711441702312446713,2056,2062,2052,2054,2054,2056,1195
506,1711441702322446892,2059,2075,2069,2056,2054,2058,1196
507,1711441702332461279,2065,2082,2117,2065,2062,2059,1197
508,1711441702342481727,2049,2040,2051,2056,2054,2053,1192
509,1711441702352461948,2053,2029,2014,2052,2053,2053,1195
510,1711441702362452218,2055,2052,2044,2055,2055,2056,1193
511,1711441702372453249,2057,2056,2064,2058,2054,2054,1196
512,1711441702382472415,2052,2070,2066,2052,2053,2049,1197
513,1711441702392451424,2055,2045,2035,2062,2053,2051,1194
514,1711441702402448156,2046,2034,2024,2051,2052,2052,1196
515,1711441702412448466,2058,2057,2049,2056,2053,2056,1196
516,1711441702422448555,2057,2052,2039,2058,2055,2051,1195
517,1711441702432455437,2052,2043,2045,2053,2053,2053,1196
518,1711441702442451028,2056,2049,2049,2058,2056,2052,1195
519,1711441702452451578,2056,2044,2026,2056,2057,2064,1195
520,1711441702462451568,2056,2053,2052,2056,2045,2054,1197
521,1711441702472453000,2063,2077,2064,2058,2057,2051,1196
522,1711441702482457407,2055,2033,2069,2056,2055,2053,1196
523,1711441702492460372,2056,2031,2044,2059,2056,2057,1196
524,1711441702502454790,2052,2052,2053,2056,2053,2056,1195
525,1711441702512453477,2060,2048,2058,2058,2057,2056,1198
526,1711441702522481760,2056,2043,2031,2057,2057,2054,1196
527,1711441702532465197,2052,2047,2033,2049,2046,2047,1195
528,1711441702542443534,2060,2076,2168,2061,2058,2057,1200
529,1711441702552448413,2056,2052,2025,2057,2053,2056,1198
530,1711441702562442560,2048,2060,2058,2058,2053,2049,1194
531,1711441702572442289,2050,2042,2038,2054,2053,2053,1197
532,1711441702582443961,2053,2051,2046,2053,2056,2049,1196
533,1711441702592444170,2057,2053,2047,2057,2056,2059,1196
534,1711441702602481331,2052,2048,2044,2052,2055,2051,1195
535,1711441702612452985,2058,2067,2064,2058,2056,2056,1195
536,1711441702622464597,2059,2058,2036,2050,2050,2050,1196
537,1711441702632464295,2052,2043,2024,2056,2057,2051,1195
538,1711441702642468683,2052,2052,2040,2054,2052,2051,1195
539,1711441702652445266,2058,2068,2093,2058,2055,2054,1197
540,1711441702662456838,2053,2057,2056,2057,2053,2052,1195
541,1711441702672461016,2056,2050,2038,2056,2057,2053,1195
542,1711441702682471265,2056,2053,2056,2056,2052,2052,1193
543,1711441702692461034,2052,2030,2053,2054,2052,2053,1196
544,1711441702702461183,2054,2064,2029,2053,2053,2053,1195
545,1711441702712453026,2059,2049,2034,2056,2046,2050,1196
546,1711441702722457324,2056,2060,2078,2055,2053,2057,1195
547,1711441702732457964,2053,2042,2058,2059,2051,2056,1196
548,1711441702743145398,2058,2049,2037,2055,2056,2056,1196
549,1711441702752476227,2054,2048,2058,2056,2053,2051,1197
550,1711441702762467820,2053,2042,2034,2055,2055,2054,1195
551,1711441702772460354,2060,2065,2053,2056,2053,2054,1197
552,1711441702782464371,2052,2072,2081,2051,2052,2052,1194
553,1711441702792470903,2067,2100,2232,2061,2056,2058,1196
554,1711441702802465000,2050,2046,2054,2056,2054,2054,1197
555,1711441702812465621,2053,2062,2068,2056,2056,2054,1196
556,1711441702822449979,2051,2040,2050,2053,2053,2053,1196
557,1711441702832485998,2064,2093,2075,2057,2061,2055,1196
558,1711441702842469224,2054,2057,2043,2049,2052,2049,1196
559,1711441702852446159,2052,2045,2029,2053,2051,2054,1196
560,1711441702862451989,2052,2037,2025,2054,2050,2047,1194
561,1711441702872453090,2068,2075,2081,2060,2056,2059,1197
562,1711441702882451547,2053,2061,2088,2054,2053,2053,1197
563,1711441702892449462,2054,2051,2053,2054,2053,2052,1196
564,1711441702902447247,2059,2093,2076,2054,2053,2055,1196
565,1711441702912454290,2050,2058,2024,2055,2053,2056,1195
566,1711441702922453667,2056,2068,2043,2058,2058,2054,1194
567,1711441702932458816,2060,2076,2100,2059,2056,2057,1195
568,1711441702942459817,2059,2052,2084,2060,2056,2050,1195
569,1711441702952447673,2053,2040,2034,2054,2051,2056,1196
570,1711441702962450116,2058,2090,2090,2057,2056,2057,1193
571,1711441702972446679,2056,2052,2053,2057,2053,2053,1194
572,1711441702982474722,2049,2032,2044,2055,2054,2055,1196
573,1711441702992452147,2063,2056,2061,2060,2056,2056,1198
574,1711441703002445514,2055,2038,2044,2056,2052,2048,1195
575,1711441703012453557,2058,2043,2044,2056,2053,2054,1197
576,1711441703022451862,2062,2068,2154,2065,2057,2052,1196
577,1711441703032533027,2053,2036,2034,2054,2054,2058,1197
578,1711441703042473691,2063,2053,2049,2056,2053,2052,1194
579,1711441703052454112,2054,2048,2044,2058,2054,2056,1195
580,1711441703062461755,2047,2039,2065,2053,2053,2056,1196
581,1711441703072458196,2052,2037,2022,2054,2052,2056,1197
582,1711441703082468425,2054,2042,2045,2054,2055,2058,1196
583,1711441703092461580,2050,2048,2052,2057,2053,2053,1194
584,1711441703102455768,2053,2053,2052,2056,2057,2052,1196
585,1711441703112455194,2054,2053,2051,2056,2056,2052,1195
586,1711441703122452007,2054,2052,2024,2056,2053,2053,1197
587,1711441703132458117,2053,2045,2041,2055,2056,2056,1195
588,1711441703142443989,2057,2048,2056,2052,2051,2051,1196
589,1711441703152458745,2061,2065,2114,2057,2056,2054,1197
590,1711441703162452782,2047,2046,2036,2053,2050,2050,1195
591,1711441703172455245,2061,2085,2065,2057,2053,2056,1194
592,1711441703182478118,2053,2047,2073,2056,2057,2056,1196
593,1711441703192455072,2053,2060,2056,2054,2053,2052,1196
594,1711441703202443398,2053,2058,2041,2055,2053,2053,1196
595,1711441703212455921,2054,2049,2076,2056,2048,2052,1195
596,1711441703222451961,2056,2049,2033,2056,2047,2052,1195
597,1711441703232496566,2052,2022,2034,2058,2057,2060,1195
598,1711441703242451868,2055,2032,2037,2049,2052,2049,1197
599,1711441703252455193,2058,2057,2089,2060,2058,2059,1197
600,1711441703262451955,2051,2033,2018,2052,2053,2052,1195
601,1711441703272449429,2052,2032,2032,2056,2052,2053,1195
602,1711441703282471009,2060,2077,2112,2063,2056,2058,1195
603,1711441703292451189,2058,2064,2079,2061,2056,2059,1196
604,1711441703302457389,2056,2044,2008,2056,2047,2054,1196
605,1711441703312454052,2050,2035,2030,2056,2054,2056,1195
606,1711441703322451595,2051,2056,2056,2053,2050,2056,1196
607,1711441703332479127,2060,2062,2048,2056,2052,2058,1194
608,1711441703342458005,2053,2047,2034,2057,2053,2054,1196
609,1711441703352484885,2052,2045,2011,2050,2051,2052,1197
610,1711441703362453192,2061,2085,2118,2058,2052,2054,1195
611,1711441703372453972,2052,2047,2068,2053,2054,2056,1197
612,1711441703382453510,2056,2049,2050,2052,2047,2052,1196
613,1711441703392447506,2052,2040,2036,2050,2057,2052,1196
614,1711441703402453287,2053,2053,2057,2054,2052,2052,1197
615,1711441703412448816,2056,2037,2042,2057,2056,2053,1197
616,1711441703422452021,2054,2056,2058,2055,2057,2060,1197
617,1711441703432450927,2058,2062,2091,2063,2062,2056,1196
618,1711441703442463480,2065,2080,2070,2054,2056,2056,1196
619,1711441703452460262,2053,2060,2073,2054,2053,2051,1196
620,1711441703462458567,2057,2060,2037,2056,2056,2056,1198
621,1711441703472461411,2062,2077,2092,2056,2052,2058,1197
622,1711441703482474104,2050,2045,2040,2052,2052,2051,1195
623,1711441703492456999,2053,2043,2031,2058,2056,2057,1194
624,1711441703502472127,2062,2085,2038,2051,2052,2053,1196
625,1711441703512469721,2056,2058,2068,2058,2054,2050,1197
626,1711441703522461974,2052,2045,2031,2052,2054,2050,1193
627,1711441703532472945,2060,2060,2061,2064,2060,2059,1195
628,1711441703542470147,2055,2048,2032,2054,2053,2048,1198
629,1711441703552468252,2061,2056,2050,2056,2053,2056,1195
630,1711441703562465445,2053,2047,2049,2056,2052,2052,1193
631,1711441703572465293,2061,2082,2077,2057,2056,2053,1193
632,1711441703582460121,2056,2061,2048,2055,2056,2055,1195
633,1711441703592482594,2061,2057,2065,2054,2057,2053,1195
634,1711441703602454998,2058,2051,2033,2052,2056,2054,1196
635,1711441703612455568,2051,2040,2040,2056,2052,2056,1197
636,1711441703622453773,2056,2046,2045,2058,2056,2052,1195
637,1711441703632477558,2058,2064,2072,2058,2057,2054,1197
638,1711441703642456886,2056,2068,2077,2057,2055,2053,1194
639,1711441703652456875,2057,2040,2043,2056,2055,2056,1195
640,1711441703662458456,2057,2053,2030,2053,2055,2052,1196
641,1711441703672457513,2056,2067,2076,2058,2053,2056,1196
642,1711441703682480916,2053,2041,2061,2053,2052,2052,1195
643,1711441703692451358,2060,2056,2052,2059,2060,2056,1195
644,1711441703702452048,2053,2058,2045,2058,2049,2047,1193
645,1711441703712455783,2064,2061,2032,2060,2057,2057,1197
646,1711441703722456263,2051,2053,2044,2056,2052,2049,1195
647,1711441703732457684,2051,2043,2045,2058,2052,2052,1195
648,1711441703742454066,2056,2049,2052,2054,2052,2054,1198
649,1711441703752458071,2053,2038,2016,2056,2050,2056,1197
650,1711441703762458411,2050,2018,2032,2056,2056,2056,1194
651,1711441703772458278,2060,2033,2046,2060,2055,2050,1195
652,1711441703782478807,2063,2077,2096,2060,2060,2059,1193
653,1711441703792463896,2049,2026,2045,2056,2052,2054,1197
654,1711441703802459867,2057,2050,2064,2054,2047,2052,1197
655,1711441703812460296,2052,2037,2028,2053,2053,2053,1195
656,1711441703822461277,2056,2059,2056,2051,2053,2054,1194
657,1711441703832491433,2061,2092,2112,2056,2054,2053,1195
658,1711441703842442999,2055,2052,2093,2055,2056,2058,1195
659,1711441703852438819,2058,2060,2082,2056,2053,2055,1197
660,1711441703862445320,2055,2042,2048,2053,2053,2052,1197
661,1711441703872463053,2058,2047,2060,2053,2052,2057,1198
662,1711441703882444495,2056,2056,2049,2056,2053,2056,1196
663,1711441703892431880,2053,2053,2058,2052,2053,2048,1195
664,1711441703902450283,2047,2025,2044,2054,2054,2052,1196
665,1711441703912450382,2068,2077,2125,2065,2053,2058,1196
666,1711441703922452775,2056,2051,2047,2051,2052,2054,1197
667,1711441703932473624,2058,2052,2103,2059,2062,2053,1195
668,1711441703942438434,2060,2056,2045,2058,2054,2055,1197
669,1711441703952450737,2057,2047,2030,2058,2056,2053,1197
670,1711441703962448350,2053,2062,2056,2052,2053,2051,1196
671,1711441703972450824,2058,2067,2088,2060,2051,2053,1197
672,1711441703982493935,2065,2090,2112,2061,2054,2053,1194
673,1711441703992452464,2055,2058,2045,2054,2054,2056,1197
674,1711441704002452572,2053,2056,2053,2052,2046,2051,1195
675,1711441704012452561,2057,2061,2049,2058,2056,2054,1196
676,1711441704022476475,2056,2061,2067,2053,2056,2056,1196
677,1711441704032478887,2056,2057,2042,2054,2055,2056,1195
678,1711441704042458907,2061,2102,2111,2059,2051,2057,1196
679,1711441704052454686,2052,2051,2054,2058,2053,2050,1198
680,1711441704062454253,2053,2056,2050,2057,2048,2052,1196
681,1711441704072451887,2058,2069,2070,2056,2057,2056,1199
682,1711441704082488144,2048,2016,2034,2052,2046,2052,1198
683,1711441704092457433,2063,2040,2067,2062,2054,2056,1196
684,1711441704102461549,2050,2008,2039,2052,2052,2050,1196
685,1711441704112461276,2054,2031,2048,2060,2056,2057,1197
686,1711441704122460162,2056,2049,2051,2058,2054,2049,1198
687,1711441704132467804,2056,2064,2096,2060,2054,2057,1196
688,1711441704142459807,2052,2032,2045,2056,2056,2051,1194
689,1711441704152454825,2059,2050,2058,2052,2051,2056,1194
690,1711441704162452919,2067,2106,2200,2068,2061,2057,1194
691,1711441704172449410,2053,2029,2053,2058,2056,2054,1194
692,1711441704182482903,2053,2037,2049,2056,2053,2051,1196
693,1711441704192451290,2053,2050,2053,2057,2054,2056,1196
694,1711441704202452240,2059,2050,2032,2057,2052,2056,1195
695,1711441704212452678,2058,2058,2072,2057,2057,2056,1193
696,1711441704222449179,2061,2080,2088,2059,2057,2054,1197
697,1711441704232500626,2049,2039,2034,2054,2052,2049,1195
698,1711441704242456108,2057,2076,2053,2056,2053,2053,1195
699,1711441704252442931,2052,2066,2070,2056,2056,2052,1196
700,1711441704262454431,2052,2056,2056,2056,2053,2051,1200
701,1711441704272448788,2053,2054,2064,2053,2049,2052,1195
702,1711441704282462041,2058,2062,2084,2060,2052,2052,1196
703,1711441704292455948,2056,2065,2094,2058,2060,2054,1198
704,1711441704302454913,2057,2061,2056,2058,2056,2058,1197
705,1711441704312455593,2058,2061,2092,2058,2056,2054,1196
706,1711441704322458847,2058,2065,2066,2062,2056,2057,1197
707,1711441704332516305,2052,2038,2045,2056,2051,2056,1198
708,1711441704342446669,2052,2045,2040,2052,2052,2052,1196
709,1711441704352453410,2054,2061,2043,2056,2052,2050,1196
710,1711441704362454109,2053,2052,2047,2057,2052,2053,1196
711,1711441704372457103,2052,2044,2057,2056,2053,2056,1196
712,1711441704382446971,2063,2062,2074,2055,2050,2054,1195
713,1711441704392443953,2050,2034,2027,2052,2053,2052,1196
714,1711441704402454982,2053,2056,2029,2067,2057,2047,1193
715,1711441704412454629,2056,2062,2062,2065,2054,2052,1196
716,1711441704422452724,2057,2085,2094,2053,2053,2051,1196
717,1711441704432520091,2050,2047,2044,2053,2052,2053,1196
718,1711441704442451127,2050,2048,2048,2056,2056,2055,1196
719,1711441704452451695,2066,2106,2091,2058,2056,2052,1197
720,1711441704462453728,2045,2033,2034,2056,2054,2053,1195
721,1711441704472453685,2060,2059,2034,2052,2053,2055,1197
722,1711441704482464634,2057,2075,2099,2058,2052,2052,1196
723,1711441704492463800,2051,2044,2035,2056,2056,2053,1197
724,1711441704502461594,2053,2069,2044,2056,2053,2056,1195
725,1711441704512457333,2057,2041,2064,2058,2054,2054,1196
726,1711441704522457783,2056,2040,2052,2056,2053,2054,1196
727,1711441704532456978,2056,2052,2036,2058,2056,2056,1195
728,1711441704542448741,2049,2042,2039,2052,2052,2052,1195
729,1711441704552453889,2055,2049,2047,2056,2052,2052,1195
730,1711441704562454297,2053,2045,2039,2054,2054,2051,1194
731,1711441704572454736,2046,2015,2018,2050,2052,2052,1194
732,1711441704582528396,2056,2052,2049,2055,2052,2052,1197
733,1711441704592465593,2051,2047,2045,2052,2054,2054,1196
734,1711441704602465851,2049,2045,2030,2052,2051,2052,1196
735,1711441704612463916,2056,2044,2053,2057,2056,2058,1197
736,1711441704622464925,2056,2048,2045,2056,2054,2053,1195
737,1711441704632465364,2057,2052,2050,2054,2048,2052,1196
738,1711441704642440694,2050,2052,2050,2058,2054,2052,1197
739,1711441704652460120,2055,2089,2071,2056,2052,2053,1198
740,1711441704662451451,2058,2084,2108,2058,2058,2057,1196
741,1711441704672467209,2058,2065,2076,2061,2056,2053,1197
742,1711441704682458079,2053,2050,2055,2054,2053,2054,1195
743,1711441704692452977,2056,2060,2051,2056,2052,2053,1195
744,1711441704702457093,2057,2066,2075,2055,2056,2055,1196
745,1711441704712451881,2060,2054,2048,2056,2050,2050,1197
746,1711441704722452851,2066,2072,2060,2053,2056,2056,1196
747,1711441704732454712,2053,2044,2035,2052,2050,2050,1196
748,1711441704742445192,2064,2066,2056,2056,2057,2058,1196
749,1711441704752473023,2056,2052,2066,2060,2054,2053,1197
750,1711441704762449786,2056,2044,2038,2054,2054,2056,1194
751,1711441704772434976,2057,2063,2058,2057,2053,2053,1196
752,1711441704782421207,2048,2021,2056,2051,2048,2052,1196
753,1711441704792443318,2061,2039,2091,2061,2056,2057,1196
754,1711441704802454457,2049,2039,2038,2050,2050,2051,1194
755,1711441704812453313,2052,2043,2033,2056,2049,2052,1195
756,1711441704822452359,2056,2056,2050,2056,2054,2054,1195
757,1711441704832465241,2052,2045,2012,2054,2051,2049,1197
758,1711441704842443096,2057,2073,2048,2052,2056,2053,1197
759,1711441704852455308,2053,2056,2056,2060,2054,2053,1196
760,1711441704862453131,2048,2040,2034,2052,2053,2052,1195
761,1711441704872453761,2058,2113,2112,2064,2053,2052,1198
762,1711441704882454380,2052,2049,2040,2055,2052,2056,1196
763,1711441704892467573,2058,2058,2046,2058,2052,2052,1196
764,1711441704902459746,2056,2061,2061,2054,2054,2052,1197
765,1711441704912454574,2058,2053,2043,2057,2056,2052,1195
766,1711441704922452828,2056,2051,2012,2050,2052,2052,1194
767,1711441704932484928,2062,2116,2074,2056,2055,2057,1198
768,1711441704942445981,2050,2040,2040,2056,2053,2056,1194
769,1711441704952458162,2054,2050,2048,2057,2050,2054,1198
770,1711441704962446547,2053,2053,2058,2055,2053,2053,1194
771,1711441704972450533,2057,2056,2040,2055,2057,2056,1197
772,1711441704982445581,2052,2013,2094,2057,2057,2056,1197
773,1711441704992451912,2061,2026,2041,2058,2050,2052,1196
774,1711441705002454755,2060,2057,2064,2055,2058,2056,1197
775,1711441705012450475,2053,2046,2058,2052,2050,2050,1196
776,1711441705022451504,2051,2040,2016,2057,2051,2053,1196
777,1711441705032480026,2056,2056,2046,2057,2053,2053,1197
778,1711441705042469623,2061,2062,2057,2056,2056,2052,1196
779,1711441705052447448,2057,2076,2043,2053,2054,2056,1195
780,1711441705062439740,2052,2048,2063,2053,2061,2053,1195
781,1711441705072449967,2056,2044,2065,2058,2053,2056,1199
782,1711441705082441088,2052,2047,2028,2052,2056,2052,1197
783,1711441705092479018,2061,2067,2067,2062,2056,2056,1197
784,1711441705102446022,2052,2049,2044,2056,2053,2053,1196
785,1711441705112459245,2052,2068,2050,2057,2055,2059,1197
786,1711441705122454212,2050,2040,2042,2054,2052,2049,1197
787,1711441705132460802,2066,2086,2070,2062,2056,2057,1198
788,1711441705142459667,2051,2033,2022,2049,2050,2052,1197
789,1711441705152455306,2060,2068,2071,2064,2058,2056,1196
790,1711441705162461586,2050,2060,2061,2055,2053,2056,1194
791,1711441705172452055,2053,2054,2053,2056,2053,2052,1196
792,1711441705182453204,2056,2056,2036,2052,2052,2050,1196
793,1711441705192479943,2063,2072,2098,2059,2056,2059,1197
794,1711441705202461224,2055,2056,2055,2056,2052,2052,1197
795,1711441705212467053,2064,2083,2056,2059,2056,2053,1196
796,1711441705222456750,2050,2047,2054,2053,2053,2050,1196
797,1711441705232458280,2058,2056,2025,2057,2056,2056,1195
798,1711441705242468127,2053,2056,2060,2065,2053,2053,1195
799,1711441705252453636,2058,2052,2060,2058,2050,2051,1197
800,1711441705262459675,2059,2058,2056,2058,2057,2055,1196
801,1711441705272454222,2060,2076,2068,2064,2056,2057,1198
802,1711441705282462174,2056,2045,2067,2052,2051,2052,1196
803,1711441705292503451,2054,2025,2024,2051,2048,2054,1198
804,1711441705302470114,2058,2040,2036,2053,2052,2052,1196
805,1711441705312446456,2057,2048,2049,2052,2056,2052,1196
806,1711441705322455250,2060,2072,2079,2057,2056,2052,1197
807,1711441705332471168,2056,2061,2032,2057,2054,2053,1196
808,1711441705342443001,2052,2042,2044,2057,2055,2052,1195
809,1711441705352454541,2054,2034,2015,2052,2050,2047,1193
810,1711441705362449128,2051,2045,2040,2053,2048,2049,1195
811,1711441705372447953,2060,2074,2091,2062,2059,2056,1196
812,1711441705382443712,2051,2053,2077,2056,2056,2052,1195
813,1711441705392457796,2049,2056,2038,2056,2054,2052,1194
814,1711441705402453736,2045,2024,2043,2052,2051,2052,1195
815,1711441705412450898,2060,2049,2098,2061,2060,2056,1196
816,1711441705422447418,2050,2043,2047,2054,2050,2056,1198
817,1711441705432451674,2050,2050,2026,2053,2051,2053,1196
818,1711441705442488843,2050,2060,2050,2053,2049,2050,1195
819,1711441705452448582,2053,2034,2065,2057,2055,2056,1194
820,1711441705462460192,2053,2040,2038,2052,2047,2049,1196
821,1711441705472451503,2064,2051,2056,2061,2051,2052,1196
822,1711441705482454195,2052,2041,2044,2056,2053,2052,1195
823,1711441705492458170,2053,2036,2072,2060,2053,2054,1196
824,1711441705502447096,2060,2060,2104,2060,2058,2054,1195
825,1711441705512459497,2056,2047,2050,2058,2054,2056,1195
826,1711441705522477589,2057,2070,2076,2061,2057,2053,1196
827,1711441705532456406,2052,2063,2033,2056,2049,2048,1198
828,1711441705542457846,2049,2052,2062,2056,2053,2053,1195
829,1711441705552455098,2055,2050,2057,2053,2049,2052,1198
830,1711441705562455787,2057,2055,2060,2057,2050,2056,1196
831,1711441705572456916,2060,2076,2101,2061,2053,2055,1196
832,1711441705582456843,2052,2042,2056,2052,2053,2053,1195
833,1711441705592468673,2060,2083,2053,2058,2054,2056,1196
834,1711441705602460234,2053,2066,2073,2056,2056,2054,1193
835,1711441705612460132,2056,2047,2034,2058,2054,2054,1194
836,1711441705622461421,2052,2041,2040,2052,2050,2053,1196
837,1711441705632482429,2056,2044,2060,2058,2052,2052,1194
838,1711441705642460685,2056,2048,2061,2057,2056,2052,1194
839,1711441705652440232,2056,2050,2074,2056,2052,2056,1198
840,1711441705662461020,2056,2056,2021,2052,2053,2052,1195
841,1711441705672461248,2056,2047,2051,2056,2056,2056,1197
842,1711441705682445274,2048,2047,2044,2053,2052,2055,1196
843,1711441705692467624,2055,2048,2046,2056,2053,2056,1197
844,1711441705702460478,2053,2056,2047,2051,2052,2051,1195
845,1711441705712467679,2062,2112,2116,2061,2059,2056,1196
846,1711441705722468208,2045,2037,2032,2050,2052,2052,1196
847,1711441705732468966,2053,2046,2025,2056,2056,2053,1195
848,1711441705742465467,2049,2052,2039,2052,2052,2052,1196
849,1711441705752964125,2060,2072,2056,2057,2058,2056,1198
850,1711441705762451685,2053,2048,2031,2057,2052,2053,1195
851,1711441705772452584,2061,2059,2061,2058,2059,2057,1195
852,1711441705782450638,2059,2104,2113,2059,2054,2051,1196
853,1711441705792454562,2052,2040,2072,2061,2056,2053,1197
854,1711441705802449871,2058,2058,2089,2056,2056,2057,1196
855,1711441705812456240,2051,2045,2041,2057,2052,2052,1196
856,1711441705822487077,2056,2048,2063,2056,2052,2053,1196
857,1711441705832440194,2057,2056,2068,2057,2054,2054,1192
858,1711441705842455601,2056,2092,2061,2058,2052,2052,1195
859,1711441705852440068,2052,2071,2116,2069,2056,2060,1195
860,1711441705862455125,2056,2058,2052,2056,2052,2050,1196
861,1711441705872453569,2056,2071,2033,2056,2052,2052,1197
862,1711441705882454167,2055,2059,2040,2053,2052,2050,1196
863,1711441705892479754,2057,2056,2073,2056,2052,2054,1195
864,1711441705902449283,2049,2032,2057,2056,2053,2052,1196
865,1711441705912478777,2058,2035,2050,2056,2053,2052,1196
866,1711441705922459767,2053,2041,2020,2050,2052,2052,1196
867,1711441705932483280,2052,2040,2016,2056,2056,2051,1195
868,1711441705942485061,2064,2085,2058,2055,2051,2049,1197
869,1711441705952448448,2053,2051,2049,2056,2053,2056,1198
870,1711441705962463945,2048,2019,2036,2056,2050,2047,1192
871,1711441705972456377,2056,2042,2049,2055,2053,2055,1196
872,1711441705982457226,2058,2074,2088,2064,2052,2054,1195
873,1711441705992490287,2054,2038,2050,2060,2054,2056,1195
874,1711441706002448624,2066,2057,2072,2057,2056,2053,1196
875,1711441706012457379,2053,2064,2053,2058,2052,2060,1195
876,1711441706022454589,2052,2018,2039,2056,2056,2052,1194
877,1711441706032478162,2059,2034,2064,2058,2058,2057,1195
878,1711441706042464001,2053,2044,2043,2052,2050,2056,1197
879,1711441706052447156,2056,2044,2044,2056,2054,2056,1193
880,1711441706062458654,2045,2012,2053,2057,2056,2054,1198
881,1711441706072455045,2060,2039,2029,2056,2050,2054,1196
882,1711441706082450692,2048,2056,2065,2056,2054,2052,1195
883,1711441706092479335,2058,2101,2079,2061,2054,2052,1196
884,1711441706102448522,2056,2049,2050,2053,2057,2053,1196
885,1711441706112443690,2056,2055,2062,2059,2049,2053,1194
886,1711441706122446020,2049,2046,2046,2054,2052,2052,1196
887,1711441706132456618,2052,2037,2043,2053,2054,2056,1194
888,1711441706142454130,2054,2046,2015,2056,2056,2057,1197
889,1711441706152473083,2056,2073,2049,2053,2057,2056,1197
890,1711441706162454113,2050,2049,2040,2053,2047,2051,1194
891,1711441706172453840,2056,2050,2026,2055,2052,2052,1195
892,1711441706182448115,2052,2038,2039,2054,2052,2051,1194
893,1711441706192449635,2048,2029,2040,2059,2049,2048,1194
894,1711441706202527501,2052,2037,2045,2053,2052,2054,1194
895,1711441706212476510,2058,2091,2097,2058,2057,2055,1195
896,1711441706222454725,2056,2062,2065,2056,2051,2048,1195
897,1711441706232458960,2058,2079,2069,2056,2056,2050,1194
898,1711441706242446432,2050,2044,2053,2053,2052,2052,1194
899,1711441706252472800,2056,2047,2060,2055,2057,2056,1195
900,1711441706262451736,2058,2072,2058,2053,2056,2051,1196
901,1711441706272445110,2053,2043,2026,2055,2052,2054,1197
902,1711441706282484312,2060,2045,2050,2056,2054,2052,1195
903,1711441706292456996,2060,2066,2080,2059,2057,2059,1196
904,1711441706302446864,2051,2047,2041,2052,2052,2049,1195
905,1711441706312453452,2050,2072,2065,2056,2056,2056,1196
906,1711441706322467587,2054,2064,2073,2057,2057,2054,1197
907,1711441706332492972,2052,2021,2036,2059,2057,2057,1195
908,1711441706342474093,2052,2029,2034,2054,2052,2054,1195
909,1711441706352486243,2066,2053,2024,2060,2057,2056,1196
910,1711441706362451313,2052,2050,2048,2049,2052,2053,1194
911,1711441706372461248,2060,2049,2088,2058,2056,2055,1195
912,1711441706382457648,2052,2056,2057,2057,2060,2055,1193
913,1711441706392456993,2057,2032,2055,2056,2058,2057,1194
914,1711441706402489653,2054,2040,2043,2056,2054,2056,1195
915,1711441706412451186,2056,2052,2029,2056,2058,2053,1195
916,1711441706422475319,2048,2046,2036,2056,2052,2053,1195
917,1711441706432463172,2059,2058,2049,2056,2049,2055,1195
918,1711441706442481635,2052,2044,2061,2054,2056,2056,1197
919,1711441706452465600,2056,2042,2036,2051,2051,2050,1195
920,1711441706462458734,2062,2068,2064,2058,2056,2056,1196
921,1711441706472467798,2052,2046,2042,2053,2053,2053,1198
922,1711441706482467855,2052,2049,2038,2052,2050,2053,1198
923,1711441706492467922,2048,2047,2050,2055,2053,2053,1194
924,1711441706502479652,2053,2054,2045,2052,2052,2051,1196
925,1711441706512445722,2060,2059,2068,2058,2054,2056,1197
926,1711441706522474405,2057,2102,2074,2056,2052,2054,1196
927,1711441706532458290,2052,2060,2069,2060,2056,2053,1198
928,1711441706542462065,2072,2100,2113,2067,2058,2058,1198
929,1711441706552465437,2050,2045,2056,2054,2052,2053,1198
930,1711441706562452760,2058,2054,2053,2055,2054,2055,1197
931,1711441706572454069,2050,2022,2052,2053,2052,2053,1194
932,1711441706582464547,2056,2028,2053,2057,2057,2059,1196
933,1711441706592460064,2056,2046,2052,2056,2050,2057,1194
934,1711441706602467305,2053,2056,2038,2056,2053,2052,1197
935,1711441706612456711,2057,2053,2042,2052,2054,2054,1196
936,1711441706622466277,2056,2059,2028,2056,2053,2056,1197
937,1711441706632457156,2059,2066,2087,2058,2053,2056,1196
938,1711441706642473995,2051,2042,2058,2051,2056,2052,1195
939,1711441706652465936,2051,2024,2018,2053,2052,2055,1197
940,1711441706662445714,2052,2043,2032,2053,2051,2050,1196
941,1711441706672452854,2053,2040,2031,2054,2056,2053,1196
942,1711441706682424386,2052,2061,2064,2054,2050,2051,1197
943,1711441706692452216,2056,2034,2029,2056,2054,2054,1196
944,1711441706702476370,2057,2057,2052,2056,2050,2050,1195
945,1711441706712452691,2062,2097,2068,2057,2054,2053,1197
946,1711441706722449622,2047,2045,2082,2052,2053,2052,1196
947,1711441706732448406,2052,2049,2057,2053,2052,2054,1195
948,1711441706742484572,2057,2073,2113,2058,2057,2057,1195
949,1711441706752474109,2052,2043,2060,2056,2058,2055,1198
950,1711441706762450580,2051,2049,2042,2053,2050,2053,1194
951,1711441706772452741,2065,2105,2109,2062,2058,2059,1196
952,1711441706782451566,2042,2024,2018,2048,2050,2053,1197
953,1711441706792456783,2064,2088,2089,2062,2057,2057,1196
954,1711441706802455367,2052,2061,2047,2056,2056,2054,1194
955,1711441706812453099,2056,2052,2060,2056,2054,2056,1195
956,1711441706822451142,2054,2052,2047,2052,2050,2050,1196
957,1711441706832454044,2057,2083,2042,2056,2052,2053,1196
958,1711441706842467717,2054,2056,2024,2049,2049,2052,1196
959,1711441706852463416,2057,2073,2056,2051,2052,2056,1196
960,1711441706862442282,2054,2057,2049,2052,2056,2050,1197
961,1711441706872461085,2056,2063,2055,2057,2056,2053,1195
962,1711441706882456462,2050,2045,2038,2056,2054,2051,1197
963,1711441706892460137,2059,2050,2070,2064,2052,2055,1197
964,1711441706902463169,2062,2060,2064,2054,2054,2052,1196
965,1711441706912458637,2060,2068,2060,2056,2052,2052,1195
966,1711441706922457251,2051,2053,2051,2052,2048,2053,1197
967,1711441706932454914,2056,2072,2082,2056,2052,2052,1195
968,1711441706942454870,2049,2028,2040,2055,2052,2053,1194
969,1711441706952473733,2056,2034,2035,2055,2052,2053,1196
970,1711441706962455655,2057,2080,2129,2058,2056,2054,1194
971,1711441706972426506,2057,2056,2099,2058,2053,2052,1195
972,1711441706982451731,2052,2039,2028,2053,2054,2056,1197
973,1711441706992456016,2057,2047,2041,2057,2052,2056,1195
974,1711441707002488054,2052,2049,2053,2056,2052,2055,1195
975,1711441707012455366,2052,2028,2035,2057,2052,2057,1196
976,1711441707022459310,2057,2036,2064,2057,2054,2054,1197
977,1711441707032466660,2059,2063,2050,2057,2054,2053,1195
978,1711441707042466727,2058,2064,2104,2056,2053,2052,1195
979,1711441707052459168,2056,2048,2050,2056,2053,2053,1194
980,1711441707062448203,2054,2043,2033,2054,2052,2056,1197
981,1711441707072456987,2064,2073,2053,2056,2055,2060,1197
982,1711441707082448817,2051,2052,2080,2053,2051,2052,1198
983,1711441707092450116,2052,2041,2034,2057,2054,2053,1197
984,1711441707102469259,2059,2081,2076,2058,2056,2056,1196
985,1711441707112469536,2052,2045,2052,2056,2056,2052,1195
986,1711441707122456126,2052,2054,2050,2053,2056,2056,1195
987,1711441707132456453,2050,2042,2036,2059,2054,2054,1196
988,1711441707142455467,2064,2104,2064,2052,2052,2056,1198
989,1711441707152454371,2047,2038,2018,2052,2054,2053,1196
990,1711441707162481239,2052,2052,2056,2053,2050,2052,1191
991,1711441707172444204,2052,2058,2049,2056,2053,2052,1196
992,1711441707182459279,2054,2046,2062,2054,2056,2053,1197
993,1711441707192457031,2058,2057,2068,2058,2053,2056,1196
994,1711441707202462237,2062,2106,2105,2058,2056,2052,1197
995,1711441707212456222,2050,2043,2052,2060,2051,2053,1196
996,1711441707222442782,2050,2043,2037,2053,2053,2053,1195
997,1711441707232458228,2058,2072,2062,2058,2054,2054,1198
998,1711441707242453285,2050,2046,2047,2058,2054,2052,1197
999,1711441707252451467,2052,2056,2052,2053,2050,2052,1198
1000,1711441707262450832,2051,2049,2017,2053,2051,2053,1198
1001,1711441707272458473,2053,2046,2056,2057,2053,2056,1198
1002,1711441707282452748,2063,2074,2068,2058,2056,2050,1197
1003,1711441707292450560,2056,2058,2056,2059,2056,2056,1195
1004,1711441707302464664,2053,2050,2050,2052,2056,2055,1195
1005,1711441707312452426,2056,2049,2058,2060,2056,2053,1195
1006,1711441707322492570,2056,2047,2041,2056,2054,2056,1196
1007,1711441707332458070,2055,2053,2064,2060,2056,2054,1195
1008,1711441707342452535,2060,2059,2073,2062,2055,2056,1196
1009,1711441707352452351,2053,2043,2030,2056,2053,2055,1194
1010,1711441707362455644,2054,2047,2041,2052,2050,2052,1196
1011,1711441707372455449,2060,2062,2054,2054,2057,2053,1196
1012,1711441707382452610,2051,2054,2081,2056,2052,2052,1195
1013,1711441707392455903,2056,2060,2061,2056,2052,2053,1195
1014,1711441707402456801,2054,2052,2042,2053,2052,2052,1194
1015,1711441707412466886,2056,2053,2061,2058,2051,2054,1194
1016,1711441707422456633,2056,2064,2106,2060,2053,2052,1196
1017,1711441707432436330,2053,2068,2038,2053,2052,2055,1196
1018,1711441707442435855,2049,2026,2088,2058,2056,2054,1198
1019,1711441707452455539,2063,2046,2068,2064,2059,2058,1197
1020,1711441707462464563,2054,2051,2049,2050,2052,2052,1198
1021,1711441707472419071,2056,2065,2071,2057,2052,2053,1198
1022,1711441707482438455,2056,2061,2038,2052,2052,2050,1196
1023,1711441707492458759,2049,2033,2050,2056,2052,2053,1196
1024,1711441707502442874,2062,2062,2080,2061,2056,2058,1195
1025,1711441707512460495,2064,2101,2066,2057,2056,2056,1197
1026,1711441707522446404,2049,2039,2040,2054,2053,2052,1196
1027,1711441707532446430,2056,2073,2081,2057,2056,2056,1197
1028,1711441707542464280,2050,2043,2041,2050,2050,2051,1197
1029,1711441707552447234,2060,2068,2080,2058,2054,2056,1197
1030,1711441707562468140,2058,2076,2064,2060,2056,2054,1195
1031,1711441707572499848,2050,2045,2049,2058,2056,2056,1195
1032,1711441707582447192,2056,2092,2060,2055,2052,2054,1196
1033,1711441707592452248,2052,2043,2047,2056,2053,2052,1197
1034,1711441707602449489,2054,2045,2041,2053,2052,2049,1193
1035,1711441707612452691,2063,2075,2104,2059,2060,2056,1197
1036,1711441707622482215,2053,2045,2036,2050,2052,2050,1196
1037,1711441707632474446,2054,2045,2042,2060,2053,2054,1195
1038,1711441707642472488,2062,2097,2101,2058,2052,2056,1196
1039,1711441707652453798,2053,2044,2037,2053,2052,2052,1197
1040,1711441707662449657,2061,2062,2069,2056,2054,2056,1197
1041,1711441707672481434,2060,2054,2060,2059,2057,2056,1197
1042,1711441707682452695,2054,2068,2069,2056,2055,2053,1198
1043,1711441707692443593,2060,2061,2085,2058,2056,2055,1196
1044,1711441707702450092,2052,2064,2042,2053,2056,2052,1194
1045,1711441707712449277,2056,2044,2020,2056,2052,2053,1197
1046,1711441707722463941,2061,2078,2089,2064,2056,2054,1196
1047,1711441707732480880,2056,2046,2040,2056,2054,2052,1197
1048,1711441707742439577,2056,2056,2069,2057,2053,2052,1198
1049,1711441707752452147,2053,2051,2034,2056,2054,2056,1197
1050,1711441707762448096,2057,2032,2022,2054,2054,2052,1193
1051,1711441707772468020,2052,2046,2035,2054,2052,2056,1197
1052,1711441707782451765,2056,2052,2040,2053,2056,2057,1196
1053,1711441707792445148,2059,2082,2077,2061,2056,2058,1197
1054,1711441707802455284,2056,2073,2045,2052,2052,2056,1198
1055,1711441707812457705,2058,2061,2050,2056,2053,2054,1198
1056,1711441707822475896,2058,2059,2076,2054,2056,2058,1196
1057,1711441707832453619,2060,2064,2089,2060,2054,2056,1196
1058,1711441707842452013,2048,2046,2037,2050,2050,2050,1196
1059,1711441707852453381,2057,2072,2073,2060,2051,2053,1198
1060,1711441707862448909,2052,2065,2037,2053,2052,2054,1197
1061,1711441707872489734,2050,2044,2022,2056,2057,2055,1198
1062,1711441707882456125,2061,2093,2077,2057,2057,2057,1197
1063,1711441707892457715,2049,2036,2033,2056,2053,2056,1198
1064,1711441707902450256,2053,2066,2082,2059,2058,2053,1196
1065,1711441707912450433,2058,2061,2054,2056,2054,2056,1196
1066,1711441707922459857,2052,2046,2040,2052,2049,2052,1196
1067,1711441707932459272,2050,2035,2040,2054,2053,2052,1197
1068,1711441707942410174,2062,2066,2047,2058,2053,2056,1196
1069,1711441707952451900,2054,2043,2062,2056,2053,2055,1196
1070,1711441707962449833,2053,2052,2064,2056,2056,2052,1193
1071,1711441707972473293,2051,2052,2047,2054,2053,2052,1196
1072,1711441707982450886,2056,2064,2105,2056,2056,2056,1194
1073,1711441707992455261,2058,2059,2053,2053,2052,2054,1196
1074,1711441708002453463,2047,2014,2034,2048,2046,2049,1194
1075,1711441708012457798,2060,2056,2071,2068,2056,2057,1197
1076,1711441708022453185,2052,2048,2042,2056,2056,2054,1194
1077,1711441708032448561,2060,2072,2133,2063,2054,2053,1197
1078,1711441708042455531,2053,2050,2050,2056,2052,2056,1196
1079,1711441708052419557,2060,2068,2113,2061,2060,2056,1196
1080,1711441708062454800,2060,2062,2047,2055,2052,2051,1198
1081,1711441708072459134,2062,2068,2085,2062,2058,2057,1197
1082,1711441708082465302,2052,2036,2024,2049,2049,2050,1196
1083,1711441708092455298,2053,2047,2044,2058,2053,2056,1196
1084,1711441708102456566,2052,2049,2045,2058,2050,2049,1197
1085,1711441708112454859,2053,2050,2041,2053,2052,2056,1197
1086,1711441708122450125,2053,2060,2059,2052,2052,2052,1197
1087,1711441708132503473,2052,2053,2066,2058,2056,2054,1197
1088,1711441708142470585,2054,2060,2042,2050,2053,2053,1196
1089,1711441708152452687,2063,2084,2096,2060,2057,2056,1195
1090,1711441708162457381,2056,2045,2052,2053,2053,2053,1193
1091,1711441708172456005,2061,2065,2075,2061,2050,2052,1196
1092,1711441708182470768,2051,2057,2034,2056,2053,2052,1197
1093,1711441708192460585,2063,2057,2050,2061,2057,2056,1197
1094,1711441708202465199,2052,2048,2042,2053,2053,2052,1195
1095,1711441708212461017,2059,2049,2060,2058,2052,2056,1196
1096,1711441708222488555,2054,2048,2052,2054,2054,2054,1197
1097,1711441708232489964,2061,2068,2092,2060,2056,2054,1195
1098,1711441708242459360,2058,2052,2064,2054,2051,2050,1197
1099,1711441708252456471,2059,2068,2053,2055,2054,2056,1197
1100,1711441708262464381,2056,2057,2053,2053,2052,2052,1198
1101,1711441708272463935,2056,2056,2083,2056,2057,2053,1198
1102,1711441708282476806,2060,2071,2050,2054,2056,2052,1197
1103,1711441708292472503,2058,2064,2042,2053,2052,2052,1197
1104,1711441708302466748,2056,2057,2045,2047,2051,2056,1195
1105,1711441708312453407,2053,2065,2062,2058,2053,2053,1197
1106,1711441708322453484,2059,2061,2062,2052,2052,2052,1196
1107,1711441708332480291,2056,2044,2042,2056,2054,2056,1195
1108,1711441708342471029,2058,2055,2043,2054,2051,2050,1194
1109,1711441708352448881,2049,2048,2045,2058,2053,2056,1195
1110,1711441708362479687,2053,2044,2033,2052,2051,2047,1193
1111,1711441708372470845,2050,2049,2045,2058,2050,2052,1197
1112,1711441708382492052,2053,2064,2058,2055,2051,2053,1195
1113,1711441708392456679,2050,2041,2040,2056,2053,2054,1196
1114,1711441708402445944,2053,2050,2076,2055,2056,2053,1195
1115,1711441708412450869,2056,2059,2040,2058,2057,2056,1197
1116,1711441708422451406,2045,2026,2028,2053,2047,2047,1194
1117,1711441708432489905,2070,2079,2063,2062,2057,2057,1197
1118,1711441708442466736,2060,2085,2181,2064,2060,2054,1198
1119,1711441708452455210,2060,2059,2052,2057,2053,2053,1198
1120,1711441708462452390,2056,2051,2065,2059,2053,2051,1196
1121,1711441708472452766,2053,2048,2025,2054,2053,2055,1198
1122,1711441708482456288,2056,2065,2045,2053,2049,2053,1195
1123,1711441708492458278,2060,2045,2029,2056,2053,2053,1198
1124,1711441708502450087,2052,2053,2037,2053,2053,2052,1197
1125,1711441708512450424,2053,2069,2061,2056,2049,2052,1196
1126,1711441708522447253,2055,2049,2055,2056,2056,2054,1196
1127,1711441708532468991,2055,2105,2080,2056,2053,2052,1196
1128,1711441708542456061,2060,2072,2108,2064,2058,2057,1198
1129,1711441708552458512,2049,2050,2044,2052,2051,2052,1198
1130,1711441708562463607,2056,2056,2072,2056,2052,2058,1197
1131,1711441708572464475,2060,2063,2064,2055,2056,2053,1198
1132,1711441708582494879,2056,2071,2052,2052,2050,2050,1196
1133,1711441708592465508,2061,2065,2072,2062,2056,2052,1196
1134,1711441708602459472,2057,2058,2088,2058,2057,2053,1197
1135,1711441708612455059,2060,2078,2086,2059,2054,2056,1197
1136,1711441708622453772,2050,2047,2052,2054,2053,2049,1196
1137,1711441708632496500,2056,2048,2060,2057,2054,2058,1196
1138,1711441708642454374,2056,2064,2040,2053,2053,2053,1197
1139,1711441708652448899,2054,2086,2088,2057,2056,2056,1195
1140,1711441708662506957,2052,2069,2078,2056,2054,2051,1198
1141,1711441708672459481,2050,2045,2052,2060,2051,2056,1199
1142,1711441708682468765,2059,2058,2036,2058,2053,2053,1197
1143,1711441708692460734,2052,2045,2050,2053,2052,2052,1196
1144,1711441708702455581,2058,2075,2148,2062,2058,2058,1197
1145,1711441708712453522,2060,2073,2058,2061,2056,2055,1196
1146,1711441708722453748,2051,2045,2049,2051,2054,2054,1195
1147,1711441708732469714,2056,2052,2092,2062,2054,2054,1197
1148,1711441708742465713,2060,2057,2056,2052,2052,2053,1196
1149,1711441708752469335,2050,2050,2093,2056,2055,2052,1198
1150,1711441708762452418,2056,2030,2111,2059,2056,2054,1196
1151,1711441708772454537,2062,2047,2116,2065,2059,2057,1196
1152,1711441708782467198,2052,2042,2037,2055,2050,2052,1195
1153,1711441708792455951,2056,2059,2053,2059,2056,2058,1195
1154,1711441708802450938,2054,2029,2034,2051,2050,2051,1197
1155,1711441708812449400,2069,2072,2046,2061,2056,2053,1196
1156,1711441708822450338,2057,2066,2054,2055,2054,2053,1194
1157,1711441708832465532,2063,2066,2075,2061,2056,2054,1195
1158,1711441708842459957,2053,2052,2028,2052,2054,2054,1197
1159,1711441708852441718,2056,2044,2032,2059,2056,2056,1194
1160,1711441708862454327,2057,2058,2054,2056,2052,2053,1198
1161,1711441708872452921,2064,2060,2042,2056,2052,2056,1196
1162,1711441708882459779,2058,2091,2086,2056,2053,2052,1196
1163,1711441708892453844,2052,2048,2040,2054,2052,2054,1196
1164,1711441708902460882,2053,2049,2045,2052,2053,2052,1196
1165,1711441708912452683,2056,2042,2037,2057,2053,2052,1195
1166,1711441708922453109,2054,2042,2054,2056,2052,2049,1196
1167,1711441708932472963,2060,2042,2025,2054,2056,2053,1198
1168,1711441708942450775,2062,2092,2095,2056,2053,2052,1196
1169,1711441708952452585,2054,2039,2040,2056,2053,2056,1198
1170,1711441708962449875,2049,2032,2037,2051,2052,2052,1194
1171,1711441708972447105,2059,2062,2057,2061,2056,2057,1197
1172,1711441708982456479,2052,2059,2040,2053,2054,2056,1196
1173,1711441708992443048,2058,2067,2088,2062,2056,2056,1198
1174,1711441709002446711,2049,2078,2030,2057,2053,2056,1195
1175,1711441709012447318,2059,2050,2056,2057,2052,2052,1196
1176,1711441709022469856,2056,2058,2060,2057,2056,2054,1197
1177,1711441709032479089,2056,2040,2039,2057,2056,2054,1195
1178,1711441709042463654,2056,2050,2059,2056,2056,2050,1196
1179,1711441709052462257,2066,2047,2041,2060,2057,2059,1195
1180,1711441709062451351,2053,2021,2012,2056,2052,2053,1197
1181,1711441709072447398,2056,2055,2059,2056,2053,2051,1196
1182,1711441709082450419,2060,2080,2124,2064,2058,2059,1197
1183,1711441709092475723,2053,2073,2056,2056,2057,2054,1198
1184,1711441709102462813,2052,2051,2047,2053,2053,2050,1196
1185,1711441709112460484,2055,2057,2061,2056,2052,2052,1195
1186,1711441709122454137,2059,2064,2056,2056,2056,2055,1199
1187,1711441709132455514,2053,2043,2032,2053,2052,2056,1196
1188,1711441709142473203,2057,2056,2057,2052,2053,2053,1195
1189,1711441709152452509,2064,2065,2124,2062,2057,2058,1197
1190,1711441709162445931,2052,2042,2042,2054,2052,2056,1198
1191,1711441709172448291,2046,2034,2028,2056,2058,2054,1197
1192,1711441709182449057,2059,2058,2089,2064,2058,2058,1197
1193,1711441709192450986,2062,2083,2106,2061,2058,2059,1196
1194,1711441709202451812,2053,2060,2077,2060,2055,2053,1196
1195,1711441709212449933,2050,2048,2041,2056,2054,2053,1196
1196,1711441709222451121,2053,2052,2049,2050,2050,2050,1197
1197,1711441709232472236,2060,2089,2124,2059,2060,2056,1196
1198,1711441709242516998,2058,2066,2056,2056,2053,2053,1196
1199,1711441709252461125,2059,2052,2041,2060,2056,2054,1197
1200,1711441709262452043,2053,2056,2037,2052,2052,2052,1198
1201,1711441709272454352,2057,2053,2047,2056,2053,2054,1196
1202,1711441709282435731,2056,2049,2032,2053,2053,2056,1195
1203,1711441709292497586,2059,2085,2059,2057,2053,2053,1198
1204,1711441709302457804,2053,2056,2042,2053,2053,2049,1197
1205,1711441709312462679,2053,2032,2014,2056,2054,2053,1196
1206,1711441709322459688,2060,2053,2012,2051,2053,2053,1196
1207,1711441709332443161,2062,2071,2056,2058,2056,2058,1197
1208,1711441709342479165,2056,2057,2054,2058,2054,2055,1196
1209,1711441709352461035,2057,2052,2052,2054,2052,2052,1195
1210,1711441709362446112,2053,2050,2076,2056,2054,2055,1196
1211,1711441709372464372,2064,2064,2039,2060,2060,2056,1195
1212,1711441709382447925,2056,2056,2069,2056,2052,2052,1194
1213,1711441709392531512,2060,2056,2049,2056,2055,2055,1196
1214,1711441709402448627,2056,2051,2041,2049,2053,2053,1197
1215,1711441709412449584,2056,2056,2070,2056,2053,2056,1197
1216,1711441709422449429,2062,2056,2049,2052,2054,2052,1195
1217,1711441709432468070,2060,2079,2093,2056,2056,2057,1196
1218,1711441709442483935,2052,2058,2034,2056,2057,2056,1195
1219,1711441709452473590,2053,2054,2062,2059,2056,2055,1195
1220,1711441709462473415,2056,2042,2061,2056,2054,2051,1197
1221,1711441709472447761,2061,2053,2064,2047,2050,2053,1196
1222,1711441709482449008,2052,2064,2100,2056,2052,2056,1198
1223,1711441709492452991,2056,2049,2040,2058,2052,2052,1196
1224,1711441709502476210,2055,2067,2049,2052,2052,2050,1196
1225,1711441709512456146,2056,2060,2050,2057,2056,2058,1197
1226,1711441709522449790,2049,2036,2036,2052,2052,2051,1198
1227,1711441709532450636,2059,2037,2041,2057,2056,2056,1197
1228,1711441709542477984,2062,2068,2151,2064,2064,2057,1197
1229,1711441709552459142,2056,2052,2028,2059,2052,2052,1197
1230,1711441709562450741,2057,2065,2053,2053,2056,2052,1193
1231,1711441709572450716,2056,2041,2038,2058,2053,2053,1198
1232,1711441709582440922,2053,2057,2047,2050,2057,2051,1195
1233,1711441709592467639,2053,2055,2046,2054,2056,2050,1197
1234,1711441709602461783,2066,2094,2097,2056,2054,2054,1198
1235,1711441709612456959,2060,2065,2084,2061,2056,2056,1198
1236,1711441709622457214,2053,2058,2052,2057,2053,2050,1198
1237,1711441709632452961,2050,2052,2064,2056,2054,2053,1193
1238,1711441709642467865,2058,2059,2053,2059,2053,2053,1198
1239,1711441709652448643,2056,2054,2040,2053,2052,2055,1195
1240,1711441709662454699,2053,2042,2058,2053,2054,2053,1196
1241,1711441709672453041,2056,2051,2040,2056,2052,2054,1196
1242,1711441709682453698,2056,2058,2068,2056,2053,2056,1197
1243,1711441709692531593,2056,2036,2046,2057,2053,2056,1197
1244,1711441709702453628,2052,2044,2040,2054,2050,2053,1197
1245,1711441709712458743,2057,2058,2053,2058,2052,2052,1198
1246,1711441709722452135,2057,2052,2045,2055,2056,2053,1195
1247,1711441709732454785,2056,2065,2066,2058,2056,2057,1197
1248,1711441709743073251,2056,2064,2066,2056,2054,2054,1195
1249,1711441709752446870,2053,2037,2029,2056,2052,2053,1194
1250,1711441709762436946,2060,2068,2113,2060,2056,2054,1194
1251,1711441709772448824,2057,2047,2030,2053,2052,2052,1194
1252,1711441709782461974,2053,2041,2036,2055,2054,2053,1197
1253,1711441709792470286,2057,2059,2041,2057,2055,2057,1197
1254,1711441709802453758,2056,2072,2049,2056,2052,2052,1196
1255,1711441709812452480,2053,2041,2042,2053,2052,2052,1194
1256,1711441709822450783,2056,2051,2056,2056,2053,2052,1195
1257,1711441709832451318,2057,2071,2049,2054,2050,2053,1198
1258,1711441709842461474,2056,2081,2045,2053,2051,2054,1195
1259,1711441709852448894,2054,2049,2068,2058,2054,2053,1195
1260,1711441709862454770,2053,2049,2045,2053,2053,2054,1197
1261,1711441709872450557,2058,2078,2082,2062,2054,2055,1196
1262,1711441709882453117,2056,2042,2048,2055,2055,2054,1195
1263,1711441709892473241,2056,2048,2052,2058,2056,2053,1195
1264,1711441709902476091,2062,2093,2100,2061,2060,2055,1197
1265,1711441709912458934,2053,2043,2016,2061,2056,2053,1195
1266,1711441709922454009,2052,2045,2035,2054,2056,2054,1197
1267,1711441709932481447,2049,2034,2067,2058,2056,2056,1197
1268,1711441709942446855,2057,2047,2089,2053,2052,2053,1196
1269,1711441709952451409,2053,2053,2043,2056,2053,2053,1197
1270,1711441709962443008,2054,2040,2020,2052,2051,2057,1196
1271,1711441709972448303,2066,2112,2121,2066,2059,2057,1196
1272,1711441709982449541,2056,2052,2047,2053,2052,2053,1194
1273,1711441709992447312,2046,2036,2044,2053,2052,2051,1196
1274,1711441710002455252,2056,2066,2057,2051,2052,2050,1196
1275,1711441710012456850,2056,2052,2032,2057,2052,2052,1197
1276,1711441710022458638,2052,2032,2058,2053,2054,2055,1198
1277,1711441710032461417,2060,2044,2056,2064,2053,2053,1195
1278,1711441710042458597,2056,2037,2039,2056,2056,2054,1197
1279,1711441710052468810,2057,2065,2058,2056,2055,2051,1195
1280,1711441710062463675,2056,2078,2072,2056,2052,2052,1195
1281,1711441710072461355,2052,2058,2036,2054,2056,2055,1195
1282,1711441710082465518,2058,2086,2047,2056,2051,2053,1196
1283,1711441710092508976,2058,2064,2072,2058,2053,2055,1197
1284,1711441710102459224,2053,2048,2040,2053,2053,2050,1194
1285,1711441710112464118,2054,2049,2041,2057,2054,2052,1194
1286,1711441710122503248,2058,2051,2020,2064,2061,2058,1194
1287,1711441710132502461,2049,2035,2041,2053,2052,2050,1195
1288,1711441710142543004,2050,2046,2042,2052,2049,2051,1196
1289,1711441710152497811,2061,2085,2076,2058,2056,2053,1195
1290,1711441710162451827,2053,2048,2026,2056,2052,2052,1195
1291,1711441710172454918,2060,2065,2065,2059,2053,2053,1196
1292,1711441710182452578,2053,2046,2067,2051,2052,2050,1197
1293,1711441710192509512,2062,2064,2069,2056,2058,2056,1197
1294,1711441710202455412,2050,2023,2036,2053,2052,2051,1196
1295,1711441710212453703,2068,2068,2073,2064,2058,2057,1196
1296,1711441710222503835,2046,2033,2016,2052,2050,2052,1196
1297,1711441710232463571,2049,2032,2021,2052,2052,2052,1196
1298,1711441710242510035,2050,2044,2039,2053,2051,2055,1195
1299,1711441710252502285,2055,2056,2058,2057,2057,2057,1196
1300,1711441710262500786,2056,2072,2056,2055,2050,2053,1196
1301,1711441710272460463,2052,2056,2040,2057,2056,2054,1197
1302,1711441710282458193,2050,2057,2052,2058,2056,2052,1194
1303,1711441710292499918,2061,2073,2072,2061,2056,2057,1197
1304,1711441710302500534,2051,2036,2021,2052,2054,2053,1197
1305,1711441710312460210,2061,2054,2056,2058,2056,2053,1200
1306,1711441710322500733,2056,2030,2047,2052,2056,2054,1196
1307,1711441710332460570,2058,2029,2068,2060,2053,2053,1194
1308,1711441710342498898,2056,2036,2024,2052,2053,2052,1197
1309,1711441710352497610,2061,2056,2050,2056,2053,2052,1197
1310,1711441710362495120,2055,2055,2046,2058,2053,2056,1195
1311,1711441710372497339,2056,2061,2045,2058,2056,2056,1196
1312,1711441710382456505,2050,2067,2060,2053,2052,2052,1197
1313,1711441710392497648,2050,2053,2040,2060,2056,2057,1195
1314,1711441710402503454,2056,2059,2052,2053,2051,2053,1195
1315,1711441710412499671,2056,2056,2060,2054,2054,2056,1197
1316,1711441710422498964,2049,2036,2047,2051,2053,2049,1194
1317,1711441710432498428,2050,2034,2041,2056,2056,2054,1196
1318,1711441710442520254,2054,2056,2052,2054,2052,2052,1195
1319,1711441710452497365,2049,2033,2038,2052,2053,2052,1196
1320,1711441710462503411,2056,2052,2052,2054,2056,2054,1196
1321,1711441710472502353,2056,2068,2080,2057,2055,2053,1197
1322,1711441710482427123,2050,2046,2052,2049,2052,2052,1197
1323,1711441710492499998,2060,2056,2105,2062,2056,2058,1199
1324,1711441710502492278,2048,2068,2052,2048,2050,2050,1197
1325,1711441710512496310,2048,2047,2045,2056,2052,2053,1194
1326,1711441710522495422,2060,2072,2080,2056,2056,2054,1196
1327,1711441710532496088,2058,2052,2044,2054,2053,2054,1195
1328,1711441710542495020,2052,2048,2044,2056,2056,2054,1197
1329,1711441710552491118,2056,2042,2050,2058,2053,2052,1197
1330,1711441710562493106,2058,2061,2052,2052,2056,2053,1196
1331,1711441710572496576,2057,2043,2073,2061,2053,2050,1195
1332,1711441710582494397,2053,2052,2042,2049,2052,2052,1194
1333,1711441710592499712,2053,2049,2040,2052,2052,2052,1197
1334,1711441710602493374,2058,2048,2045,2054,2052,2055,1197
1335,1711441710612493679,2058,2061,2082,2061,2054,2056,1196
1336,1711441710622494675,2049,2026,2037,2053,2052,2050,1197
1337,1711441710632491684,2069,2054,2053,2056,2052,2052,1196
1338,1711441710642497580,2057,2057,2064,2054,2053,2052,1196
1339,1711441710652490942,2057,2056,2060,2059,2055,2056,1197
1340,1711441710662489383,2062,2067,2088,2059,2059,2056,1196
1341,1711441710672496491,2054,2031,2082,2058,2056,2054,1196
1342,1711441710682494883,2058,2029,2059,2056,2056,2055,1195
1343,1711441710692489547,2051,2032,2041,2059,2055,2052,1195
1344,1711441710702489331,2054,2044,2058,2057,2052,2053,1197
1345,1711441710712488394,2057,2043,2048,2056,2056,2056,1196
1346,1711441710722489220,2052,2046,2053,2054,2050,2056,1197
1347,1711441710732491208,2056,2051,2040,2052,2052,2056,1195
1348,1711441710742742928,2051,2058,2037,2047,2051,2049,1197
1349,1711441710752491458,2064,2082,2122,2061,2058,2053,1197
1350,1711441710762489889,2056,2056,2056,2052,2051,2052,1195
1351,1711441710772487509,2056,2052,2063,2057,2056,2053,1193
1352,1711441710782485950,2054,2056,2041,2054,2056,2052,1195
1353,1711441710792490544,2060,2064,2044,2060,2060,2052,1196
1354,1711441710802488985,2051,2048,2064,2056,2052,2052,1196
1355,1711441710812492026,2064,2092,2087,2061,2057,2058,1195
1356,1711441710822493753,2052,2056,2039,2055,2052,2048,1197
1357,1711441710832492495,2049,2040,2024,2054,2047,2052,1197
1358,1711441710842488672,2052,2053,2042,2053,2053,2049,1196
1359,1711441710852485931,2054,2053,2069,2058,2053,2052,1195
1360,1711441710862485816,2053,2030,2021,2052,2053,2053,1197
1361,1711441710872486151,2058,2032,2056,2061,2056,2054,1197
1362,1711441710882485474,2056,2048,2034,2056,2054,2053,1198
1363,1711441710892484717,2052,2051,2067,2052,2052,2051,1196
1364,1711441710902487527,2052,2051,2039,2052,2053,2052,1198
1365,1711441710912487782,2064,2072,2083,2065,2059,2058,1197
1366,1711441710922488588,2057,2056,2040,2052,2052,2057,1197
1367,1711441710932495686,2063,2086,2052,2056,2053,2056,1195
1368,1711441710942493587,2046,2028,2049,2050,2052,2050,1195
1369,1711441710952487129,2059,2056,2073,2057,2054,2053,1197
1370,1711441710962490109,2050,2041,2030,2051,2054,2057,1195
1371,1711441710972490494,2062,2079,2076,2065,2056,2054,1194
1372,1711441710982491381,2046,2018,2011,2053,2051,2049,1194
1373,1711441710992501534,2054,2031,2034,2056,2056,2053,1198
1374,1711441711002493694,2060,2059,2068,2056,2053,2054,1197
1375,1711441711012494750,2056,2043,2046,2061,2056,2053,1195
1376,1711441711022496217,2052,2044,2046,2053,2057,2060,1197
1377,1711441711032495369,2059,2065,2058,2059,2053,2053,1195
1378,1711441711042504571,2055,2070,2045,2055,2056,2052,1197
1379,1711441711052490808,2053,2056,2055,2056,2051,2053,1196
1380,1711441711062478408,2053,2046,2041,2053,2057,2053,1196
1381,1711441711072423035,2053,2032,2013,2053,2052,2053,1197
1382,1711441711082505058,2049,2025,2011,2052,2056,2051,1197
1383,1711441711092483650,2056,2045,2030,2057,2056,2052,1196
1384,1711441711102477693,2056,2074,2073,2056,2051,2057,1196
1385,1711441711112478818,2050,2037,2047,2057,2056,2057,1196
1386,1711441711122482019,2058,2056,2052,2052,2052,2052,1195
1387,1711441711132481842,2061,2074,2128,2061,2056,2056,1195
1388,1711441711142520090,2053,2032,2054,2050,2052,2053,1193
1389,1711441711152476319,2059,2056,2048,2054,2056,2050,1194
1390,1711441711162475752,2057,2091,2075,2056,2056,2057,1193
1391,1711441711172427383,2060,2054,2036,2053,2050,2053,1195
1392,1711441711182478084,2053,2049,2040,2057,2052,2051,1196
1393,1711441711192493188,2058,2036,2038,2060,2056,2054,1197
1394,1711441711202476208,2062,2069,2103,2058,2057,2053,1197
1395,1711441711212416438,2056,2052,2038,2054,2054,2053,1196
1396,1711441711222475876,2060,2081,2067,2054,2056,2052,1196
1397,1711441711232414893,2056,2067,2071,2057,2054,2056,1197
1398,1711441711242473810,2052,2050,2053,2053,2055,2053,1196
1399,1711441711252469946,2064,2064,2080,2056,2056,2056,1195
1400,1711441711262471854,2064,2064,2050,2056,2053,2056,1197
1401,1711441711272471738,2065,2112,2104,2065,2059,2057,1198
1402,1711441711282474397,2053,2033,2026,2050,2052,2055,1196
1403,1711441711292517303,2056,2052,2052,2057,2052,2049,1198
1404,1711441711302468092,2054,2061,2046,2053,2056,2055,1197
1405,1711441711312472985,2055,2048,2088,2058,2053,2053,1196
1406,1711441711322470906,2058,2037,2048,2057,2052,2055,1198
1407,1711441711332471681,2052,2041,2016,2052,2053,2054,1197
1408,1711441711342511331,2060,2070,2044,2053,2055,2052,1198
1409,1711441711352469304,2049,2045,2044,2056,2053,2053,1197
1410,1711441711362429291,2053,2051,2048,2057,2052,2052,1195
1411,1711441711372470674,2061,2066,2047,2057,2056,2053,1194
1412,1711441711382471941,2052,2053,2030,2052,2050,2052,1197
1413,1711441711392470632,2052,2035,2055,2052,2055,2051,1195
1414,1711441711402472229,2056,2041,2073,2058,2057,2056,1192
1415,1711441711412471332,2051,2052,2015,2056,2051,2053,1195
1416,1711441711422468089,2052,2033,2032,2054,2053,2050,1196
1417,1711441711432468193,2056,2036,2048,2056,2059,2052,1194
1418,1711441711442466964,2056,2052,2046,2054,2055,2052,1195
1419,1711441711452462190,2056,2089,2069,2058,2054,2057,1196
1420,1711441711462470740,2048,2047,2036,2052,2052,2052,1198
1421,1711441711472471235,2050,2039,2017,2049,2048,2052,1198
1422,1711441711482469535,2064,2056,2033,2054,2052,2056,1197
1423,1711441711492473718,2053,2050,2045,2057,2052,2051,1196
1424,1711441711502464954,2056,2070,2053,2053,2052,2052,1200
1425,1711441711512467834,2059,2096,2066,2056,2053,2054,1197
1426,1711441711522468840,2049,2043,2027,2052,2049,2051,1198
1427,1711441711532614565,2056,2062,2065,2057,2052,2053,1196
1428,1711441711542469940,2054,2058,2073,2061,2054,2053,1196
1429,1711441711552465575,2059,2074,2021,2052,2051,2050,1194
1430,1711441711562480318,2054,2092,2050,2052,2047,2053,1195
1431,1711441711572464711,2047,2046,2037,2057,2052,2051,1195
1432,1711441711582461710,2057,2051,2060,2053,2054,2052,1194
1433,1711441711592465090,2056,2052,2060,2056,2054,2052,1194
1434,1711441711602511373,2051,2043,2024,2052,2049,2050,1196
1435,1711441711612462082,2064,2106,2098,2061,2058,2058,1196
1436,1711441711622473909,2056,2065,2077,2056,2054,2054,1196
1437,1711441711632465386,2056,2056,2065,2058,2056,2056,1197
1438,1711441711642463677,2052,2030,2012,2052,2052,2051,1193
1439,1711441711652465855,2060,2064,2083,2061,2056,2057,1197
1440,1711441711662459056,2050,2043,2050,2053,2054,2054,1195
1441,1711441711672462677,2050,2056,2074,2056,2057,2056,1195
1442,1711441711682463262,2059,2064,2113,2060,2054,2056,1195
1443,1711441711692462594,2056,2049,2030,2057,2056,2058,1198
1444,1711441711702463189,2053,2049,2032,2054,2054,2050,1198
1445,1711441711712462813,2056,2078,2059,2059,2055,2054,1196
1446,1711441711722460872,2052,2054,2074,2056,2052,2050,1194
1447,1711441711732462420,2053,2054,2056,2052,2052,2053,1195
1448,1711441711742463345,2061,2109,2109,2058,2058,2053,1196
1449,1711441711752484590,2056,2056,2094,2063,2056,2053,1196
1450,1711441711762462932,2052,2040,2026,2051,2049,2056,1196
1451,1711441711772408452,2056,2060,2040,2056,2056,2059,1195
1452,1711441711782461087,2052,2063,2068,2057,2056,2052,1197
1453,1711441711792461310,2056,2078,2114,2060,2055,2056,1197
1454,1711441711802465503,2052,2082,2061,2053,2054,2053,1195
1455,1711441711812415951,2051,2050,2063,2056,2056,2056,1195
1456,1711441711822463677,2052,2045,2050,2056,2053,2052,1195
1457,1711441711832463851,2056,2052,2026,2055,2053,2055,1195
1458,1711441711842468555,2053,2048,2026,2054,2054,2052,1196
1459,1711441711852459731,2052,2038,2039,2053,2052,2053,1196
1460,1711441711862466729,2051,2043,2059,2056,2053,2056,1194
1461,1711441711872466913,2050,2062,2058,2057,2053,2056,1197
1462,1711441711882468030,2057,2076,2053,2054,2056,2053,1196
1463,1711441711892468394,2064,2080,2109,2061,2056,2054,1196
1464,1711441711902473507,2058,2062,2076,2055,2054,2053,1197
1465,1711441711912465566,2054,2076,2066,2053,2056,2054,1197
1466,1711441711922486961,2046,2029,2036,2051,2050,2051,1197
1467,1711441711932468640,2060,2050,2036,2054,2052,2053,1196
1468,1711441711942471349,2060,2062,2059,2054,2056,2056,1197
1469,1711441711952425886,2053,2042,2040,2056,2053,2056,1195
1470,1711441711962472479,2058,2072,2110,2056,2056,2056,1195
1471,1711441711972473956,2055,2032,2034,2054,2051,2054,1195
1472,1711441711982461035,2064,2089,2062,2051,2052,2052,1196
1473,1711441711992462221,2050,2044,2037,2057,2052,2053,1197
1474,1711441712002491621,2061,2066,2062,2057,2057,2056,1197
1475,1711441712012463690,2056,2061,2048,2056,2052,2053,1195
1476,1711441712022460567,2055,2052,2049,2052,2053,2054,1196
1477,1711441712032461152,2061,2073,2082,2058,2057,2057,1195
1478,1711441712042503427,2048,2053,2065,2053,2056,2052,1197
1479,1711441712052480025,2058,2046,2036,2055,2052,2053,1196
1480,1711441712062460290,2056,2052,2053,2054,2052,2052,1197
1481,1711441712072463019,2056,2068,2061,2056,2054,2052,1198
1482,1711441712082461530,2052,2043,2059,2056,2052,2049,1197
1483,1711441712092468055,2052,2049,2035,2054,2053,2055,1196
1484,1711441712102477868,2054,2060,2051,2053,2051,2054,1198
1485,1711441712112457833,2054,2052,2050,2058,2053,2051,1196
1486,1711441712122462124,2064,2072,2086,2054,2057,2054,1195
1487,1711441712132462969,2052,2045,2040,2054,2052,2053,1193
1488,1711441712142482490,2051,2051,2053,2053,2048,2052,1197
1489,1711441712152462405,2055,2059,2046,2057,2055,2057,1195
1490,1711441712162459914,2052,2048,2054,2054,2050,2048,1195
1491,1711441712172462793,2052,2057,2085,2056,2054,2056,1194
1492,1711441712182459139,2055,2068,2074,2058,2052,2056,1194
1493,1711441712192461727,2055,2072,2067,2057,2053,2052,1197
1494,1711441712202467572,2049,2052,2069,2057,2053,2051,1195
1495,1711441712212459901,2056,2052,2062,2055,2054,2056,1195
1496,1711441712222464783,2058,2066,2037,2056,2056,2053,1197
1497,1711441712232460358,2049,2037,2028,2049,2050,2052,1197
1498,1711441712242458898,2061,2090,2120,2064,2060,2056,1196
1499,1711441712252498578,2056,2066,2047,2059,2052,2056,1197
1500,1711441712262467070,2054,2047,2048,2056,2051,2051,1199
1501,1711441712272462064,2057,2056,2051,2057,2054,2056,1197
1502,1711441712282461206,2050,2053,2050,2053,2054,2051,1194
1503,1711441712292460818,2056,2056,2040,2056,2054,2052,1197
1504,1711441712302459179,2056,2066,2072,2060,2053,2051,1197
1505,1711441712312474532,2053,2056,2056,2053,2056,2054,1196
1506,1711441712322455999,2056,2060,2080,2056,2053,2057,1195
1507,1711441712332462265,2056,2056,2036,2054,2057,2056,1199
1508,1711441712342460835,2053,2051,2064,2054,2055,2054,1196
1509,1711441712352462692,2056,2042,2038,2061,2056,2058,1198
1510,1711441712362462015,2050,2035,2040,2052,2053,2050,1194
1511,1711441712372455716,2072,2095,2101,2065,2060,2058,1195
1512,1711441712382465959,2050,2049,2077,2058,2056,2053,1196
1513,1711441712392463337,2056,2043,2049,2056,2055,2054,1194
1514,1711441712402462369,2053,2048,2059,2056,2056,2049,1196
1515,1711441712412466781,2057,2045,2037,2056,2053,2054,1196
1516,1711441712422464009,2060,2057,2053,2053,2052,2053,1196
1517,1711441712432464062,2053,2045,2058,2058,2051,2053,1196
1518,1711441712442462913,2056,2040,2037,2052,2052,2053,1196
1519,1711441712452460993,2050,2028,2024,2052,2051,2052,1196
1520,1711441712462464804,2055,2060,2042,2056,2056,2054,1194
1521,1711441712472464387,2059,2073,2079,2056,2054,2052,1198
1522,1711441712482471554,2052,2057,2043,2052,2050,2052,1197
1523,1711441712492466277,2057,2056,2047,2055,2056,2054,1197
1524,1711441712502464255,2059,2102,2117,2053,2056,2053,1196
1525,1711441712512465802,2055,2045,2031,2056,2051,2054,1196
1526,1711441712522466667,2051,2044,2032,2053,2052,2053,1197
1527,1711441712532468494,2051,2049,2027,2053,2053,2052,1196
1528,1711441712542461203,2053,2056,2064,2052,2052,2054,1196
1529,1711441712552462218,2052,2029,2061,2058,2052,2054,1194
1530,1711441712562458926,2072,2082,2056,2060,2052,2056,1194
1531,1711441712572476272,2053,2064,2058,2058,2056,2054,1195
1532,1711441712582461878,2046,2037,2008,2049,2053,2054,1198
1533,1711441712592464867,2061,2060,2065,2061,2053,2056,1197
1534,1711441712602462045,2056,2056,2056,2054,2055,2054,1198
1535,1711441712612464954,2049,2001,2012,2053,2053,2054,1194
1536,1711441712622464006,2060,2042,2044,2058,2054,2049,1195
1537,1711441712632462396,2057,2072,2076,2056,2056,2056,1196
1538,1711441712642463832,2050,2038,2045,2057,2052,2053,1195
1539,1711441712652462092,2059,2060,2071,2056,2055,2056,1196
1540,1711441712662464661,2056,2051,2057,2049,2050,2052,1195
1541,1711441712672469884,2056,2047,2033,2056,2052,2053,1196
1542,1711441712682463766,2053,2049,2047,2053,2052,2052,1195
1543,1711441712692452257,2053,2067,2054,2058,2056,2056,1195
1544,1711441712702459735,2046,2033,2060,2056,2056,2052,1195
1545,1711441712712461201,2062,2054,2066,2059,2056,2058,1193
1546,1711441712722469941,2052,2048,2047,2051,2053,2055,1196
1547,1711441712732450417,2057,2048,2027,2057,2056,2051,1195
1548,1711441712742460179,2060,2059,2066,2063,2058,2054,1197
1549,1711441712752457476,2052,2022,2034,2068,2052,2052,1197
1550,1711441712762457379,2050,2028,2037,2055,2054,2053,1197
1551,1711441712772475357,2060,2053,2081,2059,2053,2053,1196
1552,1711441712782482024,2056,2058,2059,2056,2054,2051,1195
1553,1711441712792477979,2053,2047,2051,2054,2056,2052,1196
1554,1711441712802471681,2060,2061,2052,2059,2054,2053,1197
1555,1711441712812465141,2060,2066,2116,2056,2054,2055,1197
1556,1711441712822520031,2054,2044,2046,2056,2056,2056,1195
1557,1711441712832468655,2058,2049,2090,2062,2056,2055,1195
1558,1711441712842460623,2050,2036,2031,2056,2052,2053,1197
1559,1711441712852464023,2060,2068,2075,2057,2056,2055,1195
1560,1711441712862463906,2053,2050,2058,2054,2052,2053,1196
1561,1711441712872547090,2052,2046,2007,2061,2054,2053,1198
1562,1711441712882479673,2053,2086,2066,2054,2053,2054,1195
1563,1711441712892472473,2059,2077,2144,2063,2058,2057,1196
1564,1711441712902464030,2045,2031,2039,2053,2054,2053,1196
1565,1711441712912464715,2063,2074,2037,2060,2057,2056,1197
1566,1711441712922478304,2059,2064,2052,2054,2052,2049,1196
1567,1711441712932501743,2052,2045,2044,2056,2052,2053,1194
1568,1711441712942464204,2053,2055,2011,2051,2056,2051,1197
1569,1711441712952472353,2052,2054,2053,2052,2054,2054,1200
1570,1711441712962468469,2058,2055,2062,2057,2054,2053,1195
1571,1711441712972479443,2060,2072,2088,2057,2054,2054,1196
1572,1711441712982477152,2053,2050,2027,2057,2053,2053,1196
1573,1711441712992500521,2054,2041,2039,2055,2054,2052,1195
1574,1711441713002509051,2066,2085,2064,2058,2056,2056,1197
1575,1711441713012467192,2058,2096,2085,2056,2053,2056,1195
1576,1711441713022473077,2049,2045,2056,2052,2052,2054,1196
1577,1711441713032505632,2060,2084,2123,2062,2059,2060,1197
1578,1711441713042473143,2057,2064,2052,2056,2052,2052,1196
1579,1711441713052452034,2056,2068,2124,2068,2060,2056,1194
1580,1711441713062467026,2056,2069,2074,2054,2054,2060,1197
1581,1711441713072470075,2053,2042,2037,2056,2052,2055,1196
1582,1711441713082472262,2053,2034,2027,2056,2052,2053,1196
1583,1711441713092497844,2058,2058,2058,2054,2059,2054,1197
1584,1711441713102468901,2051,2057,2053,2051,2053,2054,1196
1585,1711441713112469685,2053,2047,2038,2052,2049,2052,1196
1586,1711441713122461352,2051,2035,2018,2053,2054,2052,1196
1587,1711441713132472487,2054,2049,2033,2056,2050,2049,1197
1588,1711441713142457069,2053,2035,2034,2048,2051,2051,1198
1589,1711441713152460579,2055,2045,2034,2056,2054,2051,1197
1590,1711441713162461634,2050,2050,2033,2056,2053,2053,1195
1591,1711441713172473881,2053,2048,2059,2056,2051,2052,1195
1592,1711441713182461910,2051,2053,2052,2052,2048,2051,1195
1593,1711441713192460921,2056,2024,2040,2056,2056,2053,1196
1594,1711441713202463208,2059,2056,2083,2056,2054,2056,1194
1595,1711441713212482919,2058,2069,2114,2062,2057,2056,1194
1596,1711441713222463645,2052,2048,2001,2050,2051,2056,1194
1597,1711441713232495328,2059,2063,2034,2057,2056,2054,1195
1598,1711441713242454372,2056,2062,2033,2054,2050,2053,1193
1599,1711441713252459825,2056,2052,2046,2058,2053,2052,1196
1600,1711441713262459849,2051,2064,2056,2054,2052,2051,1198
1601,1711441713272458539,2056,2058,2065,2058,2058,2054,1198
1602,1711441713282459874,2056,2059,2076,2053,2053,2053,1197
1603,1711441713292492550,2058,2058,2040,2058,2053,2053,1197
1604,1711441713302456834,2050,2040,2019,2056,2056,2054,1197
1605,1711441713312494018,2064,2063,2086,2060,2056,2056,1197
1606,1711441713322460948,2058,2061,2036,2058,2053,2053,1195
1607,1711441713332461691,2056,2061,2062,2057,2053,2053,1197
1608,1711441713342456655,2056,2057,2072,2056,2053,2053,1195
1609,1711441713352491134,2052,2049,2031,2056,2056,2055,1195
1610,1711441713362461239,2064,2093,2130,2057,2061,2059,1194
1611,1711441713372489767,2050,2040,2041,2056,2056,2054,1195
1612,1711441713382460774,2056,2064,2072,2058,2054,2052,1194
1613,1711441713392455957,2060,2081,2075,2059,2051,2056,1195
1614,1711441713402490176,2052,2047,2050,2052,2045,2048,1194
1615,1711441713412489077,2052,2057,2044,2056,2054,2053,1197
1616,1711441713422491273,2056,2064,2126,2060,2054,2054,1196
1617,1711441713432491517,2058,2042,2051,2055,2054,2051,1195
1618,1711441713442491940,2057,2056,2065,2053,2050,2053,1196
1619,1711441713452492124,2054,2026,2029,2060,2058,2052,1195
1620,1711441713462492417,2057,2043,2043,2056,2052,2051,1197
1621,1711441713472492781,2057,2057,2059,2053,2052,2052,1196
1622,1711441713482494637,2046,2039,2028,2052,2053,2052,1197
1623,1711441713492499479,2062,2070,2058,2056,2053,2052,1196
1624,1711441713502496095,2056,2056,2060,2056,2051,2052,1195
1625,1711441713512496318,2052,2040,2070,2057,2052,2053,1195
1626,1711441713522497564,2065,2047,2054,2056,2053,2049,1195
1627,1711441713532500071,2054,2056,2064,2057,2052,2057,1194
1628,1711441713542498582,2048,2052,2060,2056,2049,2053,1195
1629,1711441713552480349,2058,2056,2056,2055,2056,2054,1197
1630,1711441713562482687,2053,2045,2024,2054,2052,2050,1193
1631,1711441713572482519,2055,2061,2075,2053,2054,2056,1196
1632,1711441713582486410,2051,2047,2064,2056,2052,2052,1194
1633,1711441713592482975,2056,2032,2029,2056,2057,2057,1196
1634,1711441713602484010,2055,2042,2035,2054,2053,2052,1195
1635,1711441713612484494,2060,2056,2061,2058,2057,2055,1197
1636,1711441713622510557,2056,2044,2022,2053,2052,2052,1196
1637,1711441713632514207,2049,2032,2039,2054,2053,2053,1196
1638,1711441713642506104,2051,2040,2022,2053,2049,2052,1196
1639,1711441713652488363,2061,2088,2070,2054,2052,2056,1194
1640,1711441713662488094,2053,2046,2032,2057,2053,2056,1197
1641,1711441713672487677,2062,2062,2066,2057,2059,2055,1196
1642,1711441713682491637,2054,2046,2078,2056,2056,2056,1196
1643,1711441713692491831,2062,2062,2065,2058,2051,2056,1197
1644,1711441713702491532,2057,2052,2070,2058,2056,2056,1195
1645,1711441713712484112,2059,2069,2066,2058,2056,2057,1196
1646,1711441713722478543,2062,2108,2092,2057,2056,2056,1197
1647,1711441713732467836,2058,2058,2108,2064,2057,2059,1195
1648,1711441713742482867,2052,2049,2041,2052,2050,2053,1196
1649,1711441713752469805,2067,2096,2118,2065,2060,2058,1199
1650,1711441713762483875,2050,2046,2044,2055,2053,2054,1196
1651,1711441713772482384,2053,2045,2045,2057,2054,2054,1196
1652,1711441713782480764,2052,2020,2055,2056,2056,2056,1196
1653,1711441713792471589,2065,2038,2086,2057,2053,2056,1196
1654,1711441713802477504,2053,2054,2049,2054,2054,2054,1197
1655,1711441713812478418,2052,2037,2052,2054,2056,2052,1197
1656,1711441713822475065,2062,2062,2092,2060,2054,2053,1195
1657,1711441713832480818,2053,2039,2030,2056,2052,2056,1197
1658,1711441713842478567,2057,2057,2076,2054,2056,2056,1195
1659,1711441713852474852,2051,2017,2036,2054,2054,2052,1197
1660,1711441713862472842,2056,2025,2045,2056,2054,2053,1197
1661,1711441713872472023,2058,2042,2038,2057,2056,2056,1197
1662,1711441713882428131,2053,2064,2053,2056,2053,2056,1196
1663,1711441713892479873,2049,2036,2045,2052,2056,2052,1197
1664,1711441713902473715,2056,2052,2056,2056,2056,2052,1197
1665,1711441713912475771,2057,2052,2034,2053,2053,2056,1200
1666,1711441713922476024,2056,2052,2048,2057,2057,2056,1196
1667,1711441713932474695,2062,2067,2079,2062,2058,2057,1194
1668,1711441713942469227,2059,2065,2062,2058,2050,2052,1197
1669,1711441713952468729,2057,2070,2060,2057,2054,2052,1197
1670,1711441713962476446,2058,2065,2079,2057,2058,2049,1194
1671,1711441713972474826,2058,2057,2052,2056,2052,2054,1196
1672,1711441713982474949,2060,2073,2060,2056,2057,2056,1196
1673,1711441713992466957,2058,2065,2046,2056,2052,2052,1199
1674,1711441714002474885,2053,2044,2043,2052,2050,2052,1196
1675,1711441714012471521,2059,2051,2053,2060,2052,2054,1197
1676,1711441714022474689,2054,2047,2040,2057,2053,2052,1196
1677,1711441714032474521,2056,2052,2045,2053,2052,2056,1196
1678,1711441714042467219,2056,2066,2058,2056,2049,2048,1197
1679,1711441714052467221,2057,2047,2042,2054,2056,2055,1197
1680,1711441714062467785,2053,2062,2069,2056,2052,2056,1194
1681,1711441714072467777,2062,2065,2091,2060,2056,2060,1198
1682,1711441714082466647,2050,2032,2027,2052,2051,2053,1197
1683,1711441714092465838,2062,2060,2054,2054,2054,2053,1195
1684,1711441714102467152,2047,2024,2047,2052,2053,2056,1198
1685,1711441714112471784,2059,2041,2058,2057,2060,2056,1194
1686,1711441714122472547,2050,2045,2056,2054,2053,2053,1195
1687,1711441714132462891,2054,2059,2046,2056,2055,2054,1198
1688,1711441714142477492,2054,2028,2024,2054,2053,2053,1197
1689,1711441714152470550,2053,2035,2024,2061,2056,2052,1196
1690,1711441714162478498,2056,2060,2039,2054,2052,2050,1195
1691,1711441714172470745,2053,2045,2036,2060,2056,2056,1195
1692,1711441714182469766,2062,2060,2090,2059,2052,2051,1196
1693,1711441714192469928,2053,2056,2057,2056,2052,2050,1195
1694,1711441714202465222,2055,2037,2043,2055,2053,2054,1194
1695,1711441714212481605,2064,2094,2101,2057,2057,2059,1196
1696,1711441714222464094,2050,2043,2061,2054,2052,2053,1198
1697,1711441714232466681,2057,2066,2070,2057,2053,2053,1197
1698,1711441714242468477,2052,2076,2047,2056,2052,2053,1196
1699,1711441714252469020,2052,2051,2046,2061,2056,2054,1194
1700,1711441714262461287,2052,2043,2065,2056,2054,2052,1195
1701,1711441714272469505,2059,2047,2042,2058,2054,2054,1196
1702,1711441714282464769,2055,2064,2072,2058,2054,2056,1196
1703,1711441714292463438,2064,2066,2016,2052,2050,2053,1197
1704,1711441714302456127,2052,2044,2041,2056,2052,2053,1196
1705,1711441714312472400,2052,2049,2042,2057,2058,2056,1194
1706,1711441714322465900,2057,2072,2052,2057,2053,2053,1195
1707,1711441714332491812,2056,2052,2050,2055,2054,2056,1196
1708,1711441714342452047,2056,2046,2022,2053,2056,2053,1197
1709,1711441714352458472,2056,2065,2104,2060,2062,2056,1197
1710,1711441714362458975,2056,2072,2063,2060,2052,2053,1193
1711,1711441714372461923,2060,2032,2042,2053,2054,2055,1196
1712,1711441714382462386,2057,2084,2064,2057,2051,2052,1195
1713,1711441714392422592,2053,2046,2049,2054,2052,2050,1196
1714,1711441714402457401,2057,2048,2034,2056,2052,2053,1196
1715,1711441714412461491,2054,2044,2035,2058,2055,2053,1196
1716,1711441714422462896,2053,2053,2041,2056,2052,2049,1194
1717,1711441714432454833,2064,2060,2028,2053,2054,2056,1196
1718,1711441714442458883,2047,2033,2039,2053,2054,2049,1196
1719,1711441714452469586,2055,2047,2054,2064,2056,2053,1195
1720,1711441714462473356,2058,2052,2042,2056,2051,2053,1197
1721,1711441714472457577,2053,2045,2047,2061,2055,2057,1197
1722,1711441714482455957,2050,2045,2052,2051,2053,2053,1197
1723,1711441714492460407,2056,2046,2039,2057,2052,2052,1194
1724,1711441714502461873,2065,2098,2072,2064,2057,2053,1195
1725,1711441714512461624,2047,2007,2029,2054,2053,2054,1195
1726,1711441714522460143,2060,2039,2049,2059,2055,2053,1194
1727,1711441714532460286,2063,2067,2079,2060,2056,2058,1196
1728,1711441714542457543,2050,2041,2042,2049,2048,2052,1196
1729,1711441714552460822,2058,2065,2030,2055,2052,2052,1196
1730,1711441714562452087,2050,2052,2061,2054,2054,2052,1194
1731,1711441714572450096,2054,2040,2031,2056,2053,2054,1196
1732,1711441714582497960,2059,2092,2069,2054,2052,2052,1196
1733,1711441714592452564,2056,2047,2045,2053,2052,2054,1196
1734,1711441714602458639,2052,2041,2033,2053,2051,2052,1195
1735,1711441714612508306,2058,2054,2042,2056,2052,2053,1197
1736,1711441714622486707,2056,2053,2036,2056,2052,2052,1196
1737,1711441714632469887,2056,2063,2049,2056,2058,2056,1197
1738,1711441714642521629,2060,2072,2101,2062,2057,2052,1196
1739,1711441714652498617,2055,2076,2053,2053,2049,2052,1197
1740,1711441714662501705,2052,2060,2048,2054,2056,2053,1197
1741,1711441714672466980,2065,2065,2065,2059,2060,2056,1198
1742,1711441714682465269,2056,2046,2042,2051,2053,2054,1198
1743,1711441714692473297,2053,2050,2060,2056,2052,2056,1200
1744,1711441714702497646,2052,2024,2034,2056,2056,2056,1196
1745,1711441714712506676,2056,2044,2064,2057,2053,2056,1198
1746,1711441714722465278,2050,2045,2061,2054,2054,2051,1197
1747,1711441714732502522,2064,2068,2085,2061,2058,2059,1197
1748,1711441714742551309,2056,2052,2046,2058,2057,2053,1197
1749,1711441714752507276,2061,2064,2076,2057,2051,2056,1197
1750,1711441714762502299,2058,2060,2064,2058,2054,2052,1196
1751,1711441714772460781,2056,2052,2060,2058,2053,2050,1194
1752,1711441714782460062,2056,2064,2043,2057,2053,2052,1195
1753,1711441714792510531,2052,2048,2054,2053,2053,2053,1193
1754,1711441714802461279,2056,2051,2041,2053,2053,2052,1196
1755,1711441714812497511,2060,2058,2040,2057,2056,2056,1198
1756,1711441714822480139,2053,2053,2069,2055,2053,2053,1197
1757,1711441714832503948,2058,2054,2057,2060,2059,2056,1196
1758,1711441714842517917,2064,2104,2120,2064,2058,2056,1196
1759,1711441714852497310,2050,2040,2034,2052,2054,2058,1195
1760,1711441714862493955,2054,2046,2033,2052,2054,2052,1195
1761,1711441714872468699,2062,2061,2080,2060,2056,2056,1197
1762,1711441714882469523,2055,2049,2043,2053,2052,2054,1195
1763,1711441714892499612,2059,2064,2059,2060,2055,2056,1195
1764,1711441714902478024,2054,2042,2062,2056,2052,2053,1197
1765,1711441714912500348,2057,2044,2056,2058,2052,2052,1196
1766,1711441714922487226,2046,2033,2036,2051,2053,2051,1197
1767,1711441714932468982,2052,2046,2019,2058,2053,2054,1197
1768,1711441714942450349,2055,2046,2032,2056,2052,2050,1197
1769,1711441714952447716,2056,2050,2050,2059,2053,2054,1197
1770,1711441714962449081,2055,2048,2042,2051,2051,2051,1195
1771,1711441714972452780,2056,2076,2053,2058,2053,2056,1196
1772,1711441714982453554,2048,2059,2059,2052,2050,2053,1197
1773,1711441714992482943,2052,2034,2034,2057,2049,2052,1196
1774,1711441715002454520,2061,2048,2043,2055,2056,2052,1195
1775,1711441715012457208,2056,2052,2048,2057,2054,2054,1197
1776,1711441715022455757,2056,2059,2044,2057,2052,2056,1195
1777,1711441715032484875,2053,2064,2024,2056,2057,2056,1196
1778,1711441715042521237,2056,2075,2077,2058,2057,2052,1197
1779,1711441715052480019,2060,2098,2084,2056,2056,2055,1197
1780,1711441715062494398,2049,2042,2036,2055,2059,2052,1196
1781,1711441715072452179,2058,2056,2042,2057,2057,2056,1196
1782,1711441715082485464,2048,2042,2034,2053,2051,2052,1197
1783,1711441715092453825,2058,2062,2056,2057,2056,2053,1197
1784,1711441715102456311,2050,2054,2062,2059,2054,2053,1196
1785,1711441715112455963,2066,2064,2084,2060,2058,2056,1197
1786,1711441715122488226,2048,2040,2037,2053,2051,2053,1196
1787,1711441715132455896,2063,2075,2101,2058,2059,2057,1197
1788,1711441715142485695,2056,2072,2062,2059,2049,2056,1195
1789,1711441715152471939,2056,2052,2074,2058,2054,2057,1197
1790,1711441715162479065,2052,2058,2049,2052,2053,2052,1195
1791,1711441715172482954,2058,2101,2110,2058,2053,2055,1194
1792,1711441715182484058,2060,2060,2104,2062,2053,2053,1196
1793,1711441715192484521,2058,2056,2082,2061,2055,2056,1198
1794,1711441715202448984,2056,2058,2060,2055,2052,2048,1195
1795,1711441715212484314,2056,2062,2049,2054,2056,2056,1196
1796,1711441715222455199,2055,2046,2044,2054,2047,2052,1195
1797,1711441715232449951,2050,2042,2043,2056,2055,2056,1197
1798,1711441715242491132,2060,2047,2049,2054,2053,2051,1197
1799,1711441715252451257,2059,2065,2106,2061,2055,2054,1197
1800,1711441715262489392,2057,2052,2046,2052,2051,2049,1196
1801,1711441715272455569,2054,2056,2091,2056,2056,2055,1195
1802,1711441715282448376,2060,2061,2139,2063,2056,2057,1195
1803,1711441715292491812,2060,2053,2046,2054,2052,2052,1196
1804,1711441715302461525,2057,2075,2052,2056,2057,2056,1194
1805,1711441715312494631,2051,2043,2054,2054,2056,2053,1196
1806,1711441715322477910,2052,2055,2044,2054,2056,2051,1197
1807,1711441715332450920,2052,2056,2036,2056,2050,2052,1195
1808,1711441715342448016,2052,2068,2123,2060,2053,2054,1196
1809,1711441715352468377,2059,2049,2042,2062,2057,2056,1196
1810,1711441715362478278,2056,2032,2034,2056,2052,2051,1193
1811,1711441715372449594,2056,2053,2079,2061,2056,2056,1194
1812,1711441715382453844,2061,2057,2058,2059,2056,2056,1194
1813,1711441715392452173,2052,2054,2061,2054,2054,2052,1195
1814,1711441715402451263,2056,2046,2047,2053,2053,2050,1195
1815,1711441715412480531,2057,2047,2037,2057,2051,2056,1197
1816,1711441715422457228,2056,2084,2080,2056,2052,2056,1197
1817,1711441715432462018,2057,2069,2124,2060,2057,2052,1197
1818,1711441715442454415,2050,2042,2045,2052,2048,2053,1197
1819,1711441715452477682,2056,2050,2043,2061,2058,2054,1197
1820,1711441715462479216,2052,2052,2044,2060,2054,2055,1197
1821,1711441715472445784,2053,2052,2036,2052,2050,2054,1197
1822,1711441715482473058,2052,2052,2041,2054,2053,2055,1197
1823,1711441715492468060,2056,2073,2037,2058,2052,2053,1194
1824,1711441715502448875,2056,2052,2040,2057,2051,2056,1197
1825,1711441715512447674,2050,2060,2040,2056,2052,2056,1195
1826,1711441715522478706,2052,2042,2047,2054,2054,2052,1197
1827,1711441715532475521,2062,2069,2056,2054,2052,2056,1197
1828,1711441715542473409,2047,2028,2014,2057,2054,2052,1196
1829,1711441715552473019,2065,2073,2029,2050,2055,2053,1196
1830,1711441715562487049,2053,2053,2061,2059,2056,2056,1196
1831,1711441715572467703,2062,2064,2060,2060,2057,2057,1194
1832,1711441715582468346,2056,2051,2069,2062,2056,2054,1197
1833,1711441715592468367,2065,2075,2072,2056,2054,2056,1195
1834,1711441715602460264,2050,2043,2047,2050,2054,2054,1196
1835,1711441715612458572,2053,2065,2051,2056,2054,2053,1196
1836,1711441715622467541,2047,2034,2040,2056,2050,2049,1197
1837,1711441715632466390,2057,2058,2058,2052,2055,2055,1196
1838,1711441715642463827,2052,2050,2072,2056,2053,2050,1195
1839,1711441715652491322,2058,2058,2052,2056,2054,2056,1198
1840,1711441715662476205,2052,2047,2047,2052,2048,2056,1197
1841,1711441715672458943,2051,2054,2042,2056,2056,2054,1198
1842,1711441715682468774,2061,2068,2072,2062,2052,2052,1196
1843,1711441715692449558,2057,2050,2068,2057,2056,2053,1197
1844,1711441715702451253,2053,2062,2058,2056,2054,2051,1197
1845,1711441715712473368,2056,2057,2078,2056,2053,2055,1196
1846,1711441715722462108,2054,2068,2057,2057,2058,2053,1196
1847,1711441715732467310,2056,2082,2045,2056,2052,2052,1196
1848,1711441715742469846,2048,2047,2047,2053,2050,2051,1197
1849,1711441715752456161,2054,2040,2049,2056,2052,2056,1194
1850,1711441715762453829,2055,2045,2041,2055,2052,2052,1194
1851,1711441715772459832,2054,2057,2060,2056,2050,2052,1194
1852,1711441715782469272,2049,2034,2042,2050,2051,2054,1196
1853,1711441715792466388,2060,2026,2032,2060,2055,2056,1196
1854,1711441715802466089,2056,2042,2045,2053,2056,2053,1200
1855,1711441715812460390,2052,2046,2054,2053,2053,2053,1196
1856,1711441715822456343,2051,2057,2053,2054,2052,2054,1197
1857,1711441715832467918,2057,2056,2072,2058,2056,2056,1197
1858,1711441715842449213,2054,2028,2008,2054,2053,2050,1196
1859,1711441715852430028,2057,2048,2061,2056,2056,2056,1196
1860,1711441715862496287,2053,2044,2059,2053,2056,2056,1195
1861,1711441715872460851,2059,2064,2062,2056,2056,2057,1194
1862,1711441715882462205,2056,2038,2036,2053,2052,2052,1195
1863,1711441715892464420,2056,2052,2051,2057,2052,2055,1195
1864,1711441715902464503,2051,2044,2046,2053,2052,2047,1193
1865,1711441715912463031,2061,2051,2056,2054,2053,2052,1195
1866,1711441715922445470,2056,2090,2078,2056,2056,2052,1195
1867,1711441715932469647,2053,2055,2032,2056,2052,2051,1197
1868,1711441715942464239,2058,2068,2064,2054,2053,2056,1197
1869,1711441715952464731,2054,2052,2084,2056,2054,2052,1196
1870,1711441715962467829,2053,2058,2056,2056,2052,2052,1195
1871,1711441715972457531,2056,2049,2065,2059,2056,2056,1195
1872,1711441715982457453,2052,2061,2041,2054,2052,2053,1195
1873,1711441715992472072,2053,2059,2057,2056,2053,2053,1196
1874,1711441716002453448,2056,2054,2083,2058,2052,2053,1196
1875,1711441716012400979,2053,2052,2068,2053,2054,2052,1196
1876,1711441716022456096,2057,2061,2066,2056,2056,2053,1195
1877,1711441716032415940,2055,2046,2051,2054,2055,2053,1199
1878,1711441716042459455,2057,2077,2079,2056,2056,2054,1196
1879,1711441716052458234,2059,2056,2038,2056,2053,2056,1196
1880,1711441716062477472,2058,2068,2049,2053,2057,2057,1196
1881,1711441716072490098,2051,2042,2060,2060,2053,2054,1197
1882,1711441716082459149,2053,2049,2040,2050,2048,2049,1194
1883,1711441716092458138,2061,2066,2084,2057,2055,2055,1196
1884,1711441716102454913,2054,2061,2071,2058,2056,2055,1196
1885,1711441716112451979,2059,2070,2052,2056,2058,2057,1196
1886,1711441716122458502,2059,2082,2048,2055,2053,2050,1200
1887,1711441716132452462,2058,2066,2124,2064,2060,2056,1197
1888,1711441716142449547,2048,2029,2031,2056,2054,2052,1195
1889,1711441716152450140,2056,2057,2078,2056,2056,2053,1196
1890,1711441716162458186,2056,2055,2034,2052,2053,2052,1196
1891,1711441716172465101,2058,2094,2068,2054,2053,2053,1196
1892,1711441716182467777,2052,2057,2046,2055,2052,2050,1197
1893,1711441716192456316,2052,2059,2043,2053,2054,2051,1198
1894,1711441716202462960,2056,2053,2054,2056,2056,2052,1197
1895,1711441716212457401,2053,2056,2044,2053,2054,2053,1196
1896,1711441716222453394,2053,2058,2050,2053,2053,2054,1196
1897,1711441716232461150,2066,2060,2094,2064,2057,2060,1194
1898,1711441716242453967,2052,2033,2020,2052,2049,2053,1196
1899,1711441716252462865,2057,2056,2039,2054,2059,2056,1197
1900,1711441716262460001,2052,2046,2049,2058,2054,2053,1197
1901,1711441716272459751,2055,2050,2047,2053,2052,2053,1196
1902,1711441716282457549,2056,2053,2040,2056,2053,2053,1196
1903,1711441716292461968,2057,2063,2088,2061,2056,2053,1197
1904,1711441716302461659,2054,2057,2089,2060,2056,2053,1196
1905,1711441716312472350,2062,2085,2061,2053,2056,2056,1196
1906,1711441716322454818,2048,2057,2048,2056,2056,2052,1196
1907,1711441716332472513,2054,2044,2041,2056,2053,2053,1195
1908,1711441716342454981,2056,2052,2043,2054,2053,2050,1196
1909,1711441716352466333,2054,2042,2048,2053,2053,2056,1197
1910,1711441716362452499,2060,2085,2042,2056,2050,2052,1193
1911,1711441716372452429,2050,2057,2051,2054,2056,2052,1194
1912,1711441716382468261,2048,2044,2049,2054,2051,2049,1196
1913,1711441716392455908,2054,2050,2044,2060,2051,2053,1197
1914,1711441716402451331,2059,2065,2086,2064,2057,2056,1195
1915,1711441716412453055,2057,2073,2083,2058,2056,2057,1196
1916,1711441716422462184,2056,2055,2064,2056,2054,2056,1195
1917,1711441716432448378,2056,2054,2058,2061,2058,2056,1196
1918,1711441716442468569,2052,2045,2049,2051,2050,2051,1195
1919,1711441716452458490,2058,2079,2137,2061,2057,2056,1195
1920,1711441716462454594,2052,2045,2061,2057,2052,2056,1197
1921,1711441716472477679,2059,2045,2042,2058,2053,2054,1197
1922,1711441716482484293,2046,2061,2044,2053,2050,2048,1195
1923,1711441716492456541,2053,2053,2035,2053,2054,2051,1196
1924,1711441716502457253,2051,2080,2057,2052,2052,2054,1198
1925,1711441716512448778,2056,2077,2061,2053,2057,2056,1197
1926,1711441716522452296,2058,2040,2072,2054,2046,2054,1197
1927,1711441716532473108,2057,2034,2037,2052,2053,2052,1198
1928,1711441716542446778,2061,2070,2081,2056,2058,2056,1196
1929,1711441716552453091,2052,2044,2045,2054,2054,2058,1197
1930,1711441716562452872,2058,2062,2065,2057,2054,2051,1197
1931,1711441716572457071,2050,2036,2040,2052,2053,2051,1197
1932,1711441716582472912,2061,2077,2185,2064,2057,2062,1196
1933,1711441716592455921,2059,2056,2062,2056,2056,2052,1195
1934,1711441716602455842,2053,2052,2054,2057,2053,2052,1194
1935,1711441716612456475,2054,2052,2061,2054,2053,2054,1196
1936,1711441716622457477,2051,2042,2043,2058,2053,2053,1198
1937,1711441716632467709,2056,2047,2048,2056,2051,2052,1198
1938,1711441716642456568,2051,2044,2040,2057,2052,2050,1197
1939,1711441716652461519,2053,2058,2057,2057,2054,2054,1197
1940,1711441716662459616,2055,2050,2044,2057,2056,2056,1198
1941,1711441716672459979,2055,2050,2048,2056,2052,2056,1197
1942,1711441716682460831,2056,2044,2038,2059,2055,2052,1196
1943,1711441716692462075,2061,2058,2073,2056,2056,2055,1195
1944,1711441716702463007,2056,2057,2044,2059,2050,2054,1197
1945,1711441716712462809,2050,2027,2031,2052,2052,2052,1198
1946,1711441716722463511,2060,2042,2030,2062,2056,2056,1197
1947,1711441716732471578,2052,2045,2047,2050,2053,2051,1196
1948,1711441716742445037,2049,2058,2056,2054,2053,2054,1197
1949,1711441716752472392,2052,2056,2049,2056,2056,2051,1197
1950,1711441716762448446,2061,2065,2060,2055,2055,2058,1193
1951,1711441716772450893,2050,2046,2041,2054,2051,2052,1197
1952,1711441716782451875,2059,2093,2088,2064,2056,2049,1196
1953,1711441716792468999,2049,2037,2032,2052,2050,2052,1196
1954,1711441716802454793,2056,2047,2046,2056,2053,2057,1196
1955,1711441716812450926,2054,2040,2034,2056,2053,2053,1194
1956,1711441716822451359,2051,2047,2041,2053,2049,2052,1198
1957,1711441716832448745,2050,2041,2035,2054,2051,2052,1196
1958,1711441716842454718,2054,2032,2064,2064,2060,2056,1198
1959,1711441716852458726,2061,2052,2044,2053,2051,2052,1194
1960,1711441716862455842,2054,2041,2031,2050,2050,2051,1197
1961,1711441716872455232,2056,2052,2046,2055,2056,2052,1198
1962,1711441716882452057,2062,2065,2082,2052,2052,2053,1197
1963,1711441716892459272,2050,2045,2035,2051,2053,2052,1197
1964,1711441716902454875,2054,2073,2053,2054,2055,2052,1197
1965,1711441716912448032,2049,2044,2026,2049,2050,2056,1197
1966,1711441716922441391,2053,2048,2068,2054,2050,2053,1199
1967,1711441716932456160,2057,2041,2038,2052,2055,2053,1196
1968,1711441716942439250,2053,2058,2072,2057,2056,2058,1195
1969,1711441716952455632,2056,2057,2066,2056,2054,2056,1195
1970,1711441716962455634,2051,2029,2046,2054,2052,2050,1192
1971,1711441716972453450,2056,2049,2057,2053,2055,2053,1197
1972,1711441716982468000,2049,2050,2044,2054,2052,2053,1198
1973,1711441716992450967,2054,2065,2046,2056,2057,2051,1196
1974,1711441717002454445,2052,2052,2047,2052,2052,2052,1198
1975,1711441717012458734,2057,2052,2076,2058,2053,2055,1194
1976,1711441717022454476,2056,2041,2033,2056,2052,2053,1197
1977,1711441717032468574,2056,2050,2051,2054,2052,2056,1196
1978,1711441717042447354,2048,2040,2046,2053,2053,2052,1195
1979,1711441717052447004,2058,2056,2032,2056,2052,2052,1196
1980,1711441717062452024,2057,2063,2032,2054,2053,2054,1196
1981,1711441717072455100,2056,2069,2068,2049,2053,2052,1196
1982,1711441717082470801,2056,2064,2054,2058,2053,2054,1197
1983,1711441717092463468,2056,2054,2040,2056,2056,2057,1199
1984,1711441717102452197,2059,2088,2099,2057,2056,2052,1196
1985,1711441717112453269,2057,2064,2072,2051,2056,2061,1195
1986,1711441717122465263,2058,2048,2045,2060,2053,2054,1197
1987,1711441717132473660,2056,2085,2044,2055,2054,2052,1197
1988,1711441717142471095,2051,2064,2049,2056,2054,2055,1197
1989,1711441717152450506,2055,2049,2068,2056,2053,2053,1196
1990,1711441717162456909,2052,2037,2032,2057,2056,2053,1195
1991,1711441717172457591,2061,2072,2068,2056,2056,2054,1196
1992,1711441717182455167,2058,2045,2047,2058,2052,2056,1196
1993,1711441717192453485,2061,2097,2097,2056,2052,2051,1195
1994,1711441717202454527,2051,2075,2054,2052,2051,2051,1197
1995,1711441717212453275,2057,2046,2040,2054,2054,2056,1198
1996,1711441717222453466,2055,2060,2073,2060,2055,2053,1195
1997,1711441717232453788,2052,2056,2053,2055,2054,2054,1195
1998,1711441717242463397,2053,2068,2063,2053,2056,2054,1196
1999,1711441717252442998,2064,2104,2122,2065,2058,2058,1197
2000,1711441717262433430,2053,2068,2045,2056,2050,2052,1196
2001,1711441717272457357,2056,2061,2074,2056,2056,2050,1197
2002,1711441717282453570,2054,2057,2034,2055,2053,2052,1194
2003,1711441717292450555,2053,2049,2027,2050,2051,2054,1195
2004,1711441717302455475,2052,2057,2061,2052,2047,2052,1195
2005,1711441717312428404,2052,2041,2024,2060,2053,2052,1196
2006,1711441717322452310,2055,2076,2046,2054,2052,2052,1197
2007,1711441717332463052,2057,2068,2112,2060,2055,2056,1196
2008,1711441717342441911,2057,2054,2057,2054,2054,2052,1196
2009,1711441717352448946,2057,2045,2046,2056,2050,2053,1196
2010,1711441717362453735,2057,2088,2059,2056,2054,2051,1193
2011,1711441717372451772,2055,2064,2102,2061,2055,2052,1195
2012,1711441717382467844,2048,2033,2042,2053,2053,2053,1194
2013,1711441717392452385,2056,2043,2060,2054,2057,2056,1197
2014,1711441717402461732,2056,2060,2054,2056,2054,2052,1195
2015,1711441717412458136,2059,2057,2050,2060,2052,2053,1196
2016,1711441717422458207,2046,2032,2046,2056,2053,2053,1196
2017,1711441717432481632,2064,2064,2044,2055,2052,2056,1196
2018,1711441717442457246,2056,2061,2083,2056,2057,2054,1200
2019,1711441717452470562,2060,2061,2053,2058,2056,2053,1197
2020,1711441717462457407,2056,2059,2060,2056,2055,2056,1198
2021,1711441717472461726,2060,2054,2030,2058,2056,2059,1196
2022,1711441717482478529,2050,2040,2026,2052,2056,2053,1195
2023,1711441717492453802,2069,2096,2076,2056,2057,2052,1196
2024,1711441717502459514,2051,2057,2072,2057,2056,2056,1195
2025,1711441717512462971,2056,2047,2050,2053,2056,2053,1197
2026,1711441717522451239,2052,2052,2055,2056,2049,2053,1194
2027,1711441717532474986,2054,2060,2070,2057,2057,2058,1194
2028,1711441717542461671,2051,2065,2088,2058,2053,2053,1195
2029,1711441717552467122,2062,2057,2062,2055,2055,2053,1193
2030,1711441717562454799,2049,2037,2028,2047,2047,2047,1192
2031,1711441717572470038,2058,2052,2065,2054,2054,2054,1193
2032,1711441717582491050,2054,2047,2064,2061,2053,2054,1194
2033,1711441717592447566,2057,2054,2043,2052,2054,2054,1196
2034,1711441717602459650,2052,2029,2047,2051,2053,2054,1195
2035,1711441717612452016,2070,2078,2095,2058,2056,2053,1194
2036,1711441717622454602,2046,2032,2027,2053,2053,2052,1195
2037,1711441717632490882,2068,2098,2080,2056,2056,2056,1194
2038,1711441717642478068,2052,2054,2089,2056,2051,2052,1196
2039,1711441717652450796,2056,2052,2062,2056,2054,2052,1195
2040,1711441717662456047,2056,2052,2056,2056,2053,2056,1195
2041,1711441717672456188,2058,2076,2064,2057,2056,2055,1196
2042,1711441717682455698,2056,2056,2096,2057,2053,2054,1197
2043,1711441717692461740,2052,2065,2066,2055,2053,2052,1196
2044,1711441717702444537,2053,2053,2066,2053,2054,2050,1197
2045,1711441717712449077,2053,2056,2046,2054,2050,2053,1197
2046,1711441717722443617,2052,2052,2051,2059,2052,2052,1196
2047,1711441717732463185,2065,2086,2160,2062,2057,2056,1196
2048,1711441717742454729,2047,2033,2036,2056,2050,2049,1196
2049,1711441717752461934,2058,2057,2046,2056,2054,2055,1194
2050,1711441717762453889,2056,2066,2064,2055,2055,2055,1192
2051,1711441717772456384,2048,2031,2038,2053,2052,2052,1196
2052,1711441717782550897,2052,2046,2048,2058,2054,2056,1197
2053,1711441717792450214,2064,2112,2099,2059,2056,2052,1196
2054,1711441717802459111,2056,2072,2079,2057,2053,2056,1196
2055,1711441717812454213,2056,2045,2047,2057,2057,2054,1194
2056,1711441717822450887,2052,2058,2040,2053,2053,2049,1197
2057,1711441717832464854,2052,2051,2053,2055,2053,2051,1196
2058,1711441717842456850,2052,2050,2040,2058,2053,2052,1194
2059,1711441717852451039,2057,2084,2114,2060,2053,2056,1195
2060,1711441717862446351,2051,2056,2077,2060,2053,2055,1197
2061,1711441717872449167,2055,2070,2056,2056,2064,2056,1197
2062,1711441717882452494,2053,2044,2024,2058,2054,2052,1197
2063,1711441717892451332,2053,2054,2052,2053,2052,2051,1195
2064,1711441717902449619,2060,2062,2052,2058,2054,2055,1196
2065,1711441717912448468,2051,2045,2038,2056,2054,2055,1197
2066,1711441717922444952,2054,2069,2036,2054,2055,2056,1197
2067,1711441717932468267,2064,2068,2095,2060,2056,2056,1197
2068,1711441717942443841,2051,2030,2032,2061,2053,2053,1196
2069,1711441717952451185,2061,2057,2080,2064,2061,2060,1196
2070,1711441717962456075,2061,2081,2057,2057,2051,2052,1193
2071,1711441717972459703,2056,2057,2074,2058,2056,2053,1194
2072,1711441717982457940,2045,2032,2037,2053,2054,2052,1193
2073,1711441717992455476,2062,2073,2096,2056,2054,2053,1195
2074,1711441718002454314,2058,2069,2077,2058,2056,2053,1195
2075,1711441718012451930,2058,2051,2037,2052,2056,2052,1197
2076,1711441718022464294,2060,2081,2047,2057,2055,2054,1197
2077,1711441718032490365,2056,2045,2037,2058,2056,2052,1196
2078,1711441718042463302,2062,2068,2063,2058,2052,2059,1194
2079,1711441718052460748,2070,2084,2082,2058,2057,2061,1196
2080,1711441718062451349,2054,2058,2064,2056,2056,2050,1198
2081,1711441718072450017,2053,2071,2046,2061,2052,2053,1196
2082,1711441718082455537,2056,2061,2081,2065,2056,2052,1197
2083,1711441718092457121,2056,2052,2035,2058,2056,2052,1197
2084,1711441718102449195,2054,2056,2057,2057,2052,2052,1197
2085,1711441718112455077,2057,2072,2094,2056,2052,2056,1197
2086,1711441718122450858,2052,2047,2036,2051,2054,2054,1195
2087,1711441718132455177,2060,2075,2098,2058,2056,2055,1196
2088,1711441718142509752,2061,2049,2043,2055,2050,2056,1197
2089,1711441718153476685,2054,2044,2065,2056,2053,2055,1197
2090,1711441718162453153,2058,2064,2072,2056,2054,2052,1193
2091,1711441718172448404,2055,2047,2034,2056,2060,2056,1195
2092,1711441718182450398,2054,2024,2045,2056,2053,2053,1194
2093,1711441718192450679,2063,2073,2072,2053,2056,2050,1195
2094,1711441718202459926,2050,2042,2064,2053,2053,2054,1194
2095,1711441718212447353,2052,2054,2041,2053,2052,2052,1195
2096,1711441718222462932,2056,2068,2060,2056,2052,2053,1195
2097,1711441718232455899,2050,2046,2056,2053,2054,2051,1195
2098,1711441718242449316,2057,2092,2120,2062,2056,2056,1194
2099,1711441718252473453,2059,2045,2047,2056,2056,2054,1195
2100,1711441718262461450,2051,2050,2046,2054,2052,2053,1196
2101,1711441718272447704,2062,2076,2104,2061,2056,2056,1197
2102,1711441718282450849,2049,2032,2044,2053,2053,2052,1194
2103,1711441718292451711,2062,2062,2046,2055,2056,2055,1197
2104,1711441718302450098,2056,2055,2025,2054,2052,2054,1195
2105,1711441718312466520,2059,2096,2088,2058,2058,2056,1196
2106,1711441718322460819,2047,2045,2026,2054,2051,2051,1196
2107,1711441718332454848,2048,2058,2050,2049,2053,2054,1197
2108,1711441718342454376,2054,2044,2044,2054,2051,2053,1195
2109,1711441718352457333,2057,2036,2033,2056,2053,2053,1196
2110,1711441718362465358,2048,2012,2017,2059,2052,2055,1196
2111,1711441718372457273,2061,2029,2036,2053,2056,2056,1197
2112,1711441718382458775,2056,2054,2087,2061,2052,2056,1196
2113,1711441718392453285,2056,2056,2064,2054,2056,2052,1196
2114,1711441718402454437,2057,2059,2102,2067,2053,2052,1196
2115,1711441718412459808,2060,2040,2049,2052,2056,2058,1197
2116,1711441718422452052,2058,2048,2042,2054,2049,2050,1196
2117,1711441718432465589,2068,2091,2086,2054,2056,2052,1196
2118,1711441718442455539,2048,2038,2049,2056,2052,2054,1196
2119,1711441718452458375,2049,2038,2048,2052,2053,2052,1198
2120,1711441718462481339,2059,2060,2087,2060,2056,2058,1196
2121,1711441718472469577,2058,2049,2044,2057,2057,2052,1197
2122,1711441718482456842,2050,2050,2052,2058,2056,2054,1197
2123,1711441718492461241,2057,2064,2056,2054,2052,2052,1195
2124,1711441718502457223,2058,2073,2055,2056,2051,2051,1197
2125,1711441718512464157,2057,2060,2056,2052,2052,2053,1196
2126,1711441718522458916,2048,2041,2038,2056,2052,2050,1195
2127,1711441718532456071,2063,2072,2077,2060,2054,2054,1196
2128,1711441718542461802,2052,2051,2033,2056,2053,2053,1197
2129,1711441718552462213,2050,2072,2098,2058,2052,2052,1195
2130,1711441718562462613,2056,2044,2049,2060,2053,2056,1193
2131,1711441718572492642,2054,2061,2074,2053,2056,2052,1195
2132,1711441718582462373,2053,2042,2036,2052,2049,2051,1194
2133,1711441718592465369,2056,2070,2061,2050,2051,2056,1195
2134,1711441718602465430,2053,2048,2040,2060,2053,2056,1195
2135,1711441718612465640,2052,2050,2035,2053,2053,2053,1194
2136,1711441718622469217,2061,2057,2070,2049,2051,2054,1196
2137,1711441718632449309,2056,2041,2034,2053,2056,2054,1194
2138,1711441718642469107,2053,2044,2033,2055,2050,2052,1196
2139,1711441718652451844,2056,2064,2080,2053,2053,2052,1197
2140,1711441718662452716,2054,2052,2046,2056,2053,2056,1196
2141,1711441718672468366,2065,2072,2043,2061,2059,2056,1197
2142,1711441718682446484,2053,2044,2023,2052,2053,2053,1196
2143,1711441718692453347,2058,2107,2100,2056,2056,2053,1194
2144,1711441718702454058,2049,2048,2040,2056,2056,2049,1197
2145,1711441718712454459,2051,2041,2053,2054,2052,2057,1197
2146,1711441718722485359,2060,2056,2066,2060,2054,2054,1198
2147,1711441718732451684,2050,2056,2042,2052,2054,2054,1195
2148,1711441718742452065,2054,2054,2046,2049,2052,2053,1196
2149,1711441718752449870,2059,2056,2088,2056,2054,2056,1197
2150,1711441718762476342,2053,2057,2036,2056,2050,2053,1193
2151,1711441718772443067,2056,2043,2074,2060,2056,2055,1193
2152,1711441718782454970,2060,2057,2107,2062,2060,2051,1195
2153,1711441718792451403,2056,2076,2088,2060,2056,2055,1196
2154,1711441718802450071,2052,2041,2077,2056,2053,2054,1195
2155,1711441718812464679,2058,2046,2039,2056,2051,2056,1196
2156,1711441718822452987,2059,2058,2097,2058,2054,2055,1196
2157,1711441718832454490,2058,2058,2033,2052,2053,2056,1195
2158,1711441718842461614,2053,2052,2043,2056,2053,2053,1198
2159,1711441718852449861,2053,2030,2052,2051,2054,2056,1198
2160,1711441718862448388,2064,2047,2036,2054,2050,2052,1196
2161,1711441718872492303,2052,2033,2046,2050,2053,2052,1196
2162,1711441718882485109,2049,2033,2029,2056,2056,2052,1195
2163,1711441718892456604,2056,2040,2056,2055,2052,2052,1194
2164,1711441718902453749,2060,2069,2053,2054,2052,2056,1195
2165,1711441718912452236,2057,2058,2094,2054,2053,2056,1195
2166,1711441718922475150,2057,2046,2067,2061,2052,2053,1196
2167,1711441718932434201,2051,2041,2036,2052,2051,2051,1195
2168,1711441718942457276,2054,2050,2040,2056,2052,2055,1195
2169,1711441718952454490,2053,2049,2061,2054,2056,2053,1195
2170,1711441718962461223,2062,2072,2074,2056,2054,2053,1195
2171,1711441718972469609,2050,2045,2062,2054,2052,2052,1197
2172,1711441718982456545,2054,2043,2025,2056,2053,2052,1195
2173,1711441718992452897,2050,2044,2036,2053,2050,2050,1197
2174,1711441719002463097,2055,2056,2067,2056,2052,2054,1195
2175,1711441719012450603,2060,2080,2107,2060,2056,2056,1198
2176,1711441719022459179,2052,2041,2026,2056,2052,2054,1194
2177,1711441719032447165,2062,2080,2076,2057,2056,2052,1196
2178,1711441719042473826,2053,2090,2074,2056,2054,2052,1195
2179,1711441719052459749,2057,2052,2038,2056,2056,2056,1195
2180,1711441719062461261,2050,2040,2033,2053,2052,2053,1197
2181,1711441719072510525,2054,2051,2027,2056,2056,2053,1197
2182,1711441719082456601,2055,2061,2024,2056,2053,2054,1194
2183,1711441719092451691,2065,2080,2058,2056,2052,2054,1197
2184,1711441719102456820,2053,2072,2063,2053,2056,2055,1196
2185,1711441719112453674,2053,2046,2058,2062,2058,2057,1197
2186,1711441719122448744,2052,2050,2068,2056,2049,2052,1197
2187,1711441719132447501,2056,2051,2086,2056,2056,2053,1198
2188,1711441719142473651,2054,2036,2036,2056,2051,2056,1196
2189,1711441719152458491,2052,2047,2048,2056,2054,2052,1195
2190,1711441719162455365,2057,2056,2048,2058,2054,2052,1192
2191,1711441719172453621,2064,2057,2037,2052,2056,2053,1196
2192,1711441719182458500,2056,2052,2051,2058,2053,2052,1196
2193,1711441719192469721,2057,2049,2050,2053,2052,2054,1194
2194,1711441719202450253,2056,2046,2045,2056,2050,2051,1196
2195,1711441719212460512,2054,2053,2010,2047,2050,2052,1196
2196,1711441719222455712,2054,2059,2047,2054,2052,2052,1196
2197,1711441719232459790,2058,2090,2081,2056,2054,2052,1196
2198,1711441719242458577,2047,2040,2053,2054,2051,2052,1195
2199,1711441719252454479,2051,2050,2057,2052,2054,2052,1195
2200,1711441719262458796,2056,2053,2046,2056,2056,2054,1197
2201,1711441719272459567,2056,2060,2068,2061,2056,2055,1196
2202,1711441719282459917,2052,2033,2021,2056,2050,2052,1195
2203,1711441719292461179,2056,2048,2044,2048,2052,2052,1199
2204,1711441719302449917,2054,2057,2052,2058,2053,2053,1197
2205,1711441719312474684,2050,2034,2029,2052,2054,2052,1196
2206,1711441719322472881,2052,2040,2041,2055,2053,2052,1194
2207,1711441719332476397,2058,2076,2072,2056,2053,2056,1194
2208,1711441719342491095,2055,2044,2072,2057,2053,2052,1194
2209,1711441719352471095,2061,2082,2054,2054,2054,2056,1197
2210,1711441719362464854,2057,2076,2070,2056,2054,2054,1193
2211,1711441719372465985,2057,2050,2045,2058,2053,2053,1194
2212,1711441719382450415,2056,2049,2057,2056,2052,2052,1195
