seq,time,data[0],data[1],data[2],data[3],data[4],data[5],data[6]
201,1710995005548115434,2047,2037,2057,2053,2032,2045,1193
202,1710995005558115849,2053,2072,2088,2072,2060,2060,1197
203,1710995005568114882,2065,2059,2113,2045,2051,2046,1192
204,1710995005578112462,2041,2049,2070,2008,2037,2046,1194
205,1710995005588115693,2058,2081,2152,2114,2193,2058,1195
206,1710995005598115819,2056,2078,2077,2069,2054,2054,1195
207,1710995005608113800,2068,2064,2091,2060,2041,2052,1195
208,1710995005618112162,2049,2061,2060,2029,2066,2060,1196
209,1710995005628112518,2056,2036,2060,2057,2030,2049,1195
210,1710995005638112974,2044,2056,2040,2091,2112,2068,1193
211,1710995005648111335,2053,2045,2054,2043,2093,2056,1196
212,1710995005658114055,2049,2077,2037,2036,2072,2056,1195
213,1710995005668111696,2058,2021,2036,2040,2028,2050,1196
214,1710995005678112963,2054,2051,2078,2088,2049,2066,1196
215,1710995005688110994,2069,2069,2122,2023,2052,2060,1194
216,1710995005698113744,2049,2066,2033,2079,2060,2057,1196
217,1710995005708112146,2060,2041,2041,2057,2069,2054,1194
218,1710995005718115117,2042,2062,2067,2024,2090,2057,1194
219,1710995005728112687,2062,2040,2034,2035,2132,2057,1196
220,1710995005738115637,2056,2081,2105,2042,2042,2052,1193
221,1710995005748111926,2061,2054,2100,2069,2052,2050,1196
222,1710995005758116278,2048,2059,2035,2053,2086,2060,1195
223,1710995005768112306,2056,2027,1985,2068,2040,2046,1192
224,1710995005778112822,2043,2059,2012,2056,2042,2041,1192
225,1710995005788112967,2058,2045,2066,2088,2104,2050,1194
226,1710995005798113333,2053,2068,2072,2057,2065,2058,1195
227,1710995005808114710,2061,2040,2072,2057,2046,2050,1193
228,1710995005818125786,2053,2064,2038,2057,2056,2059,1194
229,1710995005828117575,2061,2036,2046,2016,2047,2050,1195
230,1710995005838113452,2040,2052,2022,2066,2090,2055,1196
231,1710995005848115792,2054,2020,2013,2071,2044,2044,1193
232,1710995005858160172,2044,2056,2015,2046,2066,2061,1196
233,1710995005868132423,2062,2044,2063,2072,2113,2064,1193
234,1710995005878116197,2050,2064,2025,2056,2046,2061,1195
235,1710995005888116193,2063,2076,2132,2060,2061,2046,1192
236,1710995005898116689,2043,2056,2018,2044,2086,2053,1196
237,1710995005908170957,2051,2034,2042,2049,2001,2041,1194
238,1710995005918117059,2047,2090,2066,2028,2044,2057,1195
239,1710995005928120992,2072,2056,2104,2020,2052,2056,1195
240,1710995005938111719,2052,2059,2041,2027,2037,2065,1192
241,1710995005948116082,2057,2034,2014,2000,2011,2050,1197
242,1710995005958117049,2044,2060,2035,2048,2055,2049,1194
243,1710995005968106513,2058,2034,2034,2039,2048,2041,1193
244,1710995005978106028,2041,2068,2038,1985,2047,2056,1195
245,1710995005988116222,2061,2042,2040,2052,2049,2047,1193
246,1710995005998106308,2044,2060,2064,2064,2040,2057,1196
247,1710995006008128866,2060,2036,2012,2136,1968,2043,1194
248,1710995006018126776,2050,2062,2044,2056,2032,2052,1195
249,1710995006028144014,2056,2047,2058,2005,2042,2040,1192
250,1710995006038117147,2048,2080,2071,1993,2056,2056,1196
251,1710995006048119126,2064,2037,1999,2047,2027,2038,1195
252,1710995006058119161,2040,2067,2013,2049,2085,2059,1193
253,1710995006068111250,2053,2042,2036,2073,2071,2042,1193
254,1710995006078108570,2050,2086,2034,2042,2073,2052,1194
255,1710995006088109667,2063,2050,2041,2056,2037,2052,1196
256,1710995006098129119,2041,2066,2046,2044,2056,2061,1194
257,1710995006108122531,2057,2044,2021,2072,2062,2049,1193
258,1710995006118129739,2041,2068,2036,2074,2066,2054,1195
259,1710995006128116529,2059,2040,2032,2069,2026,2044,1192
260,1710995006138112095,2040,2050,2013,2010,2058,2052,1192
261,1710995006148116528,2064,2032,2057,2048,2082,2052,1195
262,1710995006158106194,2044,2058,2047,2061,2057,2061,1192
263,1710995006168118742,2060,2037,2053,2045,2017,2042,1192
264,1710995006178113516,2048,2065,2028,2065,2057,2064,1194
265,1710995006188111377,2061,2042,2044,2060,2021,2048,1194
266,1710995006198111242,2044,2061,2050,2065,2068,2056,1193
267,1710995006208101688,2062,2054,2046,2060,2037,2054,1196
268,1710995006218118996,2049,2082,2090,2064,2074,2057,1194
269,1710995006228114973,2064,2027,2073,2035,2040,2052,1196
270,1710995006238116100,2052,2053,2022,2013,2056,2066,1196
271,1710995006248122367,2060,2046,2038,2042,2036,2050,1195
272,1710995006258107753,2054,2088,2068,2002,2010,2064,1196
273,1710995006268109582,2060,2036,2030,2068,2064,2047,1192
274,1710995006278144463,2040,2070,2061,2041,2052,2059,1197
275,1710995006288113659,2069,2072,2155,2062,2085,2053,1194
276,1710995006298122290,2049,2072,2078,2071,2069,2064,1194
277,1710995006308107496,2065,2033,2021,2048,2024,2041,1192
278,1710995006318137258,2040,2092,2072,2068,2128,2054,1195
279,1710995006328116473,2058,2026,2016,2108,2056,2040,1192
280,1710995006338112500,2042,2076,2060,2109,2109,2066,1194
281,1710995006348125791,2061,2042,2050,2061,2063,2048,1196
282,1710995006358101729,2045,2056,2029,2073,2133,2062,1195
283,1710995006368112354,2060,2037,2029,2086,2082,2050,1194
284,1710995006378111006,2037,2048,2018,2085,2061,2059,1194
285,1710995006388110630,2056,2022,2017,2028,2031,2029,1192
286,1710995006398131735,2038,2072,2078,2052,2037,2049,1193
287,1710995006408105109,2057,2040,2095,2059,2024,2050,1193
288,1710995006418112899,2030,2072,2036,2011,2084,2054,1195
289,1710995006428112894,2050,2027,2041,2063,2018,2038,1194
290,1710995006438111395,2046,2076,2065,2014,2031,2063,1193
291,1710995006448116940,2064,2032,2018,2040,2022,2045,1192
292,1710995006458978360,2038,2093,2090,2058,2088,2066,1193
293,1710995006468108263,2054,2020,1989,2043,2060,2039,1191
294,1710995006478108458,2040,2073,2028,2069,2042,2058,1196
295,1710995006488106950,2064,2027,2012,2051,2042,2043,1192
296,1710995006498109901,2045,2072,2089,2092,2082,2060,1194
297,1710995006508112320,2063,2043,2081,2066,2027,2049,1196
298,1710995006518107876,2046,2085,2080,2029,2045,2069,1194
299,1710995006528120304,2054,2015,2016,2042,2064,2029,1192
300,1710995006538130679,2042,2080,2054,2056,2013,2061,1193
301,1710995006548121847,2061,2037,2042,2088,2066,2049,1196
302,1710995006558113135,2047,2093,2073,2034,2090,2074,1196
303,1710995006568120474,2068,2040,2032,2042,2019,2045,1193
304,1710995006578110640,2040,2079,2127,2080,2057,2061,1194
305,1710995006588114512,2062,2027,2044,2078,2060,2040,1193
306,1710995006598109366,2050,2074,2052,2085,2098,2071,1194
307,1710995006608129240,2066,2023,2061,2080,2041,2050,1194
308,1710995006618120908,2042,2062,2068,2060,2012,2057,1196
309,1710995006628117626,2057,2036,2031,2037,2000,2029,1193
310,1710995006638116068,2040,2072,2066,2045,2069,2069,1196
311,1710995006648117826,2058,2042,2070,2088,2132,2045,1195
312,1710995006658113583,2044,2068,2044,2051,2073,2063,1197
313,1710995006668112796,2060,2020,2024,2025,1977,2037,1192
314,1710995006678112781,2038,2066,2044,2032,2034,2056,1196
315,1710995006688138435,2052,2027,2058,2030,2040,2034,1192
316,1710995006698114383,2042,2066,2021,2035,2008,2060,1194
317,1710995006708117935,2062,2032,2019,2056,2064,2047,1192
318,1710995006718124271,2042,2080,2072,2078,2042,2057,1197
319,1710995006728118375,2070,2055,2169,1974,2012,2045,1193
320,1710995006738131816,2045,2072,2083,2045,2080,2064,1193
321,1710995006748138052,2070,2035,2038,2060,2101,2052,1196
322,1710995006758123028,2042,2085,2129,2069,2078,2068,1193
323,1710995006768124977,2069,2024,2023,2046,2034,2046,1192
324,1710995006778122015,2045,2072,2010,2037,2084,2064,1194
325,1710995006788122230,2064,2027,1996,2039,2064,2038,1192
326,1710995006798119340,2035,2062,2047,2020,2021,2052,1196
327,1710995006808123032,2068,2040,2072,2029,1984,2032,1192
328,1710995006818104561,2047,2084,2087,2077,2053,2066,1194
329,1710995006828124704,2069,2024,2040,2070,2077,2058,1197
330,1710995006838123056,2041,2076,2099,2058,2056,2072,1196
331,1710995006848103614,2067,2004,2010,2071,1988,2035,1192
332,1710995006858104069,2045,2061,2064,2066,2072,2068,1196
333,1710995006868107491,2060,2044,2149,2072,2075,2041,1192
334,1710995006878104399,2042,2066,2066,2066,2133,2067,1195
335,1710995006888126836,2065,2026,2004,2074,2117,2057,1193
336,1710995006898102775,2045,2075,2057,2085,2052,2056,1195
337,1710995006908130153,2061,2017,1988,2090,2040,2042,1193
338,1710995006918112363,2037,2071,2041,2147,2069,2060,1193
339,1710995006928131224,2069,2033,2021,2042,2002,2034,1191
340,1710995006938133863,2035,2057,2080,2068,2052,2062,1195
341,1710995006948105945,2065,2024,2010,2054,2052,2043,1193
342,1710995006958106601,2042,2074,2040,2066,2067,2068,1193
343,1710995006968114320,2061,2024,2025,2042,2034,2038,1194
344,1710995006978132660,2040,2082,2108,2045,2047,2061,1195
345,1710995006988115182,2064,2032,2042,1993,2024,2036,1190
346,1710995006998106209,2050,2100,2146,2050,1988,2064,1196
347,1710995007008124749,2066,2028,2044,2026,1973,2022,1194
348,1710995007018112480,2040,2075,2040,2089,2070,2068,1196
349,1710995007028114218,2076,2051,2091,2072,1969,2036,1192
350,1710995007038118782,2053,2093,2057,2053,2042,2063,1196
351,1710995007048117985,2068,2023,1972,2088,2019,2044,1194
352,1710995007058126285,2037,2069,2018,2067,2101,2069,1196
353,1710995007068123894,2067,2030,2022,2033,2002,2036,1192
354,1710995007078145901,2045,2085,2081,2068,2004,2059,1196
355,1710995007088119505,2066,2025,2049,2067,2040,2054,1196
356,1710995007098108188,2049,2090,2112,2078,2080,2067,1193
357,1710995007108113313,2064,2024,2028,2005,2050,2040,1192
358,1710995007118113437,2038,2116,2104,2024,2034,2057,1194
359,1710995007128113572,2072,2024,2004,2056,2051,2037,1193
360,1710995007138128054,2035,2077,2074,2085,2102,2073,1194
361,1710995007148116337,2067,2022,2047,2063,2033,2036,1192
362,1710995007158161707,2044,2094,2170,2000,2057,2068,1196
363,1710995007168115363,2068,2025,2024,2032,1980,2040,1193
364,1710995007178113294,2049,2084,2086,2055,2057,2066,1195
365,1710995007188113909,2063,2026,2009,1988,1979,2042,1192
366,1710995007198119234,2054,2105,2116,2057,2081,2076,1197
367,1710995007208100764,2068,2060,2065,2080,2051,2034,1194
368,1710995007218113132,2047,2096,2105,2080,2025,2065,1196
369,1710995007228112054,2059,2025,2041,2061,2029,2029,1193
370,1710995007238110506,2036,2076,2090,2046,2056,2056,1196
371,1710995007248116120,2070,2041,2081,2001,2025,2036,1193
372,1710995007258115344,2046,2093,2066,2028,2084,2060,1197
373,1710995007268113064,2067,2023,2036,2056,2047,2041,1192
374,1710995007278108670,2040,2074,2073,2056,2066,2065,1195
375,1710995007288114125,2064,1997,2017,2029,2052,2043,1192
376,1710995007298124289,2033,2059,2051,2116,2176,2077,1195
377,1710995007308113723,2075,2052,2144,2093,2041,2049,1195
378,1710995007318116253,2044,2094,2125,2058,2018,2064,1195
379,1710995007328113802,2064,2015,2005,2037,2033,2033,1194
380,1710995007338112143,2049,2097,2078,2086,2137,2086,1189
381,1710995007348141283,2064,2009,2013,2028,2024,2040,1193
382,1710995007358113225,2048,2110,2125,2069,2077,2076,1196
383,1710995007368114622,2053,2016,1977,2060,2088,2024,1191
384,1710995007378117512,2039,2090,2051,2056,2092,2066,1195
385,1710995007388113038,2053,2000,1979,2050,2042,2032,1192
386,1710995007398119635,2043,2082,2067,2000,2128,2063,1195
387,1710995007408116935,2063,2009,1995,2073,2021,2045,1192
388,1710995007418112390,2030,2081,2049,2058,2056,2064,1196
389,1710995007428109719,2066,2020,2010,2028,1995,2020,1193
390,1710995007438142116,2033,2077,2064,2042,2072,2068,1197
391,1710995007448133955,2072,2032,2042,2000,2036,2040,1193
392,1710995007458137677,2042,2080,2068,2093,2078,2069,1194
393,1710995007468118955,2083,2050,2136,2088,2033,2048,1195
394,1710995007478117998,2041,2088,2055,2073,2061,2072,1196
395,1710995007488118513,2064,2014,2008,2075,2011,2036,1193
396,1710995007498117095,2040,2083,2070,2053,2088,2076,1195
397,1710995007508108062,2066,2013,2000,2034,2026,2041,1190
398,1710995007518119639,2041,2090,2081,2064,2068,2065,1196
399,1710995007528113472,2078,2015,2000,2057,1991,2033,1192
400,1710995007538139265,2044,2099,2056,2047,2076,2072,1194
401,1710995007548125924,2066,2015,2013,2055,2058,2032,1193
402,1710995007558117523,2036,2084,2092,2075,2028,2049,1196
403,1710995007568112939,2064,2020,2060,2045,2043,2037,1192
404,1710995007578111150,2040,2078,2062,2082,2077,2054,1194
405,1710995007588112717,2069,2025,2008,2138,2032,2036,1192
406,1710995007598116188,2036,2073,2036,2094,2090,2068,1195
407,1710995007608114219,2060,2017,2024,2073,2081,2035,1192
408,1710995007618117811,2046,2095,2096,2091,2123,2084,1193
409,1710995007628120711,2070,2026,2044,2049,2002,2041,1193
410,1710995007638139661,2040,2092,2104,2075,2082,2065,1194
411,1710995007648132322,2065,2011,2001,2040,2060,2044,1193
412,1710995007658109343,2024,2084,2104,2016,2050,2059,1193
413,1710995007668117241,2068,2006,2004,2032,1956,2026,1192
414,1710995007678117647,2040,2080,2051,2061,2108,2076,1195
415,1710995007688111320,2068,2015,2058,2023,2018,2041,1193
416,1710995007698114490,2036,2080,2067,2060,2073,2062,1196
417,1710995007708113142,2069,2020,2021,2040,2044,2037,1192
418,1710995007718119759,2040,2093,2096,2052,2086,2064,1196
419,1710995007728124283,2073,2016,2044,2046,2045,2047,1193
420,1710995007738141850,2039,2084,2094,2085,2095,2072,1197
421,1710995007748123399,2071,2032,2045,2038,2028,2040,1191
422,1710995007758107563,2039,2085,2068,2033,2117,2078,1196
423,1710995007768119681,2068,2014,2030,2031,2082,2050,1194
424,1710995007778119826,2044,2059,2040,2069,2086,2070,1196
425,1710995007788121133,2064,2004,2026,2036,2042,2037,1192
426,1710995007798122210,2034,2078,2092,2060,2125,2070,1196
427,1710995007808123376,2062,2016,2020,2025,2050,2040,1193
428,1710995007818125796,2058,2120,2188,2144,2070,2080,1197
429,1710995007828118887,2064,2009,2006,2056,2024,2032,1191
430,1710995007838136405,2036,2071,2034,2104,2133,2088,1197
431,1710995007848132442,2065,2001,1953,2064,2057,2026,1194
432,1710995007858128509,2040,2087,2069,2050,2115,2069,1196
433,1710995007868128433,2068,2014,2016,2064,1976,2028,1192
434,1710995007878126755,2048,2100,2111,2098,2079,2076,1197
435,1710995007888123563,2068,2019,2021,2089,2015,2038,1192
436,1710995007898124269,2040,2080,2075,2073,2116,2083,1195
437,1710995007908106569,2064,2027,2052,2062,2052,2037,1192
438,1710995007918133255,2036,2076,2057,2085,2146,2075,1196
439,1710995007928128139,2074,2017,1998,2034,2042,2037,1192
440,1710995007938113366,2037,2082,2053,2044,2058,2064,1193
441,1710995007948121195,2069,2017,2013,2107,2016,2035,1191
442,1710995007958106852,2041,2100,2097,2073,2071,2066,1194
443,1710995007968115353,2072,2024,2120,2048,2028,2043,1194
444,1710995007978112593,2043,2100,2090,2051,2054,2070,1195
445,1710995007988113058,2064,2020,2025,2052,2006,2036,1192
446,1710995007998114265,2047,2116,2144,2073,2073,2069,1196
447,1710995008008076827,2065,2013,2005,2044,2024,2036,1191
448,1710995008018114764,2045,2112,2172,2085,2112,2076,1195
449,1710995008028115891,2068,2010,1995,2037,2015,2038,1192
450,1710995008038113360,2039,2078,2112,2061,2068,2065,1197
451,1710995008048151868,2096,2003,2008,2022,2021,2032,1194
452,1710995008058117056,2033,2085,2091,2050,2080,2061,1197
453,1710995008068116369,2064,2009,1968,2022,2000,2034,1192
454,1710995008078116864,2047,2100,2067,2077,2122,2078,1197
455,1710995008088117089,2060,2008,1983,2128,2064,2033,1192
456,1710995008098116331,2037,2081,2075,2064,2050,2066,1196
457,1710995008108120373,2062,2016,2033,2012,2026,2032,1192
458,1710995008118116470,2046,2090,2090,2054,2081,2075,1196
459,1710995008128118849,2067,2014,2025,2054,2017,2039,1193
460,1710995008138116639,2036,2083,2053,2061,2084,2078,1195
461,1710995008148169504,2072,2010,1994,2040,2040,2032,1192
462,1710995008158087582,2038,2091,2101,2074,2089,2069,1195
463,1710995008168107184,2068,2017,2002,2030,2018,2033,1192
464,1710995008178115414,2031,2075,2056,1996,2052,2064,1195
465,1710995008188114336,2072,2012,2019,2057,2033,2040,1192
466,1710995008198126133,2046,2133,2132,2103,2077,2074,1195
467,1710995008208118122,2072,2027,2041,2060,2092,2034,1193
468,1710995008218120010,2040,2097,2109,2112,2072,2070,1195
469,1710995008228117670,2070,2030,2047,2055,2011,2038,1191
470,1710995008238118486,2030,2086,2113,2057,2117,2066,1195
471,1710995008248169237,2072,2017,1993,2029,2013,2033,1192
472,1710995008258086924,2040,2096,2083,2057,2044,2068,1196
473,1710995008268108279,2067,1998,2053,1976,2002,2024,1191
474,1710995008278156716,2037,2068,2093,2061,2044,2059,1195
475,1710995008288114199,2068,2013,2086,2015,2029,2029,1192
476,1710995008298127509,2034,2088,2078,2068,2073,2072,1195
477,1710995008308113336,2071,2018,2013,2043,2032,2039,1192
478,1710995008318113210,2030,2096,2113,2084,2092,2070,1196
479,1710995008328177507,2060,2009,1992,2061,2096,2037,1193
480,1710995008338154557,2049,2112,2149,2111,2140,2081,1193
481,1710995008348158710,2076,2013,2014,2071,2014,2033,1192
482,1710995008358113097,2025,2104,2088,2047,2058,2063,1193
483,1710995008368155512,2069,2003,2016,2030,2052,2032,1193
484,1710995008378113165,2043,2095,2101,2042,2070,2069,1197
485,1710995008388152204,2057,2006,1960,2012,2018,2030,1193
486,1710995008398151978,2036,2088,2059,2072,2053,2064,1195
487,1710995008408106776,2062,1997,1969,2028,2010,2031,1193
488,1710995008418149722,2041,2120,2205,2136,2112,2076,1196
489,1710995008428147663,2072,2006,2009,2040,2013,2035,1194
490,1710995008438150032,2048,2109,2090,2074,2075,2077,1198
491,1710995008448170294,2072,2016,2075,2057,2019,2032,1194
492,1710995008458167053,2043,2122,2089,2062,2093,2059,1196
493,1710995008468145085,2072,2016,2003,2056,2062,2042,1192
494,1710995008478102628,2038,2112,2120,2054,2066,2064,1197
495,1710995008488143521,2072,2001,1988,2048,2069,2037,1194
496,1710995008498148514,2046,2098,2145,2067,2086,2076,1195
497,1710995008508151304,2068,2025,2057,2059,2100,2044,1193
498,1710995008518147060,2045,2092,2063,2060,2094,2073,1195
499,1710995008528148056,2070,2005,2020,2034,2037,2034,1192
500,1710995008538144464,2045,2101,2119,2054,2065,2066,1194
501,1710995008548145059,2069,2022,2081,2094,2081,2041,1192
502,1710995008558148981,2044,2101,2112,2107,2071,2078,1197
503,1710995008568149105,2076,2000,2001,2013,2026,2036,1192
504,1710995008578152797,2046,2095,2085,2073,2080,2073,1196
505,1710995008588150938,2066,1994,1962,2057,2019,2029,1193
506,1710995008598105074,2041,2087,2107,2062,2073,2067,1193
507,1710995008608142400,2080,2017,2033,2050,2029,2040,1194
508,1710995008618140981,2037,2108,2168,2070,2073,2068,1194
509,1710995008628142448,2064,1999,1997,2042,2030,2035,1192
510,1710995008638143605,2033,2093,2066,2060,2057,2072,1197
511,1710995008648137478,2072,1995,1993,2078,2091,2051,1194
512,1710995008658138343,2046,2130,2163,2092,2072,2075,1196
513,1710995008668136053,2057,1996,1982,2041,2027,2032,1193
514,1710995008678136689,2045,2105,2089,2058,2071,2073,1194
515,1710995008688138386,2066,2001,1992,2024,2030,2029,1193
516,1710995008698138030,2040,2112,2080,2051,2066,2064,1196
517,1710995008708144707,2076,2008,2025,2062,2041,2038,1192
518,1710995008718151605,2036,2091,2076,2080,2078,2072,1197
519,1710995008728142582,2073,2004,2002,2013,2004,2029,1192
520,1710995008738141975,2033,2102,2120,2066,2073,2068,1197
521,1710995008748136308,2067,2017,2040,2034,1971,2028,1193
522,1710995008758133086,2044,2104,2105,2044,2043,2059,1193
523,1710995008768136938,2076,2026,2043,2058,2022,2038,1194
524,1710995008778137183,2035,2084,2046,2080,2084,2068,1196
525,1710995008788138029,2072,1995,1963,2021,2029,2036,1194
526,1710995008798138804,2036,2098,2090,2056,2056,2066,1195
527,1710995008808139380,2060,2003,2009,2042,1972,2053,1194
528,1710995008818141378,2042,2090,2092,2085,2064,2066,1196
529,1710995008828145530,2060,2040,2013,2036,2029,2037,1194
530,1710995008838138331,2009,2100,2097,2085,2067,2064,1198
531,1710995008848137613,2075,1991,1951,2031,2024,2036,1193
532,1710995008858141475,2060,2094,2082,2025,2050,2060,1194
533,1710995008868141910,2079,2003,2000,2056,2070,2031,1192
534,1710995008878141514,2029,2090,2104,2072,2068,2061,1196
535,1710995008888152719,2066,2001,1977,2049,2069,2038,1193
536,1710995008898144328,2042,2095,2140,2082,2102,2078,1193
537,1710995008908146526,2080,2038,2100,2064,2074,2045,1193
538,1710995008918129278,2045,2094,2096,2080,2081,2073,1195
539,1710995008928132478,2069,2011,1986,2025,2037,2026,1190
540,1710995008938128835,2027,2094,2073,2061,2077,2067,1193
541,1710995008948128860,2064,2011,1998,2035,2020,2037,1194
542,1710995008958131128,2041,2092,2052,2060,2068,2073,1194
543,1710995008968127526,2066,2001,1961,2036,2002,2040,1192
544,1710995008978155854,2034,2071,2074,2042,2059,2059,1195
545,1710995008988134377,2070,2006,2012,2072,2013,2027,1193
546,1710995008998124433,2037,2096,2128,2077,2080,2068,1196
547,1710995009008124888,2072,2018,2024,2041,2025,2040,1192
548,1710995009018123960,2046,2101,2110,2064,2053,2069,1197
549,1710995009028151036,2071,2021,2037,2027,2008,2034,1193
550,1710995009038129269,2046,2113,2053,2088,2107,2074,1197
551,1710995009048126136,2068,2025,2001,2048,2035,2037,1191
552,1710995009058130739,2037,2107,2152,2088,2073,2064,1196
553,1710995009068127267,2072,2018,2026,2044,2041,2034,1192
554,1710995009078134765,2042,2106,2117,2065,2047,2069,1195
555,1710995009088137294,2059,2015,2057,2101,2069,2037,1191
556,1710995009098126698,2032,2084,2108,2065,2061,2064,1196
557,1710995009108125570,2068,2005,1985,2040,2021,2037,1192
558,1710995009118129702,2041,2077,2069,2050,2051,2060,1194
559,1710995009128124947,2066,2018,2138,2056,2026,2027,1194
560,1710995009138126414,2042,2080,2096,2082,2068,2071,1194
561,1710995009148121989,2058,2006,2016,1995,1996,2018,1192
562,1710995009158124458,2041,2090,2097,2073,2040,2069,1195
563,1710995009168124132,2065,2009,1996,2029,2030,2040,1193
564,1710995009178137732,2049,2100,2114,2066,2054,2063,1195
565,1710995009188157743,2066,2005,2034,2034,2018,2031,1193
566,1710995009198116589,2049,2104,2139,2072,2105,2078,1194
567,1710995009208126803,2088,2028,2024,2044,2052,2046,1192
568,1710995009218126587,2046,2089,2068,2053,2041,2053,1195
569,1710995009228126230,2061,1995,1992,2042,2021,2035,1192
570,1710995009238131825,2048,2105,2120,2112,2083,2074,1197
571,1710995009248120246,2061,2012,2038,2040,1997,2030,1192
572,1710995009258128777,2048,2102,2140,2068,2069,2068,1195
573,1710995009268125765,2064,2009,2012,2023,2006,2031,1193
574,1710995009278132272,2038,2104,2118,2034,2060,2068,1196
575,1710995009288154368,2066,2003,1987,2040,2029,2032,1192
576,1710995009298122241,2034,2109,2186,2064,2040,2066,1194
577,1710995009308118748,2063,2001,1989,2024,2042,2040,1195
578,1710995009318130805,2045,2092,2069,2053,2072,2068,1196
579,1710995009328121872,2064,1992,1946,2064,2037,2035,1191
580,1710995009338130663,2038,2081,2066,2098,2065,2067,1193
581,1710995009348127421,2072,2012,2048,2080,2045,2038,1191
582,1710995009358128266,2045,2093,2091,2052,2056,2068,1196
583,1710995009368120666,2076,2010,2010,2060,2051,2037,1192
584,1710995009378121061,2035,2074,2067,2094,2105,2074,1195
585,1710995009388129261,2068,2003,2003,2045,2035,2031,1191
586,1710995009398117733,2042,2086,2075,2049,2060,2064,1195
587,1710995009408118588,2076,2026,2047,2035,1992,2030,1193
588,1710995009418121528,2037,2082,2076,2076,2049,2072,1194
589,1710995009428135399,2072,2008,2010,2041,2028,2036,1192
590,1710995009438122408,2047,2121,2096,2070,2035,2064,1196
591,1710995009448136629,2068,2021,1994,2037,2022,2030,1195
592,1710995009458122616,2044,2084,2081,2064,2070,2064,1196
593,1710995009468122971,2065,2012,1992,2053,2064,2040,1193
594,1710995009478123747,2045,2084,2070,2068,2090,2072,1196
595,1710995009488134722,2072,2016,2052,2085,2020,2038,1194
596,1710995009498124206,2046,2092,2053,2041,2054,2070,1195
597,1710995009508127416,2068,2024,2041,2058,2089,2033,1191
598,1710995009518125757,2042,2126,2102,2060,2062,2065,1194
599,1710995009528146491,2076,2014,1968,2064,2027,2034,1193
600,1710995009538129022,2047,2100,2108,2056,2067,2068,1192
601,1710995009548121451,2069,2012,2016,2042,2025,2040,1192
602,1710995009558126856,2056,2105,2132,2070,2106,2078,1195
603,1710995009568121549,2065,2005,2043,2088,2080,2041,1193
604,1710995009578124098,2038,2078,2087,2061,2105,2066,1192
605,1710995009588124373,2061,2011,2026,2037,1993,2030,1190
606,1710995009598129096,2040,2101,2148,2083,2077,2068,1196
607,1710995009608123659,2066,1997,1980,2042,2019,2033,1190
608,1710995009618123453,2040,2085,2093,2088,2090,2063,1194
609,1710995009628126223,2065,2008,2013,2060,2038,2037,1191
610,1710995009638125055,2042,2093,2128,2104,2108,2068,1194
611,1710995009648122103,2073,2025,2026,2055,2001,2029,1192
612,1710995009658124472,2052,2080,2058,2052,2060,2075,1194
613,1710995009668125788,2090,2020,2056,2050,2020,2042,1192
614,1710995009678134048,2025,2102,2097,2097,2136,2066,1194
615,1710995009688165352,2060,2030,1992,2025,2022,2030,1192
616,1710995009698133646,2047,2098,2103,2064,2094,2067,1194
617,1710995009708128289,2076,2013,1988,2052,2036,2044,1191
618,1710995009718186584,2040,2088,2086,2089,2069,2067,1195
619,1710995009728135812,2068,2010,1999,2036,2056,2040,1191
620,1710995009738135856,2043,2093,2074,2056,2084,2067,1192
621,1710995009748126302,2068,2020,1980,2013,2014,2032,1193
622,1710995009758125074,2042,2071,2050,2070,2022,2054,1194
623,1710995009768125909,2064,2020,2038,2020,2037,2035,1192
624,1710995009778132816,2053,2068,2093,2067,2056,2068,1195
625,1710995009788202984,2057,1992,1995,2061,2068,2032,1192
626,1710995009798124459,2040,2076,2054,2080,2076,2064,1194
627,1710995009808128230,2060,2000,1989,2020,2012,2020,1192
628,1710995009818123215,2047,2082,2070,2076,2070,2068,1197
629,1710995009828126565,2072,2024,2018,2056,1986,2021,1192
630,1710995009838123453,2045,2085,2096,2073,2077,2067,1196
631,1710995009848126513,2068,2011,2014,2056,2047,2044,1192
632,1710995009858122229,2044,2085,2083,2058,2052,2061,1194
633,1710995009868122753,2066,2015,2002,2069,2020,2040,1193
634,1710995009878124190,2042,2084,2089,2041,2066,2053,1196
635,1710995009888122291,2065,2004,1987,2056,2037,2037,1192
636,1710995009898129158,2043,2083,2075,2112,2119,2077,1193
637,1710995009908130836,2066,2024,2011,2050,2042,2031,1192
638,1710995009918145588,2044,2077,2077,2048,2058,2062,1196
639,1710995009928126986,2065,2005,1986,2036,2028,2037,1191
640,1710995009938124055,2046,2087,2084,2098,2075,2066,1193
641,1710995009948124390,2072,2014,2018,2040,2031,2037,1191
642,1710995009958163769,2044,2090,2081,2056,2056,2061,1194
643,1710995009968123526,2064,2020,2041,2047,2018,2028,1193
644,1710995009978159388,2046,2064,2085,2064,2068,2068,1196
645,1710995009988164242,2065,1997,2000,2034,2031,2048,1194
646,1710995009998157924,2037,2073,2092,2049,2061,2065,1194
647,1710995010008122921,2068,2026,1987,2054,2086,2039,1193
648,1710995010018122764,2047,2082,2088,2059,2070,2066,1196
649,1710995010028166752,2066,2016,2008,2041,2036,2034,1193
650,1710995010038125407,2044,2073,2064,2073,1996,2066,1197
651,1710995010048159276,2064,2062,2043,2026,2026,2041,1193
652,1710995010058168187,2052,2107,2122,2038,2062,2070,1195
653,1710995010068168671,2072,2024,2047,2046,2026,2039,1194
654,1710995010078169317,2044,2084,2087,2080,2090,2072,1192
655,1710995010088196783,2070,2037,2106,2085,2037,2045,1192
656,1710995010098170045,2042,2088,2060,2100,2102,2060,1195
657,1710995010108168557,2062,2011,2011,2042,2043,2039,1192
658,1710995010118170254,2049,2089,2109,2052,2091,2074,1195
659,1710995010128172011,2066,2008,2020,2010,1995,2028,1191
660,1710995010138181173,2053,2076,2101,2049,2037,2064,1192
661,1710995010148171067,2061,2008,1992,2030,2020,2028,1192
662,1710995010158172043,2048,2100,2132,2069,2076,2073,1196
663,1710995010168172848,2065,2012,2013,2037,2033,2037,1192
664,1710995010178134819,2042,2076,2042,2060,2088,2072,1194
665,1710995010188202372,2067,2009,1986,2035,2031,2033,1192
666,1710995010198091274,2041,2088,2116,2066,2098,2068,1196
667,1710995010208147415,2066,2023,1973,2059,2081,2050,1193
668,1710995010218150124,2042,2081,2072,2086,2091,2064,1194
669,1710995010228150689,2069,2012,1982,2046,2031,2041,1191
670,1710995010238160712,2041,2082,2065,2057,2077,2065,1195
671,1710995010248146870,2066,2017,1997,2044,2010,2030,1192
672,1710995010258143707,2042,2080,2096,2053,2068,2069,1193
673,1710995010268144833,2061,2005,1973,1987,1988,2028,1192
674,1710995010278142162,2045,2079,2082,2075,2085,2069,1196
675,1710995010288142246,2070,2001,2016,2024,2009,2033,1192
676,1710995010298151828,2044,2084,2132,2069,2056,2069,1194
677,1710995010308145159,2068,2011,1995,2052,2029,2036,1193
678,1710995010318137849,2056,2129,2258,2086,2078,2068,1195
679,1710995010328139706,2064,1996,1981,2017,1985,2033,1192
680,1710995010338133328,2044,2085,2124,2074,2080,2068,1192
681,1710995010348135867,2068,2011,2008,2028,2036,2045,1191
682,1710995010358139828,2045,2096,2158,2068,2069,2072,1195
683,1710995010368136997,2073,2040,2005,2028,2024,2035,1193
684,1710995010378137482,2052,2112,2112,2084,2041,2076,1194
685,1710995010388137996,2058,2005,1998,2029,2029,2034,1192
686,1710995010398135225,2041,2096,2140,2072,2084,2062,1195
687,1710995010408136301,2070,2016,2021,2053,2036,2045,1192
688,1710995010418133139,2040,2084,2076,2057,2073,2066,1194
689,1710995010428132933,2068,2019,1960,2004,2021,2030,1192
690,1710995010438137865,2048,2094,2082,2049,2061,2064,1195
691,1710995010448140444,2061,2007,1997,2014,2006,2031,1194
692,1710995010458132994,2052,2112,2190,2077,2082,2072,1196
693,1710995010468132106,2067,2011,1981,2059,2048,2046,1195
694,1710995010478132912,2047,2084,2094,2078,2080,2065,1194
695,1710995010488152032,2058,1994,2004,2051,2068,2049,1197
696,1710995010498134372,2049,2083,2088,2068,2072,2075,1193
697,1710995010508133364,2068,2013,1988,2029,2028,2036,1191
698,1710995010518136333,2047,2086,2128,2020,2040,2062,1196
699,1710995010528131638,2063,2017,2010,2047,2046,2040,1191
700,1710995010538132654,2049,2086,2064,2067,2057,2065,1190
701,1710995010548140463,2073,2023,1992,2029,2009,2030,1192
702,1710995010558129406,2047,2100,2072,2056,2048,2061,1196
703,1710995010568127355,2072,2034,2042,2042,2031,2040,1193
704,1710995010578129844,2045,2073,2058,2050,2069,2062,1195
705,1710995010588128907,2068,2016,1984,2034,2033,2036,1193
706,1710995010598169748,2053,2111,2146,2072,2080,2072,1194
707,1710995010608128924,2068,2019,2016,2043,2037,2041,1194
708,1710995010618129068,2045,2086,2100,2078,2076,2064,1195
709,1710995010628126868,2058,1988,1967,2056,2042,2037,1192
710,1710995010638149735,2056,2067,2080,2056,2050,2068,1195
711,1710995010648123449,2060,2016,2000,2050,2046,2032,1193
712,1710995010658124916,2043,2078,2075,2092,2066,2072,1196
713,1710995010668127915,2066,2012,1994,2018,2028,2032,1192
714,1710995010678125825,2047,2087,2092,2042,2080,2066,1195
715,1710995010688207535,2076,2028,2059,2061,2038,2045,1192
716,1710995010698132185,2060,2097,2144,2090,2093,2076,1193
717,1710995010708120106,2065,2007,1991,2070,2024,2038,1192
718,1710995010718132894,2044,2074,2112,2059,2078,2057,1196
719,1710995010728152475,2064,2016,2020,2047,2028,2042,1192
720,1710995010738123153,2047,2080,2077,2028,2038,2062,1192
721,1710995010748178683,2068,2030,2035,2051,2049,2033,1192
722,1710995010758118452,2046,2078,2103,2070,2042,2052,1193
723,1710995010768117033,2070,2013,2017,2044,2024,2036,1191
724,1710995010778119511,2045,2056,2077,2028,2036,2054,1194
725,1710995010788119686,2050,2012,2015,2013,1992,2028,1193
726,1710995010798120211,2046,2079,2084,2056,2058,2064,1195
727,1710995010808115796,2057,2009,1980,2050,1998,2033,1189
728,1710995010818148022,2045,2090,2104,2090,2062,2060,1193
729,1710995010828114692,2064,2005,1961,2028,2001,2028,1192
730,1710995010838141817,2041,2069,2039,2056,2079,2062,1193
731,1710995010848124158,2055,2007,1976,2069,1982,2034,1192
732,1710995010858150000,2048,2078,2069,2040,2047,2064,1196
733,1710995010868113796,2066,2017,1989,2045,2037,2036,1192
734,1710995010878114000,2049,2115,2176,2056,2052,2061,1194
735,1710995010888113843,2068,2017,2033,2053,2054,2040,1194
736,1710995010898113427,2042,2076,2126,2053,2061,2064,1196
737,1710995010908147435,2056,2009,1995,2046,2027,2034,1192
738,1710995010918137300,2045,2083,2108,2073,2068,2068,1194
739,1710995010928123747,2069,2032,2094,2085,2072,2047,1192
740,1710995010938112971,2040,2066,2064,2053,2056,2062,1192
741,1710995010948121171,2059,2017,2004,2034,2030,2032,1191
742,1710995010958147374,2051,2083,2073,2072,2078,2069,1193
743,1710995010968154331,2064,2009,1989,2045,2045,2043,1191
744,1710995010978109800,2040,2079,2059,2065,2074,2068,1195
745,1710995010988113591,2062,2010,1967,2042,2089,2033,1194
746,1710995010998115519,2039,2075,2069,2065,2120,2070,1194
747,1710995011008159627,2062,2000,1993,2050,2036,2034,1190
748,1710995011018122279,2052,2101,2155,2077,2096,2069,1195
749,1710995011028115109,2056,2008,1997,2026,2027,2031,1190
750,1710995011038114833,2036,2077,2094,2038,2114,2064,1196
751,1710995011048116539,2077,2072,2107,2066,2019,2038,1192
752,1710995011058146981,2033,2075,2061,2058,2089,2066,1196
753,1710995011068141344,2065,2016,2008,2027,1982,2028,1193
754,1710995011078145886,2043,2085,2138,2087,2066,2069,1195
755,1710995011088147012,2066,2025,2004,2044,2038,2041,1192
756,1710995011098146033,2046,2074,2062,2046,2072,2067,1193
757,1710995011108149174,2078,2051,2067,2046,2051,2050,1195
758,1710995011118123478,2041,2080,2067,2050,2036,2051,1196
759,1710995011128147438,2064,2021,2017,2052,2049,2041,1192
760,1710995011138145287,2042,2077,2068,2081,2111,2068,1194
761,1710995011148159317,2066,2015,1986,2025,2052,2043,1193
762,1710995011158144944,2049,2090,2094,2044,2063,2071,1195
763,1710995011168144286,2049,2000,2010,2008,2017,2029,1193
764,1710995011178143248,2042,2072,2069,2056,2042,2064,1194
765,1710995011188142690,2066,2053,2020,2052,2036,2039,1192
766,1710995011198138075,2051,2094,2084,2080,2068,2063,1195
767,1710995011208130123,2065,2010,1990,2035,2017,2039,1191
768,1710995011218140136,2043,2083,2048,2054,2054,2062,1196
769,1710995011228149247,2058,2015,2000,2044,2022,2028,1190
770,1710995011238141005,2051,2100,2133,2076,2110,2077,1193
771,1710995011248143634,2059,2000,2032,2033,2037,2040,1193
772,1710995011258133017,2040,2069,2061,2056,2072,2061,1196
773,1710995011268140695,2067,2064,2113,2040,2050,2036,1192
774,1710995011278137723,2044,2091,2076,2083,2125,2076,1195
775,1710995011288138478,2072,2020,2027,2057,2045,2044,1194
776,1710995011298117562,2052,2095,2105,2074,2080,2064,1196
777,1710995011308121193,2065,2017,1998,2018,2040,2041,1192
778,1710995011318116829,2040,2077,2090,2042,2060,2057,1194
779,1710995011328149494,2072,2054,2190,2067,2041,2043,1191
780,1710995011338144809,2040,2075,2088,2031,2100,2062,1194
781,1710995011348120436,2069,2039,2050,2064,2046,2042,1191
782,1710995011358132232,2042,2092,2081,2048,2064,2058,1195
783,1710995011368119001,2064,2019,2041,2061,2037,2043,1192
784,1710995011378135936,2032,2072,2082,2068,2034,2061,1194
785,1710995011388148424,2058,2012,2010,2028,2003,2034,1193
786,1710995011398146143,2040,2077,2077,2085,2100,2063,1195
787,1710995011408135396,2058,2004,2005,2056,2032,2036,1192
788,1710995011418133557,2037,2083,2096,2069,2068,2060,1195
789,1710995011428122068,2054,2017,2001,2030,2004,2037,1193
790,1710995011438127022,2042,2074,2064,2051,2038,2060,1194
791,1710995011448178102,2067,2024,1992,2053,2046,2041,1193
792,1710995011458131447,2048,2098,2068,2073,2068,2064,1195
793,1710995011468134807,2062,2021,2004,2058,2031,2036,1192
794,1710995011478135372,2044,2075,2094,2050,2045,2064,1195
795,1710995011488135636,2065,2002,2032,2036,2018,2041,1193
796,1710995011498141330,2046,2102,2179,2045,2104,2064,1196
797,1710995011508140994,2060,2008,1993,2036,2015,2040,1191
798,1710995011518145926,2043,2084,2061,2044,2043,2062,1196
799,1710995011528131774,2060,2044,2100,2053,2017,2032,1191
800,1710995011538123391,2045,2088,2079,2069,2088,2064,1193
801,1710995011548156307,2070,2014,2000,2042,2050,2043,1192
802,1710995011558130281,2044,2081,2068,2039,2066,2077,1194
803,1710995011568141376,2064,2026,2035,2066,2070,2037,1193
804,1710995011578138755,2044,2101,2087,2126,2071,2060,1194
805,1710995011588126324,2062,2018,2009,2026,2046,2040,1193
806,1710995011598144343,2042,2088,2137,2054,2060,2064,1195
807,1710995011608132033,2064,2014,1988,2012,2033,2045,1193
808,1710995011618125635,2045,2081,2084,2057,2096,2064,1194
809,1710995011628132702,2065,2028,2040,2036,2032,2038,1192
810,1710995011638123507,2050,2077,2088,2078,2064,2073,1194
811,1710995011648134402,2065,2018,1983,2040,1998,2041,1193
812,1710995011658125168,2045,2075,2079,2065,2065,2064,1194
813,1710995011668124561,2063,2009,2004,2045,2036,2035,1193
814,1710995011678129854,2050,2094,2148,2112,2093,2069,1196
815,1710995011688129888,2065,2020,1997,2049,2052,2047,1192
816,1710995011698129160,2048,2086,2100,2064,2085,2061,1194
817,1710995011708126959,2066,2015,2020,2044,2030,2034,1190
818,1710995011718104821,2052,2073,2074,2077,2093,2066,1194
819,1710995011728127027,2061,2017,1993,2024,2030,2031,1193
820,1710995011738137862,2042,2068,2052,2069,2107,2070,1193
821,1710995011748126563,2057,2013,1976,2038,2056,2046,1190
822,1710995011758129632,2047,2084,2076,2044,2053,2064,1194
823,1710995011768131390,2061,2021,2008,2023,1992,2034,1189
824,1710995011778130291,2049,2082,2131,2037,2078,2063,1194
825,1710995011788129504,2061,2040,2062,2043,2013,2036,1192
826,1710995011798129978,2047,2082,2083,2066,2068,2066,1197
827,1710995011808130473,2062,2025,2019,2059,2036,2044,1193
828,1710995011818134294,2045,2081,2077,2085,2087,2068,1196
829,1710995011828130159,2059,1994,2008,2025,2028,2034,1192
830,1710995011838133219,2059,2089,2160,2138,2098,2065,1194
831,1710995011848134304,2065,2014,1997,2030,2038,2040,1192
832,1710995011858139739,2044,2088,2091,2032,2026,2049,1196
833,1710995011868134753,2056,2016,1998,2012,2038,2037,1194
834,1710995011878131140,2056,2091,2088,2081,2129,2082,1196
835,1710995011888134790,2068,2025,2032,2030,2026,2049,1193
836,1710995011898115967,2044,2072,2057,2053,2069,2065,1195
837,1710995011908135098,2068,2024,2028,2043,2034,2044,1193
838,1710995011918118981,2048,2092,2130,2090,2029,2069,1195
839,1710995011928138342,2065,2028,2005,2024,2004,2034,1193
840,1710995011938139387,2048,2088,2141,2074,2094,2069,1193
841,1710995011948139431,2063,2014,1998,2052,2040,2040,1192
842,1710995011958141428,2056,2103,2144,2031,2077,2069,1194
843,1710995011968120472,2058,2005,1970,2033,2022,2032,1191
844,1710995011978120636,2042,2073,2059,2056,2066,2058,1194
845,1710995011988116962,2064,2030,2045,2060,2039,2041,1191
846,1710995011998117588,2056,2101,2133,2041,2069,2068,1193
847,1710995012008118372,2062,2021,1995,2054,1998,2044,1191
848,1710995012018122764,2044,2076,2090,2052,2060,2062,1196
849,1710995012028118250,2064,2022,1972,2060,2064,2038,1193
850,1710995012038127511,2043,2066,2065,2047,2065,2068,1195
851,1710995012048127935,2067,2013,2021,2035,2040,2042,1192
852,1710995012058127196,2049,2087,2090,2074,2065,2062,1193
853,1710995012068116359,2069,2053,2088,2021,2033,2041,1191
854,1710995012078115251,2044,2082,2101,2073,2036,2060,1194
855,1710995012088114493,2061,2018,1999,2059,2039,2033,1192
856,1710995012098120046,2041,2078,2062,2064,2109,2069,1193
857,1710995012108117825,2067,2037,2041,2032,2017,2036,1192
858,1710995012118121196,2046,2072,2084,2069,2080,2068,1195
859,1710995012128126389,2067,2029,2034,2045,2028,2038,1192
860,1710995012138127424,2042,2073,2075,2060,2056,2060,1191
861,1710995012148120414,2064,2021,2009,2043,2033,2047,1190
862,1710995012158132481,2046,2084,2077,2091,2064,2060,1192
863,1710995012168120412,2060,2043,2072,2046,2033,2036,1192
864,1710995012178118411,2046,2078,2068,2048,2044,2060,1195
865,1710995012188114487,2056,2017,2021,2057,2034,2036,1190
866,1710995012198117316,2044,2077,2065,2060,2072,2061,1194
867,1710995012208115386,2066,2032,2004,2034,1999,2044,1192
868,1710995012218115389,2045,2081,2078,2050,2084,2072,1195
869,1710995012228126423,2069,2041,2029,2070,2044,2040,1192
870,1710995012238125475,2045,2078,2040,2084,2060,2060,1194
871,1710995012248115710,2056,2019,2016,2019,2049,2036,1195
872,1710995012258133868,2050,2086,2107,2089,2108,2072,1195
873,1710995012268111949,2056,2020,2024,2053,2045,2041,1193
874,1710995012278116651,2048,2079,2098,2064,2078,2064,1195
875,1710995012288116505,2056,2008,1917,2044,2036,2040,1191
876,1710995012298117020,2053,2088,2057,2072,2066,2072,1193
877,1710995012308121321,2065,2036,2088,2095,2084,2044,1193
878,1710995012318120533,2046,2074,2060,2056,2052,2058,1195
879,1710995012328108133,2056,2030,2037,2032,2047,2038,1194
880,1710995012338126632,2049,2069,2056,2076,2044,2060,1191
881,1710995012348116235,2064,2024,2006,2073,2064,2048,1196
882,1710995012358123943,2044,2073,2072,2068,2068,2068,1195
883,1710995012368110311,2059,2026,2063,2047,2040,2052,1194
884,1710995012378110174,2049,2081,2124,2047,2055,2062,1194
885,1710995012388115287,2060,2021,2002,2040,2052,2043,1192
886,1710995012398131992,2048,2093,2123,2118,2146,2074,1194
887,1710995012408119492,2056,2010,2046,2047,2020,2044,1190
888,1710995012418107773,2050,2085,2117,2075,2056,2067,1194
889,1710995012428122685,2065,2040,2035,2048,2028,2043,1193
890,1710995012438144520,2044,2068,2092,2058,2041,2056,1197
891,1710995012448116099,2059,2030,2006,2041,2027,2042,1193
892,1710995012458132504,2045,2080,2074,2069,2064,2062,1196
893,1710995012468126306,2066,2042,2038,2100,2090,2052,1193
894,1710995012478112913,2049,2073,2070,2074,2061,2073,1196
895,1710995012488114890,2061,2025,2005,2033,2046,2044,1192
896,1710995012498116207,2052,2077,2064,2056,2053,2064,1194
897,1710995012508165615,2064,2037,2072,2056,2019,2044,1191
898,1710995012518129589,2046,2094,2108,2072,2057,2056,1193
899,1710995012528117178,2057,2024,2008,2026,2036,2044,1193
900,1710995012538114768,2043,2074,2071,2071,2066,2058,1193
901,1710995012548109882,2067,2040,2080,2091,2040,2040,1191
902,1710995012558159881,2049,2073,2060,2066,2072,2064,1196
903,1710995012568124817,2060,2034,2045,2046,2033,2041,1192
904,1710995012578109391,2041,2074,2066,2073,2074,2066,1194
905,1710995012588113933,2061,2028,2037,2033,2064,2046,1194
906,1710995012598112103,2048,2069,2094,2082,2088,2068,1196
907,1710995012608126774,2070,2026,2050,2058,2052,2050,1195
908,1710995012618119013,2050,2072,2058,2030,2042,2058,1194
909,1710995012628112474,2069,2035,2037,2088,2061,2050,1196
910,1710995012638117928,2047,2084,2070,2056,2060,2054,1194
911,1710995012648118192,2063,2045,2070,2065,2057,2046,1193
912,1710995012658113596,2050,2094,2146,2128,2092,2064,1194
913,1710995012668122397,2062,2028,2014,2008,2047,2043,1191
914,1710995012678120677,2047,2108,2078,2076,2076,2065,1196
915,1710995012688122764,2058,2030,2007,2043,2057,2033,1193
916,1710995012698121866,2046,2057,2058,2035,2073,2058,1194
917,1710995012708122812,2060,2036,2034,2048,2047,2041,1193
918,1710995012718122494,2046,2074,2045,2071,2040,2054,1196
919,1710995012728392884,2064,2022,2009,2039,2040,2040,1190
920,1710995012738145134,2044,2077,2092,2057,2068,2066,1194
921,1710995012748136963,2061,2016,1976,2056,2060,2038,1192
922,1710995012758135954,2046,2075,2073,2051,2038,2060,1193
923,1710995012768185091,2061,2026,2054,2032,2032,2040,1193
924,1710995012778134748,2053,2074,2052,2095,2093,2069,1194
925,1710995012788122638,2066,2033,2050,2057,2047,2042,1190
926,1710995012798124876,2055,2101,2072,2070,2096,2080,1194
927,1710995012808132274,2066,2031,2032,2053,2038,2044,1193
928,1710995012818127668,2055,2106,2110,2101,2082,2068,1194
929,1710995012828173328,2056,2024,2005,2046,2072,2036,1191
930,1710995012838119871,2054,2088,2133,2064,2073,2068,1196
931,1710995012848128520,2063,2031,2025,2089,2053,2036,1192
932,1710995012858113705,2045,2068,2066,2029,2070,2064,1196
933,1710995012868141832,2050,2026,2017,2036,2014,2036,1192
934,1710995012878130114,2048,2066,2044,2066,2036,2060,1195
935,1710995012888130318,2061,2021,1994,2037,2034,2042,1193
936,1710995012898127275,2045,2074,2070,2069,2104,2064,1197
937,1710995012908111027,2056,2020,2014,2032,2028,2032,1192
938,1710995012918109358,2050,2080,2130,2104,2028,2058,1194
939,1710995012928157563,2064,2045,2047,2046,2047,2038,1193
940,1710995012938124453,2041,2072,2050,2078,2086,2064,1192
941,1710995012948120709,2063,2008,1990,2045,2054,2042,1192
942,1710995012958112969,2039,2072,2050,2062,2072,2062,1195
943,1710995012968113443,2060,2024,2004,2034,2041,2040,1193
944,1710995012978156919,2045,2077,2088,2062,2073,2054,1194
945,1710995012988112477,2056,2037,2021,2018,2033,2036,1190
946,1710995012998111348,2052,2072,2164,2063,2077,2067,1193
947,1710995013008112926,2049,1997,1992,2030,2001,2036,1192
948,1710995013018113240,2047,2074,2066,2067,2061,2070,1196
949,1710995013028132910,2064,2032,2043,2008,2016,2038,1194
950,1710995013038115901,2052,2078,2040,2033,2047,2065,1193
951,1710995013048124070,2058,2015,1996,2057,2021,2040,1192
952,1710995013058121748,2046,2074,2096,2040,2068,2069,1195
953,1710995013068114337,2064,2037,2058,2056,2045,2049,1196
954,1710995013078120222,2047,2088,2082,2080,2049,2061,1196
955,1710995013088105978,2064,2028,2011,2053,2037,2038,1192
956,1710995013098107774,2050,2078,2076,2084,2085,2072,1197
957,1710995013108109832,2054,2010,1992,2066,2027,2036,1190
958,1710995013118108652,2050,2085,2088,2066,2069,2070,1196
959,1710995013128111651,2061,2024,2032,2050,2038,2042,1192
960,1710995013138131543,2046,2080,2142,2080,2080,2065,1192
961,1710995013148118521,2062,2002,1981,2065,2051,2045,1194
962,1710995013158113294,2050,2089,2108,2043,2075,2071,1194
963,1710995013168113698,2062,2025,2004,2040,2040,2043,1191
964,1710995013178126806,2052,2074,2078,1990,2083,2069,1197
965,1710995013188117281,2064,2028,2021,2047,2027,2028,1189
966,1710995013198115803,2046,2089,2136,2089,2089,2070,1196
967,1710995013208115375,2069,2054,2086,2065,1984,2046,1190
968,1710995013218111901,2044,2072,2057,2066,2075,2065,1193
969,1710995013228110302,2061,2069,2074,2024,2032,2042,1191
970,1710995013238124041,2056,2080,2064,2060,2062,2061,1196
971,1710995013248111961,2061,2012,2005,2023,2011,2040,1192
972,1710995013258113507,2056,2081,2089,2070,2070,2068,1192
973,1710995013268107699,2061,2025,1989,2049,2018,2042,1190
974,1710995013278116860,2052,2083,2112,2006,2042,2067,1192
975,1710995013288112695,2056,2026,2008,2042,2058,2046,1193
976,1710995013298110544,2052,2074,2087,2101,2072,2058,1194
977,1710995013308112882,2060,2030,2020,2052,2034,2038,1193
978,1710995013318110961,2057,2076,2100,2084,2083,2072,1196
979,1710995013328111496,2062,2005,1988,2029,2006,2038,1193
980,1710995013338113673,2046,2080,2084,2072,2068,2061,1193
981,1710995013348110720,2064,2028,1995,2050,2028,2040,1192
982,1710995013358114340,2049,2077,2090,2076,2112,2077,1197
983,1710995013368113863,2064,2027,2017,2034,2048,2040,1192
984,1710995013378116771,2046,2085,2088,2019,2060,2061,1193
985,1710995013388167411,2052,2004,1940,2026,2029,2029,1193
986,1710995013398115806,2033,2064,2011,2071,2026,2053,1195
987,1710995013408120999,2063,2020,1962,2028,2015,2041,1191
988,1710995013418115984,2047,2074,2076,2048,2067,2061,1193
989,1710995013428107631,2053,2012,2025,2026,2038,2045,1193
990,1710995013438113596,2053,2104,2077,2056,2056,2065,1195
991,1710995013448118859,2064,2018,1993,2054,2033,2038,1193
992,1710995013458126807,2041,2066,2032,2050,2041,2057,1195
993,1710995013468110800,2061,2029,2011,2078,2060,2045,1192
994,1710995013478111544,2048,2080,2076,2076,2073,2065,1194
995,1710995013488126556,2060,2025,1986,2027,2028,2037,1192
996,1710995013498133062,2049,2094,2143,2077,2062,2062,1197
997,1710995013508109991,2069,2038,2030,2091,2061,2044,1192
998,1710995013518109683,2049,2075,2080,2076,2090,2072,1195
999,1710995013528106721,2061,2023,2007,2054,2008,2039,1192
1000,1710995013538155808,2059,2077,2124,2061,2071,2073,1192
1001,1710995013548121105,2052,2025,2027,2031,2040,2039,1191
1002,1710995013558116469,2049,2084,2082,2048,2081,2064,1194
1003,1710995013568114338,2069,2058,2089,2095,2106,2048,1193
1004,1710995013578113900,2041,2073,2060,2076,2052,2064,1197
1005,1710995013588141867,2059,2017,2000,2053,2026,2036,1192
1006,1710995013598135919,2047,2063,2075,2078,2099,2066,1194
1007,1710995013608107878,2056,2005,2000,2032,2038,2040,1193
1008,1710995013618108282,2044,2076,2133,2037,2082,2069,1196
1009,1710995013628106282,2064,2024,2004,2048,2031,2037,1193
1010,1710995013638129951,2056,2095,2140,2076,2071,2079,1197
1011,1710995013648135966,2059,2034,2046,2039,2040,2042,1194
1012,1710995013658120229,2046,2069,2056,2065,2078,2072,1197
1013,1710995013668102869,2064,2018,2004,2046,2015,2024,1191
1014,1710995013678107551,2050,2082,2092,2060,2053,2064,1196
1015,1710995013688104408,2065,2040,2112,2068,2036,2043,1192
1016,1710995013698119029,2039,2080,2042,2097,2072,2065,1194
1017,1710995013708119794,2064,2017,1969,2042,2027,2046,1190
1018,1710995013718111121,2043,2063,2050,2078,2062,2065,1195
1019,1710995013728109040,2069,2030,2037,2046,1995,2043,1193
1020,1710995013738121326,2041,2069,2053,2057,2086,2058,1191
1021,1710995013748123824,2059,2012,1998,2017,2052,2036,1193
1022,1710995013758110903,2044,2072,2072,2040,2045,2068,1195
1023,1710995013768106357,2058,2032,1967,1977,1991,2030,1192
1024,1710995013778111320,2058,2112,2166,2064,2049,2066,1195
1025,1710995013788104901,2068,2028,2041,2022,2028,2044,1192
1026,1710995013798105395,2054,2096,2152,2072,2064,2075,1195
1027,1710995013808122250,2062,2032,2029,2044,2047,2041,1191
1028,1710995013818119057,2042,2088,2101,2065,2064,2068,1194
1029,1710995013828109522,2056,2009,1987,2036,2035,2038,1192
1030,1710995013838127410,2052,2085,2057,2074,2072,2053,1194
1031,1710995013848146951,2051,2027,1996,2058,2036,2037,1192
1032,1710995013858121857,2051,2090,2088,2102,2078,2065,1193
1033,1710995013868109917,2059,2028,2039,2016,2047,2035,1192
1034,1710995013878113156,2047,2077,2088,2046,2030,2067,1194
1035,1710995013888113751,2065,2032,2047,2060,2060,2039,1192
1036,1710995013898114766,2037,2088,2122,2065,2081,2068,1196
1037,1710995013908121362,2057,2006,1957,2029,2038,2038,1192
1038,1710995013918123419,2037,2069,2054,2064,2024,2059,1197
1039,1710995013928118332,2065,2032,2004,2040,2024,2042,1193
1040,1710995013938116642,2041,2071,2088,2036,2092,2069,1193
1041,1710995013948140831,2066,2028,2008,2034,2052,2043,1192
1042,1710995013958121217,2048,2120,2174,2082,2088,2073,1195
1043,1710995013968119477,2062,2036,2026,2066,2036,2038,1192
1044,1710995013978115322,2044,2087,2072,2068,2065,2073,1194
1045,1710995013988111538,2066,2024,1977,2034,2034,2039,1197
1046,1710995013998112533,2048,2078,2054,2079,2074,2066,1193
1047,1710995014008108618,2067,2013,1995,2053,2061,2042,1190
1048,1710995014018113781,2042,2093,2102,2058,2077,2073,1196
1049,1710995014028114075,2062,2032,2075,2043,2033,2038,1191
1050,1710995014038114418,2044,2089,2098,2064,2060,2065,1197
1051,1710995014048117037,2068,2023,2006,2044,2030,2039,1194
1052,1710995014058124233,2045,2080,2095,2084,2140,2076,1196
1053,1710995014068079500,2064,2027,2024,2036,2050,2044,1193
1054,1710995014078120231,2045,2078,2068,2053,2075,2070,1193
1055,1710995014088117739,2056,2017,1995,2032,2025,2032,1193
1056,1710995014098151577,2047,2092,2173,2056,2069,2074,1193
1057,1710995014108121804,2058,1983,1964,2036,2028,2034,1192
1058,1710995014118118971,2036,2066,2087,2060,2072,2064,1195
1059,1710995014128119335,2068,2021,2017,2041,2038,2033,1192
1060,1710995014138119498,2049,2084,2072,2044,2077,2066,1194
1061,1710995014148154277,2060,2026,2013,2066,2033,2036,1192
1062,1710995014158120917,2045,2090,2112,2090,2078,2065,1194
1063,1710995014168124346,2064,2015,1966,2031,1999,2037,1192
1064,1710995014178122105,2047,2085,2058,2057,2117,2066,1196
1065,1710995014188124282,2068,2021,2005,2066,2053,2049,1193
1066,1710995014198129174,2048,2077,2059,2074,2049,2066,1193
1067,1710995014208122524,2064,2037,2050,2046,2027,2037,1192
1068,1710995014218124111,2038,2087,2064,2036,2060,2058,1195
1069,1710995014228124384,2062,2031,2036,2047,2026,2038,1193
1070,1710995014238125059,2044,2086,2074,2052,2072,2064,1195
1071,1710995014248129721,2055,2012,1978,2036,2024,2035,1194
1072,1710995014258129243,2047,2088,2096,2066,2084,2067,1196
1073,1710995014268127963,2062,2047,2013,2040,2010,2032,1192
1074,1710995014278128817,2041,2088,2133,2066,2032,2054,1195
1075,1710995014288112770,2071,2040,2042,2127,2088,2054,1194
1076,1710995014298114326,2040,2077,2082,2071,2082,2069,1195
1077,1710995014308136331,2065,2028,2047,2120,2029,2036,1192
1078,1710995014318128459,2047,2081,2077,2064,2072,2063,1197
1079,1710995014328110188,2067,2020,2004,2034,2025,2042,1192
1080,1710995014338112785,2045,2077,2086,2068,2084,2067,1194
1081,1710995014348152253,2073,2084,2115,2044,2034,2040,1193
1082,1710995014358140564,2049,2081,2054,2071,2069,2074,1195
1083,1710995014368108316,2068,2029,2042,2058,2000,2040,1194
1084,1710995014378111455,2052,2107,2188,2093,2110,2082,1195
1085,1710995014388107380,2064,2020,1993,2064,2024,2038,1193
1086,1710995014398163751,2046,2085,2089,2056,2054,2061,1195
1087,1710995014408135390,2062,2017,2012,2036,2024,2034,1194
1088,1710995014418113871,2058,2122,2236,2104,2107,2077,1196
1089,1710995014428109826,2064,2021,1984,2032,2021,2033,1192
1090,1710995014438116753,2040,2056,2058,2031,2076,2067,1195
1091,1710995014448143477,2061,2030,2077,2040,2041,2037,1193
1092,1710995014458115978,2045,2079,2092,2052,2060,2064,1194
1093,1710995014468123746,2066,2025,2029,2060,2036,2042,1192
1094,1710995014478119600,2052,2096,2090,2053,2034,2074,1198
1095,1710995014488112309,2066,2028,2010,2036,1989,2045,1192
1096,1710995014498111501,2053,2088,2089,2057,2069,2064,1196
1097,1710995014508118617,2065,2013,1987,2040,2020,2044,1192
1098,1710995014518114473,2040,2075,2086,2085,2074,2068,1193
1099,1710995014528109336,2065,2028,2137,2077,2040,2040,1191
1100,1710995014538111984,2045,2067,2088,2074,2074,2066,1192
1101,1710995014548126554,2057,2011,2004,2030,2072,2041,1192
1102,1710995014558116548,2049,2088,2096,2050,2065,2062,1197
1103,1710995014568119858,2068,2028,2024,2049,2025,2045,1192
1104,1710995014578111585,2045,2084,2078,2040,2064,2060,1193
1105,1710995014588109454,2067,2049,2065,2043,2040,2036,1192
1106,1710995014598146378,2046,2101,2219,2100,2081,2074,1193
1107,1710995014608128777,2060,2046,2029,2068,2042,2037,1192
1108,1710995014618124071,2052,2080,2055,2054,2066,2069,1194
1109,1710995014628116950,2065,2021,2018,2063,2058,2040,1193
1110,1710995014638117514,2047,2076,2108,2062,2074,2065,1196
1111,1710995014648114893,2058,2018,2006,2027,2043,2038,1192
1112,1710995014658124524,2050,2088,2117,2046,2076,2069,1196
1113,1710995014668110831,2068,2045,2017,2039,2047,2036,1192
1114,1710995014678111696,2044,2084,2064,2084,2084,2067,1196
1115,1710995014688105546,2060,2024,1991,2064,2030,2034,1193
1116,1710995014698108986,2045,2088,2095,2057,2105,2074,1196
1117,1710995014708119259,2066,2024,2001,2056,2069,2044,1191
1118,1710995014718119893,2042,2068,2060,2064,2072,2064,1195
1119,1710995014728110418,2068,2034,2040,2054,2040,2036,1191
1120,1710995014738110101,2048,2083,2108,2068,2066,2064,1195
1121,1710995014748130683,2058,2028,2010,2049,2013,2033,1193
1122,1710995014758123602,2049,2068,2094,2086,2088,2072,1195
1123,1710995014768109598,2060,2008,2021,2096,2076,2039,1193
1124,1710995014778112457,2040,2067,2043,2049,2046,2062,1193
1125,1710995014788115225,2052,2010,1972,2065,2018,2030,1191
1126,1710995014798113345,2042,2080,2065,2075,2048,2067,1195
1127,1710995014808120592,2059,2004,1978,2065,2036,2032,1190
1128,1710995014818117840,2045,2089,2088,2083,2096,2064,1196
1129,1710995014828114405,2059,2013,1964,2016,2036,2035,1193
1130,1710995014838111824,2049,2073,2150,2072,2063,2069,1196
1131,1710995014848124200,2062,2004,1999,2037,2034,2040,1193
1132,1710995014858143320,2040,2084,2132,2090,2138,2082,1196
1133,1710995014868139035,2060,2022,1992,2049,2040,2034,1192
1134,1710995014878126123,2048,2081,2098,2081,2088,2069,1194
1135,1710995014888123061,2057,2010,1961,2015,1986,2034,1193
1136,1710995014898116701,2040,2064,2057,2020,2005,2044,1192
1137,1710995014908133556,2066,2016,2024,2037,2019,2037,1193
1138,1710995014918115044,2044,2065,2110,2093,2080,2073,1193
1139,1710995014928120397,2064,2008,2008,2066,2056,2034,1192
1140,1710995014938114339,2046,2095,2131,2046,2059,2066,1196
1141,1710995014948125734,2067,2024,2051,2051,2041,2047,1192
1142,1710995014958128943,2045,2088,2077,2060,2082,2066,1196
1143,1710995014968113706,2047,2008,2004,2032,2031,2033,1192
1144,1710995014978117597,2042,2078,2096,2054,2040,2063,1194
1145,1710995014988111979,2062,2036,1981,2036,2032,2035,1193
1146,1710995014998117843,2048,2095,2136,2059,2043,2062,1197
1147,1710995015008117716,2067,2032,1997,2057,2041,2045,1193
1148,1710995015018114763,2052,2096,2096,2060,2082,2068,1195
1149,1710995015028111159,2062,2010,1979,2064,2013,2037,1192
1150,1710995015038113036,2042,2076,2086,2113,2148,2069,1196
1151,1710995015048117628,2064,2017,1996,2045,2039,2036,1192
1152,1710995015058116608,2045,2077,2066,2038,2074,2066,1195
1153,1710995015068120689,2059,2016,1965,2017,2026,2040,1193
1154,1710995015078118527,2040,2108,2081,2060,2057,2060,1195
1155,1710995015088117187,2064,2018,1998,2029,2010,2035,1192
1156,1710995015098118653,2041,2079,2082,2086,2062,2068,1193
1157,1710995015108107395,2058,1995,1950,1970,2027,2032,1192
1158,1710995015118114010,2037,2072,2080,2065,2068,2064,1194
1159,1710995015128117870,2061,2020,2015,2084,2090,2043,1192
1160,1710995015138115950,2044,2078,2085,2052,2064,2067,1193
1161,1710995015148130269,2064,2028,2029,2064,2039,2041,1191
1162,1710995015158116646,2045,2082,2040,2068,2072,2066,1194
1163,1710995015168120817,2062,2015,1992,2045,2040,2037,1192
1164,1710995015178120910,2041,2072,2074,2056,2061,2066,1194
1165,1710995015188120672,2064,2024,1984,2049,2021,2038,1192
1166,1710995015198134953,2024,2072,2083,2075,2073,2050,1194
1167,1710995015208110057,2062,2017,2002,2050,2040,2040,1192
1168,1710995015218118026,2044,2088,2082,2089,2112,2075,1195
1169,1710995015228121084,2061,2014,1970,2040,2043,2031,1192
1170,1710995015238139973,2048,2106,2182,2076,2077,2072,1196
1171,1710995015248125007,2066,2014,2037,2046,2021,2040,1193
1172,1710995015258113058,2044,2075,2076,2086,2067,2064,1194
1173,1710995015268125554,2060,2015,1993,2068,2110,2046,1193
1174,1710995015278127100,2048,2084,2066,2053,2072,2065,1195
1175,1710995015288127213,2064,2008,1974,2059,2026,2036,1193
1176,1710995015298127336,2048,2093,2115,2030,2060,2070,1192
1177,1710995015308140474,2059,2028,2002,2056,2027,2038,1192
1178,1710995015318131360,2046,2091,2098,2062,2059,2069,1194
1179,1710995015328132554,2068,2029,2090,2049,2032,2042,1193
1180,1710995015338127417,2041,2064,2084,2068,2065,2066,1193
1181,1710995015348139313,2056,1998,1964,2060,2070,2045,1192
1182,1710995015358127142,2053,2104,2194,2088,2074,2065,1193
1183,1710995015368116685,2049,2011,2018,2068,2063,2036,1193
1184,1710995015378112330,2048,2084,2091,2050,2073,2072,1196
1185,1710995015388112943,2060,2025,1996,2041,2051,2040,1192
1186,1710995015398113147,2041,2078,2091,2075,2084,2059,1193
1187,1710995015408119241,2062,2021,2007,2023,2027,2036,1192
1188,1710995015418114144,2047,2090,2180,2109,2080,2064,1194
1189,1710995015428115680,2072,2044,2118,2080,2047,2042,1193
1190,1710995015438129670,2051,2107,2096,2059,2070,2065,1193
1191,1710995015448146785,2065,2020,1992,2036,2047,2044,1191
1192,1710995015458140806,2053,2088,2097,2088,2060,2068,1195
1193,1710995015468110962,2065,2027,1989,2072,2021,2035,1192
1194,1710995015478108861,2045,2068,2032,2134,2082,2065,1192
1195,1710995015488109755,2058,2010,1978,2074,2076,2056,1195
1196,1710995015498138193,2045,2078,2082,2075,2068,2061,1195
1197,1710995015508108899,2047,2011,1987,2025,2029,2035,1191
1198,1710995015518111317,2053,2081,2069,2074,2130,2077,1195
1199,1710995015528107012,2067,2024,2027,2074,2051,2048,1194
1200,1710995015538116071,2040,2068,2070,2064,2046,2055,1190
1201,1710995015548906844,2058,2012,1985,2056,2084,2048,1192
1202,1710995015558129523,2047,2084,2094,2128,2090,2072,1195
1203,1710995015568135156,2061,2032,2030,2051,2041,2039,1190
1204,1710995015578128426,2042,2070,2068,2061,2109,2065,1194
1205,1710995015588159949,2061,2023,2012,2045,2039,2044,1192
1206,1710995015598175281,2048,2078,2070,2080,2056,2065,1195
1207,1710995015608129707,2065,2026,2098,2061,2019,2041,1191
1208,1710995015618117417,2041,2090,2184,2060,2018,2045,1192
1209,1710995015628117990,2064,2027,2016,2044,2025,2036,1192
1210,1710995015638124015,2043,2074,2074,2050,2032,2060,1195
1211,1710995015648135990,2056,2016,1984,2052,2023,2036,1194
1212,1710995015658126675,2040,2089,2107,2121,2108,2065,1193
1213,1710995015668115908,2056,2020,2022,2064,2042,2037,1191
1214,1710995015678115911,2048,2082,2144,2096,2068,2064,1194
1215,1710995015688139127,2061,2025,2017,2033,2042,2045,1192
1216,1710995015698133449,2044,2088,2079,2064,2060,2065,1196
1217,1710995015708132831,2064,2037,2093,2061,2026,2042,1193
1218,1710995015718121412,2052,2096,2104,2087,2014,2062,1195
1219,1710995015728122156,2060,2036,2069,2049,2041,2041,1193
1220,1710995015738126478,2050,2084,2112,2052,2088,2062,1194
1221,1710995015748128684,2069,2024,2005,1976,2020,2043,1191
1222,1710995015758132034,2041,2069,2092,2072,2069,2058,1194
1223,1710995015768145282,2056,2022,2008,2065,2026,2046,1194
1224,1710995015778121749,2048,2076,2078,2060,2032,2064,1195
1225,1710995015788122053,2068,2065,2145,2086,2118,2060,1195
1226,1710995015798125422,2052,2072,2106,2083,2072,2068,1197
1227,1710995015808122238,2059,2021,2050,2072,2072,2041,1193
1228,1710995015818126510,2054,2081,2117,2086,2076,2060,1195
1229,1710995015828128326,2057,2020,1990,2032,2040,2046,1193
1230,1710995015838132937,2053,2092,2162,2064,2093,2069,1195
1231,1710995015848132299,2060,2032,2012,2067,2032,2045,1194
1232,1710995015858119668,2044,2084,2096,2052,2050,2064,1195
1233,1710995015868112757,2068,2036,2013,2079,2069,2052,1196
1234,1710995015878110105,2045,2069,2075,2037,2057,2064,1194
1235,1710995015888111431,2056,2052,1994,2011,2032,2047,1191
1236,1710995015898130499,2050,2090,2091,2083,2109,2068,1194
1237,1710995015908116165,2057,2026,2000,2011,2064,2043,1193
1238,1710995015918114876,2050,2093,2117,2072,2101,2064,1196
1239,1710995015928114688,2063,2040,2058,2041,2065,2051,1196
1240,1710995015938114871,2056,2109,2192,2068,2053,2053,1195
1241,1710995015948142547,2051,2013,2000,2026,2028,2034,1192
1242,1710995015958112181,2052,2055,2068,2086,2088,2065,1195
1243,1710995015968126953,2056,2018,1981,2034,2037,2040,1193
1244,1710995015978124701,2054,2074,2080,2088,2058,2059,1197
1245,1710995015988129563,2063,2045,2053,2068,2068,2050,1195
1246,1710995015998128734,2049,2084,2092,2105,2046,2054,1195
1247,1710995016008118387,2052,2034,2033,2068,2037,2043,1192
1248,1710995016018118660,2052,2090,2091,2066,2072,2060,1194
1249,1710995016028120026,2052,2042,2044,2033,2022,2040,1191
1250,1710995016038118205,2051,2083,2072,2047,2037,2049,1196
1251,1710995016048161170,2061,2040,2020,2057,2084,2049,1194
1252,1710995016058113741,2052,2073,2108,2048,2033,2058,1194
1253,1710995016068123071,2058,2025,2029,2052,1988,2037,1190
1254,1710995016078121892,2054,2068,2064,2049,2049,2057,1197
1255,1710995016088119830,2061,2041,2045,2061,2046,2048,1196
1256,1710995016098147697,2053,2068,2057,2101,2048,2058,1195
1257,1710995016108112151,2058,2034,2023,2080,2081,2055,1196
1258,1710995016118125860,2056,2097,2109,2053,2038,2049,1194
1259,1710995016128125431,2048,2034,2070,2067,2045,2040,1192
1260,1710995016138127078,2050,2072,2076,2056,2055,2056,1194
1261,1710995016148234144,2052,2030,2018,2040,2030,2047,1192
1262,1710995016158116212,2052,2064,2064,2045,2091,2057,1196
1263,1710995016168115803,2059,2041,2018,2032,2044,2050,1194
1264,1710995016178122590,2055,2085,2126,2068,2038,2056,1191
1265,1710995016188119967,2056,2032,2023,2070,2089,2054,1195
1266,1710995016198151330,2044,2047,2067,2059,2066,2056,1194
1267,1710995016208120353,2057,2044,2024,2043,2041,2052,1193
1268,1710995016218124414,2052,2082,2092,2004,2050,2045,1193
1269,1710995016228124175,2065,2056,2085,2085,2052,2047,1192
1270,1710995016238133196,2062,2088,2116,2065,2072,2057,1195
1271,1710995016248137015,2062,2044,2024,2031,2029,2056,1196
1272,1710995016258121678,2061,2072,2094,2038,2038,2060,1194
1273,1710995016268115569,2056,2056,2092,2035,2042,2050,1195
1274,1710995016278122715,2044,2040,2018,2032,2064,2056,1196
1275,1710995016288127888,2060,2040,2007,1995,2038,2045,1192
1276,1710995016298139362,2053,2069,2068,2050,2048,2051,1194
1277,1710995016308127653,2056,2042,2063,2067,2083,2047,1193
1278,1710995016318127224,2056,2060,2054,2063,2099,2053,1193
1279,1710995016328123510,2053,2036,2008,2056,2043,2047,1192
1280,1710995016338135816,2049,2055,2041,2056,2064,2054,1194
1281,1710995016348140407,2069,2056,2070,2057,2077,2059,1193
1282,1710995016358119319,2052,2040,2034,2057,2041,2059,1195
1283,1710995016368126165,2054,2019,2000,2040,2068,2052,1196
1284,1710995016378125797,2051,2059,2056,2053,2038,2052,1195
1285,1710995016388129517,2052,2038,2025,2036,2038,2043,1193
1286,1710995016398136873,2064,2067,2082,2059,2052,2060,1194
1287,1710995016408126557,2061,2047,2046,2090,2082,2056,1196
1288,1710995016418122421,2058,2073,2087,2062,2073,2061,1197
1289,1710995016428122574,2056,2040,2049,2071,2047,2048,1196
1290,1710995016438124209,2041,2040,2043,2084,2071,2052,1196
1291,1710995016448140734,2056,2036,2030,2050,2061,2052,1194
1292,1710995016458130366,2052,2058,2072,2065,2095,2058,1198
1293,1710995016468117184,2060,2040,2040,2041,2033,2047,1192
1294,1710995016478117888,2047,2047,2079,2057,2063,2056,1194
1295,1710995016488120406,2050,2044,2005,2072,2028,2043,1192
1296,1710995016498113845,2055,2047,2040,2057,2050,2050,1195
1297,1710995016508115161,2051,2022,2008,2039,2089,2047,1191
1298,1710995016518114983,2063,2072,2112,2052,2098,2062,1193
1299,1710995016528115557,2054,2051,2045,2021,2055,2053,1194
1300,1710995016538145136,2056,2062,2079,2072,2038,2046,1190
1301,1710995016548113467,2052,2038,2029,2030,2026,2035,1189
1302,1710995016558118861,2044,2062,2097,2062,2037,2051,1194
1303,1710995016568117540,2054,2033,2010,2031,2053,2049,1195
1304,1710995016578118064,2056,2067,2059,2052,2032,2051,1194
1305,1710995016588123547,2054,2031,2032,2048,2042,2047,1193
1306,1710995016598118931,2068,2056,2040,2130,2072,2059,1194
1307,1710995016608121568,2056,2040,1997,2056,2079,2053,1193
1308,1710995016618122243,2057,2066,2118,2061,2072,2060,1194
1309,1710995016628123146,2054,2047,2044,2021,2031,2042,1193
1310,1710995016638125404,2046,2053,2046,2043,2072,2045,1191
1311,1710995016648122400,2056,2055,2026,2071,2114,2060,1196
1312,1710995016658123696,2065,2067,2100,2041,2034,2050,1194
1313,1710995016668129559,2057,2077,2029,2020,2025,2049,1194
1314,1710995016678124282,2058,2060,2032,2027,2024,2045,1193
1315,1710995016688124926,2045,2064,2058,2056,2037,2047,1194
1316,1710995016698129708,2054,2056,2066,2056,2001,2044,1193
1317,1710995016708125822,2052,2045,2021,2020,2060,2050,1195
1318,1710995016718126085,2058,2068,2072,2073,2033,2052,1197
1319,1710995016728126940,2056,2081,2040,2017,2040,2049,1196
1320,1710995016738134166,2066,2098,2152,2074,2044,2064,1193
1321,1710995016748125102,2048,2045,2032,2042,2052,2052,1192
1322,1710995016758126757,2057,2068,2120,2059,2083,2056,1195
1323,1710995016768166826,2053,2049,2032,2062,2076,2054,1195
1324,1710995016778124498,2056,2056,2065,2032,2040,2050,1195
1325,1710995016788130442,2054,2044,2010,2062,2036,2052,1195
1326,1710995016798130224,2060,2057,2079,2064,2053,2051,1194
1327,1710995016808112052,2047,2042,2058,2010,1984,2034,1191
1328,1710995016818113697,2062,2044,2057,2057,2059,2058,1195
1329,1710995016828113089,2049,2050,2046,2052,2054,2055,1193
1330,1710995016838111959,2034,2033,2027,2061,2053,2041,1192
1331,1710995016848127061,2056,2056,2026,2034,2040,2051,1195
1332,1710995016858110432,2060,2066,2131,2109,2089,2060,1196
1333,1710995016868117548,2045,2031,1964,2054,2061,2052,1195
1334,1710995016878115977,2050,2015,1989,2075,2062,2053,1196
1335,1710995016888116411,2058,2043,2032,2039,2006,2040,1194
1336,1710995016898109090,2064,2056,2064,2056,2056,2053,1196
1337,1710995016908129000,2044,2044,1998,2037,2042,2051,1195
1338,1710995016918114846,2066,2072,2136,2098,2034,2044,1194
1339,1710995016928133384,2054,2060,2051,2069,2066,2060,1194
1340,1710995016938120181,2057,2049,2061,2061,2054,2050,1192
1341,1710995016948115726,2050,2057,2068,2034,2056,2053,1192
1342,1710995016958118112,2058,2052,2084,2117,2024,2045,1191
1343,1710995016968113767,2054,2069,2054,2055,2074,2053,1196
1344,1710995016978117777,2059,2068,2056,2064,2058,2052,1197
1345,1710995016988127569,2043,2037,2004,2037,2025,2049,1195
1346,1710995016998112903,2054,2041,2074,2021,2037,2046,1192
1347,1710995017008109919,2056,2073,2074,2094,2074,2056,1195
1348,1710995017018110964,2064,2060,2132,2081,2041,2050,1196
1349,1710995017028110325,2050,2044,2040,2056,2088,2050,1194
1350,1710995017038111229,2064,2070,2117,2080,2054,2052,1194
1351,1710995017048112424,2056,2059,2037,2074,2086,2060,1196
1352,1710995017058121564,2067,2069,2112,2054,2114,2064,1194
1353,1710995017068115204,2048,2056,2072,2034,2033,2048,1194
1354,1710995017078114655,2063,2077,2100,1985,2056,2052,1194
1355,1710995017088116411,2045,2062,2038,2062,2046,2049,1195
1356,1710995017098113949,2058,2043,2053,2058,2044,2052,1196
1357,1710995017108111556,2050,2067,2056,2050,2058,2057,1194
1358,1710995017118112952,2047,2049,2031,2060,2020,2043,1195
1359,1710995017128113084,2046,2049,2004,2040,2020,2047,1193
1360,1710995017138104570,2064,2053,2073,2067,2080,2056,1194
1361,1710995017148115574,2048,2053,2034,2033,2074,2056,1194
1362,1710995017158117610,2061,2047,2068,2072,2056,2053,1193
1363,1710995017168115068,2054,2063,2061,2030,2045,2053,1194
1364,1710995017178142192,2058,2044,2021,1994,2017,2054,1195
1365,1710995017188133588,2050,2049,2042,2052,2052,2052,1195
1366,1710995017198110185,2065,2048,2090,2040,2031,2056,1193
1367,1710995017208108875,2046,2057,2020,2022,2052,2056,1195
1368,1710995017218116602,2060,2064,2061,2040,2047,2049,1194
1369,1710995017228111575,2050,2058,2014,2058,2082,2059,1194
1370,1710995017238118841,2059,2060,2056,2072,2064,2050,1195
1371,1710995017248120116,2045,2044,2031,2056,2068,2059,1196
1372,1710995017258103497,2056,2049,2034,2078,2029,2045,1192
1373,1710995017268123037,2044,2050,2010,2074,2073,2046,1195
1374,1710995017278124151,2050,2046,2030,2050,2028,2045,1192
1375,1710995017288155864,2053,2060,2039,2046,2057,2058,1196
1376,1710995017298129476,2064,2064,2105,2053,2074,2058,1194
1377,1710995017308111123,2053,2067,2065,2069,2091,2061,1196
1378,1710995017318088122,2056,2048,2022,2060,2034,2054,1194
1379,1710995017328112641,2052,2051,2037,2058,2066,2059,1196
1380,1710995017338126309,2059,2046,2056,2045,2040,2036,1193
1381,1710995017348109319,2053,2076,2107,2054,2075,2062,1195
1382,1710995017358113620,2060,2052,2091,2050,2037,2050,1194
1383,1710995017368116057,2047,2040,2057,2069,2066,2061,1196
1384,1710995017378111360,2060,2038,2060,2069,2092,2057,1194
1385,1710995017388158763,2052,2053,2052,2036,2099,2058,1194
1386,1710995017398112638,2056,2046,2058,2033,2025,2054,1195
1387,1710995017408113371,2042,2054,2040,2047,2041,2051,1196
1388,1710995017418118884,2065,2061,2168,2061,2032,2050,1194
1389,1710995017428116502,2058,2102,2188,2076,2066,2064,1195
1390,1710995017438124109,2064,2051,2029,2083,2053,2052,1196
1391,1710995017448118160,2047,2066,2028,2051,2075,2056,1196
1392,1710995017458131367,2056,2040,2059,2029,2020,2044,1193
1393,1710995017468118175,2046,2059,2060,2074,2048,2063,1196
1394,1710995017478114460,2064,2041,2028,2040,2046,2053,1194
1395,1710995017488124201,2049,2064,2072,2050,2048,2053,1196
1396,1710995017498118413,2064,2057,2119,2081,2069,2056,1194
1397,1710995017508120138,2042,2053,2012,2051,2037,2047,1192
1398,1710995017518117756,2063,2053,2062,2053,2062,2056,1194
1399,1710995017528115364,2052,2057,2030,2044,2045,2056,1195
1400,1710995017538116228,2061,2034,2030,2041,2070,2047,1192
1401,1710995017548122372,2053,2050,2047,2050,2042,2060,1195
1402,1710995017558123015,2057,2042,2078,2056,2037,2052,1193
1403,1710995017568118710,2057,2064,2029,2053,2089,2068,1196
1404,1710995017578118411,2062,2048,2081,2045,2068,2056,1195
1405,1710995017588131138,2049,2059,2062,2056,2066,2055,1195
1406,1710995017598132182,2060,2046,2056,2072,2091,2059,1195
1407,1710995017608119491,2056,2088,2149,2092,2090,2065,1196
1408,1710995017618115625,2058,2011,1969,2036,2056,2053,1193
1409,1710995017628143330,2048,2045,2042,2040,2060,2059,1196
1410,1710995017638119959,2061,2045,2052,2060,2036,2045,1193
1411,1710995017648112156,2056,2087,2086,2056,2059,2056,1194
1412,1710995017658118039,2060,2037,2012,2041,2048,2047,1192
1413,1710995017668120026,2049,2071,2079,2048,2054,2054,1196
1414,1710995017678122553,2058,2041,2058,2054,2060,2052,1195
1415,1710995017688141011,2049,2054,2025,2053,2047,2052,1195
1416,1710995017698124692,2063,2018,2005,2043,2037,2046,1194
1417,1710995017708125416,2044,2063,2047,2038,2062,2055,1195
1418,1710995017718125618,2065,2069,2140,2073,2054,2053,1195
1419,1710995017728125039,2047,2061,2033,2060,2097,2061,1193
1420,1710995017738125634,2057,2052,2121,2041,2045,2048,1192
1421,1710995017748129483,2050,2064,2032,2010,2050,2060,1194
1422,1710995017758129315,2058,2042,2049,2064,2040,2044,1191
1423,1710995017768131993,2047,2075,2095,2033,2060,2058,1195
1424,1710995017778129661,2057,2040,2047,2063,2033,2048,1196
1425,1710995017788101228,2050,2094,2117,2042,2037,2055,1193
1426,1710995017798130577,2062,2052,2060,2043,2056,2050,1196
1427,1710995017808120580,2040,2064,2090,2050,2067,2055,1195
1428,1710995017818125833,2068,2042,2042,2043,2048,2051,1195
1429,1710995017828109323,2045,2076,2052,2010,2053,2053,1195
1430,1710995017838139513,2059,2037,2028,2072,2024,2051,1195
1431,1710995017848157531,2041,2056,2013,2105,2104,2065,1197
1432,1710995017858122666,2058,2052,2056,2050,2024,2042,1193
1433,1710995017868105175,2044,2059,2090,2056,2037,2049,1195
1434,1710995017878105228,2056,2027,2033,2056,2043,2044,1194
1435,1710995017888108075,2048,2078,2074,2065,2027,2061,1195
1436,1710995017898124188,2059,2024,2015,2022,2021,2046,1193
1437,1710995017908138078,2047,2065,2042,2036,2059,2058,1196
1438,1710995017918104786,2060,2041,2047,2040,2044,2047,1194
1439,1710995017928108986,2046,2068,2038,2038,2040,2065,1196
1440,1710995017938119429,2051,2025,2012,2023,2056,2040,1190
1441,1710995017948169447,2043,2066,2060,2047,2021,2047,1192
1442,1710995017958116127,2049,2060,2060,2052,2029,2035,1194
1443,1710995017968113815,2056,2084,2049,2056,2072,2062,1195
1444,1710995017978113457,2067,2041,2052,2065,2065,2048,1193
1445,1710995017988112087,2050,2068,2054,2044,2056,2060,1195
1446,1710995017998120545,2060,2048,2074,2069,2048,2048,1194
1447,1710995018008118042,2042,2060,2040,2049,2066,2056,1194
1448,1710995018018112815,2063,2044,2051,2046,2034,2046,1193
1449,1710995018028116484,2055,2081,2068,2083,2076,2068,1195
1450,1710995018038124642,2056,2029,1987,2057,2032,2040,1193
1451,1710995018048138381,2044,2057,2037,2072,2056,2053,1194
1452,1710995018058110389,2056,2035,2049,2020,2009,2037,1192
1453,1710995018068108137,2047,2072,2045,2055,2056,2055,1195
1454,1710995018078107568,2052,2033,2050,2057,2027,2041,1192
1455,1710995018088107971,2050,2089,2148,2077,2076,2061,1195
1456,1710995018098139333,2072,2073,2100,2059,2085,2054,1196
1457,1710995018108129186,2048,2092,2099,2095,2061,2059,1196
1458,1710995018118116503,2066,2039,2040,2018,2025,2046,1193
1459,1710995018128119462,2038,2068,2057,2052,2052,2051,1194
1460,1710995018138124774,2065,2043,2047,2038,2047,2050,1192
1461,1710995018148126399,2052,2082,2092,2049,2080,2064,1195
1462,1710995018158108026,2058,2025,2020,2046,2036,2041,1191
1463,1710995018168115563,2040,2052,2053,2058,2052,2059,1196
1464,1710995018178116086,2068,2044,2044,2020,2027,2041,1193
1465,1710995018188123262,2051,2077,2076,2055,2072,2060,1195
1466,1710995018198120048,2060,2036,2039,2073,2042,2044,1190
1467,1710995018208117846,2046,2075,2064,2040,2052,2061,1194
1468,1710995018218112407,2058,2026,2007,2046,2030,2045,1192
1469,1710995018228121387,2043,2095,2045,2047,2049,2059,1194
1470,1710995018238123804,2070,2049,2047,2047,2030,2046,1192
1471,1710995018248116382,2044,2074,2066,2054,2097,2069,1196
1472,1710995018258116083,2064,2042,2054,2041,2038,2047,1194
1473,1710995018268116486,2042,2072,2069,2019,2051,2064,1195
1474,1710995018278119654,2057,2029,2044,2036,2027,2040,1192
1475,1710995018288114957,2049,2072,2066,2033,2073,2064,1195
1476,1710995018298123817,2052,2002,1968,2041,2039,2044,1193
1477,1710995018308132867,2046,2078,2059,2069,2062,2056,1194
1478,1710995018318132988,2061,2034,2053,2061,2074,2048,1194
1479,1710995018328116820,2049,2076,2125,2088,2076,2064,1193
1480,1710995018338119006,2061,2018,2013,2020,2040,2046,1192
1481,1710995018348139688,2042,2064,2010,2054,2062,2065,1195
1482,1710995018358105916,2058,2036,2028,2042,2046,2036,1193
1483,1710995018368117540,2044,2065,2132,2062,2046,2066,1194
1484,1710995018378115578,2056,2033,2020,2029,2053,2041,1193
1485,1710995018388113707,2040,2070,2069,2057,2070,2061,1196
1486,1710995018398122836,2061,2037,2047,2041,2004,2042,1190
1487,1710995018408117048,2043,2072,2052,2033,2058,2057,1195
1488,1710995018418248691,2067,2032,2009,2044,2041,2049,1195
1489,1710995018428127181,2044,2074,2042,2047,2065,2057,1194
1490,1710995018438135219,2060,2028,2033,2061,1997,2029,1195
1491,1710995018448134460,2042,2063,2158,2084,2095,2060,1195
1492,1710995018458104605,2067,2037,2108,2068,2051,2046,1191
1493,1710995018468117672,2041,2069,2057,2045,2044,2065,1196
1494,1710995018478115460,2061,2030,2005,2074,2050,2040,1193
1495,1710995018488116363,2042,2068,2063,2061,2061,2061,1197
1496,1710995018498157945,2057,2024,2048,2056,1991,2034,1194
1497,1710995018508123432,2043,2069,2046,2048,2051,2064,1197
1498,1710995018518118966,2065,2026,2029,2052,2041,2047,1193
1499,1710995018528112525,2047,2080,2100,2063,2086,2072,1195
1500,1710995018538112858,2070,2040,2033,2029,2034,2045,1192
1501,1710995018548119733,2044,2064,2040,2012,2061,2068,1195
1502,1710995018558111920,2063,2019,2033,2064,2038,2046,1191
1503,1710995018568114768,2048,2098,2171,2077,2062,2068,1197
1504,1710995018578113568,2059,2020,2013,2052,2056,2043,1196
1505,1710995018588124310,2045,2074,2048,2059,2056,2057,1194
1506,1710995018598119463,2060,2017,2025,2037,1984,2032,1194
1507,1710995018608128002,2042,2075,2116,2069,2056,2057,1195
1508,1710995018618128315,2073,2018,2033,2052,2043,2056,1196
1509,1710995018628115412,2045,2064,2074,2071,2059,2063,1195
1510,1710995018638116707,2059,2021,2015,2032,2005,2038,1192
1511,1710995018648104917,2042,2085,2085,2036,2070,2066,1195
1512,1710995018658102775,2069,2045,2078,2040,2044,2038,1193
1513,1710995018668114739,2040,2071,2070,2064,2073,2065,1195
1514,1710995018678114782,2066,2036,2057,2054,2064,2043,1192
1515,1710995018688128860,2042,2057,2059,2040,2066,2063,1195
1516,1710995018698128131,2061,2021,2033,2031,2018,2037,1193
1517,1710995018708123655,2045,2081,2068,2068,2045,2049,1196
1518,1710995018718134789,2066,2022,2024,2068,2065,2048,1193
1519,1710995018728134510,2044,2079,2104,2061,2066,2064,1195
1520,1710995018738122079,2061,2017,2000,2024,2024,2035,1189
1521,1710995018748125598,2047,2077,2040,2086,2066,2064,1196
1522,1710995018758124528,2060,2053,2021,2046,2034,2045,1192
1523,1710995018768118919,2049,2117,2133,2066,2042,2061,1193
1524,1710995018778119122,2064,2020,2012,2034,2021,2040,1192
1525,1710995018788116729,2043,2077,2064,2053,2045,2058,1194
1526,1710995018798117573,2064,2025,2015,2053,2032,2036,1194
1527,1710995018808119259,2038,2079,2053,2090,2079,2061,1197
1528,1710995018818112719,2065,2041,2032,2100,2047,2042,1193
1529,1710995018828111558,2043,2074,2042,2065,2032,2064,1194
1530,1710995018838114406,2062,2016,2026,2029,2009,2038,1192
1531,1710995018848131951,2042,2109,2080,2047,2072,2062,1197
1532,1710995018858108409,2062,2033,2021,2035,2038,2033,1192
1533,1710995018868107850,2044,2080,2068,2080,2065,2060,1196
1534,1710995018878108243,2051,2013,2013,2072,2032,2032,1192
1535,1710995018888108785,2044,2074,2084,2072,2079,2070,1196
1536,1710995018898106744,2064,2024,2003,2029,2067,2044,1193
1537,1710995018908107598,2045,2084,2057,2017,2060,2061,1195
1538,1710995018918127619,2064,2027,2014,2048,2011,2041,1193
1539,1710995018928119365,2042,2107,2073,2032,2051,2058,1194
1540,1710995018938113816,2072,2027,2018,2058,2032,2047,1189
1541,1710995018948112857,2041,2082,2076,2089,2077,2069,1196
1542,1710995018958110324,2065,2034,2050,2040,2027,2038,1192
1543,1710995018968111939,2042,2079,2076,2025,2060,2067,1194
1544,1710995018978112813,2065,2016,2009,2045,2088,2046,1192
1545,1710995018988114598,2048,2088,2072,2110,2068,2064,1195
1546,1710995018998123137,2066,2034,2087,2068,2038,2040,1192
1547,1710995019008115194,2039,2081,2057,2072,2104,2070,1195
1548,1710995019018139412,2069,2014,2032,2060,2051,2036,1190
1549,1710995019028112694,2041,2073,2056,2072,2066,2068,1194
1550,1710995019038118646,2066,2036,2058,2110,2004,2032,1190
1551,1710995019048134819,2041,2079,2064,2075,2086,2064,1196
1552,1710995019058116115,2068,2032,2058,2059,2037,2041,1192
1553,1710995019068119794,2037,2071,2057,2050,2056,2065,1193
1554,1710995019078120217,2068,1997,2032,2085,2047,2044,1192
1555,1710995019088120229,2044,2074,2076,2096,2092,2073,1195
1556,1710995019098134839,2062,2009,2001,2034,2036,2042,1190
1557,1710995019108119672,2045,2073,2084,2045,2067,2068,1195
1558,1710995019118141276,2065,2022,2029,2040,2012,2045,1194
1559,1710995019128126970,2032,2085,2066,2027,2052,2063,1196
1560,1710995019138122894,2070,2023,2024,2020,2026,2037,1191
1561,1710995019148970374,2043,2088,2105,2056,2052,2064,1196
1562,1710995019158123199,2064,2005,1988,2008,2015,2030,1192
1563,1710995019168130334,2044,2092,2149,2058,2070,2065,1195
1564,1710995019178126348,2066,2014,2008,2044,2066,2042,1192
1565,1710995019188109468,2039,2080,2053,2045,2047,2061,1194
1566,1710995019198128697,2059,2026,2029,2036,2002,2040,1193
1567,1710995019208127898,2046,2121,2108,2076,2077,2069,1196
1568,1710995019218127499,2069,2030,2032,2033,2029,2040,1192
1569,1710995019228109015,2045,2091,2076,2077,2082,2070,1196
1570,1710995019238130698,2074,2032,2032,2055,2064,2045,1192
1571,1710995019248144377,2044,2080,2054,2065,2088,2072,1197
1572,1710995019258109662,2060,2011,2005,2037,2047,2042,1190
1573,1710995019268111998,2042,2082,2072,1958,2077,2060,1195
1574,1710995019278109215,2070,2026,2033,2020,2021,2043,1192
1575,1710995019288110480,2044,2080,2061,2051,2084,2065,1195
1576,1710995019298132955,2065,2020,2018,2039,2020,2043,1194
1577,1710995019308138838,2048,2084,2064,2072,2071,2068,1195
1578,1710995019318152546,2078,2040,2068,2054,1999,2045,1192
1579,1710995019328116339,2041,2083,2076,2065,2072,2062,1196
1580,1710995019338119317,2067,2012,2005,2088,2021,2035,1189
1581,1710995019348150769,2042,2084,2108,2101,2123,2070,1194
1582,1710995019358110042,2062,2015,1962,2036,2019,2037,1193
1583,1710995019368114934,2042,2080,2062,2040,2094,2066,1195
1584,1710995019378113543,2064,2020,2008,2076,2042,2037,1193
1585,1710995019388140426,2037,2072,2065,2075,2098,2061,1196
1586,1710995019398140509,2068,2031,2058,2046,2043,2045,1191
1587,1710995019408111024,2037,2085,2058,2029,2089,2054,1196
1588,1710995019418116036,2068,2015,2008,2034,2047,2046,1192
1589,1710995019428125797,2041,2109,2097,2076,2080,2063,1194
1590,1710995019438115359,2075,2030,2005,2002,2034,2046,1192
1591,1710995019448140759,2038,2068,2075,2089,2053,2068,1194
1592,1710995019458121164,2064,2010,2014,2078,2035,2038,1192
1593,1710995019468119793,2037,2095,2112,2089,2106,2068,1195
1594,1710995019478115065,2066,2012,2031,2086,2052,2046,1192
1595,1710995019488148452,2045,2085,2067,2052,2038,2072,1196
1596,1710995019498106593,2068,2013,2009,2036,2022,2039,1193
1597,1710995019508120923,2034,2069,2064,1977,2059,2066,1196
1598,1710995019518123780,2074,2048,2059,2040,2070,2045,1194
1599,1710995019528089447,2041,2091,2070,2059,2121,2064,1196
1600,1710995019538111080,2062,2019,1991,2074,2037,2040,1189
1601,1710995019548129197,2040,2082,2077,2058,2075,2072,1195
1602,1710995019558110042,2065,2014,1993,2046,2013,2037,1192
1603,1710995019568111667,2044,2104,2137,2101,2068,2066,1197
1604,1710995019578114404,2066,2037,2022,2056,2004,2041,1191
1605,1710995019588151036,2042,2085,2074,2048,2079,2062,1195
1606,1710995019598121812,2065,2020,1997,2076,2080,2047,1191
1607,1710995019608105914,2040,2083,2082,2055,2070,2064,1196
1608,1710995019618124722,2066,2020,2005,2015,2017,2036,1192
1609,1710995019628118772,2042,2075,2034,2065,2060,2061,1195
1610,1710995019638139734,2061,2011,1994,2002,2021,2032,1194
1611,1710995019648117433,2042,2081,2077,2088,2060,2072,1196
1612,1710995019658114710,2066,2011,1986,2056,2022,2040,1191
1613,1710995019668113270,2042,2082,1988,2066,2081,2073,1196
1614,1710995019678113933,2064,2011,1999,2053,1999,2028,1194
1615,1710995019688120708,2041,2077,2072,2035,2046,2061,1195
1616,1710995019698121131,2066,2011,1988,2073,2031,2033,1192
1617,1710995019708129939,2050,2130,2108,2089,2080,2076,1198
1618,1710995019718118479,2062,2017,2024,2068,2032,2029,1193
1619,1710995019728138279,2045,2084,2081,2088,2057,2072,1196
1620,1710995019738117601,2064,2014,2020,2073,2038,2032,1192
1621,1710995019748131610,2037,2085,2071,2068,2050,2065,1194
1622,1710995019758117144,2059,2005,1966,2032,2037,2036,1194
1623,1710995019768108109,2042,2082,2069,2101,2104,2073,1194
1624,1710995019778126446,2072,2014,1997,2073,2039,2042,1193
1625,1710995019788120767,2044,2080,2041,2045,2062,2065,1194
1626,1710995019798108937,2064,2015,2036,1995,1989,2026,1192
1627,1710995019808107185,2040,2088,2077,2021,2037,2063,1193
1628,1710995019818118680,2072,2017,2033,2052,2031,2042,1193
1629,1710995019828129813,2041,2088,2080,2055,2075,2066,1195
1630,1710995019838127770,2069,2017,2010,2053,2025,2037,1191
1631,1710995019848152980,2036,2080,2073,2048,2032,2062,1197
1632,1710995019858131712,2078,2030,2065,2029,2027,2042,1192
1633,1710995019868118348,2042,2095,2059,2058,2069,2065,1195
1634,1710995019878116196,2064,2021,2015,2053,2056,2040,1193
1635,1710995019888119114,2046,2100,2150,2020,2049,2072,1195
1636,1710995019898149604,2071,2022,2022,2045,2014,2043,1192
1637,1710995019908114489,2041,2087,2077,2056,2064,2069,1196
1638,1710995019918131984,2072,2061,2064,2044,2024,2041,1193
1639,1710995019928118531,2041,2081,2040,2066,2095,2069,1193
1640,1710995019938115456,2060,2008,1985,2037,1988,2024,1189
1641,1710995019948127331,2041,2078,2058,2050,2056,2067,1195
1642,1710995019958108647,2060,2011,1994,2021,2026,2035,1193
1643,1710995019968116083,2040,2074,2068,2032,2076,2065,1196
1644,1710995019978118811,2070,2009,2002,2077,1994,2037,1195
1645,1710995019988116648,2045,2089,2089,2064,2079,2068,1196
1646,1710995019998172006,2061,2017,2015,2035,2007,2037,1193
1647,1710995020008125650,2032,2073,2049,2053,2085,2069,1197
1648,1710995020018125431,2073,2022,2026,2064,2042,2040,1192
1649,1710995020028118640,2040,2082,2076,2071,2086,2065,1194
1650,1710995020038117499,2065,2020,2018,2056,2047,2038,1192
1651,1710995020048136808,2046,2109,2141,2090,2100,2075,1195
1652,1710995020058115599,2065,2014,2015,2030,2036,2029,1192
1653,1710995020068127674,2043,2065,2062,2056,2022,2060,1194
1654,1710995020078118939,2066,1998,2033,2040,2027,2032,1192
1655,1710995020088117949,2043,2088,2074,2069,2093,2078,1197
1656,1710995020098124753,2062,2015,2012,2000,2011,2033,1193
1657,1710995020108120798,2043,2098,2089,2085,2104,2072,1195
1658,1710995020118126000,2064,2008,1974,2056,2015,2032,1192
1659,1710995020128119419,2041,2088,2098,2072,2101,2072,1196
1660,1710995020138149939,2066,1999,2014,2046,2044,2040,1191
1661,1710995020148121546,2046,2078,2094,2085,2064,2072,1195
1662,1710995020158122440,2068,2029,2061,2024,1993,2028,1192
1663,1710995020168120809,2050,2101,2125,2068,2067,2076,1196
1664,1710995020178122864,2069,2020,2009,2043,2036,2036,1191
1665,1710995020188119950,2040,2083,2082,2053,2085,2075,1195
1666,1710995020198141293,2069,2025,2002,2047,2037,2033,1192
1667,1710995020208129663,2027,2109,2078,2070,2082,2061,1196
1668,1710995020218125526,2069,2028,1981,2009,2060,2035,1192
1669,1710995020228124165,2038,2079,2059,2039,2062,2064,1194
1670,1710995020238124358,2072,2020,2012,2029,2034,2038,1194
1671,1710995020248131563,2045,2089,2092,2064,2075,2067,1197
1672,1710995020258131214,2065,2024,2081,2113,2055,2041,1192
1673,1710995020268105306,2039,2089,2085,2075,2048,2072,1196
1674,1710995020278110918,2065,2009,2012,2036,2008,2033,1191
1675,1710995020288103977,2046,2084,2100,2086,2093,2078,1195
1676,1710995020298150127,2067,2004,2005,2056,2045,2045,1193
1677,1710995020308134138,2041,2089,2074,2102,2077,2077,1193
1678,1710995020318126746,2076,2017,2015,2051,2014,2034,1192
1679,1710995020328112490,2048,2101,2124,2072,2052,2072,1196
1680,1710995020338113855,2067,2012,2010,1997,2025,2037,1192
1681,1710995020348119127,2046,2092,2098,2097,2033,2064,1194
1682,1710995020358111944,2069,2035,2056,2084,2046,2046,1192
1683,1710995020368123829,2039,2081,2080,2048,2039,2067,1195
1684,1710995020378116397,2065,2017,2032,2029,2007,2028,1194
1685,1710995020388112110,2047,2120,2098,2058,2040,2066,1195
1686,1710995020398115879,2070,2016,1995,2033,1997,2032,1193
1687,1710995020408121732,2040,2084,2070,2048,2083,2072,1194
1688,1710995020418125541,2065,2010,2004,2036,2025,2035,1193
1689,1710995020428127497,2040,2092,2080,2064,2068,2064,1196
1690,1710995020438125485,2074,2052,2127,2120,2084,2048,1193
1691,1710995020448121649,2044,2078,2098,2091,2122,2080,1196
1692,1710995020458118595,2067,2002,2015,2045,2002,2036,1192
1693,1710995020468121122,2045,2089,2096,2047,2056,2078,1196
1694,1710995020478119160,2066,2008,2001,2060,2025,2035,1192
1695,1710995020488116456,2037,2086,2073,2057,2064,2064,1194
1696,1710995020498137708,2067,2012,1992,2034,2007,2033,1193
1697,1710995020508121859,2040,2088,2110,2075,2067,2065,1194
1698,1710995020518136960,2076,2019,2050,2014,1982,2038,1192
1699,1710995020528113598,2042,2113,2184,2081,2056,2074,1194
1700,1710995020538115362,2068,2020,2021,2034,2018,2028,1190
1701,1710995020548212510,2045,2090,2118,2037,2061,2078,1194
1702,1710995020558126708,2072,2011,1995,2015,1994,2032,1193
1703,1710995020568122792,2043,2094,2116,2072,2018,2067,1193
1704,1710995020578120990,2073,2028,2076,2029,2016,2030,1192
1705,1710995020588123647,2038,2100,2075,2070,2110,2069,1193
1706,1710995020598163064,2065,2001,1992,2058,2048,2038,1192
1707,1710995020608138008,2043,2117,2098,2067,2078,2072,1195
1708,1710995020618137699,2069,2015,2010,2063,2032,2040,1192
1709,1710995020628131118,2032,2088,2100,2072,2073,2064,1195
1710,1710995020638134287,2072,2009,2021,2069,2037,2028,1193
1711,1710995020648132946,2036,2120,2143,2101,2064,2068,1196
1712,1710995020658144509,2071,2026,2035,2068,2036,2032,1192
1713,1710995020668130845,2040,2091,2099,2060,2083,2065,1195
1714,1710995020678129434,2077,2011,2014,2039,2037,2037,1192
1715,1710995020688123695,2050,2112,2161,2096,2106,2078,1194
1716,1710995020698166078,2064,2004,1997,2050,2028,2034,1193
1717,1710995020708133256,2040,2089,2093,2081,2058,2066,1195
1718,1710995020718157825,2067,2008,1987,2037,2000,2040,1193
1719,1710995020728126847,2041,2092,2097,2048,2065,2069,1194
1720,1710995020738114145,2070,2005,2013,2018,2031,2037,1190
1721,1710995020748125980,2035,2088,2081,2067,2064,2066,1196
1722,1710995020758131963,2069,2022,2053,2026,2028,2033,1193
1723,1710995020768126634,2044,2120,2102,2108,2069,2078,1195
1724,1710995020778119843,2073,2021,2008,2068,2033,2034,1192
1725,1710995020788120176,2039,2093,2079,2093,2085,2076,1197
1726,1710995020798110418,2064,1998,1976,2048,2016,2035,1193
1727,1710995020808113827,2040,2093,2086,2064,2076,2070,1195
1728,1710995020818121053,2075,2021,2083,2052,2044,2036,1193
1729,1710995020828123329,2045,2096,2096,2004,2079,2057,1194
1730,1710995020838114984,2073,2017,2018,2064,2048,2038,1192
1731,1710995020848133722,2037,2078,2104,2082,2109,2076,1196
1732,1710995020858118705,2074,2024,2040,2069,2055,2042,1192
1733,1710995020868127053,2042,2085,2066,2046,2064,2068,1193
1734,1710995020878112907,2071,2002,1981,2055,2065,2040,1193
1735,1710995020888113220,2040,2110,2088,2057,2089,2077,1194
1736,1710995020898127770,2062,1985,1964,2038,2030,2040,1192
1737,1710995020908113965,2039,2072,2060,2058,2059,2065,1196
1738,1710995020918131039,2072,2017,2061,2089,2049,2041,1192
1739,1710995020928123166,2037,2097,2137,2058,2074,2064,1194
1740,1710995020938115833,2070,2016,2002,2075,2040,2042,1190
1741,1710995020948122007,2041,2089,2083,2073,2096,2068,1196
1742,1710995020958118652,2062,1999,1992,2042,2030,2035,1193
1743,1710995020968124956,2042,2124,2088,2084,2081,2068,1194
1744,1710995020978117974,2068,2010,1976,2060,2057,2039,1192
1745,1710995020988118758,2044,2092,2081,2079,2074,2074,1196
1746,1710995020998135482,2074,2017,2024,2010,2018,2037,1192
1747,1710995021008125304,2042,2106,2130,2072,2074,2066,1194
1748,1710995021018119625,2088,2046,2139,2080,2086,2048,1195
1749,1710995021028122251,2045,2100,2126,2047,2073,2075,1195
1750,1710995021038118285,2066,2011,1990,2072,2033,2040,1190
1751,1710995021048134598,2037,2096,2077,2070,2109,2062,1196
1752,1710995021058119350,2060,2002,1996,2046,2052,2034,1193
1753,1710995021068114793,2040,2096,2106,2079,2092,2070,1195
1754,1710995021078112370,2069,2010,1994,2028,2029,2033,1193
1755,1710995021088113183,2037,2088,2069,2051,2085,2068,1195
1756,1710995021098136388,2072,2010,2005,2047,2040,2040,1193
1757,1710995021108112164,2036,2080,2068,2042,2046,2064,1195
1758,1710995021118123838,2072,1989,1996,2046,2072,2045,1191
1759,1710995021128118820,2034,2093,2106,2057,2084,2064,1195
1760,1710995021138115305,2067,2021,2009,2012,2010,2032,1189
1761,1710995021148116558,2037,2087,2101,2036,2045,2058,1195
1762,1710995021158133463,2068,2024,2084,2056,2012,2028,1192
1763,1710995021168108125,2043,2128,2096,2069,2065,2066,1194
1764,1710995021178110402,2065,2015,1979,2046,2024,2032,1190
1765,1710995021188109141,2042,2089,2072,2062,2096,2077,1193
1766,1710995021198119492,2064,2006,1990,2040,2040,2047,1191
1767,1710995021208118251,2038,2106,2109,2071,2077,2065,1195
1768,1710995021218112752,2066,1996,1952,2022,2021,2035,1191
1769,1710995021228120138,2036,2085,2055,2058,2067,2064,1195
1770,1710995021238118336,2073,2008,1981,2042,2024,2038,1191
1771,1710995021248149277,2038,2124,2133,2049,2087,2061,1195
1772,1710995021258139810,2070,2013,1995,2042,2063,2040,1192
1773,1710995021268111057,2040,2088,2079,2072,2077,2064,1196
1774,1710995021278110898,2066,2004,2001,1989,2059,2044,1191
1775,1710995021288111691,2046,2096,2090,2050,2066,2064,1193
1776,1710995021298110390,2074,2019,2013,2018,2021,2043,1191
1777,1710995021308136722,2031,2058,2033,2058,2059,2072,1195
1778,1710995021318115533,2075,2026,2043,2021,1995,2036,1193
1779,1710995021328126425,2039,2085,2082,2054,2031,2059,1196
1780,1710995021338113161,2072,2017,2001,2040,2008,2036,1190
1781,1710995021348141557,2042,2082,2064,2056,2078,2066,1193
1782,1710995021358126229,2061,2004,1976,2028,2002,2030,1193
1783,1710995021368115300,2042,2080,2081,2057,2058,2067,1195
1784,1710995021378116544,2063,2020,2016,2058,2068,2042,1189
1785,1710995021388114812,2045,2085,2084,2037,2066,2068,1195
1786,1710995021398131165,2065,2013,2015,2019,2041,2032,1192
1787,1710995021408115166,2038,2074,2076,2058,2071,2066,1196
1788,1710995021418110819,2076,2041,2064,2040,2017,2045,1191
1789,1710995021428121391,2044,2084,2082,2010,2066,2067,1194
1790,1710995021438116403,2073,2020,2005,2064,2025,2038,1196
1791,1710995021448155970,2048,2100,2140,2080,2068,2064,1197
1792,1710995021458117428,2065,2015,2017,2052,2040,2040,1192
1793,1710995021468113222,2036,2076,2072,2066,2116,2073,1196
1794,1710995021478115848,2066,2009,2016,2025,2030,2040,1192
1795,1710995021488116812,2041,2093,2116,2040,2048,2062,1193
1796,1710995021498117995,2072,2031,2040,2025,2031,2036,1192
1797,1710995021508113979,2044,2074,2082,2042,2066,2068,1196
1798,1710995021518127376,2074,2024,2026,2056,2060,2040,1190
1799,1710995021528127077,2049,2101,2106,2065,2090,2072,1195
1800,1710995021538123111,2068,2022,2012,2055,2056,2044,1192
1801,1710995021548154312,2040,2080,2088,2098,2056,2060,1193
1802,1710995021558121962,2066,2015,2014,2036,2002,2032,1192
1803,1710995021568119469,2057,2120,2129,2049,2069,2071,1193
1804,1710995021578120793,2068,2024,1990,2010,2006,2032,1193
1805,1710995021588121937,2043,2083,2081,2066,2067,2065,1194
1806,1710995021598127058,2065,2011,2002,2044,2042,2037,1193
1807,1710995021608156446,2049,2112,2152,2086,2072,2068,1194
1808,1710995021618125377,2068,2008,2006,2061,2040,2042,1192
1809,1710995021628125840,2044,2095,2109,2072,2072,2069,1194
1810,1710995021638125071,2063,2004,1972,2052,2084,2041,1192
1811,1710995021648144298,2040,2095,2078,2047,2090,2073,1195
1812,1710995021658122709,2054,2002,1977,2016,2018,2018,1192
1813,1710995021668125656,2040,2089,2103,2047,2039,2058,1194
1814,1710995021678125798,2060,2004,1992,2065,2014,2031,1193
1815,1710995021688109719,2041,2083,2085,2063,2066,2066,1196
1816,1710995021698133285,2060,2014,2008,2021,2018,2032,1192
1817,1710995021708129019,2046,2100,2138,2058,2061,2067,1193
1818,1710995021718132877,2070,1997,2019,2080,2036,2034,1192
1819,1710995021728136937,2040,2088,2114,2055,2062,2069,1194
1820,1710995021738130827,2068,2024,2064,2046,2017,2037,1191
1821,1710995021748168390,2042,2085,2069,2102,2076,2070,1193
1822,1710995021758168131,2070,2017,2026,2024,2018,2039,1192
1823,1710995021768113358,2036,2081,2082,2047,2060,2067,1195
1824,1710995021778114512,2060,2027,1986,2033,2014,2032,1192
1825,1710995021788115365,2047,2108,2141,2040,2055,2064,1196
1826,1710995021798115797,2065,2002,1979,2028,2041,2037,1192
1827,1710995021808117302,2040,2089,2107,2053,2031,2065,1196
1828,1710995021818105020,2069,2012,2021,2063,1988,2031,1192
1829,1710995021828119739,2049,2097,2139,2068,2067,2071,1194
1830,1710995021838119791,2070,2010,2017,2041,2028,2037,1193
1831,1710995021848142847,2038,2060,2050,2104,2100,2077,1194
1832,1710995021858145673,2066,1997,1971,2038,2004,2032,1192
1833,1710995021868135616,2048,2085,2066,2074,2084,2078,1197
1834,1710995021878115639,2066,2014,2018,2041,2037,2034,1192
1835,1710995021888111332,2036,2077,2060,2039,2072,2062,1193
1836,1710995021898108048,2065,2017,1989,2028,1996,2032,1192
1837,1710995021908113610,2046,2073,2064,2061,2071,2069,1196
1838,1710995021918153077,2066,2011,1998,2036,2016,2034,1193
1839,1710995021928117099,2045,2074,2094,2031,2041,2057,1195
1840,1710995021938113054,2065,2021,2011,2068,2064,2032,1189
1841,1710995021948112945,2037,2078,2088,2056,2102,2064,1195
1842,1710995021958123837,2062,2007,1981,2033,2022,2026,1192
1843,1710995021968110494,2048,2092,2116,2024,2047,2061,1196
1844,1710995021978110224,2060,1998,1990,2051,2037,2032,1192
1845,1710995021988109996,2047,2118,2120,2052,2069,2066,1195
1846,1710995021998108905,2068,2014,1978,2033,2031,2036,1192
1847,1710995022008112143,2044,2085,2124,2076,2088,2067,1195
1848,1710995022018148393,2071,2017,2002,2062,2069,2042,1192
1849,1710995022028132735,2051,2101,2080,2061,2064,2068,1195
1850,1710995022038099092,2072,2018,2023,2060,2005,2042,1193
1851,1710995022048116596,2048,2097,2059,2038,2072,2051,1196
1852,1710995022058117199,2068,2004,1995,2027,2011,2038,1194
1853,1710995022068119164,2045,2092,2104,2062,2072,2067,1195
1854,1710995022078112773,2073,2023,1980,2031,2024,2040,1194
1855,1710995022088111763,2044,2086,2087,2033,2072,2063,1195
1856,1710995022098112926,2074,2019,2012,2042,2035,2040,1194
1857,1710995022108115332,2053,2108,2120,2095,2068,2072,1194
1858,1710995022118111916,2073,2017,2074,2068,2088,2047,1193
1859,1710995022128138729,2042,2064,2072,2059,2054,2059,1194
1860,1710995022138117781,2062,2007,1965,2055,2022,2034,1190
1861,1710995022148116780,2042,2094,2093,2113,2081,2068,1194
1862,1710995022158121080,2066,2016,2015,2050,2036,2028,1190
1863,1710995022168127413,2051,2102,2169,2083,2107,2073,1196
1864,1710995022178110301,2064,2006,1981,2021,2063,2043,1191
1865,1710995022188109562,2036,2072,2063,2050,2085,2061,1194
1866,1710995022198108120,2060,2002,1983,1985,2034,2031,1192
1867,1710995022208120675,2044,2097,2170,2041,2088,2066,1196
1868,1710995022218126488,2064,2004,2008,2020,2029,2040,1192
1869,1710995022228117573,2045,2084,2096,2074,2082,2069,1193
1870,1710995022238116912,2058,2004,1976,2044,2024,2041,1193
1871,1710995022248117134,2044,2088,2081,2053,2058,2066,1196
1872,1710995022258122345,2066,2002,2009,2073,2047,2044,1193
1873,1710995022268111155,2039,2088,2114,2058,2072,2056,1194
1874,1710995022278115976,2063,2003,2008,2034,2004,2033,1192
1875,1710995022288110146,2040,2085,2094,2071,2049,2064,1195
1876,1710995022298133612,2068,2022,2067,2089,2000,2036,1193
1877,1710995022308112743,2050,2085,2097,2040,2029,2060,1192
1878,1710995022318113516,2068,2053,2019,2040,2024,2039,1192
1879,1710995022328107736,2047,2104,2157,2071,2090,2067,1195
1880,1710995022338126313,2065,2017,2010,2037,2036,2038,1189
1881,1710995022348117869,2043,2076,2085,2037,2065,2068,1195
1882,1710995022358113863,2062,2004,2005,2048,2037,2034,1191
1883,1710995022368127781,2054,2113,2212,2048,2090,2073,1194
1884,1710995022378120097,2060,2019,2005,2024,2014,2035,1192
1885,1710995022388110510,2040,2068,2056,2053,2047,2063,1193
1886,1710995022398115390,2068,2016,1990,2050,2013,2034,1192
1887,1710995022408120442,2044,2074,2080,2084,2052,2060,1192
1888,1710995022418113710,2072,2013,2018,2046,2040,2040,1189
1889,1710995022428113802,2049,2105,2071,2028,2050,2063,1194
1890,1710995022438129874,2065,2022,2027,2025,2011,2029,1192
1891,1710995022448109957,2040,2079,2066,2060,2052,2062,1195
1892,1710995022458151347,2064,2010,1988,2023,2045,2041,1191
1893,1710995022468110140,2039,2086,2112,2070,2068,2059,1192
1894,1710995022478107717,2072,2050,2064,2056,2041,2038,1191
1895,1710995022488117116,2041,2062,2114,2058,2068,2065,1193
1896,1710995022498117197,2069,2029,2034,2023,2032,2041,1192
1897,1710995022508137567,2056,2089,2071,2089,2088,2070,1194
1898,1710995022518109725,2063,2016,2002,2028,2017,2039,1193
1899,1710995022528143792,2044,2088,2086,2008,2038,2061,1195
1900,1710995022538118285,2066,2015,1998,2114,2074,2044,1190
1901,1710995022548118767,2046,2073,2094,2056,2092,2071,1193
1902,1710995022558168704,2073,2041,2050,2051,2031,2041,1192
1903,1710995022568110635,2051,2096,2094,2081,2045,2063,1193
1904,1710995022578116437,2068,2020,1999,2047,2070,2048,1194
1905,1710995022588116458,2037,2068,2074,2077,2072,2064,1195
1906,1710995022598114435,2066,2022,2005,2056,2033,2040,1191
1907,1710995022608117342,2043,2082,2089,2062,2098,2069,1194
1908,1710995022618130389,2061,2042,2064,2064,2060,2033,1191
1909,1710995022628122555,2047,2116,2150,2096,2059,2061,1194
1910,1710995022638125953,2066,2012,2009,2097,2098,2045,1191
1911,1710995022648123249,2052,2098,2105,2080,2086,2073,1196
1912,1710995022658124983,2064,2028,2001,2056,2036,2036,1193
1913,1710995022668124343,2044,2084,2090,2059,2070,2069,1196
1914,1710995022678121339,2064,2052,2052,2072,2048,2036,1191
1915,1710995022688122042,2047,2096,2063,2035,2101,2074,1193
1916,1710995022698108428,2065,2004,1968,2057,2043,2037,1192
1917,1710995022708139448,2048,2092,2142,2096,2065,2060,1196
1918,1710995022718133799,2068,2005,1977,2051,2007,2040,1192
1919,1710995022728127087,2053,2097,2100,2073,2092,2072,1193
1920,1710995022738150743,2068,2022,2040,2044,2032,2037,1191
1921,1710995022748105869,2048,2096,2084,2052,2053,2069,1196
1922,1710995022758134936,2071,2025,1992,2077,2080,2047,1193
1923,1710995022768104018,2036,2082,2120,2076,2072,2061,1194
1924,1710995022778110833,2082,2026,2034,2059,2009,2040,1192
1925,1710995022788118558,2057,2085,2085,2073,2075,2070,1197
1926,1710995022798114221,2070,2018,1996,2052,2029,2039,1193
1927,1710995022808112309,2047,2050,2048,2062,2072,2068,1194
1928,1710995022818113924,2063,2002,1994,2018,2042,2037,1194
1929,1710995022828134615,2037,2078,2073,2089,2060,2065,1195
1930,1710995022838131330,2072,2012,2027,2013,2021,2036,1192
1931,1710995022848115911,2040,2070,2100,2022,2043,2061,1196
1932,1710995022858120472,2065,2010,2006,2036,2026,2033,1189
1933,1710995022868150751,2050,2082,2068,2067,2068,2065,1195
1934,1710995022878141875,2074,2015,2037,2065,2028,2042,1192
1935,1710995022888117820,2049,2067,2111,2093,2065,2072,1194
1936,1710995022898117471,2066,2003,1989,2023,2068,2033,1189
1937,1710995022908113175,2052,2091,2100,2066,2066,2074,1196
1938,1710995022918119257,2073,2026,1999,2057,2078,2050,1196
1939,1710995022928127394,2050,2077,2066,2034,2071,2062,1195
1940,1710995022938125191,2065,2028,2092,2044,2029,2041,1189
1941,1710995022948112007,2049,2116,2129,2058,2067,2065,1193
1942,1710995022958126186,2065,2021,2033,2044,2056,2041,1189
1943,1710995022968135796,2042,2070,2101,2093,2058,2067,1195
1944,1710995022978109507,2072,2033,2072,2060,2018,2032,1191
1945,1710995022988133944,2047,2089,2090,2070,2074,2061,1194
1946,1710995022998126411,2066,2036,2094,2057,2026,2040,1193
1947,1710995023008128416,2049,2073,2073,2060,2054,2065,1197
1948,1710995023018170608,2068,2057,2027,2057,2055,2038,1190
1949,1710995023028123088,2052,2100,2081,2095,2084,2070,1194
1950,1710995023038136195,2064,2017,2002,2063,2090,2038,1193
1951,1710995023048115887,2042,2085,2095,2059,2054,2063,1197
1952,1710995023058120527,2072,2039,2093,2045,2052,2045,1192
1953,1710995023068146127,2044,2072,2055,2036,2085,2059,1195
1954,1710995023078143303,2064,2000,1959,2026,2019,2032,1192
1955,1710995023088115020,2040,2068,2071,2056,2058,2064,1196
1956,1710995023098111574,2063,2020,2021,2042,2025,2034,1192
1957,1710995023108115243,2044,2075,2083,2104,2100,2067,1195
1958,1710995023118122508,2058,2008,1981,2023,2027,2029,1190
1959,1710995023128123801,2049,2091,2101,2089,2068,2064,1195
1960,1710995023138126157,2069,2029,2013,2032,2021,2042,1192
1961,1710995023148137359,2050,2088,2100,2068,2029,2064,1195
1962,1710995023158107824,2068,1992,2013,2036,2035,2037,1194
1963,1710995023168122554,2047,2081,2075,2081,2110,2067,1195
1964,1710995023178117004,2058,2008,1994,2039,2038,2037,1193
1965,1710995023188116814,2046,2088,2098,2088,2066,2064,1195
1966,1710995023198114181,2062,2009,1998,2044,2030,2032,1193
1967,1710995023208115945,2047,2092,2118,2070,2092,2070,1194
1968,1710995023218129682,2062,2020,2015,2008,2068,2034,1192
1969,1710995023228109365,2047,2059,2079,1976,2053,2061,1194
1970,1710995023238154262,2072,2007,2012,2052,1990,2040,1193
1971,1710995023248112493,2045,2100,2085,2045,2037,2061,1195
1972,1710995023258116843,2069,2035,2014,2047,2047,2033,1192
1973,1710995023268117465,2045,2092,2115,2063,2066,2064,1196
1974,1710995023278146571,2067,2036,2104,2052,2026,2039,1193
1975,1710995023288112939,2043,2074,2043,2014,2050,2058,1195
1976,1710995023298114793,2066,2004,1995,2039,2045,2037,1193
1977,1710995023308115816,2041,2062,2075,2045,2049,2064,1196
1978,1710995023318113814,2061,2011,2013,2054,2024,2040,1193
1979,1710995023328128522,2048,2073,2081,2071,2086,2073,1196
1980,1710995023338125348,2068,2017,1996,2047,2017,2038,1192
1981,1710995023348127203,2038,2074,2093,2068,2057,2064,1196
1982,1710995023358116353,2064,2008,1984,2056,2033,2037,1190
1983,1710995023368125010,2047,2080,2076,2058,2069,2065,1196
1984,1710995023378119070,2065,2021,2029,2043,1987,2034,1190
1985,1710995023388115865,2042,2076,2092,2062,2058,2059,1192
1986,1710995023398116387,2064,2013,2024,2073,2053,2046,1192
1987,1710995023408113884,2045,2079,2109,2077,2047,2061,1195
1988,1710995023418115248,2066,2026,2034,2064,2007,2040,1191
1989,1710995023428114577,2042,2084,2110,2078,2082,2065,1195
1990,1710995023438131842,2063,2013,1993,2049,2046,2035,1190
1991,1710995023448127905,2036,2074,2056,2056,2069,2060,1195
1992,1710995023458123508,2079,2039,2038,2104,2070,2044,1190
1993,1710995023468112318,2049,2086,2078,2056,2084,2072,1192
1994,1710995023478160170,2057,2007,1994,2039,2027,2029,1191
1995,1710995023488120816,2053,2088,2093,2060,2060,2069,1195
1996,1710995023498106931,2074,2037,2032,2063,2017,2044,1192
1997,1710995023508112712,2039,2088,2076,2056,2053,2059,1195
1998,1710995023518115399,2066,2053,2039,2045,2031,2035,1191
1999,1710995023528113667,2048,2096,2108,2032,2064,2063,1194
2000,1710995023538122786,2068,2022,2030,2068,2049,2044,1191
2001,1710995023548122726,2052,2105,2182,2102,2066,2064,1195
2002,1710995023558120834,2070,2023,2017,2035,2037,2044,1192
2003,1710995023568112749,2052,2087,2073,2067,2088,2068,1194
2004,1710995023578121728,2057,2007,1987,2064,2033,2036,1193
2005,1710995023588132349,2048,2088,2135,2076,2068,2069,1195
2006,1710995023598122011,2065,2019,2005,2027,2057,2039,1192
2007,1710995023608116852,2044,2123,2109,2049,2064,2066,1196
2008,1710995023618114398,2080,2032,2046,2062,2052,2042,1194
2009,1710995023628113979,2050,2080,2076,2060,2080,2072,1194
2010,1710995023638142674,2063,2017,1993,2056,2001,2032,1193
2011,1710995023648120674,2048,2076,2082,2037,2036,2065,1195
2012,1710995023658119803,2071,2022,2024,2041,2043,2042,1192
2013,1710995023668109605,2043,2080,2080,2080,2017,2065,1196
2014,1710995023678116509,2061,2029,2008,2039,2049,2038,1194
2015,1710995023688125999,2046,2085,2092,2063,2063,2062,1195
2016,1710995023698122994,2073,2035,2069,2062,2034,2044,1193
2017,1710995023708115481,2052,2088,2112,2076,2050,2069,1193
2018,1710995023718114089,2062,2003,1984,2035,2030,2040,1193
2019,1710995023728114631,2041,2078,2073,2052,2058,2064,1196
2020,1710995023738118410,2062,2016,2004,2060,2003,2035,1189
2021,1710995023748119303,2037,2067,2052,2037,2046,2057,1195
2022,1710995023758150633,2064,2017,1988,2061,2040,2037,1193
2023,1710995023768113874,2044,2080,2080,2024,2026,2068,1194
2024,1710995023778122793,2067,2016,2015,2044,2032,2037,1192
2025,1710995023788148813,2050,2083,2027,2086,2080,2072,1194
2026,1710995023798103137,2066,2029,2056,2058,2043,2043,1193
2027,1710995023808111575,2046,2094,2102,2063,2061,2070,1196
2028,1710995023818112848,2066,2038,2024,2038,1992,2031,1192
2029,1710995023828115454,2048,2078,2075,2079,2075,2069,1196
2030,1710995023838118381,2072,2052,2026,2060,2034,2041,1193
2031,1710995023848131456,2050,2111,2166,2074,2072,2068,1196
2032,1710995023858112482,2066,2022,2020,2049,2034,2041,1192
2033,1710995023868119617,2040,2076,2062,2069,2085,2064,1196
2034,1710995023878115109,2057,2015,1994,2072,2035,2037,1192
2035,1710995023888115331,2053,2109,2118,2094,2092,2077,1194
2036,1710995023898137093,2064,2018,2013,2042,2028,2030,1193
2037,1710995023908112798,2046,2077,2066,2048,2064,2065,1194
2038,1710995023918116246,2062,2032,1994,2017,2057,2036,1191
2039,1710995023928116588,2052,2098,2100,2072,2055,2064,1195
2040,1710995023938116218,2065,2022,1998,2051,2018,2037,1192
2041,1710995023948129054,2044,2082,2096,2094,2130,2072,1196
2042,1710995023958116431,2066,2013,1995,2005,1967,2034,1193
2043,1710995023968117363,2046,2080,2076,2061,2060,2068,1195
2044,1710995023978115190,2060,2014,1999,2058,2066,2039,1194
2045,1710995023988116985,2042,2102,2087,2062,2047,2057,1193
2046,1710995023998136072,2064,2017,2022,2031,2040,2034,1194
2047,1710995024008121877,2047,2084,2085,2090,2072,2069,1195
2048,1710995024018121636,2061,2012,1995,2035,2018,2042,1193
2049,1710995024028122760,2041,2076,2054,2028,2094,2072,1194
2050,1710995024038168959,2060,2021,1992,2035,2042,2038,1192
2051,1710995024048154142,2049,2058,2064,2032,2042,2058,1196
2052,1710995024058121450,2065,1994,1972,2050,2053,2037,1193
2053,1710995024068121421,2044,2091,2120,2091,2068,2061,1194
2054,1710995024078121412,2064,2016,2016,2017,2014,2034,1192
2055,1710995024088121834,2044,2074,2076,2060,2066,2069,1194
2056,1710995024098122566,2064,2024,1994,2065,2067,2038,1193
2057,1710995024108123719,2044,2083,2089,2090,2074,2066,1197
2058,1710995024118108791,2064,2017,2018,2033,2030,2037,1193
2059,1710995024128126176,2043,2092,2066,2056,2079,2068,1196
2060,1710995024138132338,2066,2022,1992,2042,2060,2031,1190
2061,1710995024148127801,2044,2092,2104,2066,2093,2069,1194
2062,1710995024158124315,2063,2017,2017,2062,2060,2041,1192
2063,1710995024168111732,2045,2086,2114,2067,2060,2064,1195
2064,1710995024178129016,2064,2019,1977,2037,2014,2037,1193
2065,1710995024188129939,2038,2104,2088,2053,2056,2064,1194
2066,1710995024198109510,2066,2035,2010,2044,2021,2037,1192
2067,1710995024208094903,2038,2077,2143,2074,2082,2060,1194
2068,1710995024218113670,2065,2027,2035,2068,2061,2042,1192
2069,1710995024228113801,2060,2116,2203,2098,2079,2078,1193
2070,1710995024238120976,2064,2024,2022,2057,2007,2046,1192
2071,1710995024248100227,2054,2105,2130,2073,2064,2063,1194
2072,1710995024258132530,2067,2027,2053,2053,2045,2042,1193
2073,1710995024268113294,2052,2088,2077,2049,2036,2073,1194
2074,1710995024278113906,2066,2017,1999,2048,2025,2033,1190
2075,1710995024288137361,2042,2080,2073,2081,2080,2067,1192
2076,1710995024298137603,2064,2038,2082,2060,2050,2042,1190
2077,1710995024308106143,2046,2078,2072,2059,2041,2063,1194
2078,1710995024318112437,2065,2013,2027,2044,2021,2039,1192
2079,1710995024328113409,2053,2089,2079,2093,2080,2068,1194
2080,1710995024338110916,2074,2037,2074,2040,2030,2043,1192
2081,1710995024348120254,2048,2072,2096,2038,2058,2063,1194
2082,1710995024358117050,2056,2025,2037,2012,2004,2028,1191
2083,1710995024368112511,2042,2084,2072,2057,2054,2064,1194
2084,1710995024378115839,2061,2024,2000,2031,2024,2045,1191
2085,1710995024388116962,2051,2088,2115,2080,2045,2057,1194
2086,1710995024398117965,2061,2025,1997,2018,2012,2036,1190
2087,1710995024408123626,2043,2069,2084,2041,2042,2059,1196
2088,1710995024418111414,2064,2033,2034,2042,2028,2047,1193
2089,1710995024428112006,2046,2080,2064,2056,2058,2064,1193
2090,1710995024438116295,2064,2017,1990,2020,2017,2033,1192
2091,1710995024448126976,2054,2090,2093,2094,2090,2069,1195
2092,1710995024458125304,2060,2021,1998,2072,2026,2037,1192
2093,1710995024468113332,2046,2080,2084,2098,2078,2072,1194
2094,1710995024478113013,2066,2018,2024,2061,2045,2045,1193
2095,1710995024488116290,2047,2054,2081,2085,2088,2070,1195
2096,1710995024498116271,2074,2025,2001,2046,2046,2047,1193
2097,1710995024508112845,2050,2089,2074,2056,2069,2068,1195
2098,1710995024518112595,2061,2019,2018,2040,2053,2041,1194
2099,1710995024528116394,2046,2081,2090,2057,2064,2066,1195
2100,1710995024538133747,2064,2026,2012,2046,2010,2036,1190
2101,1710995024548156041,2044,2073,2061,2044,2041,2064,1197
2102,1710995024558135643,2064,2005,1936,2045,2018,2040,1192
2103,1710995024568121026,2042,2098,2091,2060,2069,2072,1193
2104,1710995024578110597,2069,2027,2004,2045,2030,2038,1193
2105,1710995024588152228,2044,2081,2085,2066,2052,2066,1196
2106,1710995024598132490,2070,2037,2051,2066,2019,2034,1192
2107,1710995024608119918,2043,2074,2052,2046,2052,2056,1196
2108,1710995024618115770,2065,2018,2009,2052,2017,2040,1190
2109,1710995024628124669,2049,2087,2113,2040,2073,2072,1196
2110,1710995024638111514,2057,2012,2010,2070,2038,2038,1193
2111,1710995024648127376,2049,2104,2086,2085,2074,2070,1196
2112,1710995024658102118,2070,2030,2033,2042,2001,2037,1192
2113,1710995024668097962,2040,2080,2084,2033,2045,2060,1193
2114,1710995024678105837,2064,2024,2012,2044,1996,2040,1193
2115,1710995024688163248,2044,2084,2078,2018,2047,2066,1196
2116,1710995024698116038,2070,2030,2024,2066,2064,2045,1193
2117,1710995024708114447,2044,2072,2064,2060,2090,2070,1196
2118,1710995024718105230,2060,2008,1988,2050,2042,2039,1193
2119,1710995024728108097,2047,2091,2128,2068,2068,2069,1196
2120,1710995024738129388,2058,2025,1997,2035,2037,2036,1190
2121,1710995024748170336,2042,2080,2081,2057,2059,2067,1194
2122,1710995024758118859,2064,2020,2014,2072,2046,2036,1192
2123,1710995024768109362,2045,2092,2140,2033,2050,2065,1194
2124,1710995024778138659,2063,2008,2052,2053,2015,2030,1191
2125,1710995024788117780,2044,2067,2106,2063,2065,2062,1194
2126,1710995024798122490,2064,2028,2000,2040,2060,2041,1192
2127,1710995024808117782,2042,2074,2056,2042,2028,2063,1194
2128,1710995024818117132,2059,2024,2009,2057,2026,2035,1190
2129,1710995024828119928,2039,2077,2092,2068,2076,2065,1194
2130,1710995024838141059,2066,2030,2047,2055,2028,2047,1192
2131,1710995024848173251,2052,2094,2163,2072,2077,2069,1195
2132,1710995024858118107,2063,2023,2013,2070,2074,2048,1194
2133,1710995024868127185,2047,2074,2080,2058,2057,2066,1194
2134,1710995024878114773,2067,2026,2075,2060,2037,2035,1194
2135,1710995024888117328,2043,2070,2062,2049,2076,2061,1194
2136,1710995024898118672,2058,2012,2016,2085,2036,2036,1193
2137,1710995024908111779,2045,2075,2071,2054,2060,2060,1194
2138,1710995024918123032,2065,2021,2001,2036,2020,2040,1194
2139,1710995024928116771,2044,2094,2085,2097,2093,2064,1194
2140,1710995024938121511,2065,2025,1997,2043,2044,2042,1190
2141,1710995024948191796,2045,2085,2077,2063,2065,2068,1194
2142,1710995024958107296,2061,2019,2056,2046,2020,2038,1190
2143,1710995024968102908,2041,2072,2078,2052,2065,2065,1195
2144,1710995024978116716,2056,2017,1996,2019,2049,2031,1192
2145,1710995024988116526,2045,2080,2068,2100,2085,2071,1193
2146,1710995024998118300,2064,2020,2018,2050,2040,2040,1190
2147,1710995025008137888,2042,2076,2078,2059,2056,2063,1195
2148,1710995025018115797,2072,2059,2056,2059,2035,2044,1191
2149,1710995025028119966,2048,2096,2144,2061,2066,2066,1193
2150,1710995025038143271,2065,2033,2030,2040,2030,2035,1192
2151,1710995025048129876,2046,2077,2076,2049,2061,2064,1196
2152,1710995025058086053,2062,2019,2021,2012,2024,2036,1191
2153,1710995025068118506,2042,2078,2082,2032,2082,2063,1196
2154,1710995025078119629,2060,1994,1988,2036,2017,2037,1193
2155,1710995025088111353,2046,2075,2088,2093,2045,2061,1195
2156,1710995025098130681,2068,2023,1983,2056,2080,2050,1194
2157,1710995025108123057,2057,2106,2256,2076,2069,2069,1195
2158,1710995025118117828,2072,2018,2017,2058,2031,2041,1191
2159,1710995025128116867,2054,2109,2117,2085,2102,2069,1194
2160,1710995025138142447,2065,2018,1987,2032,2017,2036,1192
2161,1710995025148144541,2047,2091,2134,2040,2057,2060,1195
2162,1710995025158120425,2065,2023,2031,2026,2023,2044,1192
2163,1710995025168120697,2044,2061,2086,2066,2082,2066,1195
2164,1710995025178125567,2063,2018,2010,2039,2027,2039,1192
2165,1710995025188111841,2048,2101,2102,2122,2184,2078,1195
2166,1710995025198141048,2064,2010,1992,2044,2025,2034,1192
2167,1710995025208143183,2045,2088,2063,2090,2081,2059,1194
2168,1710995025218127774,2061,2021,2005,2045,2030,2040,1192
2169,1710995025228108207,2052,2098,2157,2121,2082,2067,1194
2170,1710995025238130531,2059,2017,2013,2037,2036,2033,1192
2171,1710995025248157573,2045,2104,2081,2056,2068,2064,1196
2172,1710995025258126504,2063,2020,1993,2053,2036,2035,1192
2173,1710995025268132046,2036,2068,2037,2042,2035,2060,1195
2174,1710995025278115876,2064,2025,2008,2037,2017,2036,1192
2175,1710995025288113692,2049,2081,2109,2091,2060,2057,1196
2176,1710995025298135685,2064,2014,2024,2043,2019,2033,1191
2177,1710995025308112000,2046,2077,2092,2067,2076,2067,1196
2178,1710995025318117812,2064,2050,2024,2060,2076,2039,1192
2179,1710995025328114857,2034,2065,2048,2081,2065,2063,1194
2180,1710995025338134436,2065,2021,2037,2012,2012,2037,1189
2181,1710995025348160355,2048,2076,2083,2056,2064,2065,1194
2182,1710995025358108817,2059,2024,2009,2044,2044,2041,1191
2183,1710995025368107587,2044,2077,2092,2069,2084,2066,1194
2184,1710995025378111264,2064,2016,2020,2049,2044,2040,1193
2185,1710995025388109571,2045,2084,2089,2057,2041,2060,1195
2186,1710995025398141223,2062,2036,2003,2046,2047,2041,1192
2187,1710995025408106327,2052,2102,2065,2081,2077,2061,1193
2188,1710995025418120384,2059,2017,2011,2077,2040,2040,1192
2189,1710995025428118040,2043,2088,2104,2076,2050,2047,1190
2190,1710995025438139492,2062,2016,2009,2042,2020,2037,1192
2191,1710995025448129083,2040,2077,2089,2109,2060,2064,1193
2192,1710995025458130987,2061,2020,2026,2072,2066,2044,1190
2193,1710995025468111030,2050,2089,2085,2064,2082,2057,1193
2194,1710995025478111251,2074,2083,2090,2062,2089,2045,1194
2195,1710995025488112043,2056,2089,2072,2038,2073,2067,1195
2196,1710995025498115831,2061,2011,1996,2036,2036,2041,1192
2197,1710995025508106755,2043,2065,2061,2081,2072,2062,1196
2198,1710995025518120652,2062,2021,2008,2033,1989,2036,1193
2199,1710995025528119450,2034,2060,2044,2025,2009,2047,1192
2200,1710995025538112197,2051,2009,1985,2027,2044,2041,1189
2201,1710995025548131535,2052,2089,2140,2094,2084,2066,1194
2202,1710995025558113781,2065,2013,2026,2050,2044,2045,1192
2203,1710995025568117089,2048,2079,2067,2083,2081,2064,1195
2204,1710995025578111899,2068,2032,2030,2044,2018,2046,1190
2205,1710995025588111439,2040,2067,2074,2038,2050,2060,1193
2206,1710995025598114956,2068,2027,1997,2040,2020,2039,1193
2207,1710995025608128383,2051,2088,2104,2072,2047,2058,1195
2208,1710995025618118745,2064,2024,2044,2015,2030,2045,1194
2209,1710995025628115990,2047,2099,2102,2058,2045,2059,1195
2210,1710995025638141500,2072,2045,2097,2068,2052,2052,1195
2211,1710995025648165837,2052,2082,2082,2068,2052,2061,1196
2212,1710995025658104340,2062,2021,2013,2025,2026,2042,1192
