seq,time,data[0],data[1],data[2],data[3],data[4],data[5],data[6]
201,1711002826739086875,2054,2052,2057,2079,2078,2054,1194
202,1711002826749085927,2056,2060,2064,2058,2040,2057,1193
203,1711002826759086372,2059,2076,2072,2073,2084,2060,1196
204,1711002826769198412,2054,2056,2037,2068,2029,2047,1192
205,1711002826779092844,2053,2050,2049,2050,2067,2054,1196
206,1711002826789085915,2049,2047,2003,2068,2080,2055,1196
207,1711002826799088935,2057,2052,2047,2051,2077,2047,1193
208,1711002826809097015,2056,2049,2048,2052,2032,2051,1196
209,1711002826819089895,2059,2048,2040,2060,2075,2054,1195
210,1711002826829086162,2050,2041,2014,2033,2016,2048,1196
211,1711002826839086336,2056,2049,2025,2039,2060,2053,1197
212,1711002826849086892,2057,2053,2032,2064,2005,2053,1197
213,1711002826859087498,2061,2042,2004,2070,2064,2052,1198
214,1711002826869085899,2054,2045,2020,2019,1996,2050,1197
215,1711002826879088017,2060,2053,2026,2046,2068,2053,1197
216,1711002826889084926,2053,2059,2035,2040,2008,2046,1196
217,1711002826899087254,2053,2047,2029,2080,2055,2046,1193
218,1711002826909087880,2054,2046,2035,2037,2027,2048,1197
219,1711002826919085840,2057,2063,2052,2062,2079,2053,1196
220,1711002826929086997,2056,2049,2033,2053,2025,2053,1195
221,1711002826939087021,2057,2046,2025,2077,2080,2054,1196
222,1711002826949086244,2053,2048,2042,2045,2026,2053,1196
223,1711002826959086238,2053,2042,2016,2067,2072,2052,1196
224,1711002826969087274,2054,2048,2035,2034,1991,2047,1193
225,1711002826979088140,2064,2063,2084,2049,2089,2062,1196
226,1711002826989086261,2054,2056,2058,2040,2003,2054,1197
227,1711002826999091695,2057,2066,2072,2050,2060,2051,1197
228,1711002827009119654,2049,2052,2047,2052,2018,2054,1194
229,1711002827019089079,2054,2050,2026,2061,2093,2056,1195
230,1711002827029088722,2056,2076,2054,2079,2052,2058,1196
231,1711002827039086813,2061,2049,2025,2060,2074,2059,1198
232,1711002827049100532,2064,2096,2200,2064,2005,2055,1194
233,1711002827059081319,2056,2052,2058,2076,2110,2052,1198
234,1711002827069078748,2052,2053,2053,2045,2030,2056,1196
235,1711002827079083912,2052,2044,2018,2068,2090,2052,1197
236,1711002827089079709,2060,2057,2015,2030,2006,2054,1195
237,1711002827099091896,2057,2052,2059,2044,2092,2056,1196
238,1711002827109092431,2054,2057,2051,2037,1984,2047,1193
239,1711002827119084239,2064,2069,2068,2064,2101,2056,1196
240,1711002827129077420,2038,2033,1994,2048,2014,2043,1193
241,1711002827139085048,2052,2049,2045,2042,2081,2049,1194
242,1711002827149682488,2056,2085,2120,2029,2032,2044,1192
243,1711002827159109142,2060,2052,2037,2072,2064,2052,1196
244,1711002827169093796,2046,2034,2008,2028,2033,2053,1194
245,1711002827179089643,2057,2060,2130,2052,2078,2056,1195
246,1711002827189100397,2052,2052,2076,2029,2016,2054,1196
247,1711002827199126691,2057,2054,2046,2057,2099,2057,1195
248,1711002827209082400,2056,2050,2033,2035,2015,2054,1196
249,1711002827219098164,2060,2058,2058,2042,2062,2046,1193
250,1711002827229097167,2051,2064,2084,2050,2030,2050,1195
251,1711002827239093604,2057,2051,2015,2042,2056,2051,1196
252,1711002827249097485,2045,2043,2041,2040,2080,2046,1193
253,1711002827259084283,2061,2060,2056,2074,2089,2056,1197
254,1711002827269085059,2057,2053,2036,2046,2019,2053,1196
255,1711002827279130510,2058,2057,2082,2064,2088,2058,1195
256,1711002827289091018,2065,2080,2076,2059,2010,2060,1197
257,1711002827299092945,2059,2067,2074,2085,2124,2066,1196
258,1711002827309100985,2060,2052,2054,2047,2021,2056,1197
259,1711002827319099476,2041,2043,2025,2056,2101,2050,1196
260,1711002827329110862,2058,2058,2065,2052,2052,2058,1196
261,1711002827339099223,2055,2049,2047,2059,2082,2052,1197
262,1711002827349115889,2048,2049,2042,2039,2002,2050,1196
263,1711002827359097187,2057,2051,2045,2056,2076,2048,1195
264,1711002827369101910,2062,2060,2040,2055,2009,2056,1196
265,1711002827379100992,2053,2041,2045,2055,2076,2050,1197
266,1711002827389103161,2060,2056,2062,2052,2005,2057,1195
267,1711002827399101271,2056,2054,2054,2064,2120,2061,1196
268,1711002827409102487,2056,2060,2096,2048,2013,2050,1195
269,1711002827419102662,2056,2052,2042,2061,2074,2053,1195
270,1711002827429105992,2057,2072,2056,2057,2046,2058,1197
271,1711002827439109983,2056,2057,2047,2054,2096,2049,1195
272,1711002827449111109,2053,2046,2033,2042,1981,2045,1195
273,1711002827459140690,2068,2069,2081,2052,2089,2070,1197
274,1711002827469088423,2057,2051,2013,2059,2090,2053,1198
275,1711002827479104608,2054,2048,2045,2066,2009,2056,1196
276,1711002827489105864,2061,2061,2057,2066,2125,2059,1196
277,1711002827499110267,2054,2048,2040,2051,2019,2052,1198
278,1711002827509089942,2058,2064,2102,2097,2120,2058,1195
279,1711002827519089034,2057,2053,2025,2061,2060,2052,1193
280,1711002827529111411,2058,2050,1990,2077,2058,2059,1195
281,1711002827539116304,2069,2074,2073,2066,2036,2060,1196
282,1711002827549152608,2051,2047,2029,2083,2094,2053,1197
283,1711002827559115691,2051,2050,2057,2041,1972,2059,1196
284,1711002827569120965,2060,2059,2056,2042,2088,2058,1194
285,1711002827579112542,2050,2049,2030,2032,2032,2052,1197
286,1711002827589091276,2065,2082,2170,2073,2076,2053,1197
287,1711002827599091631,2052,2056,2020,2021,2003,2045,1192
288,1711002827609093027,2064,2058,2050,2077,2075,2060,1196
289,1711002827619093602,2050,2051,2046,2032,2007,2046,1195
290,1711002827629087634,2054,2042,2013,2064,2085,2058,1197
291,1711002827639097076,2053,2044,2017,2086,2042,2066,1197
292,1711002827649096790,2060,2054,2056,2079,2074,2053,1195
293,1711002827659092485,2056,2048,2056,2033,2002,2051,1196
294,1711002827669096186,2054,2055,2054,2038,2072,2050,1197
295,1711002827679098515,2066,2066,2091,2041,2037,2060,1197
296,1711002827689098869,2060,2060,2084,2093,2098,2064,1194
297,1711002827699110907,2052,2050,2030,2058,2044,2058,1196
298,1711002827709102624,2061,2056,2056,2076,2108,2056,1197
299,1711002827719095064,2058,2074,2189,2025,2000,2049,1197
300,1711002827729099326,2063,2060,2059,2072,2139,2064,1196
301,1711002827739140930,2049,2049,2046,2082,2040,2061,1194
302,1711002827749128029,2056,2049,2050,2094,2106,2052,1197
303,1711002827759103926,2046,2056,2088,2065,1961,2044,1194
304,1711002827769108168,2058,2064,2058,2078,2083,2052,1194
305,1711002827779098945,2056,2049,2040,2042,2033,2050,1195
306,1711002827789098497,2062,2050,2045,2060,2069,2056,1194
307,1711002827799132366,2047,2043,2037,2028,1937,2031,1194
308,1711002827809101381,2064,2053,2034,2052,2073,2058,1196
309,1711002827819100002,2050,2053,2064,1998,2009,2048,1196
310,1711002827829097681,2059,2069,2109,2036,2040,2053,1195
311,1711002827839091263,2064,2068,2088,2054,2034,2060,1197
312,1711002827849120583,2068,2068,2108,2083,2060,2067,1197
313,1711002827859102112,2057,2071,2078,2047,1997,2061,1196
314,1711002827869095273,2065,2061,2056,2052,2072,2057,1194
315,1711002827879096289,2045,2035,1994,2052,2008,2050,1196
316,1711002827889095301,2056,2051,2019,2024,2088,2056,1195
317,1711002827899109351,2052,2046,2001,2037,2010,2054,1195
318,1711002827909097653,2054,2053,2051,2081,2137,2064,1195
319,1711002827919096565,2044,2054,2064,2067,2027,2060,1196
320,1711002827929092531,2057,2053,2049,2056,2117,2069,1197
321,1711002827939103776,2051,2069,2091,2032,2049,2057,1194
322,1711002827949159026,2056,2046,2028,2055,2060,2056,1197
323,1711002827959120667,2052,2048,2025,2013,2018,2051,1197
324,1711002827969116652,2056,2061,2072,2066,2068,2046,1193
325,1711002827979097680,2056,2032,1994,2036,2021,2055,1197
326,1711002827989099978,2061,2060,2040,2074,2061,2052,1196
327,1711002827999144668,2051,2051,2049,2040,2027,2048,1195
328,1711002828009088043,2068,2078,2116,2070,2138,2074,1196
329,1711002828019088277,2048,2047,2041,2027,2011,2054,1195
330,1711002828029087850,2064,2072,2099,2025,2073,2053,1196
331,1711002828039091651,2056,2050,1973,2072,2041,2065,1197
332,1711002828049103136,2036,2040,2037,2064,2043,2036,1194
333,1711002828059085396,2052,2058,2045,2068,2032,2045,1193
334,1711002828069087754,2060,2072,2115,2060,2072,2053,1196
335,1711002828079085443,2076,2100,2225,2050,2001,2056,1195
336,1711002828089082771,2053,2047,2040,2011,2069,2052,1197
337,1711002828099086252,2048,2049,2040,2035,2046,2050,1196
338,1711002828109082327,2050,2048,2007,2079,2072,2052,1197
339,1711002828119088633,2050,2037,2015,2064,2029,2057,1195
340,1711002828129088316,2056,2053,2044,2060,2074,2058,1195
341,1711002828139089030,2056,2060,2077,2038,2001,2056,1193
342,1711002828149087922,2054,2050,2034,2084,2090,2060,1196
343,1711002828159101912,2056,2056,2072,2057,1965,2046,1195
344,1711002828169092277,2057,2047,2040,2085,2106,2069,1195
345,1711002828179094666,2047,2059,2086,2032,2022,2040,1192
346,1711002828189092695,2050,2046,2043,2056,2090,2056,1194
347,1711002828199095464,2052,2050,2066,2013,2017,2048,1194
348,1711002828209084196,2056,2056,2064,2099,2182,2061,1194
349,1711002828219094419,2054,2042,2026,2025,2000,2049,1194
350,1711002828229095134,2062,2058,2070,2072,2084,2050,1196
351,1711002828239096481,2048,2054,2090,2045,2012,2050,1198
352,1711002828249102355,2047,2036,2035,2056,2083,2047,1195
353,1711002828259087320,2056,2043,2017,2021,1989,2050,1197
354,1711002828269094216,2060,2049,2032,2076,2080,2063,1195
355,1711002828279098117,2062,2068,2081,2067,2004,2061,1194
356,1711002828289097189,2053,2036,2015,2073,2017,2053,1194
357,1711002828299098204,2052,2046,2032,2042,1975,2040,1193
358,1711002828309096074,2068,2055,2020,2030,2092,2056,1195
359,1711002828319100486,2051,2047,2046,2044,2086,2047,1193
360,1711002828329087344,2055,2045,2044,2056,2131,2065,1195
361,1711002828339102016,2058,2052,2021,2056,2022,2058,1193
362,1711002828349077953,2040,2026,1998,2040,2081,2045,1192
363,1711002828359099108,2051,2042,2028,2028,2012,2052,1196
364,1711002828369092869,2061,2056,2030,2113,2053,2057,1195
365,1711002828379089396,2042,2053,2126,2037,1991,2042,1193
366,1711002828389093447,2056,2055,2044,2068,2098,2051,1196
367,1711002828399120393,2058,2065,2090,2040,2024,2052,1196
368,1711002828409091671,2045,2046,2070,2075,2081,2058,1196
369,1711002828419092435,2058,2053,2070,2029,1961,2052,1195
370,1711002828429090405,2064,2057,2075,2104,2081,2061,1196
371,1711002828439092482,2049,2046,2023,2022,2019,2047,1194
372,1711002828449604769,2046,2048,2044,2108,2091,2056,1197
373,1711002828459204254,2067,2064,2066,2041,1985,2056,1195
374,1711002828469097363,2064,2050,2040,2083,2068,2048,1195
375,1711002828479094952,2057,2054,2067,2050,2016,2045,1192
376,1711002828489093743,2056,2051,2046,2068,2119,2057,1195
377,1711002828499123544,2047,2056,2069,2098,2073,2067,1195
378,1711002828509097597,2057,2059,2043,2050,2104,2052,1194
379,1711002828519096379,2051,2049,2065,2047,2018,2060,1194
380,1711002828529095350,2060,2066,2086,2101,2104,2058,1195
381,1711002828539102878,2060,2058,2065,2080,2062,2057,1194
382,1711002828549163127,2056,2054,2054,2072,2099,2046,1193
383,1711002828559096994,2042,2045,2043,2042,2009,2046,1194
384,1711002828569098360,2064,2058,2053,2092,2096,2060,1196
385,1711002828579098313,2061,2089,2158,2079,2005,2054,1195
386,1711002828589093959,2049,2049,2041,2090,2109,2057,1193
387,1711002828599204053,2040,2050,2060,2032,1927,2029,1192
388,1711002828609096129,2061,2054,2018,2036,2088,2060,1196
389,1711002828619096584,2050,2048,2060,2031,2064,2058,1196
390,1711002828629098010,2064,2056,2092,2072,2093,2062,1194
391,1711002828639112552,2052,2044,2046,2019,2035,2055,1200
392,1711002828649116613,2056,2051,2065,2053,2092,2058,1197
393,1711002828659099404,2051,2047,2059,2074,2034,2056,1197
394,1711002828669105098,2058,2046,2020,2129,2129,2061,1194
395,1711002828679095664,2050,2048,2094,2029,2030,2045,1193
396,1711002828689097541,2045,2046,2040,2069,2094,2048,1193
397,1711002828699106361,2049,2050,2053,2039,1993,2052,1196
398,1711002828709111113,2058,2052,2038,2056,2072,2052,1196
399,1711002828719099986,2056,2047,2021,2066,2065,2057,1196
400,1711002828729098877,2058,2052,2026,2105,2140,2056,1195
401,1711002828739101525,2044,2039,1996,2035,1984,2050,1194
402,1711002828749115987,2053,2040,2025,1996,2089,2051,1195
403,1711002828759110199,2051,2045,2030,2024,1986,2048,1195
404,1711002828769094322,2052,2050,2043,2069,2080,2047,1193
405,1711002828779098844,2055,2054,2042,2048,2005,2050,1194
406,1711002828789096013,2056,2057,2044,2084,2147,2058,1195
407,1711002828799134310,2064,2062,2050,2036,2033,2064,1200
408,1711002828809102492,2056,2052,2081,2036,2091,2057,1196
409,1711002828819097105,2056,2050,2046,2048,2027,2050,1192
410,1711002828829093953,2050,2041,2000,2043,2076,2051,1193
411,1711002828839101762,2058,2067,2100,2065,2033,2059,1196
412,1711002828849117064,2045,2041,2033,2072,2088,2047,1193
413,1711002828859069677,2052,2048,2052,2049,2050,2055,1196
414,1711002828869096692,2064,2061,2085,2050,2094,2053,1195
415,1711002828879100542,2046,2043,1992,1993,2013,2055,1196
416,1711002828889095627,2054,2050,2048,2081,2134,2072,1197
417,1711002828899120047,2055,2048,2022,2024,1961,2046,1194
418,1711002828909097397,2056,2052,2022,2084,2088,2042,1193
419,1711002828919101338,2053,2042,2032,2018,2014,2053,1197
420,1711002828929098016,2050,2044,2013,2065,2125,2047,1195
421,1711002828939109732,2050,2050,2018,2041,2021,2049,1195
422,1711002828949125155,2051,2052,2068,2070,2115,2063,1196
423,1711002828959096664,2044,2040,2029,2039,1987,2040,1193
424,1711002828969095044,2060,2063,2097,2074,2120,2068,1195
425,1711002828979095599,2053,2051,2050,2025,2022,2046,1194
426,1711002828989093579,2073,2089,2147,2078,2136,2060,1195
427,1711002828999109553,2057,2049,2052,2045,1970,2047,1192
428,1711002829009095880,2052,2047,2039,2057,2082,2052,1197
429,1711002829019090392,2050,2047,2038,2026,2006,2051,1196
430,1711002829029099042,2056,2070,2119,2078,2070,2052,1196
431,1711002829039153890,2052,2051,2048,2042,2052,2056,1195
432,1711002829049108326,2050,2056,2053,2040,2080,2047,1196
433,1711002829059108108,2054,2068,2086,2056,2013,2056,1195
434,1711002829069100587,2059,2044,2018,2076,2071,2048,1197
435,1711002829079100441,2053,2053,2049,2037,1978,2050,1195
436,1711002829089099812,2057,2042,2002,2074,2124,2052,1195
437,1711002829099106999,2053,2072,2157,2036,1967,2047,1194
438,1711002829109105329,2052,2056,2040,2056,2068,2046,1194
439,1711002829119097527,2052,2070,2147,2027,1976,2033,1193
440,1711002829129098843,2045,2042,2022,2064,2104,2059,1194
441,1711002829139120618,2056,2047,2036,2062,1997,2050,1194
442,1711002829149122334,2050,2041,2038,2066,2136,2053,1197
443,1711002829159088562,2058,2049,2031,2037,2021,2054,1195
444,1711002829169106089,2077,2072,2042,2092,2113,2064,1195
445,1711002829179103227,2062,2080,2143,2049,2033,2059,1196
446,1711002829189104172,2056,2042,2032,2070,2128,2058,1195
447,1711002829199097993,2060,2070,2074,2061,2074,2056,1195
448,1711002829209096834,2045,2044,2087,2090,2104,2056,1195
449,1711002829219106125,2063,2078,2149,2057,2009,2061,1196
450,1711002829229096229,2056,2048,2033,2069,2100,2049,1196
451,1711002829239108045,2056,2045,2035,2014,1963,2045,1194
452,1711002829249113459,2054,2046,2028,2027,2102,2040,1193
453,1711002829259101609,2052,2082,2234,2040,2010,2046,1194
454,1711002829269105169,2034,2054,2077,2084,2062,2035,1194
455,1711002829279097577,2054,2051,2052,2033,2003,2056,1198
456,1711002829289102690,2056,2046,2038,2060,2078,2052,1195
457,1711002829299112282,2053,2072,2133,2069,2078,2055,1198
458,1711002829309134207,2056,2046,2008,2082,2088,2056,1196
459,1711002829319091248,2050,2043,2048,2034,2029,2054,1194
460,1711002829329093054,2060,2060,2045,2059,2091,2057,1195
461,1711002829339121171,2058,2048,2045,2036,2016,2061,1195
462,1711002829349142185,2061,2061,2068,2014,2064,2057,1196
463,1711002829359109836,2049,2040,2028,2036,2040,2046,1192
464,1711002829369103116,2056,2056,2066,2063,2088,2054,1193
465,1711002829379097979,2062,2057,2022,2046,2046,2059,1193
466,1711002829389098774,2044,2043,2043,2094,2174,2053,1194
467,1711002829399111862,2056,2054,2068,2057,2002,2050,1195
468,1711002829409106465,2066,2076,2104,2070,2083,2058,1198
469,1711002829419095608,2049,2044,2031,2051,2026,2056,1196
470,1711002829429098396,2057,2054,2047,2074,2092,2058,1195
471,1711002829439099742,2053,2044,2042,2070,2021,2060,1195
472,1711002829449117669,2048,2060,2139,2061,2071,2051,1196
473,1711002829459325661,2057,2051,2046,2080,2036,2061,1196
474,1711002829469101033,2055,2055,2043,2078,2095,2061,1195
475,1711002829479101056,2052,2045,2037,2019,2020,2041,1193
476,1711002829489102914,2046,2050,2044,2029,2084,2053,1195
477,1711002829499119528,2056,2054,2045,2088,2039,2075,1196
478,1711002829509106386,2057,2053,2033,2052,2042,2050,1194
479,1711002829519099746,2049,2019,2014,2049,2004,2056,1194
480,1711002829529100892,2048,2031,1960,2074,2120,2058,1195
481,1711002829539101907,2053,2052,2045,2042,2008,2047,1192
482,1711002829549114835,2056,2066,2112,2059,2064,2053,1195
483,1711002829559103526,2057,2057,2059,2044,2041,2047,1194
484,1711002829569107547,2066,2076,2082,2064,2008,2056,1196
485,1711002829579107620,2056,2057,2068,2066,2026,2052,1194
486,1711002829589110409,2045,2047,2040,2079,2037,2037,1192
487,1711002829599121603,2061,2073,2125,2040,1979,2052,1195
488,1711002829609107510,2057,2056,2066,2096,2133,2074,1195
489,1711002829619109927,2056,2044,2027,2036,2010,2050,1197
490,1711002829629111524,2032,2031,2042,2017,2088,2033,1194
491,1711002829639123751,2045,2046,2042,2041,2037,2046,1194
492,1711002829649108474,2056,2051,2030,2060,2058,2051,1197
493,1711002829659095723,2059,2050,2024,2016,1989,2049,1197
494,1711002829669096978,2056,2042,2052,2078,2098,2068,1195
495,1711002829679095549,2064,2061,2064,2064,1967,2054,1195
496,1711002829689094069,2058,2058,2047,2077,2104,2054,1196
497,1711002829699094613,2049,2044,2041,2073,2076,2057,1197
498,1711002829709112982,2054,2050,2050,2082,2110,2060,1195
499,1711002829719098116,2056,2058,2084,2070,2043,2061,1194
500,1711002829729096847,2058,2051,2027,2072,2184,2061,1196
501,1711002829739118431,2047,2050,2066,2039,2027,2046,1192
502,1711002829749121200,2062,2072,2110,2064,2094,2050,1196
503,1711002829759116544,2050,2036,2045,2025,1989,2056,1196
504,1711002829769101498,2043,2033,2028,2040,2064,2037,1194
505,1711002829779097043,2050,2044,2045,2024,1955,2043,1193
506,1711002829789101263,2056,2054,2033,2052,2069,2049,1194
507,1711002829799095266,2056,2057,2055,2043,2052,2053,1195
508,1711002829809101581,2056,2056,2012,2118,2137,2052,1197
509,1711002829819104339,2043,2038,2044,2046,1932,2040,1194
510,1711002829829097980,2064,2076,2116,2084,2101,2058,1194
511,1711002829839099696,2050,2043,2026,1978,2011,2052,1195
512,1711002829849147992,2058,2055,2055,2044,2080,2056,1197
513,1711002829859122716,2053,2056,2072,2046,1993,2052,1197
514,1711002829869098413,2040,2038,2049,2072,2113,2045,1190
515,1711002829879097726,2062,2080,2152,2053,2016,2060,1196
516,1711002829889099121,2058,2050,2044,2058,2085,2050,1196
517,1711002829899099465,2054,2066,2140,2052,2002,2056,1195
518,1711002829909112122,2057,2053,2040,2067,2145,2058,1195
519,1711002829919094061,2060,2072,2091,2043,2019,2055,1195
520,1711002829929092781,2059,2056,2060,2092,2108,2056,1196
521,1711002829939102864,2068,2074,2114,2038,2024,2056,1195
522,1711002829949126142,2059,2046,2031,2029,2024,2053,1196
523,1711002829959108320,2054,2044,2037,2040,2002,2056,1195
524,1711002829969107602,2048,2034,2042,2068,2090,2057,1196
525,1711002829979096675,2052,2048,2073,2056,2028,2054,1195
526,1711002829989096146,2062,2050,2034,2000,2043,2044,1194
527,1711002829999105157,2049,2038,2034,2026,1998,2046,1193
528,1711002830009107474,2058,2051,2002,2058,2082,2052,1196
529,1711002830019099231,2064,2064,2079,2045,2037,2065,1196
530,1711002830029096770,2064,2063,2094,2077,2115,2069,1195
531,1711002830039108395,2058,2068,2152,2036,2024,2056,1196
532,1711002830049137753,2058,2058,2069,2047,2065,2052,1196
533,1711002830059090435,2054,2052,2056,2043,1957,2056,1196
534,1711002830069093595,2046,2040,2036,2040,2101,2049,1197
535,1711002830079093076,2064,2072,2087,2030,2019,2051,1198
536,1711002830089092077,2044,2036,1996,2053,2114,2054,1195
537,1711002830099111537,2052,2032,2026,2048,2008,2057,1197
538,1711002830109100088,2047,2044,2038,2056,2085,2050,1198
539,1711002830119095301,2054,2047,2037,2040,2012,2052,1197
540,1711002830129097007,2056,2056,2026,2025,2074,2054,1195
541,1711002830139115846,2044,2041,2044,2013,1974,2034,1192
542,1711002830149775976,2057,2049,2043,2068,2098,2056,1197
543,1711002830159108758,2053,2048,2041,2028,1979,2050,1197
544,1711002830169102198,2033,2047,2078,2082,2112,2048,1200
545,1711002830179103173,2056,2073,2053,2048,2077,2065,1195
546,1711002830189107564,2056,2050,2030,2053,2102,2053,1195
547,1711002830199120111,2053,2048,2044,2032,1996,2057,1194
548,1711002830209099464,2054,2051,2067,2032,2041,2041,1195
549,1711002830219106760,2046,2052,2041,2050,2034,2058,1194
550,1711002830229100882,2059,2061,2078,2096,2159,2065,1195
551,1711002830239111395,2042,2031,2004,2038,2028,2049,1198
552,1711002830249162957,2061,2059,2044,2070,2107,2064,1197
553,1711002830259102824,2058,2056,2053,2052,2024,2062,1196
554,1711002830269098639,2056,2058,2076,2085,2085,2050,1194
555,1711002830279100185,2041,2050,2008,2008,2024,2039,1193
556,1711002830289101530,2053,2049,2093,2040,2141,2065,1197
557,1711002830299167148,2047,2043,2029,2011,1993,2047,1194
558,1711002830309124339,2048,2035,2022,2046,2106,2053,1196
559,1711002830319105125,2049,2044,2044,2062,1987,2047,1193
560,1711002830329103895,2056,2038,2018,2073,2066,2046,1195
561,1711002830339142772,2052,2049,2082,2049,2031,2060,1193
562,1711002830349131002,2054,2045,2026,2069,2112,2058,1195
563,1711002830359117400,2056,2049,2037,2069,2005,2054,1196
564,1711002830369104488,2061,2056,2058,2069,2082,2055,1197
565,1711002830379106133,2052,2055,2073,1998,1991,2056,1196
566,1711002830389102378,2056,2061,2040,2068,2112,2056,1196
567,1711002830399126498,2052,2062,2112,2034,1993,2051,1197
568,1711002830409116542,2055,2052,2024,2084,2108,2059,1196
569,1711002830419111995,2056,2053,2047,2027,1987,2048,1196
570,1711002830429113601,2052,2056,2026,2066,2085,2041,1194
571,1711002830439115087,2052,2048,2037,2039,2008,2047,1196
572,1711002830449128145,2060,2059,2028,2080,2104,2057,1197
573,1711002830459111355,2056,2050,2009,2024,2016,2058,1197
574,1711002830469099204,2058,2052,2037,2061,2112,2056,1197
575,1711002830479101402,2049,2067,2037,2069,2033,2048,1195
576,1711002830489097597,2056,2042,2017,2080,2093,2056,1197
577,1711002830499146804,2049,2047,2065,2017,2000,2032,1192
578,1711002830509092653,2056,2052,2062,2076,2154,2059,1196
579,1711002830519088077,2051,2052,2064,1996,1996,2048,1195
580,1711002830529087249,2058,2060,2104,2082,2101,2058,1195
581,1711002830539090798,2028,2037,2050,2030,1980,2029,1189
582,1711002830549106210,2059,2055,2066,2056,2077,2056,1197
583,1711002830559077898,2051,2048,2041,2044,2033,2056,1196
584,1711002830569102599,2058,2088,2076,2084,2090,2045,1193
585,1711002830579087442,2056,2050,2027,2045,1990,2049,1195
586,1711002830589086463,2053,2065,2098,2021,2120,2053,1195
587,1711002830599097557,2052,2037,2004,2050,2019,2053,1196
588,1711002830609074917,2066,2067,2081,2109,2124,2064,1196
589,1711002830619094146,2049,2047,2047,2034,2005,2049,1196
590,1711002830629087957,2068,2063,2053,2069,2093,2061,1195
591,1711002830639128978,2056,2042,2032,2036,2016,2053,1197
592,1711002830649096459,2067,2066,2117,2076,2104,2064,1194
593,1711002830659085451,2058,2075,2137,2049,1987,2055,1196
594,1711002830669089611,2053,2044,2034,2073,2065,2051,1195
595,1711002830679088401,2046,2071,2062,2024,2012,2047,1194
596,1711002830689086581,2070,2069,2080,2068,2099,2060,1200
597,1711002830699093477,2054,2054,2056,2026,2016,2056,1195
598,1711002830709090884,2058,2064,2080,2072,2168,2060,1195
599,1711002830719086468,2050,2040,2009,2047,2024,2056,1197
600,1711002830729087012,2043,2034,1982,2060,2098,2050,1195
601,1711002830739090512,2051,2045,2048,2047,2002,2050,1195
602,1711002830749087980,2053,2046,2039,2070,2076,2056,1197
603,1711002830759091379,2037,2029,2011,2031,2003,2048,1195
604,1711002830769093726,2047,2031,2003,2064,2066,2050,1196
605,1711002830779082939,2056,2057,2045,2042,1984,2045,1193
606,1711002830789080306,2060,2066,2034,2073,2088,2057,1197
607,1711002830799081160,2053,2068,2105,2035,2016,2051,1196
608,1711002830809081684,2061,2047,2015,2068,2091,2062,1194
609,1711002830819089562,2056,2040,2017,2044,2020,2056,1194
610,1711002830829091018,2058,2049,2030,2058,2078,2058,1197
611,1711002830839089006,2056,2053,2052,2032,1996,2053,1195
612,1711002830849092916,2057,2054,2062,2041,2115,2056,1197
613,1711002830859090575,2056,2057,2037,2053,2028,2052,1194
614,1711002830869081711,2052,2044,2024,2054,2069,2052,1195
615,1711002830879080802,2054,2024,2029,2083,2042,2060,1196
616,1711002830889082397,2053,2040,2032,2044,2083,2052,1195
617,1711002830899136645,2053,2054,2057,2074,2060,2061,1196
618,1711002830909088535,2057,2056,2046,2060,2132,2052,1194
619,1711002830919080973,2060,2073,2132,2073,2034,2060,1196
620,1711002830929083510,2059,2057,2044,2061,2099,2050,1195
621,1711002830939077713,2057,2052,2038,2028,1945,2049,1192
622,1711002830949092754,2061,2052,2001,2064,2088,2053,1195
623,1711002830959088508,2058,2060,2072,2036,2040,2057,1197
624,1711002830969089332,2056,2058,2032,2070,2091,2047,1192
625,1711002830979089326,2056,2041,2047,2011,2005,2054,1194
626,1711002830989088637,2057,2065,2068,2040,2082,2049,1195
627,1711002830999098458,2048,2063,2112,2035,1990,2049,1195
628,1711002831009077640,2067,2068,2085,2065,2119,2061,1195
629,1711002831019081650,2042,2048,2050,2040,2011,2053,1195
630,1711002831029080240,2057,2048,2004,2093,2076,2052,1195
631,1711002831039080453,2053,2068,2153,2048,1999,2054,1195
632,1711002831049096135,2056,2050,2029,2065,2116,2048,1198
633,1711002831059078955,2049,2054,2086,2021,2036,2057,1196
634,1711002831069087634,2054,2056,2048,2075,2083,2050,1196
635,1711002831079085191,2060,2067,2098,2048,2014,2056,1196
636,1711002831089083730,2063,2055,2058,2075,2101,2064,1197
637,1711002831099084334,2027,2030,2012,2024,1996,2039,1192
638,1711002831109087833,2056,2051,2081,2059,2108,2064,1194
639,1711002831119088787,2052,2054,2058,2043,2044,2056,1195
640,1711002831129086485,2055,2052,2054,2072,2101,2056,1195
641,1711002831139087560,2056,2061,2057,2050,1998,2048,1194
642,1711002831149118281,2060,2054,2054,2046,2062,2054,1193
643,1711002831159078708,2053,2044,2029,2029,2010,2056,1195
644,1711002831169086135,2061,2074,2131,2053,2077,2049,1195
645,1711002831179094151,2046,2039,1995,2016,1988,2043,1193
646,1711002831189084976,2053,2045,2040,2056,2074,2053,1194
647,1711002831199113433,2053,2048,2048,2035,2018,2046,1191
648,1711002831209088598,2056,2046,2019,2081,2093,2054,1196
649,1711002831219089412,2053,2037,1997,2074,2034,2059,1197
650,1711002831229087842,2053,2044,2034,2033,2023,2056,1195
651,1711002831239091691,2057,2057,2041,2031,2004,2056,1197
652,1711002831249078569,2034,2028,2024,2046,2053,2038,1193
653,1711002831259077890,2048,2067,2127,2061,2074,2061,1197
654,1711002831269090426,2068,2078,2108,2049,2059,2062,1196
655,1711002831279085228,2049,2042,2043,2041,2006,2050,1193
656,1711002831289085791,2061,2053,2047,2064,2113,2053,1196
657,1711002831299066256,2056,2045,2026,2033,1997,2047,1192
658,1711002831309115403,2058,2046,2015,2037,2042,2040,1192
659,1711002831319090478,2057,2052,2067,2040,1989,2047,1192
660,1711002831329086543,2056,2072,2029,2073,2122,2059,1193
661,1711002831339064573,2058,2050,2040,2058,2033,2056,1196
662,1711002831349085065,2058,2062,2073,2072,2096,2056,1197
663,1711002831359086310,2075,2064,2041,2049,2006,2057,1195
664,1711002831369086261,2057,2057,2054,2058,2080,2053,1196
665,1711002831379085712,2060,2060,2098,2029,1968,2044,1194
666,1711002831389085665,2058,2049,2044,2082,2124,2060,1194
667,1711002831399112509,2054,2052,2042,2038,2001,2051,1195
668,1711002831409085289,2056,2046,2016,2060,2095,2054,1194
669,1711002831419087065,2052,2047,2029,2058,1988,2049,1195
670,1711002831429087809,2058,2048,2044,2070,2080,2045,1193
671,1711002831439100345,2046,2043,2036,2064,2027,2052,1197
672,1711002831450562312,2061,2070,2085,2054,2128,2056,1195
673,1711002831459089620,2053,2047,2046,2026,1996,2048,1196
674,1711002831469088349,2057,2070,2104,2095,2104,2064,1195
675,1711002831479088281,2058,2062,2074,2047,2010,2051,1195
676,1711002831489089185,2050,2053,2035,2066,2093,2053,1194
677,1711002831499113324,2046,2046,2056,2041,2013,2041,1193
678,1711002831509093819,2062,2058,2099,2085,2077,2057,1196
679,1711002831519093361,2055,2047,2044,2030,1996,2052,1195
680,1711002831529094265,2053,2050,2045,2066,2094,2048,1196
681,1711002831539098285,2064,2043,2021,2030,2018,2064,1193
682,1711002831549093057,2068,2067,2080,2072,2094,2062,1195
683,1711002831559094181,2051,2027,2042,2057,1997,2045,1193
684,1711002831569095255,2052,2043,2045,2056,2118,2056,1195
685,1711002831579079458,2052,2043,2024,2072,2039,2056,1193
686,1711002831589096152,2052,2054,2052,2072,2090,2056,1196
687,1711002831599100703,2058,2060,2063,2034,2064,2062,1195
688,1711002831609106246,2056,2051,2053,2084,2103,2061,1197
689,1711002831619084647,2064,2084,2152,2024,1969,2044,1195
690,1711002831629124566,2053,2047,2014,2065,2120,2065,1196
691,1711002831639107156,2054,2048,2049,2072,2020,2056,1196
692,1711002831649080386,2066,2055,2100,2066,2118,2056,1198
693,1711002831659103222,2043,2028,2036,1994,1980,2049,1196
694,1711002831669087674,2050,2054,2057,2100,2129,2064,1197
695,1711002831679084731,2049,2049,2064,2042,2002,2055,1195
696,1711002831689110593,2060,2054,2047,2096,2136,2060,1197
697,1711002831699086670,2047,2049,2064,2027,2036,2052,1197
698,1711002831709092403,2053,2048,2037,2064,2096,2059,1197
699,1711002831719083599,2052,2056,2081,2037,2039,2056,1195
700,1711002831729086597,2062,2064,2070,2042,2081,2056,1196
701,1711002831739094294,2046,2042,2027,2050,2034,2047,1192
702,1711002831749097933,2060,2057,2021,2080,2059,2062,1194
703,1711002831759086333,2052,2050,2035,2044,1999,2052,1197
704,1711002831769088981,2061,2072,2120,2072,2088,2046,1194
705,1711002831779087230,2054,2051,2052,2036,1979,2047,1195
706,1711002831789083465,2056,2056,2048,2101,2140,2062,1197
707,1711002831799090090,2056,2064,2088,2043,1970,2052,1195
708,1711002831809092056,2056,2047,2036,2106,2099,2056,1196
709,1711002831819055459,2056,2043,2130,2024,1957,2052,1195
710,1711002831829090388,2057,2037,2035,2080,2082,2056,1194
711,1711002831839089940,2055,2052,2059,2054,2045,2057,1194
712,1711002831849085493,2060,2058,2062,2061,2053,2060,1197
713,1711002831859087980,2056,2059,2048,2024,1994,2046,1193
714,1711002831869086539,2059,2057,2053,2046,2095,2051,1195
715,1711002831879086512,2044,2049,2054,2059,2054,2046,1192
716,1711002831889087055,2060,2058,2041,2073,2073,2056,1196
717,1711002831899113509,2051,2046,2052,2072,2023,2045,1194
718,1711002831909091840,2047,2050,2020,2056,2080,2037,1193
719,1711002831919087133,2049,2032,2049,2059,1967,2045,1196
720,1711002831929088298,2071,2080,2108,2077,2057,2041,1193
721,1711002831939138736,2061,2062,2089,2068,2026,2058,1190
722,1711002831949094513,2050,2046,2038,2067,2107,2058,1197
723,1711002831959081361,2047,2045,2032,2062,1992,2054,1195
724,1711002831969084479,2059,2042,2022,2073,2146,2057,1196
725,1711002831979084421,2055,2046,2031,2038,1988,2044,1192
726,1711002831989087430,2059,2053,2061,2116,2143,2069,1197
727,1711002831999095097,2051,2036,2081,2036,1996,2048,1197
728,1711002832009127241,2053,2028,2028,2067,2076,2054,1197
729,1711002832019086715,2052,2049,2050,1978,1990,2048,1193
730,1711002832029087829,2052,2050,2043,2066,2093,2057,1194
731,1711002832039118259,2050,2044,2056,2008,2020,2053,1197
732,1711002832049093183,2061,2054,2037,2039,2108,2061,1194
733,1711002832059088055,2047,2048,2052,2036,2039,2042,1194
734,1711002832069085522,2057,2069,2086,2053,2077,2051,1197
735,1711002832079081958,2050,2046,2043,2039,1974,2039,1192
736,1711002832089081579,2056,2053,2045,2084,2128,2059,1196
737,1711002832099088845,2047,2053,2097,2074,2015,2055,1195
738,1711002832109084418,2059,2052,2010,2064,2082,2051,1196
739,1711002832119081625,2057,2056,2066,2053,1993,2055,1194
740,1711002832129083510,2057,2068,2042,2057,2071,2047,1193
741,1711002832139093832,2046,2043,2027,2036,2070,2052,1195
742,1711002832149086620,2064,2064,2059,2073,2105,2056,1196
743,1711002832159089107,2044,2047,2041,2066,2047,2050,1196
744,1711002832169092145,2060,2053,2042,2100,2124,2060,1196
745,1711002832179089522,2047,2046,2051,2040,2008,2052,1196
746,1711002832189099463,2058,2054,2038,2068,2096,2059,1195
747,1711002832199087371,2072,2106,2095,2038,2004,2056,1196
748,1711002832209083777,2057,2043,2029,2054,2086,2056,1196
749,1711002832219084269,2053,2051,2098,2033,1978,2044,1193
750,1711002832229084382,2061,2061,2069,2102,2158,2070,1196
751,1711002832239089924,2048,2041,2038,2032,1992,2043,1196
752,1711002832249090057,2060,2056,2009,2076,2117,2055,1196
753,1711002832259086241,2047,2036,2008,2039,2017,2046,1194
754,1711002832269090451,2061,2066,2058,2078,2086,2053,1196
755,1711002832279098239,2057,2056,2049,2047,2043,2049,1196
756,1711002832289112257,2054,2049,2040,2068,2077,2054,1196
757,1711002832299081571,2052,2046,2044,2034,2040,2056,1193
758,1711002832309090679,2057,2052,2040,2068,2098,2060,1195
759,1711002832319090772,2057,2053,2070,2061,2085,2056,1196
760,1711002832329091164,2046,2052,2044,2088,2096,2047,1194
761,1711002832339082370,2053,2059,2074,2049,2022,2056,1194
762,1711002832349088212,2069,2079,2142,2093,2109,2061,1195
763,1711002832359089678,2054,2056,2067,2049,2020,2052,1195
764,1711002832369092866,2062,2053,2028,2044,2096,2052,1193
765,1711002832379116363,2047,2020,1997,2040,2038,2053,1196
766,1711002832389095364,2064,2048,2046,2061,2084,2065,1196
767,1711002832399084716,2068,2098,2240,2081,2049,2066,1198
768,1711002832409094808,2061,2051,2041,2072,2061,2056,1196
769,1711002832419101281,2046,2038,1998,2076,2064,2052,1197
770,1711002832429093890,2052,2049,2031,2061,2088,2053,1196
771,1711002832439093019,2054,2040,2030,2038,2011,2058,1194
772,1711002832449091799,2037,2036,2027,2058,2128,2047,1194
773,1711002832459095418,2054,2052,2060,2052,1995,2047,1193
774,1711002832469095761,2049,2052,2050,2064,2108,2045,1192
775,1711002832479097336,2055,2055,2052,2064,2000,2063,1195
776,1711002832489093300,2045,2047,2041,2062,2084,2045,1195
777,1711002832499095927,2047,2048,2066,2040,1988,2042,1194
778,1711002832509101229,2055,2046,2012,2060,2049,2037,1192
779,1711002832519085551,2050,2045,2046,2052,2028,2054,1197
780,1711002832529087066,2058,2068,2045,2045,2088,2044,1195
781,1711002832539090084,2059,2056,2080,2040,1993,2052,1194
782,1711002832549082952,2063,2057,2038,2007,2101,2039,1192
783,1711002832559089146,2051,2050,2059,2058,2034,2056,1194
784,1711002832569087024,2064,2054,2012,2066,2090,2061,1195
785,1711002832579094490,2056,2048,2026,2044,2020,2050,1196
786,1711002832589100955,2069,2076,2088,2064,2100,2059,1195
787,1711002832599092189,2050,2040,2014,2020,2012,2051,1196
788,1711002832609087022,2063,2063,2088,2046,2072,2056,1197
789,1711002832619087184,2066,2079,2137,2078,2060,2060,1194
790,1711002832629090122,2062,2052,2040,2049,2080,2053,1196
791,1711002832639113438,2048,2064,2068,2052,2016,2051,1196
792,1711002832649102059,2060,2055,2035,2067,2087,2060,1197
793,1711002832659086610,2050,2043,2027,2033,2012,2056,1196
794,1711002832669087595,2063,2086,2116,2059,2084,2052,1198
795,1711002832679094009,2056,2053,2080,2043,1980,2054,1196
796,1711002832689125361,2061,2056,2072,2078,2130,2060,1197
797,1711002832699353591,2052,2040,2000,2033,2002,2056,1194
798,1711002832709100136,2062,2054,2058,2088,2118,2060,1197
799,1711002832719093937,2056,2057,2072,2006,2001,2057,1196
800,1711002832729097375,2051,2039,2066,2061,2089,2052,1196
801,1711002832739094812,2055,2049,2036,2033,1982,2046,1190
802,1711002832749137065,2059,2053,2040,2056,2081,2057,1196
803,1711002832759097040,2050,2046,2030,2020,2017,2053,1196
804,1711002832769091702,2064,2056,2059,2066,2094,2050,1197
805,1711002832779114588,2058,2055,2053,2022,2003,2058,1196
806,1711002832789101606,2053,2045,2032,2084,2122,2056,1196
807,1711002832799090726,2056,2053,2060,2049,1998,2056,1195
808,1711002832809087001,2052,2040,2022,2057,2094,2053,1196
809,1711002832819094567,2056,2069,2148,2034,2050,2046,1194
810,1711002832829105400,2053,2038,2004,2039,2088,2060,1197
811,1711002832839095673,2053,2055,2042,2040,1994,2052,1197
812,1711002832849136143,2056,2057,2058,2058,2064,2046,1192
813,1711002832859118631,2048,2048,2038,2058,2010,2046,1194
814,1711002832869092483,2056,2053,2028,2080,2132,2058,1197
815,1711002832879099509,2064,2081,2115,2046,2025,2057,1196
816,1711002832889095563,2057,2056,2032,2040,2105,2070,1194
817,1711002832899107268,2043,2038,2038,2037,1971,2047,1194
818,1711002832909094234,2060,2058,2097,2077,2096,2053,1195
819,1711002832919095640,2060,2066,2082,2057,2032,2060,1194
820,1711002832929089479,2059,2085,2148,2089,2099,2053,1196
821,1711002832939090373,2051,2048,2043,2047,2028,2053,1193
822,1711002832949090665,2052,2048,2041,2060,2104,2057,1195
823,1711002832959087832,2056,2051,2046,2041,1964,2036,1191
824,1711002832969088525,2058,2060,2037,2108,2125,2061,1196
825,1711002832979092725,2049,2053,2072,2040,1953,2050,1196
826,1711002832989085604,2053,2061,2066,2113,2106,2064,1195
827,1711002832999091477,2058,2050,2047,2044,2025,2055,1196
828,1711002833009091489,2060,2076,2021,2086,2116,2061,1196
829,1711002833019083846,2056,2052,2047,2030,1988,2045,1196
830,1711002833029084859,2056,2046,2041,2082,2105,2054,1195
831,1711002833039104699,2054,2060,2051,2030,1977,2040,1194
832,1711002833049091936,2071,2088,2094,2092,2112,2050,1196
833,1711002833059079975,2047,2036,2021,2042,2042,2053,1198
834,1711002833069090647,2049,2049,2045,2062,2073,2046,1195
835,1711002833079088113,2057,2058,2047,2046,2030,2053,1195
836,1711002833089087153,2062,2084,2053,2061,2074,2055,1193
837,1711002833099086343,2053,2057,2042,2057,1992,2052,1196
838,1711002833109086435,2060,2051,2033,2066,2084,2053,1197
839,1711002833119085755,2048,2044,2064,2060,2040,2051,1196
840,1711002833129086759,2052,2050,2024,2064,2080,2048,1196
841,1711002833139088303,2056,2047,2054,2072,2053,2049,1195
842,1711002833150103632,2056,2052,2082,2067,2100,2043,1193
843,1711002833159080843,2038,2025,2005,2035,2012,2050,1196
844,1711002833169086655,2052,2047,2024,2059,2112,2052,1196
845,1711002833179089181,2057,2053,2059,2006,1996,2054,1196
846,1711002833189090325,2062,2054,2040,2049,2076,2060,1193
847,1711002833199088955,2057,2058,2038,2042,1978,2054,1196
848,1711002833209073767,2066,2062,2068,2054,2047,2050,1197
849,1711002833219079319,2048,2041,2035,2024,1994,2051,1196
850,1711002833229080132,2052,2056,2093,2088,2108,2043,1193
851,1711002833239089762,2055,2045,2037,2024,1992,2056,1197
852,1711002833249087660,2062,2075,2066,2017,2089,2056,1195
853,1711002833259081129,2061,2056,2056,2069,2029,2061,1198
854,1711002833269090298,2065,2070,2073,2092,2088,2057,1197
855,1711002833279084428,2050,2044,2042,2072,2056,2052,1196
856,1711002833289088818,2056,2053,2044,2060,2080,2057,1196
857,1711002833299092307,2053,2056,2068,2042,2004,2056,1196
858,1711002833309111235,2060,2052,2029,2082,2092,2054,1197
859,1711002833319093792,2056,2048,2048,2051,2066,2057,1197
860,1711002833329091620,2058,2044,2040,2090,2114,2058,1196
861,1711002833339089667,2050,2041,2061,2032,2024,2053,1194
862,1711002833349086513,2056,2053,2037,2068,2101,2057,1196
863,1711002833359079712,2070,2081,2117,2052,2030,2056,1196
864,1711002833369093229,2065,2065,2060,2050,2052,2044,1194
865,1711002833379086157,2054,2056,2060,2043,2013,2052,1197
866,1711002833389093864,2054,2028,2056,2069,2104,2057,1196
867,1711002833399093555,2051,2031,2066,2017,1966,2040,1194
868,1711002833409083577,2061,2063,2090,2046,2104,2064,1195
869,1711002833419084991,2056,2057,2047,2030,1969,2050,1194
870,1711002833429085083,2068,2054,2028,2081,2104,2061,1196
871,1711002833439082028,2054,2047,2046,2047,2021,2058,1196
872,1711002833449386906,2066,2063,2069,2070,2116,2066,1197
873,1711002833459102241,2057,2054,2100,2048,2025,2056,1197
874,1711002833469103094,2059,2083,2098,2088,2085,2054,1197
875,1711002833479098026,2067,2061,2086,2011,1970,2047,1192
876,1711002833489097216,2061,2058,2074,2064,2083,2060,1196
877,1711002833499099342,2044,2044,2045,2044,2000,2052,1196
878,1711002833509097871,2057,2052,2042,2059,2076,2055,1197
879,1711002833519089646,2046,2054,2056,2038,2010,2040,1192
880,1711002833529091141,2065,2068,2076,2053,2105,2060,1197
881,1711002833539096393,2046,2058,2036,2002,1989,2044,1193
882,1711002833549102626,2062,2056,2047,2045,2112,2062,1194
883,1711002833559092739,2056,2052,2056,2045,2060,2057,1196
884,1711002833569094052,2059,2052,2081,2112,2114,2057,1194
885,1711002833579094715,2052,2042,2065,2054,2003,2056,1194
886,1711002833589095338,2043,2033,2012,2047,2080,2053,1195
887,1711002833599103215,2059,2060,2043,2045,2014,2052,1196
888,1711002833609094871,2057,2057,2076,2085,2130,2066,1197
889,1711002833619098118,2052,2053,2061,2044,2005,2056,1197
890,1711002833629092880,2056,2049,2051,2080,2147,2060,1194
891,1711002833639101709,2047,2054,2090,2121,2068,2058,1199
892,1711002833649102762,2064,2059,2030,2077,2095,2057,1197
893,1711002833659095510,2048,2040,2046,2034,2025,2054,1194
894,1711002833669098918,2048,2040,1997,2063,2140,2057,1199
895,1711002833679098528,2056,2051,2058,2056,2056,2058,1195
896,1711002833689100003,2075,2080,2053,2092,2104,2065,1195
897,1711002833699100606,2052,2050,2080,2035,2001,2056,1195
898,1711002833709124523,2056,2056,2037,2043,2079,2056,1197
899,1711002833719101270,2050,2047,2034,2005,1961,2033,1193
900,1711002833729085832,2056,2037,2032,2046,2080,2052,1198
901,1711002833739086025,2048,2046,2033,2027,2021,2046,1192
902,1711002833749076307,2053,2047,2045,2060,2095,2058,1198
903,1711002833759086839,2050,2047,2041,2024,2009,2051,1197
904,1711002833769076761,2063,2061,2065,2088,2122,2060,1194
905,1711002833779106279,2054,2056,2094,2045,2026,2057,1195
906,1711002833789088978,2050,2045,2027,2064,2073,2049,1197
907,1711002833799118426,2056,2061,2037,2028,1972,2057,1197
908,1711002833809077419,2057,2053,2057,2058,2081,2051,1194
909,1711002833819084954,2048,2042,2016,2056,2006,2050,1196
910,1711002833829086539,2052,2048,2036,2064,2088,2048,1197
911,1711002833839081872,2052,2052,2061,2054,1980,2058,1197
912,1711002833849090170,2056,2080,2098,2078,2146,2056,1197
913,1711002833859113005,2065,2076,2101,2064,2012,2053,1198
914,1711002833869091726,2059,2044,2025,2089,2115,2052,1196
915,1711002833879088441,2051,2049,2049,2033,1997,2046,1195
916,1711002833889086399,2057,2057,2061,2090,2123,2057,1196
917,1711002833899113332,2056,2066,2102,2034,2017,2052,1195
918,1711002833909080671,2064,2066,2089,2072,2069,2054,1197
919,1711002833919083908,2058,2050,2056,2041,2034,2058,1195
920,1711002833929088489,2055,2050,2046,2077,2088,2051,1196
921,1711002833939090595,2050,2058,2087,2053,2020,2053,1198
922,1711002833949115083,2048,2054,1993,2078,2109,2054,1197
923,1711002833959085428,2064,2064,2064,2037,2014,2049,1196
924,1711002833969086221,2061,2056,2058,2061,2112,2057,1197
925,1711002833979087986,2055,2059,2064,2060,2027,2055,1197
926,1711002833989087537,2059,2057,2058,2073,2123,2056,1196
927,1711002833999090073,2060,2068,2130,2038,1995,2053,1195
928,1711002834009107087,2056,2069,2049,2076,2084,2060,1196
929,1711002834019089405,2041,2038,2011,2026,1998,2045,1192
930,1711002834029088083,2046,2038,2021,2094,2113,2056,1197
931,1711002834039088235,2048,2041,2029,2033,2019,2052,1198
932,1711002834049086653,2047,2037,2004,2060,2063,2038,1195
933,1711002834059088487,2056,2056,2075,2049,2028,2057,1196
934,1711002834069091214,2062,2057,2113,2085,2105,2062,1199
935,1711002834079089572,2059,2046,2069,2046,2006,2056,1196
936,1711002834089087559,2053,2044,2000,2085,2130,2063,1197
937,1711002834099106968,2061,2076,2144,2045,2019,2056,1197
938,1711002834109086610,2060,2052,2041,2076,2120,2057,1195
939,1711002834119085970,2046,2037,2019,2039,2028,2053,1196
940,1711002834129086723,2064,2047,2054,2074,2101,2057,1196
941,1711002834139086363,2046,2043,2050,2032,2016,2052,1197
942,1711002834149084240,2057,2057,2052,2070,2081,2051,1196
943,1711002834159087738,2043,2099,2218,2074,1994,2030,1193
944,1711002834169083341,2048,2040,2032,2073,2057,2048,1194
945,1711002834179088462,2052,2054,2057,2024,1964,2037,1194
946,1711002834189084515,2057,2057,2053,2077,2096,2054,1195
947,1711002834199144462,2056,2045,2077,2065,2045,2056,1196
948,1711002834209088035,2048,2053,2048,2064,2088,2050,1196
949,1711002834219085611,2043,2035,2012,2052,2009,2040,1194
950,1711002834229084530,2052,2044,2022,2047,2064,2047,1193
951,1711002834239105302,2044,2043,2023,2052,1944,2020,1195
952,1711002834249093290,2056,2050,2050,2061,2072,2056,1197
953,1711002834259089043,2056,2060,2048,2030,1998,2056,1197
954,1711002834269090797,2055,2049,2047,2073,2096,2056,1195
955,1711002834279088173,2051,2048,2061,2056,2068,2058,1196
956,1711002834289084738,2067,2064,2024,2044,2112,2063,1196
957,1711002834299079699,2056,2056,2063,2051,1998,2048,1196
958,1711002834309144124,2051,2053,2017,2076,2062,2046,1193
959,1711002834319089260,2060,2058,2038,2029,2010,2050,1196
960,1711002834329089091,2056,2052,2046,2061,2100,2062,1195
961,1711002834339089093,2060,2052,2060,2060,2028,2060,1194
962,1711002834349083453,2056,2055,2046,2054,2090,2060,1196
963,1711002834359091329,2047,2043,2049,2013,1984,2046,1192
964,1711002834369090859,2056,2053,2043,2069,2117,2059,1195
965,1711002834379091542,2035,2038,2044,2044,2016,2042,1195
966,1711002834389097054,2046,2040,2025,2080,2128,2056,1196
967,1711002834399142502,2057,2045,2042,2042,2005,2052,1196
968,1711002834409082678,2053,2050,2031,2087,2114,2053,1196
969,1711002834419089273,2053,2044,2046,2064,2046,2053,1196
970,1711002834429089885,2054,2045,2041,2065,2042,2047,1193
971,1711002834439138499,2060,2068,2084,2029,2016,2052,1195
972,1711002834449408358,2057,2052,2038,2064,2096,2056,1196
973,1711002834459098896,2045,2049,2057,1984,2001,2044,1195
974,1711002834469098566,2053,2056,2060,2072,2067,2053,1196
975,1711002834479091174,2044,2044,2047,2050,1984,2040,1193
976,1711002834489091365,2062,2056,2050,2104,2088,2053,1196
977,1711002834499130811,2065,2085,2114,2056,2003,2056,1196
978,1711002834509132577,2061,2064,2107,2053,2066,2058,1198
979,1711002834519132177,2042,2037,2064,2048,2027,2049,1196
980,1711002834529131457,2055,2045,2053,2056,2090,2055,1197
981,1711002834539133231,2041,2044,2060,2020,1964,2040,1193
982,1711002834549132210,2054,2053,2049,2080,2099,2056,1195
983,1711002834559128375,2066,2048,2060,2035,2019,2045,1193
984,1711002834569130980,2062,2066,2062,2065,2103,2064,1197
985,1711002834579082779,2053,2041,2047,2046,2005,2049,1195
986,1711002834589084934,2030,2037,1982,2054,2075,2042,1192
987,1711002834599075047,2053,2049,2029,2055,2072,2064,1196
988,1711002834609089756,2070,2057,2061,2049,2099,2066,1195
989,1711002834619128833,2058,2053,2052,2090,2000,2050,1197
990,1711002834629130346,2060,2064,2065,2062,2080,2064,1195
991,1711002834639129375,2052,2047,2050,2044,2057,2059,1196
992,1711002834649129718,2080,2122,2134,2073,2112,2060,1197
993,1711002834659074643,2053,2044,2041,2026,2000,2057,1195
994,1711002834669127426,2058,2056,2039,2045,2101,2053,1196
995,1711002834679085997,2048,2048,2045,2036,2024,2050,1196
996,1711002834689125234,2052,2053,2040,2088,2140,2053,1197
997,1711002834699125897,2053,2052,2060,2049,2037,2053,1194
998,1711002834709082745,2062,2049,2019,2072,2020,2045,1194
999,1711002834719123173,2041,2036,2030,2045,1964,2037,1193
1000,1711002834729123615,2056,2029,2028,2064,2104,2053,1195
1001,1711002834739127073,2043,2033,2029,2049,2028,2048,1194
1002,1711002834749134789,2058,2067,2092,2088,2105,2064,1196
1003,1711002834759122788,2050,2048,2047,2020,2021,2051,1194
1004,1711002834769126305,2069,2058,2028,2067,2086,2060,1196
1005,1711002834779121418,2052,2047,2038,2046,2015,2058,1196
1006,1711002834789124775,2053,2064,2072,2080,2107,2058,1196
1007,1711002834799121510,2053,2034,2034,2056,2028,2053,1195
1008,1711002834809122182,2052,2044,2076,2048,2064,2052,1197
1009,1711002834819121242,2048,2049,2065,2037,2007,2056,1196
1010,1711002834829120652,2051,2064,2112,2088,2108,2052,1197
1011,1711002834839123849,2044,2041,2044,2032,2023,2049,1194
1012,1711002834849120674,2056,2045,2045,2064,2082,2048,1197
1013,1711002834859118821,2070,2073,2098,2049,2029,2055,1195
1014,1711002834869051003,2057,2052,2049,2080,2041,2052,1195
1015,1711002834879120237,2054,2054,2051,2057,2033,2052,1198
1016,1711002834889119737,2057,2062,2067,2058,2086,2060,1196
1017,1711002834899137533,2056,2065,2093,2040,2022,2055,1197
1018,1711002834909117856,2057,2053,2072,2108,2116,2054,1195
1019,1711002834919118890,2049,2035,2043,2050,1995,2049,1196
1020,1711002834929117788,2058,2039,2024,2058,2099,2057,1197
1021,1711002834939118701,2053,2050,2047,2046,2065,2056,1194
1022,1711002834949115686,2057,2054,2029,2081,2094,2056,1196
1023,1711002834959113804,2051,2050,2040,2046,2028,2053,1194
1024,1711002834969117873,2056,2047,2029,2072,2099,2056,1197
1025,1711002834979115330,2053,2050,2054,2040,2013,2056,1197
1026,1711002834989116232,2062,2058,2060,2078,2104,2061,1195
1027,1711002834999113689,2047,2052,2069,2021,1970,2041,1194
1028,1711002835009117167,2057,2050,2025,2053,2115,2049,1195
1029,1711002835019116036,2053,2051,2057,2041,1998,2050,1196
1030,1711002835029114754,2064,2068,2046,2068,2098,2056,1198
1031,1711002835039114374,2068,2064,2048,2050,2052,2061,1198
1032,1711002835049110307,2063,2090,2085,2079,2145,2061,1197
1033,1711002835059112121,2061,2065,2092,2038,2014,2047,1195
1034,1711002835069113775,2058,2053,2042,2065,2120,2065,1196
1035,1711002835079110580,2053,2045,2030,2064,2058,2055,1196
1036,1711002835089111402,2060,2053,2045,2055,2051,2051,1195
1037,1711002835099107656,2049,2052,2065,2068,2049,2054,1196
1038,1711002835109110913,2060,2073,2112,2059,2087,2052,1196
1039,1711002835119112567,2055,2050,2037,2050,2005,2052,1195
1040,1711002835129113399,2054,2068,2045,2057,2093,2048,1195
1041,1711002835139153106,2051,2046,2053,2048,2015,2055,1194
1042,1711002835149106658,2056,2053,2053,2064,2092,2051,1194
1043,1711002835159110125,2055,2054,2060,2057,2005,2054,1194
1044,1711002835169110387,2052,2054,2054,2068,2089,2050,1194
1045,1711002835179109676,2053,2022,2035,2053,2013,2057,1196
1046,1711002835189108384,2058,2042,2038,2077,2097,2057,1194
1047,1711002835199107684,2059,2073,2089,2053,2011,2051,1194
1048,1711002835209110149,2062,2062,2073,2056,2080,2053,1194
1049,1711002835219112695,2067,2058,2072,2051,2009,2060,1194
1050,1711002835229108738,2051,2045,2025,2062,2086,2053,1196
1051,1711002835239106966,2052,2053,2066,2069,2057,2064,1196
1052,1711002835249102829,2067,2071,2109,2064,2136,2045,1192
1053,1711002835259108270,2048,2037,2041,2026,1976,2050,1198
1054,1711002835269109173,2065,2054,2044,2047,2134,2065,1197
1055,1711002835279126316,2052,2044,2044,2052,2025,2057,1195
1056,1711002835289110517,2058,2058,2063,2062,2081,2056,1196
1057,1711002835299107982,2057,2053,2057,2044,1965,2042,1192
1058,1711002835309111280,2056,2066,2108,2078,2073,2047,1190
1059,1711002835319111741,2056,2076,2064,2048,2031,2054,1197
1060,1711002835329112394,2057,2052,2043,2041,2080,2052,1197
1061,1711002835339114468,2034,2028,2008,2017,1978,2050,1193
1062,1711002835349110802,2068,2060,2066,2066,2107,2056,1196
1063,1711002835359117365,2052,2045,2053,2036,1993,2052,1196
1064,1711002835369115192,2047,2041,2047,2054,2097,2046,1193
1065,1711002835379113791,2050,2036,2018,2056,2022,2056,1194
1066,1711002835389114693,2056,2048,2040,2054,2051,2045,1192
1067,1711002835399112691,2041,2044,2048,2047,2039,2051,1196
1068,1711002835409102151,2043,2052,2039,2072,2122,2049,1196
1069,1711002835419101130,2075,2069,2093,2096,2105,2070,1194
1070,1711002835429117251,2053,2056,2053,2069,2092,2060,1195
1071,1711002835439100520,2060,2090,2103,2072,2034,2053,1195
1072,1711002835449100791,2064,2068,2065,2080,2077,2060,1196
1073,1711002835459105972,2043,2048,2050,2058,2023,2084,1196
1074,1711002835469101545,2060,2058,2058,2076,2103,2088,1197
1075,1711002835479099652,2049,2049,2057,2060,2043,2054,1196
1076,1711002835489100254,2066,2054,2046,2081,2120,2060,1193
1077,1711002835499098682,2052,2045,2055,2039,2016,2057,1195
1078,1711002835509096458,2056,2050,2045,2076,2088,2053,1197
1079,1711002835519097922,2049,2042,2028,2020,2011,2051,1196
1080,1711002835529099826,2058,2050,1973,2073,2089,2055,1196
1081,1711002835539113874,2042,2037,2013,2007,2035,2050,1192
1082,1711002835549095059,2058,2045,1999,2031,2061,2045,1192
1083,1711002835559097474,2038,2030,2021,1996,2035,2028,1193
1084,1711002835569100761,2060,2082,2056,2065,2067,2057,1197
1085,1711002835579098347,2055,2058,2038,2037,2004,2052,1197
1086,1711002835589097196,2056,2054,2039,2090,2115,2054,1197
1087,1711002835599109360,2059,2070,2094,2035,1974,2040,1193
1088,1711002835609098420,2052,2052,2051,2098,2177,2065,1196
1089,1711002835619105835,2056,2054,2049,2052,2029,2057,1195
1090,1711002835629097059,2059,2056,2043,2060,2092,2053,1195
1091,1711002835639117078,2047,2050,2066,2045,2000,2052,1196
1092,1711002835649100437,2036,2043,2069,2074,2096,2053,1195
1093,1711002835659095739,2048,2049,2047,2048,2013,2057,1196
1094,1711002835669101821,2050,2044,2040,2073,2084,2050,1197
1095,1711002835679096572,2051,2047,2058,2057,2060,2044,1193
1096,1711002835689096964,2071,2059,2044,2060,2076,2058,1197
1097,1711002835699102315,2047,2048,2028,2012,2001,2044,1193
1098,1711002835709098438,2055,2060,2017,2026,2114,2058,1196
1099,1711002835719101795,2056,2056,2056,2035,1996,2048,1197
1100,1711002835729097758,2058,2062,2053,2079,2082,2056,1195
1101,1711002835739097529,2054,2048,2056,2082,2060,2056,1196
1102,1711002835749102669,2056,2057,2055,2054,2116,2046,1195
1103,1711002835759091198,2059,2053,2025,2062,2031,2059,1198
1104,1711002835769096529,2069,2103,2139,2099,2134,2073,1196
1105,1711002835779094787,2054,2054,2041,1988,1988,2046,1193
1106,1711002835789088897,2056,2036,2010,2068,2088,2050,1196
1107,1711002835799093055,2044,2034,2021,2016,1984,2049,1194
1108,1711002835809101342,2068,2065,2067,2079,2110,2060,1197
1109,1711002835819101693,2060,2058,2074,2070,2037,2077,1197
1110,1711002835829094921,2056,2045,2040,2090,2121,2058,1195
1111,1711002835839095473,2061,2065,2079,2035,2005,2047,1194
1112,1711002835849109270,2058,2065,2077,2028,2045,2053,1196
1113,1711002835859092819,2056,2044,2037,2041,2027,2056,1197
1114,1711002835869096207,2066,2066,2086,2069,2096,2063,1195
1115,1711002835879096309,2062,2066,2081,2050,2035,2061,1197
1116,1711002835889096699,2057,2069,2062,2097,2122,2049,1196
1117,1711002835899098444,2066,2089,2197,2068,2009,2050,1198
1118,1711002835909101550,2057,2054,2052,2033,2084,2057,1196
1119,1711002835919099788,2053,2042,2034,2041,2016,2056,1195
1120,1711002835929098015,2062,2063,2044,2081,2097,2056,1197
1121,1711002835939098307,2031,2036,2021,2013,2005,2031,1192
1122,1711002835949091204,2064,2047,2081,2069,2053,2058,1196
1123,1711002835959099852,2051,2052,2058,2057,2008,2055,1196
1124,1711002835969100052,2069,2065,2077,2070,2109,2056,1197
1125,1711002835979097599,2052,2050,2060,2042,2013,2048,1196
1126,1711002835989099493,2077,2098,2116,2090,2106,2074,1197
1127,1711002835999103963,2062,2049,2021,2064,2064,2055,1193
1128,1711002836009092852,2055,2049,2041,2058,2137,2039,1193
1129,1711002836019097541,2052,2050,2009,2040,2000,2054,1197
1130,1711002836029094045,2056,2047,2005,2057,2050,2050,1197
1131,1711002836039102552,2055,2069,2088,1986,1974,2043,1194
1132,1711002836049094577,2052,2049,2052,2063,2094,2048,1196
1133,1711002836059099497,2060,2058,2052,2034,2024,2056,1196
1134,1711002836069077966,2050,2045,2041,2059,2089,2050,1197
1135,1711002836079096812,2048,2040,2045,2053,2027,2056,1198
1136,1711002836089096302,2059,2045,2006,2089,2101,2056,1197
1137,1711002836099097886,2047,2050,2097,2033,2022,2048,1195
1138,1711002836109102505,2059,2057,2037,2073,2090,2059,1196
1139,1711002836119097055,2056,2064,2100,2052,1996,2053,1196
1140,1711002836129114529,2056,2058,2047,2073,2086,2055,1196
1141,1711002836139104459,2059,2050,2052,2000,2014,2054,1194
1142,1711002836149104139,2068,2076,2122,2082,2042,2053,1195
1143,1711002836159090755,2054,2065,2089,2051,2036,2058,1194
1144,1711002836169099822,2060,2056,2046,2070,2086,2056,1193
1145,1711002836179101185,2060,2068,2050,2098,2091,2061,1194
1146,1711002836189097669,2053,2048,2038,2057,2098,2054,1196
1147,1711002836199102649,2048,2049,2043,2021,2016,2054,1197
1148,1711002836209099874,2058,2039,2044,2081,2124,2063,1197
1149,1711002836219098392,2062,2073,2091,2058,2038,2058,1197
1150,1711002836229098843,2056,2044,2037,2050,2100,2056,1196
1151,1711002836239098983,2052,2047,2073,2033,1999,2047,1192
1152,1711002836249110276,2057,2043,2002,2046,2059,2058,1197
1153,1711002836259094316,2056,2066,2052,2030,2011,2052,1195
1154,1711002836269101039,2065,2069,2082,2062,2106,2057,1197
1155,1711002836279095128,2054,2057,2088,2045,2032,2057,1196
1156,1711002836289092013,2052,2042,2045,2048,2106,2059,1195
1157,1711002836299095159,2059,2069,2141,2073,2061,2056,1195
1158,1711002836309108776,2056,2047,2032,2097,2124,2064,1196
1159,1711002836319101052,2060,2049,2027,2048,1981,2052,1196
1160,1711002836329097344,2049,2039,2022,2106,2081,2048,1195
1161,1711002836339098868,2038,2026,2091,2032,1998,2041,1192
1162,1711002836349090473,2056,2040,2025,2052,2078,2056,1196
1163,1711002836359097576,2054,2051,2049,2034,2005,2052,1197
1164,1711002836369100372,2064,2056,2029,2038,2089,2053,1196
1165,1711002836379097658,2042,2034,2013,1997,2001,2038,1193
1166,1711002836389098269,2056,2050,2045,2057,2102,2059,1196
1167,1711002836399130311,2047,2042,2023,2027,2050,2045,1193
1168,1711002836409095214,2052,2056,2113,2052,2094,2049,1198
1169,1711002836419094222,2050,2049,2043,2035,2040,2056,1195
1170,1711002836429096046,2063,2060,2069,2069,2085,2054,1196
1171,1711002836439098592,2036,2040,2045,2058,2035,2046,1192
1172,1711002836449102630,2058,2058,2055,2053,2092,2050,1196
1173,1711002836459124893,2043,2043,2058,2049,2011,2054,1195
1174,1711002836469095978,2058,2101,2216,2083,2066,2044,1194
1175,1711002836479097562,2053,2074,2090,2052,2027,2053,1196
1176,1711002836489098714,2058,2056,2046,2076,2086,2056,1195
1177,1711002836499108754,2047,2052,2076,2068,2023,2052,1196
1178,1711002836509099176,2057,2046,2037,2064,2123,2060,1197
1179,1711002836519097363,2072,2056,2058,2025,2030,2057,1195
1180,1711002836529098516,2060,2058,2072,2102,2120,2058,1198
1181,1711002836539096803,2058,2072,2130,2034,2047,2049,1194
1182,1711002836549101472,2057,2040,2028,2042,2089,2058,1195
1183,1711002836559097956,2050,2046,2044,2025,2020,2055,1196
1184,1711002836569100351,2060,2072,2073,2081,2087,2057,1196
1185,1711002836579127743,2051,2053,2052,2053,2046,2057,1196
1186,1711002836589129838,2050,2056,2042,2060,2090,2056,1195
1187,1711002836599129268,2058,2072,2120,2064,2068,2058,1197
1188,1711002836609131432,2061,2053,2053,2069,2088,2056,1196
1189,1711002836619130902,2053,2046,2072,2068,2072,2056,1195
1190,1711002836629128979,2043,2034,2014,2041,2092,2053,1194
1191,1711002836639133587,2050,2046,2057,2040,2015,2056,1196
1192,1711002836649159397,2058,2052,2045,2056,2074,2053,1195
1193,1711002836659104974,2040,2045,2027,2020,2027,2045,1193
1194,1711002836669092921,2057,2050,2032,2045,2124,2049,1195
1195,1711002836679092530,2050,2045,2049,2034,2018,2050,1197
1196,1711002836689093683,2070,2050,2032,2072,2067,2060,1196
1197,1711002836699105957,2054,2056,2024,2073,2034,2051,1197
1198,1711002836709092792,2060,2062,2064,2067,2096,2056,1196
1199,1711002836719094396,2056,2048,2051,2021,2044,2050,1197
1200,1711002836729091060,2053,2041,2042,2065,2096,2053,1194
1201,1711002836739097132,2038,2029,2021,2040,2035,2052,1195
1202,1711002836749134434,2055,2044,2035,2061,2083,2054,1196
1203,1711002836759118093,2048,2037,2015,2053,2041,2053,1193
1204,1711002836769093336,2057,2045,2036,2064,2098,2054,1195
1205,1711002836779091493,2051,2054,2054,2072,2013,2057,1195
1206,1711002836789090902,2057,2056,2062,2078,2034,2048,1195
1207,1711002836799122273,2056,2080,2074,2049,2023,2052,1194
1208,1711002836809121612,2060,2049,2048,2068,2069,2053,1197
1209,1711002836819120882,2061,2076,2133,2064,2036,2059,1197
1210,1711002836829127935,2050,2045,2034,2052,2068,2061,1196
1211,1711002836839093039,2057,2057,2056,2030,2015,2050,1198
1212,1711002836849128667,2054,2052,2050,2080,2088,2054,1197
1213,1711002836859109601,2052,2046,2024,2072,2010,2056,1197
1214,1711002836869120733,2049,2043,2033,2043,2067,2045,1193
1215,1711002836879120624,2048,2041,2037,2034,2001,2044,1194
1216,1711002836889121044,2058,2056,2057,2066,2082,2054,1196
1217,1711002836899128870,2057,2051,2057,2037,2024,2048,1195
1218,1711002836909117268,2083,2104,2190,2096,2126,2072,1196
1219,1711002836919118701,2051,2049,2035,2056,2015,2057,1198
1220,1711002836929122649,2060,2055,2050,2069,2115,2062,1195
1221,1711002836939120095,2050,2047,2048,2044,2022,2053,1193
1222,1711002836949108984,2057,2049,2049,2059,2088,2054,1194
1223,1711002836959113884,2057,2070,2097,2061,2056,2042,1194
1224,1711002836969119756,2065,2064,2066,2051,2092,2065,1196
1225,1711002836979120076,2063,2069,2110,2062,2029,2058,1196
1226,1711002836989119345,2060,2054,2061,2056,2088,2056,1196
1227,1711002836999084980,2052,2056,2070,2051,2019,2046,1192
1228,1711002837009108886,2052,2050,2044,2069,2119,2058,1197
1229,1711002837019115910,2056,2061,2087,2011,2000,2050,1195
1230,1711002837029120188,2053,2044,2040,2052,2072,2047,1195
1231,1711002837039118214,2053,2056,2092,2042,1998,2051,1197
1232,1711002837049125649,2058,2051,2046,2068,2081,2050,1199
1233,1711002837059115118,2049,2041,2039,2021,2025,2052,1197
1234,1711002837069114377,2055,2062,2076,2072,2106,2056,1197
1235,1711002837079112213,2056,2051,2027,2074,2050,2057,1196
1236,1711002837089112844,2056,2049,2045,2081,2093,2057,1197
1237,1711002837099147040,2051,2045,2039,2073,2040,2050,1197
1238,1711002837109111522,2056,2032,2040,2081,2085,2056,1195
1239,1711002837119114267,2056,2056,2131,2045,2028,2052,1196
1240,1711002837129113766,2054,2050,2047,2089,2092,2054,1196
1241,1711002837139115620,2061,2056,2050,2055,2018,2053,1194
1242,1711002837149132362,2059,2066,2033,2076,2108,2064,1194
1243,1711002837159116591,2052,2051,2053,2066,2058,2056,1196
1244,1711002837169106182,2059,2049,2050,2062,2092,2052,1196
1245,1711002837179108797,2057,2058,2094,2088,2043,2064,1196
1246,1711002837189110249,2056,2045,2070,2088,2088,2055,1194
1247,1711002837199139176,2052,2046,2038,2027,1986,2043,1192
1248,1711002837209106793,2056,2049,2041,2058,2070,2052,1196
1249,1711002837219112424,2060,2074,2149,2070,2082,2058,1193
1250,1711002837229111162,2060,2059,2065,2066,2080,2056,1197
1251,1711002837239108236,2052,2053,2045,2047,2010,2047,1192
1252,1711002837249110109,2057,2031,2036,2080,2084,2059,1196
1253,1711002837259097847,2056,2053,2090,2044,2022,2049,1198
1254,1711002837269106553,2063,2054,2040,2065,2068,2059,1194
1255,1711002837279106162,2060,2084,2089,2093,2072,2070,1198
1256,1711002837289105692,2066,2055,2052,2062,2077,2055,1195
1257,1711002837299124668,2065,2079,2136,2081,2028,2056,1194
1258,1711002837309109509,2058,2030,2033,2068,2101,2057,1196
1259,1711002837319099931,2050,2033,2041,2067,2042,2058,1196
1260,1711002837329108788,2057,2052,2058,2068,2076,2060,1196
1261,1711002837339110310,2053,2059,2116,2072,2024,2058,1193
1262,1711002837349105682,2052,2044,2034,2076,2084,2053,1196
1263,1711002837359101865,2054,2053,2048,2044,2015,2054,1197
1264,1711002837369103487,2054,2056,2044,2084,2109,2057,1197
1265,1711002837379103528,2061,2067,2044,2018,1980,2046,1192
1266,1711002837389104891,2056,2047,2042,2064,2069,2048,1197
1267,1711002837399124628,2052,2049,2047,2040,2045,2054,1196
1268,1711002837409106544,2054,2043,2022,2069,2106,2058,1196
1269,1711002837419105662,2060,2050,2024,2054,2052,2056,1196
1270,1711002837429105962,2065,2055,2015,2057,2046,2058,1196
1271,1711002837439109540,2057,2042,2026,2056,2022,2061,1197
1272,1711002837449104530,2050,2048,2056,2051,2070,2050,1196
1273,1711002837459105301,2054,2050,2072,2054,1990,2047,1193
1274,1711002837469098780,2057,2051,2052,2061,2082,2054,1196
1275,1711002837479095513,2052,2052,2050,2050,2004,2052,1195
1276,1711002837489099530,2027,2037,2081,2063,2069,2028,1193
1277,1711002837499111855,2047,2044,2024,2069,2057,2052,1195
1278,1711002837509104310,2061,2064,2084,2069,2075,2056,1199
1279,1711002837519097677,2060,2084,2100,2064,2048,2053,1196
1280,1711002837529097898,2065,2069,2084,2054,2108,2056,1196
1281,1711002837539104220,2053,2056,2076,2077,2028,2060,1193
1282,1711002837549153304,2056,2052,2040,2061,2065,2047,1192
1283,1711002837559102888,2054,2060,2071,2073,2024,2056,1196
1284,1711002837569104280,2054,2050,2069,2056,2105,2049,1195
1285,1711002837579095984,2056,2053,2047,2026,2031,2053,1196
1286,1711002837589098420,2056,2056,2052,2090,2100,2067,1196
1287,1711002837599094742,2051,2037,2047,2074,1985,2052,1194
1288,1711002837609111164,2054,2054,2044,2085,2080,2054,1194
1289,1711002837619098390,2048,2044,2041,2040,1983,2045,1193
1290,1711002837629099101,2057,2052,2041,2099,2138,2064,1195
1291,1711002837639099231,2051,2042,2052,2046,2024,2048,1197
1292,1711002837649097518,2049,2051,2029,2096,2097,2054,1198
1293,1711002837659148365,2053,2048,2042,2047,2012,2048,1195
1294,1711002837669091346,2048,2043,2032,2077,2095,2050,1194
1295,1711002837679082710,2053,2052,2048,2052,2027,2056,1197
1296,1711002837689095314,2052,2044,2053,2088,2101,2051,1195
1297,1711002837699094372,2052,2043,2021,2050,2017,2053,1195
1298,1711002837709101937,2057,2056,2051,2066,2079,2053,1195
1299,1711002837719091637,2047,2047,2056,2056,2023,2044,1194
1300,1711002837729091216,2054,2047,2049,2060,2045,2052,1195
1301,1711002837739093070,2054,2046,2046,2046,1978,2046,1193
1302,1711002837749095124,2056,2049,2054,2075,2084,2047,1194
1303,1711002837759121153,2051,2052,2051,2046,2017,2048,1196
1304,1711002837769100555,2056,2053,2046,2070,2060,2058,1194
1305,1711002837779090826,2042,2040,2045,1981,2012,2041,1192
1306,1711002837789094062,2052,2029,2055,2073,2088,2057,1194
1307,1711002837799093601,2040,2042,2080,2058,2029,2052,1197
1308,1711002837809116936,2050,2042,2054,2040,2073,2058,1196
1309,1711002837819090405,2057,2057,2105,2026,2028,2058,1195
1310,1711002837829096898,2068,2085,2109,2079,2090,2056,1195
1311,1711002837839097078,2038,2041,2035,2060,2018,2042,1193
1312,1711002837849296020,2060,2049,2040,2065,2085,2056,1197
1313,1711002837859093582,2056,2065,2057,2053,2028,2054,1196
1314,1711002837869095265,2063,2066,2091,2069,2052,2057,1194
1315,1711002837879109882,2052,2057,2070,2048,2024,2058,1196
1316,1711002837889100966,2053,2040,2002,2051,2072,2053,1196
1317,1711002837899082701,2051,2052,2064,2021,2007,2046,1193
1318,1711002837909144860,2056,2048,2040,2068,2076,2054,1197
1319,1711002837919121245,2057,2064,2060,2015,2020,2055,1195
1320,1711002837929084554,2065,2070,2093,2077,2094,2053,1197
1321,1711002837939086980,2047,2042,2034,2033,2032,2050,1193
1322,1711002837949084755,2064,2075,2067,2073,2097,2062,1196
1323,1711002837959134480,2056,2054,2083,2059,2036,2052,1196
1324,1711002837969120033,2062,2050,2037,2064,2106,2064,1195
1325,1711002837979087851,2055,2051,2044,2037,2046,2056,1195
1326,1711002837989091338,2060,2058,2064,2053,2092,2053,1195
1327,1711002837999089445,2057,2039,2034,2041,2010,2050,1193
1328,1711002838009107638,2054,2060,2053,2059,2094,2061,1197
1329,1711002838019114872,2052,2046,2036,2072,2031,2048,1196
1330,1711002838029093941,2055,2053,2067,2074,2088,2063,1196
1331,1711002838039094633,2056,2053,2045,2050,2044,2058,1196
1332,1711002838049118638,2061,2058,2059,2061,2088,2060,1196
1333,1711002838059094381,2057,2055,2064,2045,2015,2058,1194
1334,1711002838069125290,2060,2055,2052,2064,2056,2056,1196
1335,1711002838079122685,2061,2072,2122,2039,2022,2050,1196
1336,1711002838089123566,2052,2052,2094,2058,2102,2056,1196
1337,1711002838099116222,2057,2048,2018,2029,2020,2050,1196
1338,1711002838109123997,2064,2056,2092,2062,2076,2052,1195
1339,1711002838119113276,2054,2052,2059,2047,2014,2059,1196
1340,1711002838129088137,2062,2067,2116,2078,2128,2064,1193
1341,1711002838139120559,2053,2053,2128,2043,2014,2048,1195
1342,1711002838149091082,2053,2045,2039,2052,2072,2053,1195
1343,1711002838159093727,2052,2046,2041,2036,1964,2044,1192
1344,1711002838169120458,2061,2052,2052,2078,2080,2056,1196
1345,1711002838179095480,2057,2064,2069,2042,2023,2049,1196
1346,1711002838189090790,2055,2049,2033,2064,2085,2054,1196
1347,1711002838199121449,2052,2064,2104,2047,2036,2046,1193
1348,1711002838209087543,2064,2096,2133,2102,2072,2058,1196
1349,1711002838219128842,2057,2060,2062,2053,2028,2052,1195
1350,1711002838229119624,2062,2060,2076,2047,2057,2058,1196
1351,1711002838239123461,2060,2074,2069,2031,1972,2042,1195
1352,1711002838249096590,2060,2053,2056,2061,2086,2061,1195
1353,1711002838259086610,2052,2046,2049,2050,2021,2052,1196
1354,1711002838269120545,2067,2046,2028,2077,2097,2055,1197
1355,1711002838279089325,2052,2038,2036,2068,2031,2050,1197
1356,1711002838289088062,2053,2045,2024,2035,2063,2056,1195
1357,1711002838299090256,2056,2054,2044,2042,2031,2056,1195
1358,1711002838309093091,2059,2058,2063,2056,2058,2053,1196
1359,1711002838319108630,2061,2070,2102,2046,2004,2046,1193
1360,1711002838329113499,2055,2048,2043,2077,2094,2056,1195
1361,1711002838339127576,2047,2021,2020,2040,2021,2050,1192
1362,1711002838349091537,2048,2038,2046,2061,2069,2053,1195
1363,1711002838359090164,2046,2049,2037,2062,1985,2041,1193
1364,1711002838369086647,2058,2050,2046,2079,2107,2056,1198
1365,1711002838379088300,2052,2047,2044,2047,2012,2052,1194
1366,1711002838389112987,2057,2057,2056,2066,2081,2055,1194
1367,1711002838399111022,2075,2077,2010,2096,2097,2053,1197
1368,1711002838409093519,2052,2048,2030,2072,2050,2053,1194
1369,1711002838419091885,2052,2048,2050,2057,2010,2057,1196
1370,1711002838429089280,2057,2054,2051,2061,2077,2054,1196
1371,1711002838439133615,2050,2048,2029,2045,2039,2052,1197
1372,1711002838449108195,2057,2061,2098,2146,2164,2067,1196
1373,1711002838459105660,2045,2050,2091,2042,2053,2047,1194
1374,1711002838469109247,2056,2037,2056,2073,2081,2056,1193
1375,1711002838479094057,2052,2047,2054,2047,2023,2053,1197
1376,1711002838489089458,2056,2054,2061,2062,2076,2056,1195
1377,1711002838499089879,2051,2052,2060,2060,2072,2056,1196
1378,1711002838509096722,2061,2064,2084,2061,2042,2058,1196
1379,1711002838519096932,2058,2064,2078,2035,2003,2052,1194
1380,1711002838529101489,2056,2067,2072,2052,2081,2052,1196
1381,1711002838539099274,2067,2083,2093,2040,2030,2045,1192
1382,1711002838549109153,2058,2066,2078,2062,2105,2057,1196
1383,1711002838559107900,2050,2056,2052,2020,1972,2029,1192
1384,1711002838569088072,2057,2051,2062,2098,2118,2064,1193
1385,1711002838579098612,2051,2040,2020,2076,2021,2047,1194
1386,1711002838589099173,2049,2053,2050,2072,2078,2049,1193
1387,1711002838599097659,2060,2065,2080,2060,2045,2052,1196
1388,1711002838609097909,2056,2048,2047,2060,2062,2056,1196
1389,1711002838619102558,2054,2054,2056,2046,2027,2056,1195
1390,1711002838629092388,2057,2045,2046,2060,2064,2054,1194
1391,1711002838639094752,2054,2048,2032,2048,2025,2053,1197
1392,1711002838649085665,2062,2047,2032,2045,2062,2055,1197
1393,1711002838659104190,2053,2040,2035,2060,2066,2053,1197
1394,1711002838669094852,2055,2052,2034,2040,2054,2047,1193
1395,1711002838679099190,2057,2062,2060,2024,2006,2053,1197
1396,1711002838689099620,2049,2043,2040,2061,2030,2058,1196
1397,1711002838699097305,2050,2052,2029,2038,2017,2052,1195
1398,1711002838709100151,2066,2081,2142,2114,2059,2068,1195
1399,1711002838719097144,2053,2045,2044,2037,2020,2058,1196
1400,1711002838729096283,2058,2056,2067,2068,2085,2060,1197
1401,1711002838739099889,2058,2056,2056,2061,2062,2058,1194
1402,1711002838749098256,2058,2056,2074,2076,2086,2056,1197
1403,1711002838759112092,2056,2054,2056,2036,2041,2054,1198
1404,1711002838769100089,2063,2056,2050,2037,2060,2053,1196
1405,1711002838779096391,2059,2073,2112,2022,2009,2054,1197
1406,1711002838789094307,2057,2072,2058,2067,2051,2057,1195
1407,1711002838799093755,2045,2041,2043,2061,2060,2051,1197
1408,1711002838809119905,2057,2054,2053,2085,2064,2058,1196
1409,1711002838819099025,2049,2057,2072,2057,2036,2047,1194
1410,1711002838829094265,2062,2069,2085,2072,2077,2053,1196
1411,1711002838839094736,2047,2042,2053,2077,2095,2052,1196
1412,1711002838849108833,2060,2059,2036,2066,2099,2049,1198
1413,1711002838859092201,2054,2052,2053,2044,2020,2046,1196
1414,1711002838869092020,2047,2052,2057,2058,2053,2046,1193
1415,1711002838879046442,2052,2050,2060,2047,2028,2054,1197
1416,1711002838889090025,2040,2039,2044,2056,2062,2048,1197
1417,1711002838899090316,2044,2035,2010,1992,1982,2044,1193
1418,1711002838909085917,2056,2021,2018,2036,2088,2058,1197
1419,1711002838919089423,2057,2050,2066,2046,2035,2054,1196
1420,1711002838929096126,2057,2064,2104,2067,2072,2056,1195
1421,1711002838939097578,2052,2056,2060,2035,1996,2052,1194
1422,1711002838949087218,2056,2052,2050,2064,2077,2060,1193
1423,1711002838959110933,2057,2054,2052,2057,2050,2056,1194
1424,1711002838969085654,2053,2037,2011,2045,2064,2052,1194
1425,1711002838979082819,2059,2050,2052,2020,2013,2048,1196
1426,1711002838989087087,2059,2074,2130,2074,2074,2058,1197
1427,1711002838999084712,2060,2058,2045,2046,2020,2059,1197
1428,1711002839009089641,2064,2050,2056,2090,2076,2065,1196
1429,1711002839019106082,2051,2056,2052,2054,2028,2057,1196
1430,1711002839029094389,2060,2065,2084,2080,2080,2059,1194
1431,1711002839039088627,2038,2067,2066,2052,2056,2034,1194
1432,1711002839049106541,2064,2062,2088,2069,2076,2054,1196
1433,1711002839059088335,2061,2060,2089,2058,2034,2058,1195
1434,1711002839069082052,2050,2051,2045,2056,2069,2051,1197
1435,1711002839079084587,2052,2047,2037,2056,2073,2061,1197
1436,1711002839089082381,2059,2053,2052,2038,2072,2056,1198
1437,1711002839099083202,2053,2052,2053,2037,2029,2052,1196
1438,1711002839109077962,2053,2053,2045,2058,2052,2044,1194
1439,1711002839119087318,2064,2077,2047,2045,2025,2051,1197
1440,1711002839129087418,2058,2056,2057,2024,2049,2049,1197
1441,1711002839139098990,2054,2056,2084,2046,2041,2061,1197
1442,1711002839149111122,2060,2053,2019,2057,2053,2052,1195
1443,1711002839159089109,2053,2047,2014,2012,2017,2053,1197
1444,1711002839169104749,2062,2060,2078,2042,2037,2058,1194
1445,1711002839179089829,2052,2036,2030,2059,2044,2058,1196
1446,1711002839189088436,2057,2038,2076,2061,2091,2056,1196
1447,1711002839199085851,2060,2074,2071,2074,2068,2063,1197
1448,1711002839209091570,2052,2045,2035,2034,2064,2052,1197
1449,1711002839219077293,2052,2049,2029,2026,2037,2049,1196
1450,1711002839229056181,2058,2055,2041,2095,2094,2052,1195
1451,1711002839239092159,2059,2056,2075,2038,2034,2056,1195
1452,1711002839249096147,2056,2047,2049,2060,2112,2059,1197
1453,1711002839259154759,2056,2072,2068,2068,1990,2052,1194
1454,1711002839269085875,2063,2061,2038,2046,2067,2063,1197
1455,1711002839279084031,2075,2114,2156,2066,2022,2059,1195
1456,1711002839289089080,2049,2042,2037,2066,2082,2054,1195
1457,1711002839299086003,2056,2050,2050,2061,2086,2060,1196
1458,1711002839309081505,2057,2055,2076,2042,2069,2060,1197
1459,1711002839319083707,2052,2050,2033,2042,2041,2057,1197
1460,1711002839329095580,2056,2083,2090,2076,2096,2059,1197
1461,1711002839339092564,2056,2056,2045,2045,2040,2056,1196
1462,1711002839349094065,2052,2036,2001,2071,2091,2049,1197
1463,1711002839359094325,2048,2045,2029,2020,2052,2045,1193
1464,1711002839369091089,2053,2044,2046,2042,2051,2051,1194
1465,1711002839379085447,2053,2050,2037,2002,2064,2054,1196
1466,1711002839389088672,2056,2044,2053,2068,2040,2053,1196
1467,1711002839399089724,2053,2049,2034,2041,1996,2044,1193
1468,1711002839409092768,2069,2085,2140,2080,2081,2061,1196
1469,1711002839419092938,2054,2059,2098,2064,2027,2054,1197
1470,1711002839429084312,2056,2054,2062,2060,2063,2061,1193
1471,1711002839439094339,2047,2048,2044,2026,2033,2050,1195
1472,1711002839449103366,2060,2065,2046,2069,2056,2048,1196
1473,1711002839459085672,2053,2036,2042,2081,2095,2057,1197
1474,1711002839469102092,2050,2045,2023,2059,2085,2058,1196
1475,1711002839479092093,2058,2057,2040,2052,2032,2053,1196
1476,1711002839489084617,2061,2056,2057,2088,2076,2061,1197
1477,1711002839499082783,2047,2045,2046,2010,2000,2050,1195
1478,1711002839509096830,2056,2052,2057,2056,2076,2057,1197
1479,1711002839519084716,2054,2032,2036,2042,2026,2054,1197
1480,1711002839529086348,2056,2046,2068,2063,2066,2057,1197
1481,1711002839539095425,2052,2044,2040,2056,2022,2053,1194
1482,1711002839549089262,2065,2059,2067,2076,2121,2064,1195
1483,1711002839559085174,2056,2056,2040,2044,2017,2052,1198
1484,1711002839569085844,2058,2045,2040,2056,2071,2060,1197
1485,1711002839579085122,2052,2062,2052,2048,2025,2047,1193
1486,1711002839589088668,2056,2053,2051,2064,2104,2058,1196
1487,1711002839599086083,2046,2035,2032,2014,2053,2053,1193
1488,1711002839609096131,2056,2050,2028,2079,2072,2056,1195
1489,1711002839619079118,2052,2047,2032,2037,2072,2053,1196
1490,1711002839629080841,2064,2063,2091,2072,2070,2062,1195
1491,1711002839639087121,2055,2060,2085,2043,2044,2052,1196
1492,1711002839649085328,2056,2061,2054,2072,2077,2057,1197
1493,1711002839659089325,2053,2034,2068,2021,1986,2048,1194
1494,1711002839669078673,2056,2033,2007,2079,2060,2061,1195
1495,1711002839679084955,2045,2040,2016,2066,2048,2046,1194
1496,1711002839689084534,2060,2056,2058,2051,2060,2054,1195
1497,1711002839699087668,2051,2057,2081,2044,2037,2053,1197
1498,1711002839709089231,2064,2062,2072,2116,2074,2056,1196
1499,1711002839719097857,2056,2056,2066,2084,2064,2058,1196
1500,1711002839729086133,2056,2046,2048,2064,2053,2053,1195
1501,1711002839739088127,2052,2051,2037,2069,2044,2058,1194
1502,1711002839749092885,2054,2048,2037,2064,2065,2054,1195
1503,1711002839759118684,2056,2047,2030,2056,1984,2036,1194
1504,1711002839769089898,2052,2049,2037,2058,2064,2050,1196
1505,1711002839779092152,2053,2046,2032,2072,2041,2052,1198
1506,1711002839789094024,2064,2073,2106,2076,2080,2055,1196
1507,1711002839799089435,2057,2078,2062,2033,2034,2054,1194
1508,1711002839809099403,2053,2045,2039,2068,2045,2061,1196
1509,1711002839819088862,2056,2044,2025,2041,1996,2052,1198
1510,1711002839829090114,2060,2054,2045,2064,2093,2062,1195
1511,1711002839839091956,2062,2064,2104,2030,2032,2054,1197
1512,1711002839849111073,2056,2049,2044,2021,2040,2049,1197
1513,1711002839859101504,2057,2053,2049,2041,2028,2052,1196
1514,1711002839869087706,2060,2060,2076,2064,2058,2057,1197
1515,1711002839879116872,2056,2051,2045,2047,2032,2056,1196
1516,1711002839889093467,2064,2073,2072,2104,2141,2072,1197
1517,1711002839899093545,2047,2046,2036,2052,2050,2051,1197
1518,1711002839909100478,2053,2047,2018,2064,2065,2057,1197
1519,1711002839919095999,2060,2059,2060,2089,2045,2056,1195
1520,1711002839929096258,2056,2061,2057,2066,2064,2054,1195
1521,1711002839939097881,2059,2034,2033,2023,2006,2048,1194
1522,1711002839949103622,2058,2067,2112,2065,2067,2058,1195
1523,1711002839959103190,2056,2068,2090,2075,2021,2056,1196
1524,1711002839969077540,2056,2058,2082,2068,2051,2052,1195
1525,1711002839979074795,2048,2043,2028,2058,2024,2045,1194
1526,1711002839989101915,2060,2055,2055,2082,2078,2060,1195
1527,1711002839999083910,2056,2067,2124,2041,2014,2050,1195
1528,1711002840009103046,2060,2058,2065,2054,2054,2056,1196
1529,1711002840019103867,2056,2067,2093,2046,2025,2050,1196
1530,1711002840029102633,2059,2057,2072,2059,2064,2060,1198
1531,1711002840039063607,2047,2043,2040,2034,2014,2049,1196
1532,1711002840049104876,2050,2052,2051,2072,2061,2052,1196
1533,1711002840059078544,2060,2066,2058,2067,2047,2056,1198
1534,1711002840069086869,2059,2059,2042,2059,2090,2054,1193
1535,1711002840079085175,2054,2052,2032,2038,2049,2050,1196
1536,1711002840089090153,2057,2047,2031,2088,2090,2057,1196
1537,1711002840099090412,2047,2042,2042,2047,2058,2051,1197
1538,1711002840109089910,2061,2060,2061,2061,2054,2056,1196
1539,1711002840119078838,2056,2058,2053,2045,2034,2049,1200
1540,1711002840129084157,2054,2052,2053,2089,2066,2053,1197
1541,1711002840139145324,2054,2053,2049,2036,2038,2051,1193
1542,1711002840149093934,2067,2062,2035,2051,2047,2052,1195
1543,1711002840159092690,2065,2074,2174,2050,2032,2052,1197
1544,1711002840169115392,2058,2052,2050,2069,2057,2057,1195
1545,1711002840179080465,2053,2050,2045,2041,2041,2051,1196
1546,1711002840189088028,2052,2057,2062,2073,2071,2059,1196
1547,1711002840199086764,2058,2072,2081,2071,2020,2052,1197
1548,1711002840209117673,2054,2046,2024,2077,2075,2056,1196
1549,1711002840219082364,2058,2054,2050,2056,2053,2053,1197
1550,1711002840229089046,2058,2056,2056,2060,2080,2054,1196
1551,1711002840239091870,2047,2045,2041,2044,2047,2052,1200
1552,1711002840249092931,2053,2048,2053,2053,2079,2057,1199
1553,1711002840259078952,2058,2065,2096,2068,2022,2054,1196
1554,1711002840269044967,2061,2078,2175,2116,2154,2065,1195
1555,1711002840279081235,2051,2067,2035,2056,2030,2051,1197
1556,1711002840289080983,2056,2058,2080,2057,2070,2056,1197
1557,1711002840299083818,2050,2044,2032,2026,2015,2044,1194
1558,1711002840309094347,2056,2053,2060,2072,2112,2056,1196
1559,1711002840319090137,2048,2061,2060,2038,2050,2044,1192
1560,1711002840329092762,2049,2044,2032,2059,2062,2053,1196
1561,1711002840339089685,2044,2059,2017,2047,2053,2048,1194
1562,1711002840349083141,2068,2064,2081,2053,2118,2072,1197
1563,1711002840359088421,2056,2057,2062,2044,2045,2060,1196
1564,1711002840369083700,2056,2060,2065,2081,2100,2065,1195
1565,1711002840379090181,2057,2056,2058,2046,2049,2057,1195
1566,1711002840389088978,2051,2052,2062,2005,2028,2044,1193
1567,1711002840399089628,2049,2024,2015,2045,2057,2050,1198
1568,1711002840409093284,2049,2034,2025,2070,2088,2053,1196
1569,1711002840419092321,2045,2044,2035,2031,2029,2041,1194
1570,1711002840429087932,2050,2043,2040,2045,2046,2048,1194
1571,1711002840439092018,2056,2053,2041,2050,2028,2051,1196
1572,1711002840449097127,2057,2056,2073,2058,2065,2053,1196
1573,1711002840459091375,2056,2068,2089,2063,2039,2056,1196
1574,1711002840469088188,2054,2040,2081,2065,2081,2060,1195
1575,1711002840479084910,2053,2048,2045,2069,2056,2052,1197
1576,1711002840489080591,2046,2047,2049,2051,2059,2053,1197
1577,1711002840499083345,2063,2068,2064,2061,2041,2056,1196
1578,1711002840509089776,2056,2054,2056,2064,2032,2047,1195
1579,1711002840519092431,2054,2056,2041,2062,2083,2052,1197
1580,1711002840529082310,2057,2049,2053,2064,2046,2057,1195
1581,1711002840539087479,2047,2047,2034,2023,2030,2052,1193
1582,1711002840549097226,2056,2052,2056,2076,2067,2054,1198
1583,1711002840559117885,2050,2056,2076,2082,2073,2055,1196
1584,1711002840569077977,2064,2051,2080,2062,2067,2057,1197
1585,1711002840579085099,2054,2054,2044,2054,2069,2050,1195
1586,1711002840589084648,2065,2093,2088,2102,2107,2066,1197
1587,1711002840599086651,2056,2057,2072,2033,2013,2049,1195
1588,1711002840609099605,2054,2053,2073,2061,2037,2052,1195
1589,1711002840619081078,2057,2051,2037,2015,2020,2050,1195
1590,1711002840629094533,2052,2048,2056,2058,2039,2051,1195
1591,1711002840639103729,2057,2055,2076,2059,2073,2064,1198
1592,1711002840649101504,2058,2056,2073,2040,2047,2054,1197
1593,1711002840659096503,2056,2059,2036,2029,2042,2054,1195
1594,1711002840669083106,2057,2056,2068,2076,1977,2050,1196
1595,1711002840679082134,2065,2072,2117,2064,2070,2059,1196
1596,1711002840689084407,2053,2047,2052,2072,2044,2059,1197
1597,1711002840699085848,2051,2047,2047,2042,2072,2056,1195
1598,1711002840709086198,2040,2034,2030,2065,2104,2056,1195
1599,1711002840719089734,2056,2053,2037,2044,2049,2056,1196
1600,1711002840729085865,2053,2064,2051,2047,2052,2051,1196
1601,1711002840739095562,2060,2064,2065,2049,2068,2054,1196
1602,1711002840749081835,2056,2046,2002,2053,2049,2054,1196
1603,1711002840759146378,2057,2049,2040,2047,2042,2051,1195
1604,1711002840769081603,2064,2061,2046,2042,2056,2050,1196
1605,1711002840779093354,2052,2043,2027,2051,2039,2047,1193
1606,1711002840789097992,2052,2047,2047,2067,2056,2060,1194
1607,1711002840799093031,2056,2052,2040,2041,2066,2058,1197
1608,1711002840809112648,2060,2061,2104,2031,2044,2060,1196
1609,1711002840819096315,2051,2045,2021,2039,2057,2051,1196
1610,1711002840829098729,2060,2053,2057,2052,2053,2058,1196
1611,1711002840839099971,2053,2047,2044,2050,2022,2046,1192
1612,1711002840849100741,2058,2065,2101,2086,2078,2056,1196
1613,1711002840859208095,2059,2062,2041,2060,2044,2049,1194
1614,1711002840869092432,2066,2085,2145,2096,2118,2066,1193
1615,1711002840879098112,2061,2058,2028,2054,2056,2052,1195
1616,1711002840889086188,2047,2042,2046,2066,2044,2050,1196
1617,1711002840899083482,2053,2060,2061,2064,2045,2042,1194
1618,1711002840909114320,2060,2051,2060,2056,2056,2058,1193
1619,1711002840919088660,2054,2049,2020,2065,2077,2060,1196
1620,1711002840929106373,2049,2045,2043,2052,2039,2053,1196
1621,1711002840939087095,2060,2085,2062,2065,2053,2057,1192
1622,1711002840949092203,2065,2053,2031,2086,2094,2064,1194
1623,1711002840959095057,2051,2055,2048,2067,2040,2050,1194
1624,1711002840969079748,2053,2048,2041,2026,2040,2053,1197
1625,1711002840979083503,2052,2047,2011,2056,2056,2048,1195
1626,1711002840989078442,2051,2050,2055,2050,2028,2052,1197
1627,1711002840999087319,2057,2029,2032,2049,2024,2050,1196
1628,1711002841009091906,2054,2041,2044,2064,2047,2049,1196
1629,1711002841019097055,2050,2056,2064,2042,2044,2048,1196
1630,1711002841029093567,2055,2053,2056,2055,2047,2057,1196
1631,1711002841039091611,2048,2044,2018,2072,2064,2056,1196
1632,1711002841049085017,2060,2073,2153,2061,2058,2060,1196
1633,1711002841059106708,2053,2052,2034,2044,2058,2052,1196
1634,1711002841069083802,2059,2055,2080,2064,2066,2060,1195
1635,1711002841079083300,2052,2041,2034,2049,2053,2053,1196
1636,1711002841089079250,2050,2052,2052,2047,2050,2052,1195
1637,1711002841099079890,2051,2058,2066,2060,2041,2053,1195
1638,1711002841109117481,2059,2051,2056,2059,2056,2058,1196
1639,1711002841119084516,2064,2085,2102,2128,2096,2065,1196
1640,1711002841129085086,2053,2039,2064,2045,2057,2056,1195
1641,1711002841139092058,2051,2052,2069,2044,2047,2053,1193
1642,1711002841149078680,2049,2050,2056,2052,2055,2051,1195
1643,1711002841159106282,2060,2062,2032,2045,2024,2045,1191
1644,1711002841169107002,2054,2055,2062,2038,2040,2056,1194
1645,1711002841179089987,2056,2056,2044,2057,2024,2046,1194
1646,1711002841189085618,2056,2051,2059,2063,2048,2053,1195
1647,1711002841199085907,2053,2050,2037,2047,2045,2049,1197
1648,1711002841209110232,2049,2037,2050,2044,2045,2047,1194
1649,1711002841219093408,2056,2050,2044,2050,2052,2053,1195
1650,1711002841229092205,2060,2056,2073,2001,2045,2050,1195
1651,1711002841239089337,2069,2106,2204,2063,2043,2053,1196
1652,1711002841249116218,2065,2046,2045,2049,2068,2060,1197
1653,1711002841259096268,2054,2049,2038,2058,2039,2052,1196
1654,1711002841269087439,2057,2048,2042,2004,2005,2051,1196
1655,1711002841279084292,2048,2026,1987,2060,2063,2049,1196
1656,1711002841289082186,2048,2032,2031,2036,2058,2055,1197
1657,1711002841299082606,2057,2058,2036,2060,2076,2053,1195
1658,1711002841309111059,2060,2056,2048,2047,2049,2060,1197
1659,1711002841319090438,2059,2064,2056,2052,2056,2056,1194
1660,1711002841329093031,2061,2066,2088,2066,2075,2052,1197
1661,1711002841339090114,2052,2046,2034,2050,2021,2048,1192
1662,1711002841349107887,2052,2042,2051,2072,2068,2050,1197
1663,1711002841359082968,2051,2050,2086,2084,2085,2054,1198
1664,1711002841369087776,2060,2061,2077,2068,2110,2061,1195
1665,1711002841379084879,2040,2045,2029,2047,2020,2040,1192
1666,1711002841389080298,2056,2053,2048,2092,2046,2056,1196
1667,1711002841399086088,2049,2046,2036,2041,2043,2045,1192
1668,1711002841409129039,2060,2054,2092,2076,2054,2054,1195
1669,1711002841419088790,2049,2060,2093,2053,2050,2057,1196
1670,1711002841429087206,2059,2059,2053,2052,2053,2056,1196
1671,1711002841439084660,2058,2059,2077,2061,2057,2054,1196
1672,1711002841449108514,2056,2056,2058,2049,2029,2058,1197
1673,1711002841459087302,2060,2063,2058,2047,2064,2058,1194
1674,1711002841469083303,2053,2065,2104,2066,2084,2052,1195
1675,1711002841479089623,2054,2054,2047,2053,2053,2056,1195
1676,1711002841489082879,2054,2053,2027,2052,2056,2056,1195
1677,1711002841499080293,2051,2052,2052,2079,2052,2053,1198
1678,1711002841509092594,2060,2053,2063,2057,2024,2058,1196
1679,1711002841519094577,2057,2058,2043,2056,2058,2054,1196
1680,1711002841529087321,2060,2068,2109,2080,2074,2060,1196
1681,1711002841539091368,2047,2049,2044,2077,2088,2046,1192
1682,1711002841549084994,2060,2056,2085,2049,2054,2061,1196
1683,1711002841559094231,2052,2074,2060,2066,2054,2049,1196
1684,1711002841569087676,2066,2074,2090,2082,2057,2058,1196
1685,1711002841579085129,2054,2049,2030,2045,2053,2057,1195
1686,1711002841589091370,2056,2049,2037,2050,2046,2053,1198
1687,1711002841599086158,2042,2033,1998,2058,2066,2053,1197
1688,1711002841609080587,2058,2047,2053,2083,2056,2056,1197
1689,1711002841619097888,2060,2057,2042,2057,2039,2048,1196
1690,1711002841629095713,2060,2042,2058,2042,2042,2052,1196
1691,1711002841639090942,2064,2080,2112,2029,2072,2053,1196
1692,1711002841649095069,2058,2073,2090,2065,2062,2058,1198
1693,1711002841659099435,2053,2052,2025,2081,2065,2056,1196
1694,1711002841669086289,2053,2065,2108,2038,1992,2056,1196
1695,1711002841679092078,2054,2056,2072,2076,2089,2056,1195
1696,1711002841689090444,2053,2056,2080,2060,2080,2052,1196
1697,1711002841699088919,2057,2054,2017,2041,2036,2050,1197
1698,1711002841709084339,2055,2082,2090,2054,2054,2057,1196
1699,1711002841719107101,2056,2052,2062,1995,2075,2050,1197
1700,1711002841729088093,2060,2056,2068,2060,2060,2054,1194
1701,1711002841739090336,2056,2045,1981,2045,2028,2040,1190
1702,1711002841749092830,2061,2048,2027,2050,2040,2056,1196
1703,1711002841759091476,2051,2048,2002,2076,2072,2047,1193
1704,1711002841769091614,2051,2036,2072,2056,2033,2053,1196
1705,1711002841779085812,2057,2040,2009,2039,2052,2056,1194
1706,1711002841789086311,2044,2040,2052,2069,2063,2048,1196
1707,1711002841799089897,2054,2049,2024,2051,2064,2051,1195
1708,1711002841809148317,2057,2054,2087,2047,2074,2065,1195
1709,1711002841819097118,2053,2049,2044,2066,2060,2053,1195
1710,1711002841829104430,2049,2053,2054,2058,2046,2052,1195
1711,1711002841839098578,2052,2060,2072,2049,2044,2054,1196
1712,1711002841849097154,2056,2069,2056,2042,2019,2053,1196
1713,1711002841859090560,2047,2048,2064,2043,2058,2040,1194
1714,1711002841869084366,2056,2055,2060,2067,2093,2056,1196
1715,1711002841879087381,2059,2056,2010,2064,2115,2060,1196
1716,1711002841889089343,2068,2073,2157,2066,2061,2058,1195
1717,1711002841899087829,2047,2047,2029,2056,2052,2051,1195
1718,1711002841909093748,2062,2069,2101,2048,2050,2059,1196
1719,1711002841919085892,2057,2077,2042,2033,2047,2052,1196
1720,1711002841929089106,2067,2082,2072,2044,2024,2053,1196
1721,1711002841939091320,2056,2046,2036,2042,2061,2050,1195
1722,1711002841949092981,2051,2048,2056,2024,1992,2040,1194
1723,1711002841959094062,2054,2056,2051,2055,2078,2052,1198
1724,1711002841969094761,2060,2053,2065,2066,2058,2061,1196
1725,1711002841979094710,2064,2077,2092,2075,2080,2059,1196
1726,1711002841989094298,2056,2097,2112,2086,2045,2054,1195
1727,1711002841999095047,2053,2053,2067,2065,2060,2056,1196
1728,1711002842009095918,2060,2058,2074,2070,2088,2064,1198
1729,1711002842019075687,2060,2056,2052,2033,2001,2053,1198
1730,1711002842029098128,2060,2066,2088,2083,2056,2061,1195
1731,1711002842039099629,2049,2062,2079,2034,2064,2045,1194
1732,1711002842049099938,2060,2080,2114,2067,2060,2055,1196
1733,1711002842059099055,2058,2061,2056,2088,2076,2053,1197
1734,1711002842069098131,2059,2048,2045,2052,2055,2060,1196
1735,1711002842079100464,2051,2046,2008,2070,2075,2042,1194
1736,1711002842089102235,2051,2047,2053,2086,2076,2061,1194
1737,1711002842099102043,2055,2072,2062,2056,2046,2047,1194
1738,1711002842109102441,2054,2048,2064,2027,2061,2061,1197
1739,1711002842119084525,2059,2068,2086,2062,2070,2056,1197
1740,1711002842129086708,2053,2041,2048,2072,2057,2042,1193
1741,1711002842139104320,2053,2063,2104,2060,2064,2060,1194
1742,1711002842149088468,2058,2047,2046,2075,2044,2064,1196
1743,1711002842159084759,2057,2053,2043,2047,2035,2052,1196
1744,1711002842169087983,2064,2065,2068,2060,2048,2056,1193
1745,1711002842179088953,2059,2078,2120,2060,2032,2057,1195
1746,1711002842189087589,2061,2049,2043,2048,2040,2053,1196
1747,1711002842199093147,2059,2050,2027,2064,2045,2050,1196
1748,1711002842209089949,2056,2046,2029,2015,2030,2048,1198
1749,1711002842219093635,2062,2037,2032,2074,2086,2068,1196
1750,1711002842229088082,2064,2055,2121,2052,2053,2067,1194
1751,1711002842239091206,2054,2048,2036,2052,2060,2050,1197
1752,1711002842249095713,2058,2060,2062,2053,2033,2057,1197
1753,1711002842259090421,2060,2046,2001,2068,2060,2058,1196
1754,1711002842269079528,2057,2049,2089,2088,2064,2058,1194
1755,1711002842279076291,2052,2050,2034,2046,2037,2037,1194
1756,1711002842289082300,2053,2056,2092,2045,2015,2044,1194
1757,1711002842299085494,2063,2060,2046,2081,2104,2057,1196
1758,1711002842309092165,2058,2064,2067,2080,2059,2065,1196
1759,1711002842319073527,2058,2056,2083,2059,2042,2066,1196
1760,1711002842329085048,2063,2066,2083,2062,2026,2058,1196
1761,1711002842339088923,2048,2066,2102,2042,2060,2049,1193
1762,1711002842349096105,2053,2057,2070,2039,2005,2052,1196
1763,1711002842359092337,2056,2061,2026,2060,2065,2058,1197
1764,1711002842369091192,2062,2060,2064,2059,2090,2068,1196
1765,1711002842379087463,2050,2032,2051,2044,2022,2041,1194
1766,1711002842389085297,2057,2040,2068,2040,2045,2051,1197
1767,1711002842399087249,2069,2076,2079,2052,2076,2060,1197
1768,1711002842409088760,2058,2049,2072,2055,2060,2062,1196
1769,1711002842419088648,2048,2056,2040,2061,2036,2042,1192
1770,1711002842429081763,2060,2058,2065,2087,2057,2064,1196
1771,1711002842439079497,2053,2043,2013,2047,2060,2059,1197
1772,1711002842449096478,2059,2054,2067,2067,2084,2062,1197
1773,1711002842459096285,2050,2064,2052,2044,2013,2027,1194
1774,1711002842469090192,2060,2050,2042,2051,2040,2053,1197
1775,1711002842479086202,2055,2060,2053,2056,2060,2053,1196
1776,1711002842489085089,2059,2052,2084,2032,2044,2057,1195
1777,1711002842499085919,2061,2070,2083,2052,2043,2047,1194
1778,1711002842509089513,2055,2056,2056,2055,2042,2049,1196
1779,1711002842519091205,2054,2057,2051,2027,2060,2048,1195
1780,1711002842529087756,2058,2066,2076,2043,1977,2040,1193
1781,1711002842539090119,2057,2057,2056,2081,2071,2059,1193
1782,1711002842549089306,2056,2054,2064,2037,2025,2049,1194
1783,1711002842559084674,2052,2053,2043,2055,2068,2052,1196
1784,1711002842569090785,2050,2049,2063,2052,2024,2051,1196
1785,1711002842579087547,2040,2021,2020,2052,2061,2046,1193
1786,1711002842589087244,2058,2054,2060,2064,2045,2058,1197
1787,1711002842599088936,2053,2050,2035,2075,2050,2053,1196
1788,1711002842609091368,2057,2055,2064,2049,2014,2056,1196
1789,1711002842619090094,2051,2066,2096,2074,2078,2048,1197
1790,1711002842629085684,2057,2057,2072,2047,2047,2061,1195
1791,1711002842639090101,2060,2047,2004,2076,2128,2061,1195
1792,1711002842649093946,2056,2053,2057,2056,2042,2060,1197
1793,1711002842659094365,2056,2058,2057,2088,2091,2057,1196
1794,1711002842669082781,2051,2047,2073,2046,2018,2052,1194
1795,1711002842679084482,2047,2050,2033,2059,2047,2048,1196
1796,1711002842689083889,2060,2044,2013,2028,2022,2059,1194
1797,1711002842699085901,2049,2047,2015,2032,2070,2049,1195
1798,1711002842709082223,2062,2060,2065,2060,2040,2061,1194
1799,1711002842719155441,2057,2042,2040,2052,2051,2056,1195
1800,1711002842729093481,2047,2048,2069,2057,2012,2050,1195
1801,1711002842739099921,2054,2058,2047,2044,2097,2047,1192
1802,1711002842749103005,2058,2052,2065,2059,2041,2057,1195
1803,1711002842759096350,2053,2047,2034,2053,2073,2051,1196
1804,1711002842769094746,2048,2020,2059,2056,2032,2053,1193
1805,1711002842779092058,2061,2056,2039,2063,2117,2058,1197
1806,1711002842789093449,2058,2055,2073,2047,1948,2048,1194
1807,1711002842799090412,2060,2064,2045,2032,2047,2046,1193
1808,1711002842809090921,2067,2077,2108,2047,2042,2065,1195
1809,1711002842819140835,2068,2046,2033,2083,2057,2055,1196
1810,1711002842829099564,2049,2022,2024,2050,2029,2049,1194
1811,1711002842839090284,2053,2041,2020,2053,2080,2050,1198
1812,1711002842849095713,2054,2052,2061,2049,2032,2056,1198
1813,1711002842859108115,2058,2060,2100,2083,2101,2058,1197
1814,1711002842869111098,2063,2069,2121,2024,2060,2064,1196
1815,1711002842879096869,2060,2034,2022,2072,2082,2054,1197
1816,1711002842889096176,2052,2031,2065,2074,2072,2065,1196
1817,1711002842899095773,2061,2061,2045,2057,2064,2056,1194
1818,1711002842909097465,2053,2049,2057,2040,2030,2057,1197
1819,1711002842919098204,2054,2049,2038,2047,2065,2047,1193
1820,1711002842929098133,2056,2065,2083,2052,2050,2061,1195
1821,1711002842939107860,2059,2065,2091,2066,2076,2051,1195
1822,1711002842949101305,2063,2082,2165,2063,2040,2064,1196
1823,1711002842959099440,2058,2078,2033,2062,2048,2052,1197
1824,1711002842969135847,2056,2051,2084,2058,2026,2052,1196
1825,1711002842979104125,2053,2061,2056,2064,2038,2048,1196
1826,1711002842989087241,2046,2044,2060,2046,2025,2049,1195
1827,1711002842999086928,2052,2045,2036,2036,2060,2054,1195
1828,1711002843009089211,2059,2057,2081,2069,2073,2061,1196
1829,1711002843019120308,2059,2056,2025,2091,2068,2054,1196
1830,1711002843029109465,2056,2050,2056,2062,2041,2061,1197
1831,1711002843039094685,2059,2065,2065,2045,2072,2050,1196
1832,1711002843049090865,2056,2054,2080,2064,2041,2058,1197
1833,1711002843059091434,2036,2040,2010,2064,2100,2041,1194
1834,1711002843069091602,2058,2046,2057,2037,2029,2053,1196
1835,1711002843079088103,2052,2051,2034,2066,2053,2053,1195
1836,1711002843089089514,2057,2073,2073,2056,2086,2058,1196
1837,1711002843099089752,2053,2045,2017,2067,2064,2053,1197
1838,1711002843109087846,2052,2045,2066,2047,2012,2047,1194
1839,1711002843119086000,2060,2064,2063,2065,2076,2052,1195
1840,1711002843129090917,2059,2056,2053,2045,2031,2057,1196
1841,1711002843139112256,2053,2043,1988,2049,2056,2052,1192
1842,1711002843149089861,2064,2060,2113,2061,2040,2052,1196
1843,1711002843159089819,2054,2042,2036,2009,2040,2046,1193
1844,1711002843169092441,2053,2042,2052,2091,2091,2067,1196
1845,1711002843179084614,2050,2045,2014,2060,2075,2047,1193
1846,1711002843189086135,2050,2038,2026,2045,2021,2054,1196
1847,1711002843199083588,2054,2054,2036,2075,2066,2049,1197
1848,1711002843209090809,2068,2113,2196,2100,2068,2063,1195
1849,1711002843219083403,2056,2044,2025,2037,2058,2052,1196
1850,1711002843229098259,2052,2048,2050,2044,2013,2059,1195
1851,1711002843239089340,2057,2043,2029,2060,2072,2047,1192
1852,1711002843249095269,2053,2051,2086,2084,2040,2060,1197
1853,1711002843259089867,2052,2040,1988,2050,2066,2053,1196
1854,1711002843269094142,2051,2035,2020,2042,2020,2054,1197
1855,1711002843279106704,2052,2049,2041,2073,2042,2047,1194
1856,1711002843289077857,2052,2048,2044,2073,2026,2053,1195
1857,1711002843299088696,2058,2081,2054,2045,2039,2053,1195
1858,1711002843309086990,2057,2049,2066,2033,2005,2057,1194
1859,1711002843319088029,2055,2051,2031,2040,2052,2049,1195
1860,1711002843329096504,2051,2044,2076,2037,2009,2048,1197
1861,1711002843339080912,2058,2064,2049,2056,2080,2053,1193
1862,1711002843349086621,2050,2033,2052,2040,2032,2044,1193
1863,1711002843359085647,2056,2060,2009,2061,2088,2056,1195
1864,1711002843369084642,2061,2056,2068,2021,2015,2054,1196
1865,1711002843379086794,2052,2051,2034,2080,2123,2056,1196
1866,1711002843389087122,2060,2067,2104,2032,2025,2056,1197
1867,1711002843399085778,2058,2059,2081,2078,2074,2054,1196
1868,1711002843409087669,2056,2061,2112,2037,2007,2053,1195
1869,1711002843419087917,2056,2057,2028,2078,2082,2052,1196
1870,1711002843429094518,2057,2049,2055,2039,2024,2055,1194
1871,1711002843439109665,2064,2065,2056,2081,2098,2056,1195
1872,1711002843449092810,2051,2045,2058,2030,2012,2052,1196
1873,1711002843459086916,2053,2051,2017,2004,2050,2049,1195
1874,1711002843469090641,2057,2067,2125,2059,2037,2060,1195
1875,1711002843479077173,2057,2070,2014,2082,2069,2046,1193
1876,1711002843489089996,2060,2044,2025,2045,2047,2056,1196
1877,1711002843499096426,2061,2064,2093,2062,2072,2055,1196
1878,1711002843509084581,2050,2060,2084,2044,2009,2050,1195
1879,1711002843519082154,2061,2066,2082,2059,2060,2050,1196
1880,1711002843529091610,2052,2049,2057,2043,2012,2056,1196
1881,1711002843539086057,2061,2061,2047,2117,2106,2049,1195
1882,1711002843549093209,2058,2046,2107,2044,2027,2062,1195
1883,1711002843559087835,2057,2060,2049,2054,2072,2057,1195
1884,1711002843569094536,2056,2042,2044,2032,2010,2053,1196
1885,1711002843579104664,2056,2056,2016,2076,2080,2058,1194
1886,1711002843589085235,2060,2059,2099,2091,2053,2054,1195
1887,1711002843599085814,2054,2056,2057,2050,2085,2052,1197
1888,1711002843609086392,2057,2049,2145,2036,2012,2053,1197
1889,1711002843619086790,2046,2040,2023,2037,2104,2054,1197
1890,1711002843629112017,2056,2045,2053,2070,2026,2060,1196
1891,1711002843639075896,2052,2057,2053,2068,2108,2052,1196
1892,1711002843649083979,2058,2066,2102,2056,2018,2056,1197
1893,1711002843659087423,2053,2051,2040,2054,2072,2051,1196
1894,1711002843669085006,2057,2054,2069,2040,2006,2057,1196
1895,1711002843679081106,2064,2084,2063,2067,2085,2054,1195
1896,1711002843689083018,2053,2046,2038,2058,2026,2056,1196
1897,1711002843699074870,2058,2065,2031,2096,2117,2052,1196
1898,1711002843709075058,2051,2047,2060,2039,2013,2048,1195
1899,1711002843719085365,2064,2067,2077,2066,2081,2056,1194
1900,1711002843729092327,2049,2044,2046,2043,2030,2058,1195
1901,1711002843739103286,2064,2068,2098,2056,2062,2057,1196
1902,1711002843749090710,2053,2045,2065,1988,1992,2053,1197
1903,1711002843759087390,2059,2052,2036,2060,2098,2054,1197
1904,1711002843769092498,2051,2051,2076,2051,1997,2059,1196
1905,1711002843779119007,2050,2050,2032,2075,2088,2050,1194
1906,1711002843789092614,2061,2070,2124,2046,2020,2056,1195
1907,1711002843799089106,2053,2050,2012,2057,2088,2056,1195
1908,1711002843809086628,2052,2036,2052,2057,2026,2059,1198
1909,1711002843819091215,2056,2050,2042,2061,2088,2052,1194
1910,1711002843829146078,2053,2048,2069,2062,2019,2049,1194
1911,1711002843839086842,2056,2053,2033,2067,2076,2057,1197
1912,1711002843849086690,2061,2061,2128,2032,2009,2058,1195
1913,1711002843859085144,2062,2070,2080,2084,2089,2053,1195
1914,1711002843869087847,2044,2033,2029,1992,1988,2048,1195
1915,1711002843879113073,2066,2068,2068,2069,2086,2053,1193
1916,1711002843889080088,2059,2057,2077,2036,2017,2053,1196
1917,1711002843899088081,2054,2055,2041,2050,2072,2046,1192
1918,1711002843909086275,2057,2055,2076,2031,2020,2054,1196
1919,1711002843919086684,2056,2049,2027,2047,2092,2049,1198
1920,1711002843929129854,2055,2052,2061,2006,2012,2054,1194
1921,1711002843939082151,2056,2069,2044,2046,2081,2053,1192
1922,1711002843949089112,2054,2049,2064,2030,1991,2062,1195
1923,1711002843959088608,2057,2063,2028,2081,2102,2048,1194
1924,1711002843969090019,2054,2049,2064,2087,2020,2056,1194
1925,1711002843979089827,2060,2060,2076,2062,2102,2056,1195
1926,1711002843989090296,2053,2049,2054,2039,2019,2052,1194
1927,1711002843999086707,2057,2061,2038,2058,2074,2051,1197
1928,1711002844009089840,2057,2081,2084,2063,2023,2066,1194
1929,1711002844019090138,2062,2074,2082,2060,2094,2052,1195
1930,1711002844029104773,2047,2046,2065,2018,1989,2049,1196
1931,1711002844039054655,2055,2060,2061,2073,2093,2056,1196
1932,1711002844049093256,2056,2056,2041,2052,2016,2058,1195
1933,1711002844059093274,2052,2048,2031,2072,2094,2050,1196
1934,1711002844069093992,2051,2031,2068,2060,2035,2063,1195
1935,1711002844079090303,2052,2048,2028,2088,2152,2054,1198
1936,1711002844089091462,2052,2043,2045,2053,2045,2060,1195
1937,1711002844099096340,2059,2063,2060,2065,2110,2057,1195
1938,1711002844109096016,2056,2049,2070,2040,2020,2057,1195
1939,1711002844119096694,2056,2063,2057,2054,2086,2052,1193
1940,1711002844129118073,2053,2036,2048,2049,2001,2048,1195
1941,1711002844139094926,2049,2044,2022,2052,2095,2052,1194
1942,1711002844149106816,2045,2042,2064,2043,2015,2052,1196
1943,1711002844159098698,2054,2050,2012,2046,2085,2046,1194
1944,1711002844169101391,2053,2040,2047,2050,2047,2060,1196
1945,1711002844179097871,2059,2056,2046,2060,2090,2048,1196
1946,1711002844189096867,2058,2053,2062,2037,2014,2053,1194
1947,1711002844199101132,2056,2033,2025,2068,2090,2054,1196
1948,1711002844209101872,2044,2033,2047,2049,2032,2056,1193
1949,1711002844219085166,2056,2046,1994,2070,2089,2045,1196
1950,1711002844229119890,2061,2049,2049,2042,2023,2060,1197
1951,1711002844239084220,2056,2056,2023,2072,2094,2053,1198
1952,1711002844249103935,2052,2056,2084,2065,2023,2053,1197
1953,1711002844259087621,2052,2057,2032,2062,2096,2052,1198
1954,1711002844269114049,2055,2074,2077,2020,2019,2055,1196
1955,1711002844279109177,2066,2065,2070,2060,2096,2053,1196
1956,1711002844289084727,2050,2051,2065,2032,2022,2056,1197
1957,1711002844299090657,2059,2054,2040,2058,2096,2052,1197
1958,1711002844309088048,2049,2047,2068,2038,2021,2052,1198
1959,1711002844319089439,2057,2058,2040,2105,2128,2063,1195
1960,1711002844329092432,2053,2057,2092,2038,2019,2054,1196
1961,1711002844339087791,2060,2056,2045,2070,2090,2058,1196
1962,1711002844349090824,2056,2063,2109,2029,2020,2052,1200
1963,1711002844359086483,2052,2046,2016,2074,2082,2048,1195
1964,1711002844369090568,2058,2056,2086,2010,2013,2056,1196
1965,1711002844379094063,2050,2044,2028,2070,2100,2055,1197
1966,1711002844389089731,2051,2048,2069,2037,1993,2050,1197
1967,1711002844399088907,2058,2047,2041,2057,2076,2050,1197
1968,1711002844409088203,2053,2055,2069,2046,2009,2056,1196
1969,1711002844419087409,2052,2051,2012,2080,2104,2052,1197
1970,1711002844429103828,2057,2046,2056,2029,2024,2052,1197
1971,1711002844439091982,2056,2052,2024,2060,2090,2054,1197
1972,1711002844449102821,2048,2046,2061,2045,2013,2053,1197
1973,1711002844459089021,2056,2057,2029,2069,2137,2064,1197
1974,1711002844469093869,2056,2088,2104,2058,2012,2055,1195
1975,1711002844479086602,2059,2056,2043,2060,2076,2051,1197
1976,1711002844489096098,2053,2053,2046,2057,2006,2053,1198
1977,1711002844499089532,2058,2054,2029,2080,2105,2056,1197
1978,1711002844509088568,2056,2065,2088,2054,2014,2056,1194
1979,1711002844519088165,2057,2055,2029,2097,2122,2053,1198
1980,1711002844529102179,2047,2047,2060,2065,1998,2052,1196
1981,1711002844539074473,2056,2046,2027,2061,2092,2053,1195
1982,1711002844549091182,2049,2045,2056,2062,2027,2056,1196
1983,1711002844559087964,2059,2064,2052,2056,2109,2054,1196
1984,1711002844569104152,2052,2048,2060,2029,2001,2048,1195
1985,1711002844579107857,2059,2063,2060,2027,2075,2053,1195
1986,1711002844589083968,2053,2059,2102,2052,2004,2046,1193
1987,1711002844599086751,2060,2066,2034,2084,2096,2049,1196
1988,1711002844609088492,2057,2048,2056,2052,2023,2056,1197
1989,1711002844619057981,2055,2050,2026,2080,2096,2057,1195
1990,1711002844629094288,2061,2057,2064,2061,2016,2049,1195
1991,1711002844639088024,2057,2053,2030,2064,2114,2056,1198
1992,1711002844649091086,2052,2052,2084,2027,2010,2052,1196
1993,1711002844659092366,2061,2056,2007,2098,2097,2052,1197
1994,1711002844669085601,2056,2050,2061,2025,1992,2057,1195
1995,1711002844679099935,2058,2051,2020,2047,2086,2052,1198
1996,1711002844689084934,2045,2042,2062,2046,2014,2052,1197
1997,1711002844699082477,2059,2052,2010,2060,2072,2042,1193
1998,1711002844709083967,2050,2041,2035,1993,1991,2049,1197
1999,1711002844719081500,2050,2048,2033,2057,2098,2044,1195
2000,1711002844729122236,2054,2047,2069,2040,2008,2056,1197
2001,1711002844739092726,2044,2062,2000,2047,2112,2047,1192
2002,1711002844749081242,2058,2058,2066,2049,2037,2056,1196
2003,1711002844759086679,2057,2058,2035,2104,2131,2058,1197
2004,1711002844769091125,2056,2050,2058,2040,2001,2052,1197
2005,1711002844779088247,2055,2048,2024,2080,2086,2050,1198
2006,1711002844789097943,2056,2052,2080,2051,2006,2056,1196
2007,1711002844799083824,2060,2042,2049,2057,2077,2056,1196
2008,1711002844809084432,2056,2041,2088,2032,1989,2053,1197
2009,1711002844819083017,2057,2053,2022,2039,2086,2047,1196
2010,1711002844829083996,2059,2059,2092,2004,2006,2049,1195
2011,1711002844839091729,2056,2059,2036,2052,2114,2058,1198
2012,1711002844849075705,2062,2081,2114,2062,2024,2056,1197
2013,1711002844859079911,2056,2050,2017,2087,2114,2052,1196
2014,1711002844869081601,2048,2022,2059,2036,2002,2047,1193
2015,1711002844879097159,2051,2044,2027,2060,2086,2047,1193
2016,1711002844889107846,2051,2046,2052,1993,1996,2052,1196
2017,1711002844899088547,2052,2052,2010,2064,2080,2045,1193
2018,1711002844909092061,2047,2047,2061,2015,1992,2050,1195
2019,1711002844919092268,2048,2046,2041,2060,2084,2049,1194
2020,1711002844929089861,2053,2047,2074,2036,2012,2052,1196
2021,1711002844939095960,2055,2054,2025,2025,2122,2052,1194
2022,1711002844949091029,2052,2048,2060,2049,2006,2050,1195
2023,1711002844959089783,2062,2065,2029,2096,2117,2050,1195
2024,1711002844969090362,2059,2074,2121,2046,2021,2053,1196
2025,1711002844979094186,2057,2077,2034,2059,2085,2054,1195
2026,1711002844989087862,2057,2054,2067,2033,2035,2055,1194
2027,1711002844999085224,2062,2058,2046,2074,2104,2061,1194
2028,1711002845009085222,2052,2054,2047,2042,1999,2056,1195
2029,1711002845019098354,2053,2061,2047,2096,2113,2053,1194
2030,1711002845029099974,2053,2044,2064,2050,1997,2050,1195
2031,1711002845039115952,2055,2051,1998,2057,2083,2054,1195
2032,1711002845049094327,2049,2041,2031,2045,1991,2049,1196
2033,1711002845059105696,2057,2066,2073,2062,2074,2045,1193
2034,1711002845069100383,2051,2056,2073,2045,2014,2054,1195
2035,1711002845079103505,2059,2057,2017,2065,2091,2054,1197
2036,1711002845089076331,2050,2057,2089,2024,2010,2047,1192
2037,1711002845099097158,2057,2064,2029,2077,2096,2052,1195
2038,1711002845109082216,2060,2060,2091,2047,2013,2057,1196
2039,1711002845119084959,2061,2063,2040,2106,2120,2058,1197
2040,1711002845129081238,2056,2050,2076,2008,1977,2049,1197
2041,1711002845139087257,2059,2064,2062,2057,2084,2054,1195
2042,1711002845149078477,2051,2045,2060,2041,2001,2054,1195
2043,1711002845159087932,2056,2088,2080,2072,2094,2045,1192
2044,1711002845169092990,2052,2040,2057,2046,2010,2055,1196
2045,1711002845179111472,2055,2042,2022,2101,2132,2060,1197
2046,1711002845189097602,2054,2050,2057,2038,1997,2049,1195
2047,1711002845199089884,2056,2052,2021,2062,2089,2049,1197
2048,1711002845209092837,2061,2069,2121,2011,2008,2052,1194
2049,1711002845219088576,2050,2041,2008,2072,2085,2052,1195
2050,1711002845229089344,2049,2046,2062,2006,1984,2051,1195
2051,1711002845239106965,2052,2052,2019,2079,2092,2053,1197
2052,1711002845249060213,2057,2056,2097,2022,1984,2052,1198
2053,1711002845259082382,2050,2033,2024,2037,2074,2049,1196
2054,1711002845269092178,2049,2054,2063,2040,2015,2051,1195
2055,1711002845279092766,2056,2053,2015,2064,2093,2054,1196
2056,1711002845289102361,2047,2045,2060,2024,1985,2048,1196
2057,1711002845299093732,2056,2061,2084,2058,2117,2061,1195
2058,1711002845309086675,2050,2053,2069,2038,2000,2056,1195
2059,1711002845319086843,2060,2072,2093,2054,2102,2061,1198
2060,1711002845329090818,2056,2053,2064,2059,2017,2052,1196
2061,1711002845339106054,2062,2057,2040,2076,2099,2052,1196
2062,1711002845349086223,2053,2054,2096,2048,2012,2053,1197
2063,1711002845359089716,2049,2047,2019,2044,2093,2049,1197
2064,1711002845369088040,2056,2085,2089,2064,2083,2063,1198
2065,1711002845379099078,2073,2081,2124,2052,2073,2049,1197
2066,1711002845389086040,2062,2074,2127,2048,1985,2064,1195
2067,1711002845399092230,2056,2051,2036,2044,2091,2052,1196
2068,1711002845409088490,2052,2056,2064,2024,1997,2052,1196
2069,1711002845419089969,2058,2028,1993,2066,2112,2056,1197
2070,1711002845429086500,2052,2026,2036,2048,2011,2056,1197
2071,1711002845439086236,2054,2055,2036,2104,2121,2056,1196
2072,1711002845449099238,2050,2041,2040,2036,2011,2051,1199
2073,1711002845459086540,2061,2068,2096,2074,2107,2057,1196
2074,1711002845469086798,2052,2043,2068,2054,1993,2052,1197
2075,1711002845479110712,2061,2060,2040,2084,2089,2056,1196
2076,1711002845489105048,2056,2055,2080,2072,2024,2056,1195
2077,1711002845499084515,2050,2050,2028,2074,2092,2049,1198
2078,1711002845509079903,2059,2045,2052,1992,2004,2052,1194
2079,1711002845519084048,2052,2051,2053,2056,2086,2046,1193
2080,1711002845529078775,2041,2012,2015,2046,2020,2056,1195
2081,1711002845539086016,2057,2030,1991,2058,2096,2059,1196
2082,1711002845549079059,2052,2050,2061,2058,2041,2053,1196
2083,1711002845559089197,2057,2065,2047,2037,2076,2048,1196
2084,1711002845569080687,2046,2055,2059,2050,2006,2050,1196
2085,1711002845579061427,2053,2052,2028,2066,2107,2059,1196
2086,1711002845590862718,2050,2044,2032,2043,2020,2052,1195
2087,1711002845599084144,2052,2030,1977,2120,2141,2054,1197
2088,1711002845609084662,2045,2038,2054,2032,2009,2050,1197
2089,1711002845619084880,2058,2060,2049,2086,2097,2052,1195
2090,1711002845629085738,2057,2047,2075,2081,2068,2060,1196
2091,1711002845639065457,2056,2052,2035,2056,2104,2059,1196
2092,1711002845649083379,2056,2066,2061,2034,2001,2059,1196
2093,1711002845659093034,2053,2052,2012,2092,2120,2056,1195
2094,1711002845669087019,2058,2051,2070,2041,1989,2056,1197
2095,1711002845679097647,2060,2054,2018,2079,2101,2049,1196
2096,1711002845689105158,2056,2061,2079,2030,1999,2052,1196
2097,1711002845699088543,2055,2060,2040,2059,2096,2053,1198
2098,1711002845709092858,2058,2061,2096,2073,2035,2051,1196
2099,1711002845719089510,2059,2076,2036,2064,2084,2054,1195
2100,1711002845729086541,2057,2072,2127,2088,2088,2053,1195
2101,1711002845739091617,2059,2055,2032,2051,2078,2053,1194
2102,1711002845749096353,2052,2051,2065,2047,2020,2056,1196
2103,1711002845759089036,2054,2056,2047,2104,2110,2060,1197
2104,1711002845769095876,2053,2050,2060,2046,2017,2059,1195
2105,1711002845779113467,2062,2059,2041,2074,2112,2056,1196
2106,1711002845789088797,2059,2053,2059,2030,2004,2054,1197
2107,1711002845799078665,2060,2054,2037,2046,2086,2057,1196
2108,1711002845809086828,2056,2054,2069,2027,2002,2052,1197
2109,1711002845819086995,2057,2057,2016,2025,2096,2058,1195
2110,1711002845829085779,2047,2047,2098,2046,1995,2049,1196
2111,1711002845839080105,2052,2045,2032,2053,2080,2047,1196
2112,1711002845849088869,2046,2042,2034,2033,2004,2045,1195
2113,1711002845859074899,2059,2057,2030,2073,2088,2053,1198
2114,1711002845869085857,2056,2046,2048,2071,2029,2058,1197
2115,1711002845879086035,2053,2056,2037,2058,2092,2051,1196
2116,1711002845889086764,2051,2044,2043,2032,2014,2051,1197
2117,1711002845899085729,2049,2052,2032,2032,2050,2040,1196
2118,1711002845909082409,2049,2044,2049,2024,2018,2058,1198
2119,1711002845919103336,2057,2050,2022,2037,2078,2049,1196
2120,1711002845929102411,2056,2047,2056,2074,2008,2054,1195
2121,1711002845939101406,2057,2030,2005,2062,2102,2058,1196
2122,1711002845949135719,2049,2035,2066,2059,2030,2052,1196
2123,1711002845959089749,2051,2052,2040,2102,2124,2066,1198
2124,1711002845969089255,2055,2056,2068,2046,2019,2048,1195
2125,1711002845979086707,2059,2062,2054,2058,2077,2054,1196
2126,1711002845989084590,2054,2060,2105,2039,2004,2053,1197
2127,1711002845999128390,2053,2053,2030,2089,2105,2056,1195
2128,1711002846009093569,2052,2048,2057,2042,2026,2053,1194
2129,1711002846019085571,2064,2050,2024,2085,2088,2055,1195
2130,1711002846029088984,2065,2082,2144,2054,2007,2057,1197
2131,1711002846039109641,2060,2061,2059,2055,2094,2052,1196
2132,1711002846049081623,2052,2050,2064,2046,2004,2051,1198
2133,1711002846059088122,2062,2058,2041,2072,2090,2054,1196
2134,1711002846069087708,2060,2080,2128,2048,2019,2058,1198
2135,1711002846079091833,2065,2067,2047,2064,2088,2053,1199
2136,1711002846089089455,2050,2048,2041,2088,2056,2060,1195
2137,1711002846099130510,2054,2052,2033,2075,2086,2052,1196
2138,1711002846109087785,2051,2046,2059,2040,2008,2048,1197
2139,1711002846119088213,2052,2074,2030,2075,2120,2052,1196
2140,1711002846129089051,2058,2045,2015,2037,2014,2054,1197
2141,1711002846139100850,2052,2049,2024,2069,2101,2051,1196
2142,1711002846149983710,2046,2038,2049,1999,2025,2054,1195
2143,1711002846159103448,2056,2064,2056,2068,2102,2052,1195
2144,1711002846169092144,2052,2059,2041,2050,2016,2057,1196
2145,1711002846179092551,2055,2054,2016,2075,2086,2049,1195
2146,1711002846189093589,2053,2052,2060,2022,2019,2052,1197
2147,1711002846199097003,2057,2065,2050,2049,2088,2052,1196
2148,1711002846209094124,2056,2053,2072,1982,2004,2054,1195
2149,1711002846219094822,2063,2080,2103,2084,2092,2056,1196
2150,1711002846229096241,2048,2047,2070,2044,2010,2051,1196
2151,1711002846239096107,2056,2058,2036,2097,2095,2042,1195
2152,1711002846249098759,2058,2060,2076,2052,2021,2065,1195
2153,1711002846259098556,2061,2057,2032,2091,2095,2052,1196
2154,1711002846269099825,2051,2028,2057,2050,2031,2056,1195
2155,1711002846279100652,2052,2037,2006,2061,2092,2051,1195
2156,1711002846289100579,2054,2045,2064,2053,2056,2053,1197
2157,1711002846299099424,2057,2053,2020,2069,2127,2061,1198
2158,1711002846309107476,2056,2057,2068,2035,2005,2047,1193
2159,1711002846319084950,2059,2057,2045,2085,2088,2054,1197
2160,1711002846329085316,2056,2075,2136,2060,2024,2058,1197
2161,1711002846339084291,2054,2055,2064,2080,2104,2050,1194
2162,1711002846349088186,2064,2099,2136,2057,2025,2053,1197
2163,1711002846359082872,2054,2056,2029,2081,2086,2056,1196
2164,1711002846369088630,2053,2046,2038,2051,2034,2060,1193
2165,1711002846379085831,2054,2062,2077,2088,2078,2047,1192
2166,1711002846389088813,2060,2060,2085,2045,2024,2057,1196
2167,1711002846399109249,2054,2056,2027,2057,2085,2053,1195
2168,1711002846409085751,2052,2045,2069,2011,2015,2046,1192
2169,1711002846419077963,2058,2057,2043,2065,2076,2052,1194
2170,1711002846429089691,2053,2054,2062,2047,2005,2052,1197
2171,1711002846439085500,2053,2048,2024,2058,2092,2056,1197
2172,1711002846449115745,2061,2068,2065,2051,2021,2056,1196
2173,1711002846459087097,2055,2060,2075,2068,2097,2053,1197
2174,1711002846469081072,2055,2076,2069,2031,2008,2048,1196
2175,1711002846479077411,2052,2049,2035,2058,2104,2053,1196
2176,1711002846489077709,2056,2056,2066,2048,2014,2056,1197
2177,1711002846499077736,2052,2056,2046,2067,2090,2050,1196
2178,1711002846509083283,2054,2051,2056,2051,2034,2056,1197
2179,1711002846519093068,2052,2056,2034,2069,2094,2051,1197
2180,1711002846529087163,2050,2045,2051,2032,2004,2053,1197
2181,1711002846539089224,2044,2040,2016,2060,2077,2048,1196
2182,1711002846549089271,2060,2069,2116,2064,2022,2056,1199
2183,1711002846559084659,2057,2053,2045,2064,2047,2043,1195
2184,1711002846569089424,2051,2052,2044,2056,2043,2056,1196
2185,1711002846579087577,2056,2050,2027,2072,2097,2053,1196
2186,1711002846589085991,2054,2047,2096,2068,2008,2057,1198
2187,1711002846599087431,2059,2062,2040,2052,2076,2052,1196
2188,1711002846609098639,2050,2044,2057,2037,2008,2056,1198
2189,1711002846619087283,2057,2066,2096,2061,2082,2056,1197
2190,1711002846629091458,2056,2074,2047,2076,2022,2056,1197
2191,1711002846639162291,2064,2064,2007,2102,2074,2054,1197
2192,1711002846649097534,2056,2052,2078,2055,2040,2056,1198
2193,1711002846659087050,2054,2053,2032,2094,2104,2057,1196
2194,1711002846669088178,2058,2058,2080,2043,2021,2054,1195
2195,1711002846679083707,2052,2045,2006,2057,2093,2050,1196
2196,1711002846689088843,2054,2057,2043,2064,2033,2053,1197
2197,1711002846699091956,2059,2086,2046,2028,2070,2047,1192
2198,1711002846709078777,2058,2056,2073,2064,2015,2046,1196
2199,1711002846719085797,2038,2041,2024,2069,2086,2045,1192
2200,1711002846729082067,2052,2047,2066,2042,2042,2056,1198
2201,1711002846739087314,2060,2062,2066,2066,2065,2054,1196
2202,1711002846749080748,2056,2049,2066,2021,2016,2051,1196
2203,1711002846759090693,2056,2048,2029,2056,2077,2047,1193
2204,1711002846769092203,2058,2048,2013,2074,2056,2058,1197
2205,1711002846779085296,2058,2052,2012,2052,2081,2054,1194
2206,1711002846789087257,2055,2046,2052,2056,2024,2055,1195
2207,1711002846799084509,2061,2060,2056,2032,2081,2047,1191
2208,1711002846809092419,2056,2047,2041,2072,2066,2056,1196
2209,1711002846819074793,2065,2072,2106,2068,2077,2056,1196
2210,1711002846829087464,2057,2049,2047,2056,2024,2056,1194
2211,1711002846839084385,2066,2046,2046,2073,2100,2058,1198
2212,1711002846849086295,2055,2041,2101,2084,2024,2057,1199
