seq,time,data[0],data[1],data[2],data[3],data[4],data[5],data[6]
201,1711442049535101746,2052,2046,2043,2053,2052,2053,1198
202,1711442049545101785,2058,2062,2054,2059,2053,2056,1197
203,1711442049555102596,2060,2066,2094,2062,2058,2054,1195
204,1711442049565105291,2056,2050,2042,2057,2054,2056,1197
205,1711442049575103886,2056,2056,2070,2065,2036,2053,1197
206,1711442049585106681,2061,2075,2096,2062,2051,2056,1197
207,1711442049595105268,2052,2047,2069,2053,2049,2054,1197
208,1711442049605105086,2056,2055,2057,2068,2064,2054,1197
209,1711442049615106699,2054,2048,2011,2060,2056,2053,1197
210,1711442049625104513,2052,2049,2040,2045,2035,2047,1192
211,1711442049635107358,2056,2053,2060,2058,2056,2056,1196
212,1711442049645106716,2056,2052,2037,2054,2045,2056,1196
213,1711442049655110432,2059,2047,2037,2053,2045,2056,1195
214,1711442049665106664,2055,2056,2043,2050,2050,2050,1196
215,1711442049675108777,2058,2062,2088,2069,2059,2053,1194
216,1711442049685105911,2060,2064,2091,2060,2054,2057,1194
217,1711442049695111241,2059,2050,2067,2054,2052,2054,1197
218,1711442049705106320,2052,2044,2020,2050,2049,2053,1197
219,1711442049715111669,2055,2054,2062,2049,2043,2056,1197
220,1711442049725106378,2053,2052,2053,2054,2060,2056,1197
221,1711442049735113210,2056,2047,2033,2058,2059,2055,1197
222,1711442049745106847,2056,2052,2068,2068,2064,2056,1195
223,1711442049755101677,2053,2039,2020,2050,2038,2048,1196
224,1711442049765098610,2064,2065,2039,2057,2052,2052,1196
225,1711442049775099751,2051,2046,2032,2061,2072,2052,1196
226,1711442049785102737,2056,2053,2066,2053,2057,2054,1196
227,1711442049795098798,2056,2050,2024,2052,2049,2050,1197
228,1711442049805099378,2054,2058,2057,2050,2048,2053,1197
229,1711442049815099137,2054,2051,2041,2047,2040,2049,1197
230,1711442049825101500,2052,2058,2049,2054,2056,2053,1194
231,1711442049835125846,2056,2061,2099,2056,2037,2050,1196
232,1711442049845099054,2056,2068,2062,2049,2043,2054,1197
233,1711442049855102479,2056,2056,2069,2056,2059,2053,1197
234,1711442049865099783,2054,2052,2052,2054,2059,2056,1196
235,1711442049875152654,2054,2051,2026,2057,2077,2059,1196
236,1711442049885106896,2056,2051,2046,2052,2053,2052,1196
237,1711442049895090834,2058,2064,2131,2064,2059,2056,1194
238,1711442049905090813,2054,2057,2092,2057,2057,2056,1195
239,1711442049915092285,2056,2071,2060,2057,2076,2052,1194
240,1711442049925092064,2056,2051,2046,2052,2055,2056,1195
241,1711442049935098335,2059,2064,2085,2050,2047,2053,1196
242,1711442049945088475,2058,2049,2025,2057,2056,2054,1196
243,1711442049955087262,2056,2048,2047,2052,2046,2050,1197
244,1711442049965084716,2052,2056,2085,2068,2066,2057,1197
245,1711442049975091829,2058,2060,2084,2064,2053,2056,1195
246,1711442049985091718,2061,2054,2038,2056,2054,2054,1197
247,1711442049995097408,2056,2052,2080,2069,2056,2052,1194
248,1711442050005094231,2054,2046,2041,2062,2057,2056,1195
249,1711442050015089621,2053,2056,2034,2052,2069,2059,1194
250,1711442050025106533,2061,2058,2065,2058,2047,2052,1193
251,1711442050035089449,2054,2045,2028,2047,2052,2056,1196
252,1711442050045088707,2060,2075,2160,2060,2053,2054,1195
253,1711442050055086391,2055,2056,2051,2060,2054,2055,1196
254,1711442050065088675,2056,2050,2054,2058,2059,2054,1196
255,1711442050075089725,2059,2056,2044,2056,2058,2056,1195
256,1711442050085094864,2064,2076,2110,2069,2065,2064,1195
257,1711442050095111084,2053,2047,2036,2048,2060,2055,1198
258,1711442050105081877,2058,2063,2100,2058,2052,2057,1197
259,1711442050115092106,2053,2052,2058,2057,2050,2052,1196
260,1711442050125108185,2058,2057,2031,2048,2051,2053,1196
261,1711442050135076494,2057,2059,2041,2057,2056,2058,1200
262,1711442050145085380,2058,2072,2141,2056,2039,2053,1196
263,1711442050155081962,2055,2055,2056,2060,2037,2052,1197
264,1711442050165092732,2056,2052,2032,2052,2057,2053,1196
265,1711442050175079445,2056,2052,2072,2052,2050,2052,1196
266,1711442050185082059,2058,2055,2055,2066,2056,2056,1195
267,1711442050195089222,2061,2061,2075,2070,2059,2058,1198
268,1711442050205084141,2056,2048,2032,2056,2047,2052,1196
269,1711442050215085814,2057,2053,2027,2059,2059,2058,1195
270,1711442050225086734,2052,2052,2043,2053,2057,2053,1194
271,1711442050235094228,2059,2057,2064,2058,2063,2049,1199
272,1711442050245091772,2054,2053,2064,2060,2051,2054,1196
273,1711442050255093044,2054,2052,2048,2050,2050,2050,1194
274,1711442050265087622,2058,2067,2146,2064,2058,2056,1194
275,1711442050275086599,2054,2053,2047,2064,2051,2051,1193
276,1711442050285106426,2058,2060,2090,2069,2066,2056,1196
277,1711442050295090905,2056,2049,2058,2064,2060,2056,1196
278,1711442050305088149,2056,2058,2080,2060,2052,2054,1196
279,1711442050315088158,2059,2055,2056,2052,2054,2056,1195
280,1711442050325122283,2054,2057,2093,2060,2052,2056,1198
281,1711442050335083377,2052,2051,2064,2054,2068,2056,1194
282,1711442050345093825,2056,2068,2120,2044,2039,2054,1195
283,1711442050355084597,2060,2058,2072,2052,2047,2052,1197
284,1711442050365105676,2058,2068,2091,2052,2031,2052,1195
285,1711442050375086228,2052,2049,2044,2054,2057,2054,1194
286,1711442050385060898,2056,2052,2035,2049,2058,2054,1195
287,1711442050395087689,2060,2060,2052,2064,2055,2052,1197
288,1711442050405086586,2052,2047,2057,2046,2040,2049,1196
289,1711442050415083729,2053,2047,2047,2070,2088,2052,1197
290,1711442050425100410,2056,2051,2057,2055,2041,2051,1194
291,1711442050435085861,2061,2069,2143,2058,2059,2056,1197
292,1711442050445091892,2059,2053,2049,2050,2033,2048,1195
293,1711442050455085759,2058,2056,2053,2062,2042,2051,1197
294,1711442050465089195,2053,2055,2048,2049,2051,2053,1198
295,1711442050475084535,2053,2062,2037,2051,2038,2052,1196
296,1711442050485072721,2056,2051,2052,2058,2049,2057,1197
297,1711442050495091426,2056,2053,2063,2056,2057,2052,1197
298,1711442050505089622,2056,2062,2062,2065,2081,2061,1197
299,1711442050515087357,2057,2056,2086,2074,2068,2054,1195
300,1711442050525109698,2046,2030,2010,2038,2036,2047,1194
301,1711442050535094388,2056,2053,2044,2057,2054,2053,1197
302,1711442050545092744,2053,2057,2084,2054,2055,2056,1197
303,1711442050555083364,2056,2059,2066,2050,2047,2055,1197
304,1711442050565091660,2054,2056,2030,2047,2047,2053,1197
305,1711442050575090977,2061,2064,2104,2060,2057,2056,1196
306,1711442050585106196,2056,2048,2057,2053,2052,2053,1198
307,1711442050595086797,2056,2075,2094,2053,2066,2058,1197
308,1711442050605086695,2057,2057,2056,2056,2053,2056,1196
309,1711442050615089991,2054,2049,2045,2054,2056,2053,1196
310,1711442050625117092,2056,2052,2052,2070,2076,2056,1197
311,1711442050635089208,2047,2043,2028,2051,2053,2051,1196
312,1711442050645081982,2054,2054,2040,2054,2052,2047,1195
313,1711442050655088084,2056,2056,2056,2048,2065,2058,1196
314,1711442050665098833,2054,2049,2056,2053,2052,2052,1195
315,1711442050675100836,2055,2056,2072,2052,2052,2052,1195
316,1711442050685108900,2059,2054,2057,2050,2046,2052,1195
317,1711442050695087348,2054,2046,2024,2050,2047,2056,1196
318,1711442050705091024,2054,2060,2057,2055,2051,2054,1196
319,1711442050715094199,2056,2056,2078,2058,2047,2053,1197
320,1711442050725088688,2054,2044,2034,2047,2080,2056,1197
321,1711442050735104948,2058,2050,2052,2049,2050,2057,1198
322,1711442050745105628,2058,2066,2078,2058,2051,2053,1197
323,1711442050755101960,2053,2048,2022,2057,2045,2050,1196
324,1711442050765106879,2060,2064,2073,2064,2062,2057,1199
325,1711442050775097770,2055,2052,2048,2053,2051,2054,1199
326,1711442050785089483,2054,2053,2058,2048,2029,2053,1196
327,1711442050795090584,2056,2054,2060,2072,2060,2053,1195
328,1711442050805090664,2056,2050,2044,2050,2053,2050,1198
329,1711442050815100652,2053,2052,2044,2047,2064,2057,1197
330,1711442050825090902,2056,2064,2043,2056,2059,2050,1195
331,1711442050835094437,2059,2056,2078,2045,2045,2052,1196
332,1711442050845096651,2056,2061,2093,2050,2037,2052,1197
333,1711442050855094435,2056,2058,2058,2044,2040,2056,1197
334,1711442050865103122,2052,2049,2056,2060,2053,2054,1197
335,1711442050875092380,2052,2046,2026,2050,2060,2055,1196
336,1711442050885092689,2052,2044,2009,2050,2055,2051,1195
337,1711442050895093870,2053,2062,2063,2058,2049,2056,1196
338,1711442050905093739,2048,2040,2038,2076,2067,2047,1194
339,1711442050915095682,2058,2057,2061,2057,2041,2053,1196
340,1711442050925101682,2052,2052,2040,2052,2045,2056,1198
341,1711442050935141818,2052,2049,2020,2052,2050,2052,1198
342,1711442050945106700,2051,2050,2030,2059,2056,2052,1196
343,1711442050955106017,2060,2058,2059,2055,2057,2060,1197
344,1711442050965099634,2056,2057,2056,2064,2070,2052,1195
345,1711442050975099092,2058,2061,2074,2053,2054,2055,1197
346,1711442050985101696,2055,2060,2027,2048,2040,2047,1195
347,1711442050995101345,2053,2049,2032,2050,2055,2053,1196
348,1711442051005106664,2056,2056,2016,2058,2058,2058,1196
349,1711442051015139185,2055,2050,2035,2053,2036,2049,1198
350,1711442051025101021,2049,2047,2029,2049,2044,2049,1193
351,1711442051035102011,2053,2053,2051,2059,2047,2052,1198
352,1711442051045086921,2059,2065,2063,2057,2048,2052,1196
353,1711442051055087681,2052,2049,2002,2056,2047,2053,1195
354,1711442051065119551,2054,2050,2045,2047,2044,2050,1194
355,1711442051075110934,2053,2052,2045,2049,2057,2056,1197
356,1711442051085091616,2058,2064,2072,2063,2048,2052,1195
357,1711442051095091785,2053,2053,2042,2052,2050,2056,1196
358,1711442051105089459,2058,2060,2058,2061,2040,2046,1194
359,1711442051115093295,2049,2040,2063,2054,2056,2052,1194
360,1711442051125109786,2062,2072,2092,2066,2056,2059,1196
361,1711442051135090388,2056,2050,2032,2048,2030,2052,1199
362,1711442051145093052,2054,2053,2046,2056,2052,2052,1196
363,1711442051155086207,2056,2053,2042,2053,2081,2057,1196
364,1711442051165112566,2054,2053,2033,2061,2060,2053,1199
365,1711442051175093869,2063,2070,2142,2056,2056,2053,1194
366,1711442051185084691,2049,2044,2016,2050,2040,2051,1196
367,1711442051195089810,2059,2060,2053,2053,2058,2057,1197
368,1711442051205092043,2056,2045,2036,2054,2041,2052,1194
369,1711442051215120175,2058,2057,2058,2069,2053,2053,1197
370,1711442051225106267,2054,2054,2056,2060,2040,2051,1196
371,1711442051235100936,2058,2049,2054,2052,2047,2053,1198
372,1711442051245089713,2059,2072,2061,2064,2053,2057,1197
373,1711442051255087659,2052,2049,2020,2051,2060,2056,1198
374,1711442051265106594,2054,2052,2032,2051,2050,2054,1196
375,1711442051275087095,2059,2057,2070,2046,2061,2050,1192
376,1711442051285090851,2059,2060,2096,2056,2046,2056,1196
377,1711442051295086592,2051,2044,2026,2056,2056,2055,1196
378,1711442051305083204,2057,2053,2058,2064,2056,2051,1196
379,1711442051315103361,2055,2048,2049,2056,2053,2049,1196
380,1711442051325111857,2059,2061,2065,2044,2020,2047,1197
381,1711442051335086347,2053,2049,2031,2054,2053,2053,1198
382,1711442051345082137,2056,2060,2044,2048,2034,2056,1196
383,1711442051355091384,2057,2056,2063,2051,2078,2056,1196
384,1711442051365106392,2057,2045,2029,2057,2036,2056,1196
385,1711442051375092884,2059,2062,2101,2055,2052,2056,1196
386,1711442051385086772,2053,2046,2027,2050,2056,2052,1194
387,1711442051395089456,2056,2052,2053,2054,2068,2058,1197
388,1711442051405083713,2054,2054,2061,2060,2029,2052,1197
389,1711442051415099923,2053,2052,2057,2057,2058,2058,1198
390,1711442051425080455,2060,2058,2050,2049,2047,2057,1196
391,1711442051435080403,2060,2049,2065,2055,2057,2056,1198
392,1711442051445090312,2054,2056,2025,2053,2048,2049,1197
393,1711442051455088126,2057,2052,2056,2056,2066,2053,1195
394,1711442051465088485,2052,2045,2054,2059,2056,2053,1197
395,1711442051475089586,2059,2061,2087,2057,2062,2064,1195
396,1711442051485083474,2059,2054,2031,2056,2057,2056,1197
397,1711442051495082631,2055,2055,2058,2069,2082,2058,1194
398,1711442051505083932,2059,2064,2068,2060,2050,2057,1199
399,1711442051515104420,2052,2047,2023,2054,2050,2047,1194
400,1711442051525095402,2053,2052,2034,2053,2051,2051,1195
401,1711442051535095411,2058,2050,2036,2050,2051,2051,1196
402,1711442051545073067,2054,2050,2049,2054,2052,2052,1197
403,1711442051555106399,2057,2057,2078,2068,2076,2058,1197
404,1711442051565080809,2052,2044,2030,2049,2050,2054,1196
405,1711442051575055279,2056,2056,2069,2039,2042,2052,1196
406,1711442051585085496,2060,2058,2088,2061,2052,2051,1196
407,1711442051595093310,2056,2044,2046,2043,2048,2052,1197
408,1711442051605091375,2056,2056,2073,2056,2054,2056,1196
409,1711442051615090903,2056,2050,2040,2056,2055,2058,1195
410,1711442051625089058,2052,2046,2029,2047,2033,2053,1193
411,1711442051635039121,2060,2056,2042,2058,2047,2053,1196
412,1711442051645088555,2052,2047,2009,2039,2041,2053,1196
413,1711442051655097010,2057,2052,2044,2054,2049,2059,1195
414,1711442051665105124,2053,2042,2040,2057,2054,2056,1196
415,1711442051675094923,2057,2048,2054,2056,2053,2054,1197
416,1711442051685087197,2059,2060,2060,2054,2047,2051,1196
417,1711442051695087147,2056,2052,2035,2049,2036,2052,1195
418,1711442051705091323,2058,2066,2118,2066,2062,2057,1196
419,1711442051715086302,2056,2056,2024,2068,2081,2056,1197
420,1711442051725095860,2052,2053,2056,2070,2063,2056,1196
421,1711442051735078816,2056,2045,2045,2054,2060,2056,1198
422,1711442051745084305,2054,2048,2045,2049,2049,2052,1196
423,1711442051755084414,2060,2060,2091,2060,2058,2056,1197
424,1711442051765116574,2056,2047,2045,2056,2044,2056,1196
425,1711442051775091245,2056,2051,2032,2049,2049,2054,1196
426,1711442051785090923,2053,2053,2069,2060,2064,2054,1195
427,1711442051795072056,2056,2066,2066,2056,2049,2052,1198
428,1711442051805105118,2049,2048,2050,2057,2053,2056,1196
429,1711442051815092542,2057,2053,2045,2052,2045,2046,1196
430,1711442051825099054,2056,2056,2067,2061,2057,2053,1193
431,1711442051835096518,2056,2047,2021,2048,2037,2047,1193
432,1711442051845092570,2064,2075,2105,2065,2056,2061,1196
433,1711442051855098059,2055,2052,2049,2049,2056,2052,1195
434,1711442051865107475,2059,2060,2092,2066,2070,2059,1197
435,1711442051875095822,2056,2053,2044,2042,2053,2056,1195
436,1711442051885098857,2053,2050,2048,2058,2056,2052,1196
437,1711442051895100549,2057,2063,2065,2057,2040,2052,1195
438,1711442051905084637,2057,2061,2092,2056,2046,2056,1195
439,1711442051915101909,2057,2058,2078,2044,2045,2054,1195
440,1711442051925110123,2056,2056,2079,2054,2055,2055,1196
441,1711442051935083942,2056,2056,2046,2051,2047,2053,1198
442,1711442051945078521,2052,2058,2067,2056,2048,2052,1196
443,1711442051955081225,2058,2060,2081,2058,2056,2052,1197
444,1711442051965119948,2052,2047,2040,2056,2059,2052,1197
445,1711442051975110338,2056,2056,2056,2049,2044,2056,1196
446,1711442051985090519,2056,2050,2044,2056,2057,2056,1197
447,1711442051995093944,2056,2046,2053,2054,2055,2053,1198
448,1711442052005086068,2056,2058,2065,2060,2064,2057,1195
449,1711442052015090465,2052,2050,2054,2057,2054,2056,1195
450,1711442052025093399,2058,2061,2058,2066,2052,2052,1193
451,1711442052035081616,2056,2056,2072,2055,2059,2056,1195
452,1711442052045081555,2056,2056,2060,2052,2050,2052,1196
453,1711442052055087344,2053,2050,2035,2051,2063,2050,1196
454,1711442052065188166,2057,2059,2074,2050,2057,2058,1195
455,1711442052075097291,2058,2054,2073,2057,2059,2053,1196
456,1711442052085107389,2049,2049,2044,2056,2076,2051,1198
457,1711442052095089704,2058,2069,2136,2068,2080,2054,1196
458,1711442052105090043,2050,2046,2040,2057,2053,2057,1195
459,1711442052115102285,2052,2057,2058,2047,2052,2053,1196
460,1711442052125106481,2054,2056,2053,2074,2066,2058,1197
461,1711442052135086622,2054,2046,2058,2055,2049,2056,1196
462,1711442052145092262,2060,2072,2110,2066,2064,2056,1196
463,1711442052155090878,2052,2050,2059,2056,2058,2057,1195
464,1711442052165101797,2056,2057,2066,2061,2061,2058,1197
465,1711442052175100414,2056,2055,2069,2051,2065,2056,1194
466,1711442052185109490,2056,2052,2054,2060,2052,2051,1196
467,1711442052195092095,2054,2053,2056,2057,2056,2049,1197
468,1711442052205090010,2054,2056,2053,2058,2050,2057,1196
469,1711442052215085860,2052,2054,2049,2046,2040,2055,1195
470,1711442052225091780,2054,2049,2036,2052,2045,2054,1196
471,1711442052235097330,2053,2043,2036,2053,2058,2051,1195
472,1711442052245091828,2059,2067,2071,2071,2060,2054,1196
473,1711442052255092939,2053,2056,2049,2056,2054,2052,1193
474,1711442052265089370,2057,2058,2091,2062,2045,2050,1197
475,1711442052275104458,2052,2052,2054,2037,2036,2051,1197
476,1711442052285086964,2056,2060,2063,2064,2048,2057,1196
477,1711442052295094045,2054,2049,2047,2047,2047,2056,1194
478,1711442052305089345,2051,2044,2024,2051,2044,2051,1197
479,1711442052315093231,2060,2069,2085,2065,2060,2061,1198
480,1711442052325163995,2052,2037,2003,2042,2034,2048,1197
481,1711442052335097908,2064,2071,2074,2061,2056,2056,1198
482,1711442052345096414,2057,2056,2059,2055,2033,2056,1197
483,1711442052355087626,2053,2051,2053,2044,2024,2053,1198
484,1711442052365090359,2061,2062,2086,2061,2045,2052,1195
485,1711442052375099927,2053,2056,2053,2059,2065,2059,1197
486,1711442052385089035,2058,2052,2027,2058,2048,2052,1197
487,1711442052395093862,2056,2047,2032,2046,2052,2056,1197
488,1711442052405087068,2053,2049,2040,2046,2037,2054,1196
489,1711442052415093459,2053,2052,2047,2047,2030,2049,1197
490,1711442052425090712,2056,2056,2047,2059,2057,2054,1194
491,1711442052435119185,2054,2060,2076,2054,2056,2053,1197
492,1711442052445093656,2054,2058,2072,2058,2050,2052,1196
493,1711442052455088534,2057,2054,2061,2056,2057,2056,1197
494,1711442052465088723,2057,2050,2018,2058,2050,2056,1196
495,1711442052475107458,2056,2064,2032,2053,2047,2052,1196
496,1711442052485080224,2052,2054,2060,2059,2029,2048,1196
497,1711442052495099890,2057,2054,2073,2052,2052,2052,1197
498,1711442052505085281,2056,2058,2064,2060,2065,2054,1198
499,1711442052515086272,2051,2052,2047,2053,2057,2053,1198
500,1711442052525107962,2052,2051,2050,2056,2053,2053,1197
501,1711442052535117409,2056,2055,2057,2050,2044,2048,1198
502,1711442052545090727,2052,2049,2040,2037,2030,2053,1196
503,1711442052555085856,2056,2066,2064,2056,2058,2052,1197
504,1711442052565086055,2052,2041,2027,2060,2065,2052,1197
505,1711442052575085002,2053,2052,2035,2054,2052,2054,1196
506,1711442052585111781,2053,2044,2028,2052,2051,2052,1194
507,1711442052595086852,2060,2064,2125,2057,2064,2056,1197
508,1711442052605092081,2056,2056,2068,2056,2053,2056,1195
509,1711442052615085357,2054,2056,2065,2053,2056,2053,1197
510,1711442052625090485,2054,2050,2049,2064,2057,2056,1194
511,1711442052635090214,2055,2049,2042,2060,2085,2047,1194
512,1711442052645097146,2058,2071,2080,2064,2053,2057,1196
513,1711442052655094129,2053,2046,2020,2049,2056,2052,1197
514,1711442052665094448,2056,2053,2058,2052,2046,2051,1197
515,1711442052675090980,2054,2051,2053,2050,2057,2053,1195
516,1711442052685095777,2054,2058,2046,2064,2062,2057,1196
517,1711442052695089384,2054,2055,2044,2060,2060,2052,1197
518,1711442052705090716,2054,2049,2037,2061,2034,2050,1195
519,1711442052715079342,2058,2058,2077,2056,2050,2054,1197
520,1711442052725086384,2056,2052,2044,2052,2054,2057,1196
521,1711442052735097815,2056,2056,2073,2056,2065,2055,1196
522,1711442052745090300,2057,2051,2026,2058,2044,2052,1197
523,1711442052755084497,2051,2048,2029,2056,2054,2056,1196
524,1711442052765081851,2058,2050,2068,2060,2058,2058,1197
525,1711442052775087991,2057,2055,2056,2060,2048,2052,1195
526,1711442052785101135,2057,2048,2022,2063,2079,2056,1195
527,1711442052795104600,2055,2052,2033,2057,2065,2056,1195
528,1711442052805086685,2056,2050,2039,2052,2045,2053,1194
529,1711442052815085020,2058,2053,2050,2052,2053,2056,1195
530,1711442052825109275,2057,2061,2101,2066,2056,2056,1193
531,1711442052835092021,2056,2058,2093,2062,2072,2053,1196
532,1711442052845082081,2057,2056,2068,2056,2052,2060,1194
533,1711442052855088913,2053,2057,2060,2050,2064,2053,1192
534,1711442052865086947,2056,2059,2092,2058,2052,2056,1196
535,1711442052875088248,2056,2047,2042,2057,2056,2056,1196
536,1711442052885106933,2057,2059,2056,2064,2053,2053,1197
537,1711442052895092524,2057,2061,2077,2056,2045,2053,1196
538,1711442052905088325,2058,2051,2037,2061,2047,2052,1196
539,1711442052915106669,2057,2064,2113,2057,2054,2055,1196
540,1711442052925098281,2052,2049,2052,2060,2074,2050,1196
541,1711442052935100134,2060,2050,2057,2064,2085,2053,1196
542,1711442052945092167,2060,2062,2075,2056,2038,2052,1197
543,1711442052955092687,2055,2054,2068,2056,2057,2056,1197
544,1711442052965089429,2057,2047,2049,2054,2052,2053,1198
545,1711442052975098545,2059,2066,2086,2059,2057,2054,1199
546,1711442052985091340,2059,2056,2032,2058,2062,2055,1196
547,1711442052995086439,2053,2050,2026,2058,2057,2053,1198
548,1711442053005091648,2055,2050,2053,2056,2049,2052,1196
549,1711442053015092629,2056,2056,2040,2056,2056,2055,1195
550,1711442053025108407,2054,2050,2011,2058,2066,2050,1195
551,1711442053035098287,2058,2064,2080,2057,2057,2058,1197
552,1711442053045095299,2056,2056,2078,2059,2052,2052,1194
553,1711442053055095648,2054,2053,2039,2058,2054,2049,1196
554,1711442053065095487,2053,2051,2029,2056,2051,2046,1194
555,1711442053075116916,2060,2056,2065,2052,2070,2054,1197
556,1711442053085099892,2056,2046,2039,2058,2050,2054,1196
557,1711442053095109650,2057,2052,2076,2052,2047,2052,1197
558,1711442053105099949,2058,2058,2029,2058,2040,2049,1193
559,1711442053115098235,2056,2053,2042,2053,2056,2055,1196
560,1711442053125108183,2057,2054,2046,2053,2076,2049,1198
561,1711442053135099344,2056,2059,2084,2060,2057,2053,1197
562,1711442053145106867,2058,2058,2064,2061,2056,2052,1195
563,1711442053155081187,2056,2058,2069,2056,2040,2052,1197
564,1711442053165080744,2052,2048,2046,2047,2041,2050,1197
565,1711442053175098717,2061,2062,2102,2056,2046,2058,1197
566,1711442053185082805,2058,2057,2043,2056,2047,2054,1197
567,1711442053195105377,2055,2046,2042,2061,2060,2058,1198
568,1711442053205105265,2056,2067,2040,2060,2054,2052,1196
569,1711442053215103310,2056,2061,2112,2064,2071,2056,1198
570,1711442053225110161,2056,2053,2036,2057,2051,2054,1193
571,1711442053235107696,2059,2057,2051,2053,2054,2055,1196
572,1711442053245088096,2058,2055,2052,2048,2032,2052,1195
573,1711442053255089047,2056,2051,2022,2053,2056,2052,1195
574,1711442053265105938,2054,2053,2053,2058,2051,2053,1195
575,1711442053275089605,2055,2053,2053,2052,2053,2053,1196
576,1711442053285115353,2056,2054,2049,2057,2056,2050,1196
577,1711442053295104731,2057,2058,2040,2056,2057,2053,1194
578,1711442053305080874,2056,2047,2064,2063,2065,2053,1197
579,1711442053315083057,2053,2053,2049,2048,2039,2052,1196
580,1711442053325109716,2061,2064,2057,2061,2064,2056,1197
581,1711442053335115706,2055,2051,2069,2056,2050,2054,1196
582,1711442053345081579,2050,2042,2027,2052,2041,2053,1196
583,1711442053355083482,2052,2052,2065,2052,2054,2052,1198
584,1711442053365085584,2062,2060,2084,2053,2058,2060,1196
585,1711442053375098447,2052,2050,2033,2052,2047,2049,1196
586,1711442053385095911,2056,2050,2060,2057,2045,2051,1195
587,1711442053395092203,2056,2063,2106,2062,2058,2056,1197
588,1711442053405083714,2053,2050,2048,2057,2057,2056,1198
589,1711442053415086328,2057,2052,2081,2066,2056,2055,1196
590,1711442053425108410,2056,2052,2060,2054,2059,2058,1194
591,1711442053435089582,2057,2060,2085,2050,2052,2056,1196
592,1711442053445075524,2052,2046,2016,2056,2049,2052,1196
593,1711442053455083678,2056,2052,2037,2053,2047,2052,1197
594,1711442053465077605,2056,2049,2055,2057,2053,2053,1194
595,1711442053475087963,2058,2055,2068,2056,2072,2056,1196
596,1711442053485088663,2058,2054,2055,2060,2056,2056,1196
597,1711442053495077450,2055,2056,2066,2054,2055,2052,1197
598,1711442053505079803,2056,2051,2046,2060,2077,2055,1197
599,1711442053515076655,2052,2044,2004,2050,2053,2053,1196
600,1711442053525110348,2060,2068,2088,2066,2061,2059,1199
601,1711442053535086331,2053,2047,2060,2056,2056,2054,1197
602,1711442053545094264,2056,2057,2079,2066,2072,2054,1199
603,1711442053555092380,2056,2054,2075,2062,2068,2060,1196
604,1711442053565089122,2053,2049,2056,2059,2047,2049,1197
605,1711442053575108828,2053,2048,2029,2053,2052,2056,1196
606,1711442053585094209,2060,2066,2041,2068,2060,2057,1196
607,1711442053595082615,2052,2056,2052,2053,2075,2056,1196
608,1711442053605087914,2058,2058,2080,2058,2057,2057,1196
609,1711442053615103082,2058,2056,2048,2054,2049,2052,1196
610,1711442053625106897,2052,2051,2047,2059,2052,2058,1194
611,1711442053635096396,2058,2063,2080,2064,2066,2057,1195
612,1711442053645097085,2052,2043,2025,2052,2050,2052,1196
613,1711442053655087906,2056,2062,2079,2056,2054,2059,1196
614,1711442053665086502,2056,2053,2073,2058,2044,2052,1195
615,1711442053675087823,2056,2059,2078,2054,2036,2052,1196
616,1711442053685088343,2056,2052,2029,2056,2036,2055,1197
617,1711442053695095225,2054,2049,2034,2056,2045,2046,1193
618,1711442053705090554,2053,2055,2047,2060,2050,2056,1195
619,1711442053715085653,2056,2058,2060,2050,2047,2055,1196
620,1711442053725122543,2053,2048,2053,2059,2049,2057,1195
621,1711442053735091391,2051,2050,2063,2044,2053,2052,1197
622,1711442053745077674,2062,2067,2084,2057,2056,2056,1195
623,1711442053755090157,2057,2054,2061,2060,2049,2053,1196
624,1711442053765084033,2053,2043,2056,2058,2049,2052,1196
625,1711442053775085935,2061,2064,2056,2062,2058,2054,1196
626,1711442053785105872,2051,2044,2025,2056,2049,2053,1197
627,1711442053795091573,2056,2055,2043,2056,2054,2056,1196
628,1711442053805081302,2059,2058,2068,2058,2056,2052,1194
629,1711442053815088334,2058,2057,2057,2053,2058,2052,1194
630,1711442053825093422,2056,2053,2048,2056,2051,2052,1194
631,1711442053835088271,2055,2056,2061,2056,2055,2055,1194
632,1711442053845096555,2054,2052,2034,2056,2037,2050,1197
633,1711442053855092466,2052,2046,2049,2049,2069,2056,1198
634,1711442053865092244,2058,2080,2108,2064,2049,2056,1195
635,1711442053875100509,2054,2047,2041,2047,2042,2053,1194
636,1711442053885093685,2054,2047,2021,2054,2053,2056,1196
637,1711442053895093121,2057,2059,2065,2056,2054,2056,1195
638,1711442053905091778,2061,2064,2076,2066,2074,2056,1194
639,1711442053915090975,2052,2043,2026,2051,2056,2054,1194
640,1711442053925095001,2060,2059,2045,2063,2052,2053,1196
641,1711442053935096793,2057,2050,2044,2056,2061,2056,1197
642,1711442053945097242,2054,2056,2077,2057,2053,2052,1196
643,1711442053955094355,2058,2053,2056,2058,2045,2052,1196
644,1711442053965094053,2054,2047,2044,2056,2046,2054,1198
645,1711442053975094362,2050,2048,2040,2052,2042,2049,1197
646,1711442053985093319,2056,2052,2029,2053,2045,2057,1196
647,1711442053995068360,2055,2051,2061,2055,2061,2053,1195
648,1711442054005101140,2052,2044,2035,2045,2052,2054,1196
649,1711442054015097743,2056,2062,2096,2043,2050,2055,1197
650,1711442054025095907,2057,2057,2058,2056,2053,2054,1194
651,1711442054035102739,2056,2052,2065,2061,2059,2052,1197
652,1711442054045094602,2061,2056,2058,2062,2060,2056,1198
653,1711442054055102014,2057,2056,2052,2056,2082,2062,1197
654,1711442054065100109,2056,2056,2061,2056,2052,2057,1195
655,1711442054075100458,2058,2061,2071,2049,2053,2055,1195
656,1711442054085110346,2053,2043,2045,2054,2048,2048,1196
657,1711442054095081369,2058,2057,2097,2056,2052,2058,1197
658,1711442054105099863,2056,2057,2078,2064,2057,2058,1197
659,1711442054115086235,2054,2050,2058,2063,2061,2051,1196
660,1711442054125170184,2056,2049,2024,2059,2053,2057,1199
661,1711442054135082895,2060,2060,2059,2062,2072,2054,1198
662,1711442054145107742,2056,2061,2050,2051,2036,2052,1197
663,1711442054155087541,2055,2051,2040,2052,2054,2050,1197
664,1711442054165088250,2057,2052,1995,2057,2052,2054,1196
665,1711442054175086476,2057,2058,2060,2044,2049,2056,1196
666,1711442054185085943,2056,2055,2120,2055,2043,2060,1196
667,1711442054195088777,2057,2060,2064,2048,2044,2050,1198
668,1711442054205098303,2053,2046,2056,2052,2060,2050,1196
669,1711442054215086509,2054,2056,2051,2061,2056,2052,1196
670,1711442054225091838,2058,2058,2046,2058,2033,2044,1192
671,1711442054235101274,2054,2058,2066,2060,2070,2044,1195
672,1711442054245094680,2056,2055,2048,2058,2053,2056,1195
673,1711442054255085401,2054,2054,2030,2050,2052,2053,1197
674,1711442054265090429,2054,2047,2050,2053,2039,2052,1196
675,1711442054275084365,2053,2051,2040,2040,2047,2051,1196
676,1711442054285088402,2060,2067,2128,2061,2052,2057,1196
677,1711442054295084462,2056,2060,2060,2056,2054,2056,1195
678,1711442054305082296,2058,2051,2033,2053,2057,2051,1195
679,1711442054315084770,2058,2059,2043,2057,2056,2053,1196
680,1711442054325083866,2056,2044,2064,2058,2052,2052,1197
681,1711442054335097972,2058,2064,2032,2063,2067,2056,1194
682,1711442054345085857,2051,2051,2018,2060,2063,2052,1196
683,1711442054355083421,2058,2066,2102,2058,2064,2059,1196
684,1711442054365088198,2056,2069,2073,2060,2054,2054,1197
685,1711442054375088267,2057,2062,2081,2056,2059,2054,1196
686,1711442054385098355,2056,2054,2066,2052,2045,2056,1197
687,1711442054395104004,2053,2056,2040,2047,2041,2049,1197
688,1711442054405093983,2060,2049,2045,2059,2053,2056,1197
689,1711442054415090094,2051,2050,2037,2052,2053,2052,1197
690,1711442054425093229,2056,2049,2026,2059,2056,2056,1196
691,1711442054435061115,2056,2068,2129,2062,2051,2056,1195
692,1711442054445086753,2060,2056,2057,2054,2052,2052,1196
693,1711442054455092853,2053,2045,2050,2035,2052,2052,1196
694,1711442054465100105,2056,2051,2045,2056,2047,2053,1198
695,1711442054475091056,2053,2049,2041,2052,2056,2051,1196
696,1711442054485108017,2056,2052,2063,2060,2057,2056,1196
697,1711442054495103417,2057,2050,2060,2056,2058,2052,1197
698,1711442054505092584,2051,2045,2021,2056,2052,2054,1197
699,1711442054515097352,2053,2052,2024,2053,2052,2052,1195
700,1711442054525107800,2058,2055,2032,2054,2049,2056,1198
701,1711442054535124611,2056,2048,2047,2056,2080,2054,1195
702,1711442054545096466,2057,2056,2060,2056,2058,2056,1197
703,1711442054555099670,2055,2054,2053,2055,2061,2056,1197
704,1711442054565095070,2063,2063,2114,2069,2064,2057,1196
705,1711442054575093626,2060,2064,2047,2058,2056,2056,1198
706,1711442054585108773,2053,2050,2046,2056,2047,2052,1196
707,1711442054595082060,2057,2052,2040,2049,2051,2050,1195
708,1711442054605090485,2058,2047,2023,2048,2061,2053,1196
709,1711442054615086706,2056,2056,2053,2055,2040,2052,1196
710,1711442054625094138,2057,2049,2016,2058,2048,2055,1195
711,1711442054635096010,2060,2060,2067,2053,2049,2056,1196
712,1711442054645085037,2056,2047,2034,2054,2052,2050,1196
713,1711442054655077872,2057,2053,2026,2056,2056,2053,1195
714,1711442054665082479,2052,2050,2048,2059,2051,2050,1197
715,1711442054675081025,2059,2064,2140,2075,2076,2059,1193
716,1711442054685091574,2067,2073,2096,2065,2050,2059,1195
717,1711442054695089969,2051,2051,2045,2045,2033,2045,1192
718,1711442054705088034,2055,2046,2041,2058,2049,2049,1195
719,1711442054715093262,2058,2072,2128,2060,2058,2056,1196
720,1711442054725096327,2052,2048,2036,2049,2064,2046,1194
721,1711442054735085314,2056,2047,2011,2053,2049,2047,1199
722,1711442054745085793,2059,2074,2160,2057,2052,2060,1198
723,1711442054755082174,2054,2048,2020,2056,2057,2053,1197
724,1711442054765092854,2048,2046,2033,2054,2050,2052,1196
725,1711442054775090567,2056,2049,2032,2051,2051,2053,1197
726,1711442054785089644,2063,2084,2126,2073,2072,2059,1195
727,1711442054795103919,2054,2053,2056,2052,2054,2056,1197
728,1711442054805087516,2051,2047,2048,2056,2040,2048,1197
729,1711442054815088226,2053,2043,2029,2055,2068,2050,1196
730,1711442054825085910,2055,2056,2058,2040,2026,2047,1192
731,1711442054835097882,2058,2059,2080,2062,2057,2055,1195
732,1711442054845084044,2053,2046,2014,2059,2054,2055,1196
733,1711442054855090314,2056,2064,2056,2060,2071,2061,1196
734,1711442054865087417,2053,2048,2028,2061,2061,2052,1197
735,1711442054875087516,2051,2047,2053,2056,2069,2057,1195
736,1711442054885093115,2062,2073,2123,2076,2076,2062,1197
737,1711442054895105737,2050,2042,2023,2051,2057,2050,1195
738,1711442054905084395,2057,2056,1992,2059,2052,2055,1197
739,1711442054915086607,2052,2040,2037,2057,2056,2050,1197
740,1711442054925097767,2056,2060,2081,2064,2060,2054,1196
741,1711442054935090782,2054,2050,2028,2049,2053,2052,1198
742,1711442054945095519,2058,2053,2060,2055,2050,2056,1195
743,1711442054955088695,2051,2045,2026,2046,2062,2052,1197
744,1711442054965094675,2062,2073,2046,2060,2052,2059,1198
745,1711442054975088161,2054,2042,1992,2056,2058,2053,1196
746,1711442054985104631,2053,2047,2004,2058,2067,2050,1195
747,1711442054995098658,2053,2054,2041,2046,2047,2050,1197
748,1711442055005099929,2056,2048,2024,2053,2041,2055,1196
749,1711442055015085850,2061,2073,2113,2047,2053,2059,1197
750,1711442055025090377,2058,2061,2079,2066,2059,2057,1196
751,1711442055035110985,2056,2052,2072,2055,2060,2056,1196
752,1711442055045087798,2052,2050,2057,2057,2056,2056,1195
753,1711442055055087446,2056,2054,2029,2057,2056,2057,1196
754,1711442055065088256,2060,2072,2072,2076,2080,2053,1195
755,1711442055075094436,2053,2049,2045,2058,2056,2053,1196
756,1711442055085109993,2058,2056,2056,2063,2064,2049,1198
757,1711442055095098179,2058,2066,2070,2058,2062,2056,1197
758,1711442055105087137,2062,2061,2082,2064,2069,2058,1197
759,1711442055115083598,2056,2060,2057,2048,2057,2053,1197
760,1711442055125105709,2056,2057,2061,2056,2047,2053,1197
761,1711442055135089756,2053,2040,2012,2058,2056,2051,1197
762,1711442055145109322,2056,2052,2072,2061,2058,2045,1194
763,1711442055155086807,2056,2061,2037,2041,2048,2056,1198
764,1711442055165097256,2057,2062,2104,2050,2047,2052,1196
765,1711442055175090000,2056,2053,2069,2056,2054,2053,1194
766,1711442055185090499,2056,2051,2026,2052,2048,2056,1196
767,1711442055195093152,2057,2050,2040,2054,2060,2053,1197
768,1711442055205068934,2054,2054,2047,2053,2056,2052,1196
769,1711442055215092889,2064,2069,2098,2079,2070,2054,1196
770,1711442055225093648,2059,2044,1976,2061,2064,2051,1192
771,1711442055235108465,2056,2051,2017,2055,2047,2052,1195
772,1711442055245100517,2054,2053,2031,2050,2052,2056,1195
773,1711442055255097440,2054,2052,2054,2056,2057,2050,1196
774,1711442055265095575,2053,2048,2053,2057,2056,2053,1196
775,1711442055275096395,2056,2053,2079,2072,2068,2053,1197
776,1711442055285096152,2052,2048,2020,2049,2048,2053,1196
777,1711442055295099246,2053,2052,2059,2043,2061,2048,1196
778,1711442055305081591,2056,2056,2042,2056,2047,2051,1196
779,1711442055315104103,2056,2056,2035,2056,2052,2052,1196
780,1711442055325098550,2051,2040,2018,2052,2047,2052,1195
781,1711442055335102917,2058,2065,2088,2058,2060,2054,1197
782,1711442055345066966,2060,2059,2091,2060,2072,2057,1196
783,1711442055355114004,2056,2068,2107,2054,2051,2052,1196
784,1711442055365105957,2060,2069,2089,2062,2051,2057,1196
785,1711442055375084966,2053,2052,2057,2052,2055,2053,1198
786,1711442055385084834,2058,2056,2064,2064,2052,2058,1196
787,1711442055395090712,2054,2060,2029,2048,2053,2048,1198
788,1711442055405101742,2053,2053,2050,2061,2053,2054,1196
789,1711442055415080329,2053,2050,2033,2054,2061,2055,1193
790,1711442055425079607,2053,2053,2058,2053,2051,2053,1194
791,1711442055435086197,2057,2053,2039,2050,2058,2050,1195
792,1711442055445107275,2056,2049,2048,2053,2058,2058,1195
793,1711442055455087205,2051,2053,2054,2042,2061,2055,1196
794,1711442055465089428,2058,2056,2052,2057,2049,2054,1195
795,1711442055475086371,2049,2042,2041,2047,2048,2051,1196
796,1711442055485084486,2056,2046,2008,2049,2047,2054,1194
797,1711442055495089263,2053,2041,2040,2051,2052,2053,1196
798,1711442055505103989,2056,2066,2050,2059,2053,2053,1194
799,1711442055515095541,2055,2046,2049,2050,2060,2050,1196
800,1711442055525094478,2059,2060,2104,2047,2054,2054,1196
801,1711442055535090828,2053,2053,2045,2056,2067,2056,1198
802,1711442055545109522,2056,2058,2093,2059,2046,2056,1196
803,1711442055555086416,2055,2049,2051,2052,2061,2052,1196
804,1711442055565087968,2057,2060,2088,2051,2047,2054,1196
805,1711442055575085782,2056,2051,2049,2053,2057,2052,1197
806,1711442055585091301,2056,2064,2069,2064,2044,2053,1197
807,1711442055595150402,2057,2054,2054,2058,2056,2054,1196
808,1711442055605077771,2052,2043,2021,2057,2048,2052,1195
809,1711442055615101605,2051,2065,2056,2075,2077,2050,1197
810,1711442055625102245,2056,2055,2086,2060,2068,2057,1193
811,1711442055635086372,2047,2044,2037,2047,2064,2052,1195
812,1711442055645092472,2056,2058,2069,2068,2064,2058,1197
813,1711442055655084425,2057,2060,2074,2050,2050,2056,1198
814,1711442055665079434,2056,2050,2064,2050,2044,2054,1196
815,1711442055675094541,2056,2056,2041,2056,2057,2056,1195
816,1711442055685084781,2057,2050,2034,2052,2049,2056,1196
817,1711442055695087645,2054,2050,2026,2049,2051,2056,1195
818,1711442055705092251,2056,2064,2142,2065,2053,2054,1194
819,1711442055715089555,2054,2053,2032,2052,2052,2053,1195
820,1711442055725090886,2053,2041,1980,2048,2056,2056,1197
821,1711442055735091696,2050,2049,2059,2057,2072,2052,1198
822,1711442055745119176,2058,2054,2060,2041,2047,2056,1195
823,1711442055755085650,2053,2058,2058,2056,2058,2049,1196
824,1711442055765075198,2058,2050,2045,2059,2054,2053,1195
825,1711442055775083984,2053,2064,2083,2056,2054,2056,1196
826,1711442055785104642,2053,2037,2015,2053,2045,2052,1195
827,1711442055795101093,2050,2052,2068,2052,2056,2052,1197
828,1711442055805078327,2060,2068,2132,2054,2049,2058,1196
829,1711442055815082453,2060,2061,2088,2065,2060,2055,1195
830,1711442055825111718,2050,2043,2035,2051,2049,2051,1196
831,1711442055835086248,2052,2056,2057,2048,2052,2052,1196
832,1711442055845092027,2056,2053,2079,2045,2012,2049,1196
833,1711442055855094730,2056,2056,2080,2049,2056,2052,1197
834,1711442055865087364,2056,2056,2049,2064,2053,2056,1197
835,1711442055875094667,2058,2056,2033,2052,2068,2053,1196
836,1711442055885087091,2051,2061,2049,2053,2060,2049,1195
837,1711442055895164387,2056,2053,2076,2058,2046,2054,1195
838,1711442055905084431,2056,2046,2009,2055,2048,2052,1197
839,1711442055915091684,2054,2052,2018,2049,2053,2052,1197
840,1711442055925097563,2060,2061,2042,2058,2044,2051,1197
841,1711442055935103553,2053,2049,2032,2055,2054,2057,1197
842,1711442055945085046,2051,2040,2042,2057,2054,2053,1195
843,1711442055955090555,2052,2048,2038,2052,2052,2051,1196
844,1711442055965089350,2056,2056,2052,2049,2064,2056,1194
845,1711442055975087465,2059,2052,2052,2054,2051,2053,1195
846,1711442055985084749,2056,2049,2064,2060,2052,2052,1196
847,1711442055995086550,2057,2061,2104,2053,2047,2050,1197
848,1711442056005094683,2051,2051,2047,2052,2064,2053,1198
849,1711442056015084432,2056,2051,2058,2056,2070,2056,1196
850,1711442056025109388,2052,2049,2069,2056,2047,2053,1195
851,1711442056035094127,2057,2059,2076,2061,2058,2051,1195
852,1711442056045109134,2058,2053,2051,2068,2073,2054,1196
853,1711442056055096879,2056,2047,2018,2056,2067,2052,1193
854,1711442056065108348,2057,2053,2058,2054,2057,2060,1197
855,1711442056075092186,2056,2058,2045,2052,2054,2049,1197
856,1711442056085090541,2058,2057,2094,2065,2057,2062,1196
857,1711442056095090729,2056,2044,2002,2054,2064,2063,1196
858,1711442056105093603,2057,2050,2041,2065,2054,2054,1196
859,1711442056115098310,2056,2056,2093,2056,2053,2056,1196
860,1711442056125108969,2056,2072,2071,2054,2035,2053,1197
861,1711442056135094018,2054,2045,2035,2065,2068,2056,1197
862,1711442056145090089,2056,2045,2024,2054,2062,2056,1197
863,1711442056155110706,2052,2050,2046,2053,2056,2050,1197
864,1711442056165092720,2057,2058,2046,2070,2056,2056,1196
865,1711442056175096626,2056,2048,2037,2048,2038,2049,1197
866,1711442056185090152,2057,2059,2069,2056,2050,2052,1196
867,1711442056195097062,2061,2070,2121,2060,2057,2053,1197
868,1711442056205105507,2056,2052,2076,2049,2041,2054,1199
869,1711442056215098792,2052,2050,2043,2055,2071,2060,1196
870,1711442056225109290,2057,2065,2072,2059,2056,2056,1194
871,1711442056235101604,2045,2030,2017,2041,2052,2050,1195
872,1711442056245099298,2057,2047,2030,2066,2051,2053,1195
873,1711442056255103884,2058,2050,1989,2056,2053,2058,1198
874,1711442056265103772,2054,2049,2043,2059,2076,2057,1194
875,1711442056275087650,2054,2046,2011,2040,2052,2053,1194
876,1711442056285106483,2056,2052,2053,2058,2054,2055,1196
877,1711442056295088026,2056,2052,2052,2056,2061,2056,1196
878,1711442056305089878,2053,2052,2027,2056,2046,2054,1195
879,1711442056315082722,2054,2056,2088,2054,2058,2058,1197
880,1711442056325110975,2053,2054,2045,2056,2056,2056,1196
881,1711442056335110933,2055,2063,2115,2057,2058,2056,1200
882,1711442056345091583,2054,2049,2029,2056,2044,2052,1197
883,1711442056355098695,2060,2059,2021,2055,2054,2055,1197
884,1711442056365111538,2056,2053,2077,2052,2049,2052,1196
885,1711442056375120163,2058,2066,2049,2057,2059,2053,1198
886,1711442056385092818,2054,2055,2064,2056,2042,2052,1197
887,1711442056395086294,2052,2052,2044,2045,2036,2052,1197
888,1711442056405096301,2056,2052,2020,2058,2049,2053,1196
889,1711442056415086941,2053,2040,2044,2056,2068,2053,1197
890,1711442056425086920,2058,2063,2074,2066,2053,2056,1195
891,1711442056435094121,2053,2050,2027,2041,2047,2046,1192
892,1711442056445089661,2056,2052,2071,2054,2053,2053,1197
893,1711442056455099288,2053,2054,2095,2045,2054,2052,1195
894,1711442056465084387,2053,2052,2039,2054,2050,2056,1197
895,1711442056475093753,2061,2080,2106,2058,2060,2056,1197
896,1711442056485086017,2057,2064,2069,2064,2044,2057,1197
897,1711442056495087708,2051,2046,2026,2047,2063,2052,1194
898,1711442056505105941,2057,2077,2086,2064,2056,2053,1195
899,1711442056515088676,2055,2052,2056,2059,2054,2053,1194
900,1711442056525102561,2060,2064,2091,2056,2043,2053,1195
901,1711442056535087039,2056,2043,2018,2053,2061,2053,1200
902,1711442056545083761,2052,2045,2019,2056,2042,2055,1196
903,1711442056555082356,2056,2056,2063,2053,2040,2052,1197
904,1711442056565084027,2051,2049,2021,2053,2042,2053,1196
905,1711442056575086210,2052,2050,2061,2066,2060,2048,1196
906,1711442056585085637,2053,2048,2029,2049,2047,2050,1198
907,1711442056595086717,2058,2060,2080,2060,2060,2053,1196
908,1711442056605109509,2053,2044,2032,2057,2064,2055,1196
909,1711442056615101451,2059,2056,2058,2052,2052,2056,1197
910,1711442056625110036,2052,2045,2040,2034,2041,2048,1195
911,1711442056635098753,2057,2053,2017,2047,2057,2055,1195
912,1711442056645090896,2053,2047,2021,2052,2034,2051,1195
913,1711442056655089310,2052,2050,2034,2046,2048,2052,1195
914,1711442056665098597,2052,2056,2092,2052,2071,2054,1195
915,1711442056675075150,2056,2053,2044,2056,2056,2054,1196
916,1711442056685089826,2053,2056,2040,2057,2041,2052,1196
917,1711442056695091858,2053,2063,2038,2047,2050,2051,1196
918,1711442056705106234,2054,2052,2082,2060,2044,2056,1196
919,1711442056715097935,2051,2053,2039,2053,2066,2053,1196
920,1711442056725098505,2060,2056,2050,2048,2040,2051,1198
921,1711442056735096189,2056,2058,2062,2047,2052,2054,1198
922,1711442056745092289,2052,2051,2064,2058,2049,2052,1197
923,1711442056755125531,2052,2047,2050,2056,2082,2053,1197
924,1711442056765108858,2063,2061,2046,2069,2076,2057,1198
925,1711442056775098776,2055,2043,2024,2050,2050,2048,1197
926,1711442056785089316,2058,2061,2050,2061,2059,2057,1196
927,1711442056795084816,2052,2050,2044,2047,2046,2052,1198
928,1711442056805086146,2056,2056,2050,2052,2051,2054,1197
929,1711442056815096875,2053,2046,2027,2047,2058,2055,1198
930,1711442056825109768,2056,2056,2057,2056,2050,2054,1194
931,1711442056835100228,2050,2047,2029,2053,2072,2050,1197
932,1711442056845089876,2052,2046,2007,2047,2050,2057,1197
933,1711442056855100224,2060,2074,2118,2061,2056,2056,1197
934,1711442056865099520,2054,2046,2032,2050,2055,2053,1196
935,1711442056875087155,2057,2057,2080,2048,2056,2057,1195
936,1711442056885084989,2054,2042,2040,2061,2061,2051,1196
937,1711442056895086630,2056,2055,2056,2058,2056,2052,1195
938,1711442056905099513,2057,2062,2063,2067,2047,2054,1194
939,1711442056915110522,2053,2041,2015,2048,2052,2050,1195
940,1711442056925086844,2058,2060,2029,2060,2053,2056,1197
941,1711442056935120738,2052,2048,2047,2045,2044,2048,1197
942,1711442056945092252,2054,2054,2058,2052,2052,2054,1195
943,1711442056955093211,2053,2053,2045,2052,2056,2053,1193
944,1711442056965097618,2059,2053,2048,2061,2050,2053,1197
945,1711442056975089260,2058,2055,2050,2054,2066,2058,1196
946,1711442056985092465,2056,2054,2041,2053,2048,2054,1197
947,1711442056995091130,2052,2045,2020,2044,2041,2050,1195
948,1711442057005106467,2063,2052,2048,2052,2052,2050,1196
949,1711442057015101115,2052,2058,2084,2062,2060,2054,1193
950,1711442057025102966,2054,2047,2040,2057,2043,2053,1194
951,1711442057035094338,2057,2070,2124,2060,2057,2056,1194
952,1711442057045090609,2056,2058,2088,2061,2064,2050,1195
953,1711442057055091379,2053,2050,2036,2048,2052,2056,1196
954,1711442057065092969,2053,2052,2047,2056,2047,2056,1195
955,1711442057075103959,2056,2049,2044,2050,2077,2052,1196
956,1711442057085086222,2056,2053,2049,2050,2050,2052,1195
957,1711442057095078105,2058,2056,2077,2060,2054,2054,1196
958,1711442057105082791,2056,2061,2078,2059,2056,2057,1196
959,1711442057115108339,2056,2064,2064,2050,2067,2053,1196
960,1711442057125116201,2056,2051,2052,2054,2049,2050,1195
961,1711442057135092875,2058,2060,2084,2056,2057,2053,1197
962,1711442057145092142,2056,2052,2050,2056,2048,2053,1197
963,1711442057155085326,2059,2062,2079,2056,2056,2056,1198
964,1711442057165083992,2057,2057,2037,2057,2045,2053,1196
965,1711442057175094790,2054,2052,2043,2051,2037,2053,1196
966,1711442057185086833,2058,2055,2064,2061,2062,2053,1196
967,1711442057195092411,2056,2061,2064,2054,2046,2053,1197
968,1711442057205084715,2056,2051,2072,2056,2050,2053,1195
969,1711442057215086165,2053,2056,2042,2055,2056,2053,1194
970,1711442057225109318,2054,2052,2035,2055,2050,2052,1195
971,1711442057235088286,2045,2043,2021,2040,2035,2048,1196
972,1711442057245094325,2058,2062,2084,2055,2051,2056,1197
973,1711442057255091438,2056,2065,2074,2058,2059,2056,1198
974,1711442057265086777,2054,2042,2041,2044,2055,2060,1198
975,1711442057275087196,2052,2050,2032,2044,2047,2048,1195
976,1711442057285087554,2053,2049,2041,2047,2045,2049,1196
977,1711442057295093333,2061,2064,2076,2055,2060,2056,1195
978,1711442057305088441,2054,2050,2072,2057,2062,2050,1195
979,1711442057315088129,2056,2056,2080,2055,2062,2054,1195
980,1711442057325105079,2057,2062,2082,2068,2058,2057,1200
981,1711442057335098204,2056,2052,2040,2056,2070,2053,1198
982,1711442057345088964,2056,2048,2034,2049,2047,2052,1198
983,1711442057355091918,2054,2055,2077,2056,2052,2049,1196
984,1711442057365090614,2049,2053,2048,2062,2054,2051,1195
985,1711442057375108355,2057,2044,2024,2055,2046,2052,1195
986,1711442057385097804,2050,2042,2017,2052,2048,2052,1195
987,1711442057395101107,2053,2054,2080,2050,2057,2056,1197
988,1711442057405095225,2058,2061,2057,2061,2076,2044,1193
989,1711442057415096514,2054,2050,2034,2067,2047,2047,1194
990,1711442057425096733,2052,2051,2053,2056,2053,2052,1195
991,1711442057435093665,2056,2052,2066,2058,2056,2056,1196
992,1711442057445095316,2059,2070,2152,2069,2056,2056,1195
993,1711442057455097549,2060,2053,2036,2053,2058,2052,1196
994,1711442057465097627,2056,2054,2047,2064,2054,2056,1196
995,1711442057475100901,2053,2049,2033,2056,2056,2052,1196
996,1711442057485103233,2061,2065,2082,2057,2050,2055,1197
997,1711442057495099714,2052,2052,2040,2047,2052,2050,1196
998,1711442057505099011,2052,2050,2051,2053,2056,2056,1196
999,1711442057515100733,2052,2047,2034,2048,2047,2046,1195
1000,1711442057525104147,2056,2053,2059,2051,2052,2056,1200
1001,1711442057535100147,2061,2065,2094,2054,2068,2056,1197
1002,1711442057545106166,2056,2056,2061,2061,2040,2049,1197
1003,1711442057555100424,2057,2064,2100,2052,2057,2057,1196
1004,1711442057565082497,2054,2051,2042,2059,2052,2054,1197
1005,1711442057575105489,2053,2054,2062,2052,2054,2052,1198
1006,1711442057585082343,2058,2064,2096,2054,2043,2050,1196
1007,1711442057595104343,2066,2074,2076,2072,2056,2060,1195
1008,1711442057605085826,2058,2056,2082,2048,2041,2056,1197
1009,1711442057615087937,2050,2052,2042,2047,2046,2053,1198
1010,1711442057625107002,2057,2050,2052,2045,2048,2053,1196
1011,1711442057635109585,2052,2056,2047,2057,2060,2056,1198
1012,1711442057645108070,2056,2052,2044,2052,2054,2052,1194
1013,1711442057655091295,2056,2066,2084,2046,2042,2050,1197
1014,1711442057665085222,2050,2043,2004,2045,2047,2053,1196
1015,1711442057675090150,2052,2050,2036,2050,2032,2045,1194
1016,1711442057685107761,2056,2056,2023,2061,2046,2052,1195
1017,1711442057695091438,2054,2051,2029,2056,2062,2052,1197
1018,1711442057705084743,2060,2052,2042,2064,2081,2052,1197
1019,1711442057715090472,2060,2054,2104,2060,2052,2053,1194
1020,1711442057725084699,2054,2049,2043,2047,2041,2052,1198
1021,1711442057735083876,2051,2040,2020,2054,2052,2048,1196
1022,1711442057745086909,2060,2053,2056,2057,2056,2056,1198
1023,1711442057755085765,2059,2060,2058,2052,2054,2057,1196
1024,1711442057765084680,2056,2064,2066,2049,2025,2054,1196
1025,1711442057775092404,2054,2049,2028,2053,2049,2056,1197
1026,1711442057785086329,2056,2053,2080,2064,2056,2055,1196
1027,1711442057795087741,2060,2065,2104,2061,2065,2054,1197
1028,1711442057805084533,2053,2054,2050,2053,2051,2051,1198
1029,1711442057815085953,2052,2042,2007,2050,2053,2052,1196
1030,1711442057825091171,2064,2070,2039,2056,2057,2056,1195
1031,1711442057835090077,2054,2054,2066,2058,2056,2056,1194
1032,1711442057845094213,2060,2061,2108,2060,2062,2056,1193
1033,1711442057855094261,2053,2069,2064,2050,2052,2052,1194
1034,1711442057865089921,2053,2049,2059,2059,2048,2053,1197
1035,1711442057875090339,2050,2046,2010,2060,2051,2053,1194
1036,1711442057885091119,2057,2060,2045,2058,2056,2052,1196
1037,1711442057895094734,2056,2068,2105,2056,2057,2056,1196
1038,1711442057905088560,2053,2047,2049,2053,2052,2052,1194
1039,1711442057915094028,2057,2059,2085,2052,2049,2053,1197
1040,1711442057925103755,2056,2054,2054,2060,2043,2051,1198
1041,1711442057935099825,2054,2050,2036,2049,2044,2052,1197
1042,1711442057945091237,2058,2057,2100,2044,2050,2053,1198
1043,1711442057955088029,2057,2053,2038,2050,2068,2058,1199
1044,1711442057965087034,2052,2047,2046,2052,2052,2053,1197
1045,1711442057975132009,2051,2048,2043,2049,2046,2049,1197
1046,1711442057985101147,2060,2069,2123,2065,2056,2058,1197
1047,1711442057995104242,2056,2058,2081,2053,2051,2053,1196
1048,1711442058005091334,2056,2050,2061,2056,2040,2050,1197
1049,1711442058015089910,2057,2056,2051,2060,2060,2053,1194
1050,1711442058025106569,2052,2046,2044,2072,2086,2050,1196
1051,1711442058035102871,2058,2058,2049,2056,2067,2058,1196
1052,1711442058045091426,2054,2047,2029,2050,2056,2052,1195
1053,1711442058055089019,2057,2059,2073,2059,2056,2056,1195
1054,1711442058065091252,2056,2057,2035,2056,2052,2055,1196
1055,1711442058075093633,2062,2076,2136,2061,2061,2056,1197
1056,1711442058085092870,2057,2052,2057,2048,2035,2056,1196
1057,1711442058095095212,2052,2049,2032,2051,2063,2053,1198
1058,1711442058105089590,2059,2060,2049,2064,2050,2056,1197
1059,1711442058115088856,2056,2054,2064,2055,2058,2056,1196
1060,1711442058125104704,2057,2059,2072,2052,2048,2054,1196
1061,1711442058135092829,2061,2070,2062,2059,2059,2057,1199
1062,1711442058145098177,2056,2054,2057,2058,2066,2051,1197
1063,1711442058155098296,2056,2052,2070,2064,2081,2058,1197
1064,1711442058165094376,2058,2063,2050,2069,2059,2056,1198
1065,1711442058175088943,2050,2044,2061,2046,2052,2052,1196
1066,1711442058185117816,2060,2066,2105,2050,2048,2053,1197
1067,1711442058195096102,2051,2049,2057,2049,2052,2052,1196
1068,1711442058205088486,2058,2064,2116,2065,2053,2054,1199
1069,1711442058215088573,2053,2053,2041,2052,2052,2052,1196
1070,1711442058225091287,2056,2050,2047,2059,2047,2050,1194
1071,1711442058235105111,2060,2053,2018,2052,2046,2052,1196
1072,1711442058245096422,2055,2052,2050,2063,2064,2051,1198
1073,1711442058255086762,2056,2058,2066,2054,2051,2052,1196
1074,1711442058265084104,2052,2050,2050,2056,2053,2054,1197
1075,1711442058275087449,2050,2043,2026,2050,2045,2047,1193
1076,1711442058285099319,2064,2076,2086,2070,2056,2058,1197
1077,1711442058295103184,2054,2052,2058,2052,2055,2054,1197
1078,1711442058305095337,2054,2053,2080,2060,2045,2051,1197
1079,1711442058315093331,2055,2052,2030,2042,2040,2053,1197
1080,1711442058325091666,2053,2067,2040,2057,2050,2051,1197
1081,1711442058335127372,2057,2056,2090,2070,2069,2052,1198
1082,1711442058345101470,2054,2055,2053,2066,2066,2054,1198
1083,1711442058355106157,2053,2048,2026,2058,2059,2053,1197
1084,1711442058365095604,2058,2057,2072,2059,2054,2056,1196
1085,1711442058375099570,2054,2052,2010,2068,2058,2053,1197
1086,1711442058385105709,2053,2047,2017,2056,2054,2053,1196
1087,1711442058395101600,2055,2053,2049,2056,2064,2052,1197
1088,1711442058405098170,2056,2058,2104,2065,2057,2056,1197
1089,1711442058415098970,2056,2051,2033,2058,2044,2047,1195
1090,1711442058425113115,2052,2052,2062,2054,2051,2054,1194
1091,1711442058435117050,2052,2046,2012,2041,2050,2050,1197
1092,1711442058445092541,2056,2058,2108,2061,2048,2054,1195
1093,1711442058455098129,2054,2047,2033,2048,2056,2052,1195
1094,1711442058465105031,2056,2052,2065,2058,2057,2052,1196
1095,1711442058475086563,2058,2056,2038,2044,2050,2055,1195
1096,1711442058485099084,2064,2058,2060,2063,2060,2057,1197
1097,1711442058495103050,2056,2043,2015,2050,2053,2058,1196
1098,1711442058505105252,2062,2074,2090,2063,2061,2056,1197
1099,1711442058515087777,2050,2051,2040,2056,2069,2052,1196
1100,1711442058525089508,2057,2056,2045,2060,2050,2056,1197
1101,1711442058535137137,2054,2044,2034,2047,2052,2051,1197
1102,1711442058545109181,2053,2055,2068,2060,2052,2053,1198
1103,1711442058555094030,2052,2046,2075,2053,2052,2050,1198
1104,1711442058565091032,2054,2052,2060,2049,2049,2052,1195
1105,1711442058575087844,2057,2057,2088,2069,2073,2052,1196
1106,1711442058585104975,2059,2062,2105,2062,2062,2056,1197
1107,1711442058595084222,2059,2057,2050,2057,2054,2052,1197
1108,1711442058605093407,2058,2056,2067,2059,2058,2056,1196
1109,1711442058615085531,2054,2050,2038,2052,2044,2053,1197
1110,1711442058625083444,2051,2043,2049,2059,2033,2049,1195
1111,1711442058635122427,2053,2050,2022,2053,2053,2052,1197
1112,1711442058645093830,2053,2054,2036,2057,2054,2053,1197
1113,1711442058655081865,2056,2060,2093,2057,2053,2054,1200
1114,1711442058665088235,2059,2063,2083,2060,2048,2054,1194
1115,1711442058675087351,2056,2052,2034,2051,2044,2048,1195
1116,1711442058685086778,2057,2050,2030,2058,2054,2057,1197
1117,1711442058695078540,2059,2058,2065,2050,2032,2051,1196
1118,1711442058705104077,2053,2051,2047,2047,2046,2052,1194
1119,1711442058715090338,2053,2049,2059,2044,2044,2052,1197
1120,1711442058725087540,2058,2060,2052,2059,2049,2055,1197
1121,1711442058735163464,2056,2052,2045,2045,2039,2049,1197
1122,1711442058745089049,2053,2050,2037,2052,2047,2054,1197
1123,1711442058755089027,2056,2053,2012,2054,2059,2054,1193
1124,1711442058765087401,2054,2041,2024,2056,2046,2054,1196
1125,1711442058775085716,2062,2057,2024,2065,2064,2058,1195
1126,1711442058785088890,2054,2050,2037,2052,2047,2052,1194
1127,1711442058795085220,2056,2052,2038,2055,2057,2056,1196
1128,1711442058805093986,2055,2053,2039,2057,2052,2056,1197
1129,1711442058815083393,2059,2058,2078,2060,2058,2056,1196
1130,1711442058825105233,2064,2056,2003,2064,2069,2056,1195
1131,1711442058835100632,2054,2050,2033,2063,2066,2053,1196
1132,1711442058845090880,2054,2054,2044,2056,2058,2056,1197
1133,1711442058855084046,2056,2056,2037,2047,2057,2056,1198
1134,1711442058865095906,2062,2068,2088,2060,2043,2057,1194
1135,1711442058875090784,2053,2049,2059,2048,2052,2050,1196
1136,1711442058885100520,2053,2044,2034,2053,2045,2051,1196
1137,1711442058895084698,2053,2058,2057,2042,2046,2052,1196
1138,1711442058905055219,2058,2052,2044,2051,2047,2053,1196
1139,1711442058915089172,2053,2050,2042,2047,2052,2050,1196
1140,1711442058925093318,2056,2053,2047,2052,2058,2056,1197
1141,1711442058935122371,2052,2044,2043,2047,2056,2056,1200
1142,1711442058945106960,2066,2079,2130,2080,2077,2067,1196
1143,1711442058955088372,2056,2056,2073,2056,2060,2058,1198
1144,1711442058965087207,2059,2066,2092,2062,2053,2057,1196
1145,1711442058975080633,2056,2050,2051,2054,2044,2052,1195
1146,1711442058985090088,2053,2056,2079,2056,2048,2053,1198
1147,1711442058995080759,2056,2059,2073,2053,2068,2054,1198
1148,1711442059005089503,2057,2048,2049,2061,2052,2054,1195
1149,1711442059015089941,2060,2065,2077,2061,2070,2056,1196
1150,1711442059025094378,2056,2056,2059,2066,2073,2055,1194
1151,1711442059035085158,2050,2048,2029,2049,2045,2048,1197
1152,1711442059045085095,2052,2056,2053,2058,2050,2051,1196
1153,1711442059055091285,2060,2064,2104,2066,2060,2057,1194
1154,1711442059065089099,2052,2046,2040,2049,2056,2052,1196
1155,1711442059075086711,2054,2057,2082,2056,2052,2050,1195
1156,1711442059085084334,2056,2053,2057,2059,2052,2056,1197
1157,1711442059095093791,2055,2052,2064,2054,2040,2050,1198
1158,1711442059105088137,2056,2060,2036,2064,2049,2057,1194
1159,1711442059115090860,2056,2049,2058,2047,2053,2055,1194
1160,1711442059125089755,2052,2046,2047,2072,2058,2046,1193
1161,1711442059135110734,2054,2054,2061,2048,2050,2050,1197
1162,1711442059145098658,2056,2059,2069,2054,2050,2056,1194
1163,1711442059155089859,2056,2056,2053,2052,2056,2053,1196
1164,1711442059165091490,2054,2057,2083,2060,2053,2056,1196
1165,1711442059175093672,2053,2050,2020,2054,2056,2052,1197
1166,1711442059185091184,2050,2047,2020,2048,2049,2052,1196
1167,1711442059195089218,2053,2051,2056,2062,2040,2052,1195
1168,1711442059205089717,2056,2053,2048,2056,2047,2054,1196
1169,1711442059215175489,2056,2061,2089,2054,2048,2051,1195
1170,1711442059225093519,2053,2056,2048,2055,2039,2050,1194
1171,1711442059235094319,2054,2048,2040,2052,2053,2054,1199
1172,1711442059245106139,2054,2045,2033,2048,2045,2052,1197
1173,1711442059255178896,2054,2052,2040,2048,2076,2052,1196
1174,1711442059265100785,2056,2056,2098,2057,2052,2052,1196
1175,1711442059275094691,2058,2060,2072,2056,2046,2048,1196
1176,1711442059285094007,2057,2045,2009,2055,2052,2052,1196
1177,1711442059295097270,2058,2065,2095,2058,2053,2057,1196
1178,1711442059305176531,2062,2064,2088,2069,2056,2056,1197
1179,1711442059315092006,2052,2053,2044,2049,2056,2052,1197
1180,1711442059325099959,2056,2049,2040,2050,2061,2053,1197
1181,1711442059335174249,2056,2062,2088,2052,2044,2057,1197
1182,1711442059345106787,2052,2044,2027,2061,2082,2058,1198
1183,1711442059355141091,2051,2041,2030,2045,2047,2050,1197
1184,1711442059365085652,2057,2049,1995,2053,2058,2056,1197
1185,1711442059375087654,2051,2047,2028,2052,2052,2050,1198
1186,1711442059385092150,2052,2045,2013,2055,2036,2053,1198
1187,1711442059395086466,2056,2050,2029,2047,2047,2052,1197
1188,1711442059405089100,2058,2057,2050,2055,2050,2057,1196
1189,1711442059415085971,2053,2050,2003,2052,2034,2047,1193
1190,1711442059425087361,2050,2041,2003,2053,2049,2054,1192
1191,1711442059435090535,2054,2052,2046,2052,2060,2054,1196
1192,1711442059445093779,2058,2061,2055,2059,2053,2053,1196
1193,1711442059455093326,2055,2048,2052,2053,2053,2052,1197
1194,1711442059465092492,2058,2050,2010,2066,2048,2056,1195
1195,1711442059475081539,2057,2065,2053,2046,2044,2052,1196
1196,1711442059485091315,2052,2047,2064,2053,2048,2057,1196
1197,1711442059495091623,2056,2053,2058,2061,2059,2056,1197
1198,1711442059505088024,2056,2054,2083,2056,2046,2053,1198
1199,1711442059515093102,2062,2075,2106,2058,2060,2056,1196
1200,1711442059525104812,2056,2052,2054,2044,2026,2048,1197
1201,1711442059535095621,2056,2058,2051,2046,2049,2052,1196
1202,1711442059545091642,2052,2054,2075,2054,2053,2056,1195
1203,1711442059555092281,2056,2054,2080,2053,2056,2056,1197
1204,1711442059565106515,2054,2053,2056,2057,2053,2054,1197
1205,1711442059575090432,2052,2050,2045,2044,2051,2053,1197
1206,1711442059585093757,2056,2048,2025,2052,2053,2055,1197
1207,1711442059595093584,2056,2060,2063,2037,2039,2053,1196
1208,1711442059605093281,2056,2054,2029,2064,2053,2054,1195
1209,1711442059615108488,2053,2047,2042,2051,2056,2052,1197
1210,1711442059625099208,2056,2049,2068,2047,2050,2056,1195
1211,1711442059635093354,2056,2061,2112,2065,2050,2048,1195
1212,1711442059645096367,2054,2053,2073,2057,2050,2054,1196
1213,1711442059655100954,2054,2057,2060,2037,2048,2053,1195
1214,1711442059665109328,2058,2048,2008,2052,2045,2052,1197
1215,1711442059675088756,2049,2043,2010,2045,2053,2050,1195
1216,1711442059685098002,2057,2052,2055,2056,2049,2056,1195
1217,1711442059695099652,2057,2057,2086,2059,2056,2053,1196
1218,1711442059705100281,2054,2056,2050,2056,2052,2057,1197
1219,1711442059715125177,2056,2056,2068,2053,2054,2052,1197
1220,1711442059725081641,2057,2054,2020,2056,2057,2056,1197
1221,1711442059735100314,2059,2068,2118,2050,2058,2057,1196
1222,1711442059745103347,2057,2058,2040,2069,2050,2056,1196
1223,1711442059755106622,2053,2048,2041,2044,2046,2052,1197
1224,1711442059765085489,2058,2059,2065,2064,2077,2056,1195
1225,1711442059775086108,2055,2054,2056,2056,2052,2051,1196
1226,1711442059785085975,2057,2055,2053,2053,2056,2057,1198
1227,1711442059795084821,2053,2052,2050,2053,2048,2051,1196
1228,1711442059805088165,2053,2052,2055,2044,2046,2054,1198
1229,1711442059815093131,2060,2070,2108,2061,2060,2059,1196
1230,1711442059825088521,2055,2054,2069,2060,2043,2050,1193
1231,1711442059835091254,2053,2056,2088,2060,2082,2053,1196
1232,1711442059845089778,2056,2052,2068,2064,2048,2051,1197
1233,1711442059855090197,2052,2044,2042,2050,2048,2047,1191
1234,1711442059865096908,2052,2041,2034,2051,2046,2054,1195
1235,1711442059875083610,2057,2058,2080,2056,2057,2055,1197
1236,1711442059885092133,2057,2053,2038,2049,2061,2056,1195
1237,1711442059895084287,2056,2058,2058,2058,2056,2053,1196
1238,1711442059905086418,2052,2049,2030,2054,2051,2054,1198
1239,1711442059915178221,2057,2057,2062,2051,2047,2054,1197
1240,1711442059925093226,2057,2053,2062,2056,2041,2054,1197
1241,1711442059935094667,2053,2050,2054,2055,2059,2054,1196
1242,1711442059945091999,2058,2057,2048,2061,2056,2056,1198
1243,1711442059955092037,2053,2048,2038,2068,2062,2050,1196
1244,1711442059965093087,2056,2053,2053,2059,2056,2054,1195
1245,1711442059975084067,2052,2052,2064,2056,2080,2053,1197
1246,1711442059985103732,2057,2055,2068,2060,2052,2054,1197
1247,1711442059995083101,2058,2063,2065,2051,2053,2053,1196
1248,1711442060005087427,2056,2056,2045,2060,2045,2051,1197
1249,1711442060015133503,2059,2056,2068,2054,2048,2052,1197
1250,1711442060025078264,2057,2064,2074,2073,2060,2054,1191
1251,1711442060035137906,2056,2057,2080,2053,2051,2056,1196
1252,1711442060045090252,2054,2052,2036,2047,2047,2054,1198
1253,1711442060055086203,2058,2053,2056,2060,2056,2058,1193
1254,1711442060065093524,2056,2062,2074,2066,2054,2053,1197
1255,1711442060075084284,2053,2062,2058,2052,2065,2052,1197
1256,1711442060085100672,2059,2053,2061,2060,2054,2056,1197
1257,1711442060095086513,2060,2064,2069,2057,2065,2056,1197
1258,1711442060105085819,2056,2042,1990,2070,2072,2052,1196
1259,1711442060115084665,2058,2062,2056,2058,2050,2056,1196
1260,1711442060125084191,2057,2058,2088,2058,2053,2052,1199
1261,1711442060135088657,2057,2051,2053,2055,2058,2052,1198
1262,1711442060145090248,2058,2068,2075,2065,2053,2057,1196
1263,1711442060155137576,2053,2052,2048,2052,2050,2052,1194
1264,1711442060165090743,2057,2057,2044,2060,2054,2056,1198
1265,1711442060175101873,2054,2052,2041,2049,2063,2054,1194
1266,1711442060185078916,2064,2056,2059,2060,2052,2053,1196
1267,1711442060195081348,2057,2056,2066,2054,2054,2056,1194
1268,1711442060205081867,2056,2059,2065,2056,2054,2056,1194
1269,1711442060215082455,2059,2060,2072,2048,2060,2052,1196
1270,1711442060225144351,2056,2040,2005,2053,2040,2049,1194
1271,1711442060235080045,2060,2056,2067,2050,2052,2053,1196
1272,1711442060245087358,2057,2052,2090,2059,2052,2054,1196
1273,1711442060255090481,2052,2052,2056,2045,2055,2052,1194
1274,1711442060265109034,2059,2062,2080,2061,2036,2056,1195
1275,1711442060275131324,2056,2053,2062,2052,2050,2051,1196
1276,1711442060285082578,2053,2047,2051,2055,2053,2054,1197
1277,1711442060295127922,2061,2072,2131,2069,2058,2055,1195
1278,1711442060305104586,2060,2058,2054,2049,2053,2056,1195
1279,1711442060315097540,2058,2056,2067,2061,2060,2059,1197
1280,1711442060325107997,2057,2062,2065,2064,2057,2052,1197
1281,1711442060335079180,2053,2049,2030,2045,2035,2053,1197
1282,1711442060345103704,2052,2051,2040,2049,2037,2056,1196
1283,1711442060355126355,2056,2056,2058,2056,2053,2056,1196
1284,1711442060365104201,2053,2042,2016,2067,2045,2052,1194
1285,1711442060375127242,2053,2043,2012,2048,2057,2053,1197
1286,1711442060385103093,2056,2048,2045,2046,2049,2054,1196
1287,1711442060395124281,2057,2060,2042,2054,2059,2058,1197
1288,1711442060405106324,2058,2053,2064,2055,2058,2053,1197
1289,1711442060415125598,2056,2052,2052,2053,2044,2054,1197
1290,1711442060425108643,2056,2053,2053,2054,2042,2056,1194
1291,1711442060435120404,2056,2060,2107,2060,2054,2052,1197
1292,1711442060445106234,2060,2063,2087,2068,2064,2058,1196
1293,1711442060455120048,2054,2066,2048,2057,2050,2050,1197
1294,1711442060465105668,2057,2058,2100,2064,2059,2053,1196
1295,1711442060475132938,2056,2052,2064,2044,2052,2052,1195
1296,1711442060485104941,2052,2045,2022,2069,2060,2051,1197
1297,1711442060495119808,2056,2061,2112,2067,2061,2056,1196
1298,1711442060505106330,2057,2056,2093,2058,2044,2053,1196
1299,1711442060515118250,2056,2068,2058,2054,2058,2053,1198
1300,1711442060525124149,2052,2049,2045,2052,2043,2053,1196
1301,1711442060535115229,2047,2046,2031,2052,2052,2051,1196
1302,1711442060545106760,2059,2061,2078,2064,2053,2058,1197
1303,1711442060555119363,2056,2052,2060,2052,2042,2048,1197
1304,1711442060565106315,2061,2051,2020,2060,2052,2052,1196
1305,1711442060575129908,2056,2054,2046,2052,2054,2054,1197
1306,1711442060585107813,2061,2058,2075,2064,2057,2056,1198
1307,1711442060595118711,2056,2050,2048,2045,2050,2054,1196
1308,1711442060605104822,2057,2050,2025,2057,2055,2053,1196
1309,1711442060615117434,2053,2047,2038,2052,2049,2051,1196
1310,1711442060625111340,2059,2057,2056,2056,2049,2053,1194
1311,1711442060635067794,2056,2054,2047,2050,2042,2050,1195
1312,1711442060645117797,2058,2057,2084,2063,2054,2057,1196
1313,1711442060655115280,2054,2054,2068,2056,2053,2052,1195
1314,1711442060665105268,2057,2064,2075,2056,2049,2053,1196
1315,1711442060675116838,2057,2056,2072,2042,2057,2056,1196
1316,1711442060685108299,2059,2062,2080,2054,2029,2053,1195
1317,1711442060695118356,2052,2050,2062,2057,2058,2049,1196
1318,1711442060705105980,2060,2056,2035,2058,2053,2058,1197
1319,1711442060715114043,2052,2050,2036,2047,2044,2051,1196
1320,1711442060725105103,2060,2061,2105,2066,2046,2054,1195
1321,1711442060735114588,2053,2049,2050,2050,2050,2052,1197
1322,1711442060745104688,2057,2059,2060,2060,2063,2057,1198
1323,1711442060755114784,2052,2047,2038,2061,2056,2048,1196
1324,1711442060765105574,2057,2046,2093,2069,2084,2060,1195
1325,1711442060775150728,2056,2057,2033,2057,2069,2056,1196
1326,1711442060785105709,2056,2054,2041,2055,2051,2050,1199
1327,1711442060795117118,2059,2064,2080,2062,2062,2054,1196
1328,1711442060805106847,2052,2052,2060,2056,2052,2056,1198
1329,1711442060815116263,2053,2045,2056,2046,2049,2052,1197
1330,1711442060825162478,2056,2052,2036,2052,2053,2053,1192
1331,1711442060835054248,2053,2045,2032,2053,2054,2053,1196
1332,1711442060845106646,2056,2052,2070,2062,2057,2056,1195
1333,1711442060855110210,2057,2061,2056,2054,2050,2056,1196
1334,1711442060865105871,2058,2049,2040,2057,2038,2054,1196
1335,1711442060875109866,2051,2047,2025,2043,2042,2050,1198
1336,1711442060885108570,2056,2056,2061,2057,2053,2058,1197
1337,1711442060895103378,2057,2064,2074,2046,2045,2052,1194
1338,1711442060905105650,2059,2060,2104,2054,2051,2056,1196
1339,1711442060915106148,2052,2059,2056,2053,2052,2051,1196
1340,1711442060925105464,2057,2061,2085,2069,2062,2056,1198
1341,1711442060935100232,2053,2049,2037,2056,2080,2053,1197
1342,1711442060945106442,2056,2052,2064,2059,2051,2052,1197
1343,1711442060955103243,2054,2056,2045,2053,2047,2054,1197
1344,1711442060965106466,2054,2054,2096,2061,2042,2050,1197
1345,1711442060975127785,2052,2049,2065,2051,2052,2052,1197
1346,1711442060985097163,2052,2044,2020,2050,2049,2052,1196
1347,1711442060995102031,2058,2057,2029,2053,2054,2056,1197
1348,1711442061005100896,2060,2064,2105,2070,2045,2056,1197
1349,1711442061015102226,2050,2042,2025,2050,2049,2052,1196
1350,1711442061025104979,2062,2064,2079,2060,2047,2058,1194
1351,1711442061035099746,2057,2052,2041,2049,2055,2054,1196
1352,1711442061045101266,2053,2048,2039,2052,2047,2053,1194
1353,1711442061055101364,2056,2051,2065,2047,2032,2049,1195
1354,1711442061065101241,2060,2065,2132,2064,2057,2057,1196
1355,1711442061075105456,2056,2056,2054,2052,2056,2053,1198
1356,1711442061085097779,2057,2050,2036,2052,2029,2052,1197
1357,1711442061095101614,2057,2050,2072,2062,2058,2056,1196
1358,1711442061105104457,2055,2056,2050,2058,2042,2051,1196
1359,1711442061115102550,2056,2052,2081,2056,2057,2051,1197
1360,1711442061125098580,2058,2048,2028,2058,2053,2054,1196
1361,1711442061135096744,2054,2064,2113,2056,2053,2056,1199
1362,1711442061145108103,2056,2059,2037,2058,2052,2052,1195
1363,1711442061155112288,2054,2053,2030,2060,2070,2054,1196
1364,1711442061165100373,2053,2051,2072,2054,2055,2052,1196
1365,1711442061175101663,2052,2045,2035,2050,2057,2052,1196
1366,1711442061185116739,2049,2045,2031,2054,2056,2054,1198
1367,1711442061195106587,2057,2056,2043,2056,2056,2052,1195
1368,1711442061205106484,2056,2053,2056,2059,2053,2052,1198
1369,1711442061215101592,2052,2055,2047,2051,2053,2053,1198
1370,1711442061225112801,2058,2058,2040,2057,2056,2054,1193
1371,1711442061235108740,2057,2050,2053,2061,2056,2056,1195
1372,1711442061245097127,2059,2054,2020,2066,2083,2061,1196
1373,1711442061255165164,2052,2049,2043,2052,2046,2052,1196
1374,1711442061265106199,2056,2052,2064,2060,2052,2056,1195
1375,1711442061275105334,2053,2050,2035,2052,2049,2051,1196
1376,1711442061285111604,2053,2059,2076,2057,2053,2053,1193
1377,1711442061295102784,2054,2056,2072,2056,2049,2055,1197
1378,1711442061305106759,2056,2057,2059,2060,2060,2056,1198
1379,1711442061315103641,2055,2046,2061,2063,2052,2053,1196
1380,1711442061325105972,2057,2059,2058,2054,2058,2054,1197
1381,1711442061335095389,2050,2052,2064,2053,2041,2050,1197
1382,1711442061345097431,2058,2059,2067,2066,2058,2056,1195
1383,1711442061355098250,2056,2053,2081,2047,2051,2052,1197
1384,1711442061365098037,2057,2052,2052,2053,2053,2053,1198
1385,1711442061375098785,2055,2047,1992,2057,2053,2056,1197
1386,1711442061385101478,2058,2052,2056,2059,2051,2057,1198
1387,1711442061395104561,2056,2060,2064,2043,2038,2053,1197
1388,1711442061405099148,2057,2050,2037,2059,2057,2056,1197
1389,1711442061415101179,2053,2052,2044,2051,2053,2053,1198
1390,1711442061425098572,2064,2059,2033,2068,2058,2057,1193
1391,1711442061435118507,2056,2052,2028,2053,2052,2052,1197
1392,1711442061445097084,2060,2053,2069,2057,2052,2055,1196
1393,1711442061455097862,2065,2064,2052,2062,2057,2056,1196
1394,1711442061465096317,2052,2056,2026,2055,2048,2052,1196
1395,1711442061475097607,2053,2047,2049,2044,2052,2053,1195
1396,1711442061485100159,2056,2060,2069,2068,2054,2058,1196
1397,1711442061495098724,2050,2052,2045,2047,2050,2056,1195
1398,1711442061505096056,2054,2051,2056,2056,2054,2056,1194
1399,1711442061515098959,2058,2077,2136,2052,2056,2052,1195
1400,1711442061525110528,2060,2064,2106,2065,2054,2057,1200
1401,1711442061535115836,2052,2052,2043,2050,2054,2052,1197
1402,1711442061545096095,2058,2057,2072,2061,2057,2058,1196
1403,1711442061555093529,2056,2056,2069,2053,2061,2058,1196
1404,1711442061565091382,2052,2052,2038,2061,2077,2054,1194
1405,1711442061575156013,2058,2061,2092,2052,2048,2057,1196
1406,1711442061585099142,2054,2052,2034,2052,2047,2055,1196
1407,1711442061595103287,2051,2050,2064,2054,2056,2052,1197
1408,1711442061605100870,2061,2060,2063,2061,2061,2056,1196
1409,1711442061615117228,2053,2064,2121,2060,2063,2051,1197
1410,1711442061625180086,2060,2056,2076,2058,2052,2052,1194
1411,1711442061635105701,2052,2052,2043,2056,2057,2052,1195
1412,1711442061645095268,2050,2048,2043,2064,2078,2054,1196
1413,1711442061655099013,2053,2051,2104,2056,2050,2050,1197
1414,1711442061665106525,2057,2056,2052,2056,2052,2054,1196
1415,1711442061675183940,2056,2053,2063,2052,2050,2049,1195
1416,1711442061685099526,2052,2048,2037,2059,2061,2053,1195
1417,1711442061695107418,2052,2052,2014,2052,2053,2052,1197
1418,1711442061705102025,2054,2052,2066,2048,2048,2050,1197
1419,1711442061715100159,2056,2054,2090,2058,2053,2053,1196
1420,1711442061725111999,2055,2056,2051,2064,2069,2056,1196
1421,1711442061735098060,2056,2052,2056,2056,2054,2056,1197
1422,1711442061745101544,2054,2046,2043,2058,2047,2053,1195
1423,1711442061755102142,2057,2064,2059,2056,2050,2053,1197
1424,1711442061765098152,2054,2050,2047,2054,2054,2055,1198
1425,1711442061775159237,2057,2064,2058,2056,2056,2052,1195
1426,1711442061785104229,2056,2055,2052,2064,2051,2055,1195
1427,1711442061795107983,2052,2055,2045,2068,2065,2051,1196
1428,1711442061805099274,2058,2054,2048,2057,2056,2053,1197
1429,1711442061815100043,2053,2056,2056,2052,2048,2052,1196
1430,1711442061825115560,2055,2050,2045,2061,2056,2057,1194
1431,1711442061835112150,2056,2053,2091,2051,2052,2052,1194
1432,1711442061845099443,2058,2056,2061,2062,2056,2056,1194
1433,1711442061855098960,2051,2045,2033,2048,2052,2052,1198
1434,1711442061865098658,2054,2056,2068,2052,2052,2052,1193
1435,1711442061875099767,2056,2055,2068,2060,2061,2056,1197
1436,1711442061885100696,2057,2055,2078,2057,2047,2056,1196
1437,1711442061895106104,2050,2045,2021,2050,2042,2050,1195
1438,1711442061905093888,2056,2053,2064,2062,2054,2054,1197
1439,1711442061915093825,2056,2061,2069,2051,2052,2052,1196
1440,1711442061925094865,2056,2048,2053,2059,2050,2052,1197
1441,1711442061935110712,2056,2053,2088,2061,2057,2056,1196
1442,1711442061945091212,2057,2056,2056,2056,2056,2054,1196
1443,1711442061955110677,2056,2062,2097,2053,2044,2051,1199
1444,1711442061965096958,2057,2053,2051,2057,2052,2055,1195
1445,1711442061975181397,2053,2051,2045,2051,2039,2050,1197
1446,1711442061985107363,2056,2056,2057,2056,2047,2056,1197
1447,1711442061995098152,2056,2046,2040,2049,2046,2050,1197
1448,1711442062005095303,2064,2064,2056,2064,2047,2056,1197
1449,1711442062015118916,2056,2054,2056,2052,2054,2053,1196
1450,1711442062025104375,2056,2053,2072,2056,2057,2056,1196
1451,1711442062035092129,2061,2058,2073,2051,2057,2054,1195
1452,1711442062045098459,2058,2064,2112,2070,2065,2058,1196
1453,1711442062055099197,2056,2048,2034,2048,2051,2053,1196
1454,1711442062065096689,2057,2052,2054,2050,2046,2052,1196
1455,1711442062075099902,2052,2052,2052,2054,2068,2056,1195
1456,1711442062085099870,2058,2051,2058,2061,2051,2056,1198
1457,1711442062095134804,2051,2042,2047,2052,2052,2052,1198
1458,1711442062105104614,2056,2056,2038,2056,2053,2056,1197
1459,1711442062115102878,2053,2046,2025,2047,2047,2052,1197
1460,1711442062125100380,2061,2065,2102,2064,2058,2056,1196
1461,1711442062135097141,2050,2043,2028,2055,2056,2056,1196
1462,1711442062145097800,2060,2064,2068,2059,2070,2057,1198
1463,1711442062155093689,2053,2051,2047,2050,2052,2054,1198
1464,1711442062165106019,2057,2054,2035,2055,2057,2056,1198
1465,1711442062175096729,2054,2064,2056,2052,2050,2050,1196
1466,1711442062185097908,2052,2052,2066,2056,2047,2051,1197
1467,1711442062195102895,2056,2053,2052,2056,2055,2053,1196
1468,1711442062205096220,2056,2051,2040,2056,2056,2051,1196
1469,1711442062215139981,2053,2055,2034,2062,2057,2054,1198
1470,1711442062225097297,2052,2048,2020,2049,2042,2053,1192
1471,1711442062235095471,2056,2049,2054,2052,2054,2051,1197
1472,1711442062245092743,2058,2052,2050,2059,2053,2052,1197
1473,1711442062255097038,2052,2050,2040,2053,2053,2053,1196
1474,1711442062265105871,2056,2056,2044,2065,2063,2057,1197
1475,1711442062275094898,2057,2064,2056,2052,2054,2052,1196
1476,1711442062285103772,2057,2047,2036,2060,2053,2050,1196
1477,1711442062295125261,2054,2056,2057,2053,2055,2052,1196
1478,1711442062305103256,2058,2056,2066,2056,2064,2052,1196
1479,1711442062315095669,2056,2052,2036,2060,2035,2048,1196
1480,1711442062325107018,2051,2045,2069,2053,2052,2052,1197
1481,1711442062335125090,2054,2050,2038,2053,2053,2052,1199
1482,1711442062345106582,2056,2056,2081,2057,2057,2054,1196
1483,1711442062355124343,2056,2060,2069,2056,2053,2056,1196
1484,1711442062365105644,2056,2056,2068,2057,2052,2051,1196
1485,1711442062375127282,2056,2056,2080,2057,2056,2056,1198
1486,1711442062385105959,2057,2052,2088,2065,2050,2056,1196
1487,1711442062395128078,2056,2056,2053,2047,2043,2052,1196
1488,1711442062405104440,2056,2058,2075,2057,2060,2055,1196
1489,1711442062415128935,2056,2054,2062,2052,2052,2054,1196
1490,1711442062425104215,2059,2063,2088,2068,2056,2059,1194
1491,1711442062435129360,2053,2047,2056,2049,2053,2052,1196
1492,1711442062445104510,2054,2052,2040,2056,2053,2053,1197
1493,1711442062455133673,2055,2050,2046,2047,2052,2052,1196
1494,1711442062465105076,2055,2053,2062,2064,2066,2056,1196
1495,1711442062475116515,2054,2047,2044,2054,2052,2054,1196
1496,1711442062485159454,2059,2073,2077,2071,2044,2057,1197
1497,1711442062495135004,2055,2064,2052,2053,2047,2052,1195
1498,1711442062505159579,2056,2053,2088,2060,2042,2056,1196
1499,1711442062515119018,2056,2053,2054,2056,2051,2053,1197
1500,1711442062525159984,2056,2057,2070,2057,2056,2057,1197
1501,1711442062535110917,2054,2048,2045,2051,2052,2052,1195
1502,1711442062545108240,2059,2057,2070,2061,2054,2057,1196
1503,1711442062555119779,2053,2050,2037,2048,2046,2048,1195
1504,1711442062565158771,2056,2057,2096,2053,2041,2053,1198
1505,1711442062575118471,2061,2057,2091,2059,2052,2056,1196
1506,1711442062585104711,2056,2054,2053,2062,2052,2054,1197
1507,1711442062595121631,2056,2046,2049,2048,2047,2052,1197
1508,1711442062605159000,2061,2064,2042,2056,2057,2056,1198
1509,1711442062615175539,2046,2061,2054,2061,2056,2052,1194
1510,1711442062625131662,2056,2049,2027,2054,2048,2054,1193
1511,1711442062635115098,2053,2049,2043,2044,2041,2053,1196
1512,1711442062645107571,2057,2053,2037,2064,2058,2056,1197
1513,1711442062655103360,2057,2056,2043,2052,2048,2052,1196
1514,1711442062665104740,2054,2062,2061,2058,2052,2053,1196
1515,1711442062675111390,2056,2060,2066,2048,2072,2058,1196
1516,1711442062685104825,2056,2046,2036,2056,2066,2056,1197
1517,1711442062695112616,2061,2072,2108,2061,2064,2057,1195
1518,1711442062705104328,2052,2052,2045,2058,2056,2053,1196
1519,1711442062715109335,2057,2060,2060,2047,2053,2052,1196
1520,1711442062725107308,2058,2057,2085,2064,2059,2057,1195
1521,1711442062735097857,2052,2047,2037,2051,2054,2052,1199
1522,1711442062745107323,2061,2069,2106,2064,2079,2056,1196
1523,1711442062755100717,2055,2053,2046,2051,2059,2056,1197
1524,1711442062765103911,2057,2053,2077,2059,2056,2053,1197
1525,1711442062775102956,2053,2045,2036,2056,2064,2052,1196
1526,1711442062785104226,2056,2054,2052,2054,2050,2047,1193
1527,1711442062795101738,2054,2056,2064,2050,2044,2052,1197
1528,1711442062805104611,2053,2044,2029,2047,2044,2048,1196
1529,1711442062815104728,2055,2050,2038,2047,2041,2050,1196
1530,1711442062825100437,2052,2051,2036,2053,2044,2052,1192
1531,1711442062835105975,2058,2057,2020,2072,2061,2057,1194
1532,1711442062845107606,2056,2052,2038,2060,2060,2054,1197
1533,1711442062855106501,2054,2056,2045,2053,2052,2054,1196
1534,1711442062865104675,2061,2060,2072,2062,2057,2054,1196
1535,1711442062875103891,2056,2045,2045,2052,2053,2052,1196
1536,1711442062885105271,2059,2056,2069,2057,2054,2054,1196
1537,1711442062895104777,2057,2055,2045,2064,2063,2055,1196
1538,1711442062905106066,2056,2052,2045,2058,2052,2052,1195
1539,1711442062915102907,2056,2060,2072,2050,2057,2056,1195
1540,1711442062925110329,2053,2049,2045,2060,2053,2054,1198
1541,1711442062935105086,2053,2057,2067,2042,2044,2051,1198
1542,1711442062945098150,2057,2056,2096,2062,2054,2054,1196
1543,1711442062955098368,2052,2053,2066,2056,2049,2051,1197
1544,1711442062965096431,2056,2047,2037,2052,2056,2053,1198
1545,1711442062975097220,2056,2073,2061,2058,2058,2052,1196
1546,1711442062985099332,2056,2048,2053,2052,2047,2055,1198
1547,1711442062995100010,2050,2047,2025,2052,2040,2045,1192
1548,1711442063005097101,2055,2056,2052,2056,2065,2056,1197
1549,1711442063015097800,2052,2046,2008,2058,2050,2052,1196
1550,1711442063025095332,2056,2056,2053,2057,2056,2056,1193
1551,1711442063035100389,2052,2056,2049,2053,2038,2050,1196
1552,1711442063045094796,2052,2050,2033,2056,2054,2053,1196
1553,1711442063055093840,2061,2064,2049,2074,2064,2055,1199
1554,1711442063065094730,2056,2051,2031,2059,2056,2056,1196
1555,1711442063075103263,2056,2059,2089,2068,2062,2050,1195
1556,1711442063085109993,2055,2053,2054,2056,2048,2052,1195
1557,1711442063095098378,2058,2058,2047,2054,2069,2056,1196
1558,1711442063105095379,2056,2051,2019,2058,2052,2056,1193
1559,1711442063115092922,2054,2052,2040,2052,2076,2055,1194
1560,1711442063125106044,2056,2061,2075,2059,2060,2056,1198
1561,1711442063135086374,2056,2064,2095,2060,2056,2052,1198
1562,1711442063145090749,2056,2044,2037,2063,2066,2054,1195
1563,1711442063155086668,2058,2065,2064,2051,2043,2056,1196
1564,1711442063165089841,2056,2047,2041,2052,2048,2056,1197
1565,1711442063175088356,2055,2054,2044,2053,2049,2053,1197
1566,1711442063185090727,2053,2052,2040,2054,2057,2056,1196
1567,1711442063195094511,2056,2056,2067,2056,2053,2056,1197
1568,1711442063205088958,2053,2050,2049,2056,2052,2054,1196
1569,1711442063215092322,2058,2056,2090,2056,2056,2054,1197
1570,1711442063225109763,2056,2065,2051,2056,2056,2052,1195
1571,1711442063235098738,2049,2044,2039,2052,2052,2049,1195
1572,1711442063245094557,2054,2056,2071,2054,2052,2052,1196
1573,1711442063255098602,2054,2054,2060,2058,2051,2053,1196
1574,1711442063265087819,2056,2064,2114,2064,2051,2054,1197
1575,1711442063275088467,2057,2052,2046,2064,2058,2053,1195
1576,1711442063285088514,2056,2050,2049,2061,2061,2054,1199
1577,1711442063295092809,2047,2047,2060,2053,2052,2050,1198
1578,1711442063305089100,2056,2047,2051,2056,2041,2051,1196
1579,1711442063315088887,2050,2043,2046,2052,2056,2057,1196
1580,1711442063325095415,2058,2065,2069,2064,2045,2053,1196
1581,1711442063335138996,2054,2051,2056,2062,2072,2056,1198
1582,1711442063345081684,2053,2052,2034,2053,2052,2052,1197
1583,1711442063355089286,2058,2065,2054,2053,2056,2058,1195
1584,1711442063365087279,2059,2064,2082,2056,2056,2058,1195
1585,1711442063375093207,2056,2054,2044,2051,2049,2055,1196
1586,1711442063385114786,2058,2060,2080,2057,2058,2057,1196
1587,1711442063395122808,2057,2056,2024,2061,2056,2058,1196
1588,1711442063405103519,2056,2062,2032,2052,2043,2051,1195
1589,1711442063415125798,2052,2052,2044,2052,2053,2053,1196
1590,1711442063425104694,2055,2050,2021,2053,2052,2051,1197
1591,1711442063435085385,2065,2082,2111,2067,2056,2058,1195
1592,1711442063445110580,2060,2055,2047,2057,2054,2056,1195
1593,1711442063455124875,2057,2053,2044,2058,2047,2054,1196
1594,1711442063465103851,2056,2056,2047,2054,2052,2050,1197
1595,1711442063475123115,2064,2068,2124,2060,2045,2056,1193
1596,1711442063485103826,2056,2052,2062,2058,2048,2054,1196
1597,1711442063495090628,2052,2049,2053,2050,2040,2050,1194
1598,1711442063505092638,2056,2045,2028,2056,2053,2053,1197
1599,1711442063515123414,2056,2056,2048,2045,2053,2052,1194
1600,1711442063525089797,2060,2065,2062,2055,2056,2053,1198
1601,1711442063535121876,2052,2047,2044,2051,2056,2050,1197
1602,1711442063545108207,2059,2059,2060,2065,2077,2058,1196
1603,1711442063555088486,2057,2055,2056,2050,2047,2052,1197
1604,1711442063565086209,2053,2052,2061,2047,2046,2048,1197
1605,1711442063575089803,2055,2053,2059,2056,2057,2056,1197
1606,1711442063585106142,2056,2056,2048,2058,2056,2055,1195
1607,1711442063595086671,2053,2061,2059,2054,2052,2051,1195
1608,1711442063605107468,2057,2058,2082,2072,2066,2053,1193
1609,1711442063615089010,2055,2058,2056,2056,2057,2051,1196
1610,1711442063625110618,2051,2052,2058,2058,2056,2053,1195
1611,1711442063635127367,2056,2059,2076,2054,2048,2054,1196
1612,1711442063645115461,2057,2057,2064,2058,2054,2056,1195
1613,1711442063655111712,2052,2046,2022,2046,2046,2053,1197
1614,1711442063665103042,2057,2064,2060,2068,2061,2057,1196
1615,1711442063675110304,2052,2044,2037,2054,2053,2053,1197
1616,1711442063685075182,2057,2044,2024,2061,2055,2055,1196
1617,1711442063695109966,2056,2049,2031,2052,2044,2052,1196
1618,1711442063705091428,2058,2057,2043,2056,2056,2055,1195
1619,1711442063715114800,2056,2052,2037,2053,2049,2052,1196
1620,1711442063725089970,2056,2053,2050,2049,2054,2054,1198
1621,1711442063735107199,2056,2056,2076,2052,2040,2048,1199
1622,1711442063745106766,2058,2056,2059,2056,2054,2052,1198
1623,1711442063755112905,2052,2044,2036,2056,2080,2056,1198
1624,1711442063765104947,2058,2053,2040,2052,2058,2058,1198
1625,1711442063775111336,2057,2060,2096,2058,2062,2055,1194
1626,1711442063785117625,2059,2072,2094,2058,2068,2054,1197
1627,1711442063795109838,2056,2051,2081,2054,2054,2050,1196
1628,1711442063805104114,2058,2058,2078,2062,2059,2057,1196
1629,1711442063815109772,2056,2058,2046,2057,2050,2054,1197
1630,1711442063825084550,2056,2057,2066,2056,2051,2053,1193
1631,1711442063835084838,2056,2052,2047,2052,2064,2056,1197
1632,1711442063845105745,2054,2050,2041,2047,2052,2056,1197
1633,1711442063855111945,2060,2065,2084,2053,2041,2050,1194
1634,1711442063865086312,2058,2058,2069,2060,2056,2056,1194
1635,1711442063875094785,2053,2041,2041,2049,2052,2052,1196
1636,1711442063885109260,2056,2049,2052,2052,2056,2056,1197
1637,1711442063895108306,2054,2054,2072,2052,2052,2057,1198
1638,1711442063905106119,2058,2064,2040,2060,2059,2056,1196
1639,1711442063915091658,2052,2050,2028,2060,2055,2052,1195
1640,1711442063925091615,2054,2052,2043,2059,2048,2054,1196
1641,1711442063935483152,2056,2058,2072,2056,2056,2053,1198
1642,1711442063945104645,2056,2051,2048,2049,2056,2057,1197
1643,1711442063955115421,2054,2050,2045,2052,2051,2052,1198
1644,1711442063965105520,2056,2060,2054,2052,2054,2053,1197
1645,1711442063975110567,2054,2051,2038,2048,2049,2056,1197
1646,1711442063985106306,2056,2053,2042,2054,2052,2054,1197
1647,1711442063995107937,2057,2048,2044,2057,2054,2054,1197
1648,1711442064005106690,2053,2051,2049,2073,2122,2062,1196
1649,1711442064015112559,2052,2045,2028,2051,2049,2051,1197
1650,1711442064025105603,2059,2064,2056,2057,2047,2058,1195
1651,1711442064035126549,2054,2054,2069,2043,2047,2052,1197
1652,1711442064045093023,2057,2060,2085,2060,2056,2053,1196
1653,1711442064055108469,2053,2049,2040,2057,2058,2053,1197
1654,1711442064065101392,2057,2052,2023,2052,2051,2052,1197
1655,1711442064075100277,2056,2053,2052,2054,2068,2056,1197
1656,1711442064085099403,2055,2054,2059,2056,2068,2057,1197
1657,1711442064095104018,2054,2069,2091,2051,2045,2050,1196
1658,1711442064105066944,2058,2056,2088,2059,2051,2052,1198
1659,1711442064115102159,2056,2057,2043,2056,2054,2056,1194
1660,1711442064125105652,2056,2054,2056,2066,2047,2050,1196
1661,1711442064135108385,2057,2066,2060,2067,2044,2050,1199
1662,1711442064145110355,2056,2048,2047,2052,2052,2054,1195
1663,1711442064155103589,2054,2056,2064,2054,2070,2055,1196
1664,1711442064165106843,2054,2057,2082,2053,2052,2055,1199
1665,1711442064175096800,2052,2058,2116,2056,2046,2051,1200
1666,1711442064185106235,2059,2056,2060,2056,2056,2057,1197
1667,1711442064195091534,2056,2056,2056,2056,2057,2056,1199
1668,1711442064205089046,2056,2052,2038,2067,2060,2050,1198
1669,1711442064215104603,2052,2057,2056,2059,2056,2056,1197
1670,1711442064225091195,2056,2049,2065,2048,2040,2052,1195
1671,1711442064235090199,2059,2064,2030,2073,2058,2059,1195
1672,1711442064245107750,2052,2039,2011,2047,2054,2054,1194
1673,1711442064255110443,2056,2052,2045,2051,2056,2054,1196
1674,1711442064265089709,2058,2056,2058,2058,2058,2054,1196
1675,1711442064275093293,2056,2052,2047,2056,2072,2053,1197
1676,1711442064285088962,2050,2046,2033,2048,2049,2050,1197
1677,1711442064295086875,2056,2058,2083,2051,2050,2052,1195
1678,1711442064305093725,2052,2056,2040,2056,2047,2056,1196
1679,1711442064315095215,2053,2047,2062,2047,2043,2050,1198
1680,1711442064325095773,2057,2053,2047,2061,2081,2057,1197
1681,1711442064335094618,2060,2057,2064,2056,2052,2052,1197
1682,1711442064345090688,2052,2049,2040,2050,2057,2054,1195
1683,1711442064355100763,2058,2069,2088,2066,2043,2053,1196
1684,1711442064365088477,2056,2055,2050,2058,2057,2057,1196
1685,1711442064375080939,2051,2050,2035,2056,2050,2053,1198
1686,1711442064385089573,2057,2056,2068,2054,2053,2052,1197
1687,1711442064395088588,2053,2057,2040,2054,2052,2052,1197
1688,1711442064405108372,2054,2052,2041,2053,2050,2054,1196
1689,1711442064415084955,2056,2048,2046,2055,2049,2056,1197
1690,1711442064425091855,2057,2060,2048,2060,2057,2056,1195
1691,1711442064435092242,2057,2054,2076,2060,2053,2056,1197
1692,1711442064445089394,2057,2052,2048,2053,2050,2052,1197
1693,1711442064455100793,2056,2062,2069,2054,2052,2054,1199
1694,1711442064465095179,2058,2054,2081,2056,2058,2056,1196
1695,1711442064475093403,2054,2058,2067,2055,2053,2053,1200
1696,1711442064485088781,2058,2055,2049,2071,2088,2061,1198
1697,1711442064495085010,2053,2053,2069,2070,2065,2054,1197
1698,1711442064505087763,2052,2056,2044,2051,2079,2056,1195
1699,1711442064515088001,2055,2056,2082,2045,2050,2056,1197
1700,1711442064525091424,2054,2053,2060,2060,2077,2056,1197
1701,1711442064535090930,2056,2055,2059,2056,2054,2052,1197
1702,1711442064545088873,2066,2074,2114,2070,2069,2058,1197
1703,1711442064555089611,2053,2047,2022,2056,2055,2055,1199
1704,1711442064565088697,2060,2062,2077,2059,2058,2056,1197
1705,1711442064575081129,2056,2052,2050,2051,2042,2050,1198
1706,1711442064585082518,2061,2065,2090,2064,2056,2057,1196
1707,1711442064595105820,2055,2057,2046,2052,2047,2053,1197
1708,1711442064605079787,2057,2047,2056,2062,2060,2052,1195
1709,1711442064615086026,2049,2046,2010,2052,2049,2052,1195
1710,1711442064625090402,2057,2058,2066,2057,2057,2056,1195
1711,1711442064635091330,2052,2048,2048,2057,2052,2052,1197
1712,1711442064645087951,2058,2054,2046,2060,2056,2054,1196
1713,1711442064655092807,2052,2040,1988,2051,2049,2054,1196
1714,1711442064665091732,2060,2072,2064,2058,2058,2060,1196
1715,1711442064675090316,2056,2061,2085,2060,2056,2055,1196
1716,1711442064685088039,2056,2047,2068,2050,2040,2053,1196
1717,1711442064695085821,2057,2065,2041,2056,2042,2052,1198
1718,1711442064705085297,2052,2044,2029,2061,2061,2052,1197
1719,1711442064715096146,2057,2064,2091,2055,2056,2053,1196
1720,1711442064725100530,2060,2066,2084,2060,2057,2057,1197
1721,1711442064735096470,2053,2052,2038,2067,2058,2053,1196
1722,1711442064745088702,2059,2056,2059,2057,2060,2055,1196
1723,1711442064755094890,2052,2050,2041,2058,2058,2054,1197
1724,1711442064765108664,2060,2063,2049,2061,2060,2056,1197
1725,1711442064775110505,2053,2055,2032,2056,2052,2053,1197
1726,1711442064785090573,2062,2060,2080,2063,2066,2056,1197
1727,1711442064795091422,2052,2050,2068,2049,2048,2052,1198
1728,1711442064805111899,2058,2060,2089,2060,2056,2056,1196
1729,1711442064815097107,2056,2057,2074,2060,2055,2054,1197
1730,1711442064825095501,2057,2057,2065,2058,2056,2053,1195
1731,1711442064835086701,2053,2052,2054,2072,2065,2053,1197
1732,1711442064845088231,2055,2053,2048,2060,2054,2056,1196
1733,1711442064855089530,2053,2056,2074,2055,2053,2054,1197
1734,1711442064865089436,2056,2046,2031,2057,2042,2052,1198
1735,1711442064875090466,2051,2048,2031,2051,2042,2054,1195
1736,1711442064885094651,2056,2049,2044,2053,2053,2052,1198
1737,1711442064895095749,2056,2053,2056,2052,2037,2052,1196
1738,1711442064905106057,2053,2050,2038,2052,2052,2052,1195
1739,1711442064915086026,2056,2056,2039,2062,2060,2053,1195
1740,1711442064925096051,2056,2047,2040,2054,2053,2051,1196
1741,1711442064935110336,2056,2060,2079,2060,2053,2056,1198
1742,1711442064945097328,2060,2057,2052,2053,2052,2052,1196
1743,1711442064955110299,2054,2049,1977,2058,2057,2056,1195
1744,1711442064965095458,2058,2056,2073,2059,2057,2054,1196
1745,1711442064975089073,2058,2065,2089,2058,2046,2053,1196
1746,1711442064985092406,2053,2056,2062,2057,2047,2053,1198
1747,1711442064995078767,2056,2051,2047,2052,2053,2054,1195
1748,1711442065005106928,2056,2056,2053,2064,2057,2050,1196
1749,1711442065015111954,2056,2051,2029,2060,2056,2053,1196
1750,1711442065025106892,2051,2045,2030,2053,2051,2053,1195
1751,1711442065035103522,2057,2057,2070,2058,2056,2054,1194
1752,1711442065045086286,2057,2058,2050,2056,2056,2056,1195
1753,1711442065055121901,2057,2061,2064,2056,2056,2055,1197
1754,1711442065065113492,2058,2055,2086,2057,2045,2056,1196
1755,1711442065075123207,2059,2056,2061,2050,2046,2056,1197
1756,1711442065085106362,2060,2070,2090,2066,2080,2059,1196
1757,1711442065095086169,2055,2058,2081,2056,2052,2055,1195
1758,1711442065105089653,2058,2056,2041,2056,2054,2052,1196
1759,1711442065115111251,2054,2052,2045,2052,2049,2053,1197
1760,1711442065125110256,2056,2052,2044,2060,2056,2054,1197
1761,1711442065135089574,2060,2068,2080,2062,2056,2054,1200
1762,1711442065145088979,2056,2046,2060,2056,2056,2056,1196
1763,1711442065155089517,2056,2047,2040,2049,2052,2054,1197
1764,1711442065165106637,2064,2068,2065,2056,2046,2054,1196
1765,1711442065175089861,2056,2053,2077,2060,2058,2056,1197
1766,1711442065185095619,2052,2049,2086,2053,2050,2056,1197
1767,1711442065195086870,2053,2050,2045,2059,2052,2053,1198
1768,1711442065205095472,2059,2072,2089,2055,2053,2052,1197
1769,1711442065215086352,2053,2057,2048,2053,2050,2054,1197
1770,1711442065225095696,2055,2053,2040,2056,2056,2053,1194
1771,1711442065235104721,2055,2060,2052,2064,2058,2057,1196
1772,1711442065245091191,2057,2057,2064,2056,2061,2057,1196
1773,1711442065255086319,2054,2050,2054,2056,2052,2052,1197
1774,1711442065265087548,2056,2053,2058,2056,2056,2053,1196
1775,1711442065275150516,2053,2050,2021,2053,2041,2052,1196
1776,1711442065285095306,2056,2055,2068,2050,2049,2052,1196
1777,1711442065295099472,2056,2052,2071,2057,2052,2054,1196
1778,1711442065305100219,2054,2051,2047,2053,2054,2053,1197
1779,1711442065315095237,2050,2045,2032,2049,2049,2052,1195
1780,1711442065325095434,2056,2049,2041,2052,2056,2056,1197
1781,1711442065335090842,2057,2064,2094,2056,2053,2054,1197
1782,1711442065345087353,2054,2053,2040,2048,2052,2053,1197
1783,1711442065355099062,2056,2052,2044,2058,2050,2057,1197
1784,1711442065365122484,2051,2045,2025,2050,2050,2053,1197
1785,1711442065375102482,2060,2076,2067,2062,2059,2053,1197
1786,1711442065385114793,2056,2059,2064,2052,2052,2056,1196
1787,1711442065395081135,2060,2060,2030,2052,2052,2057,1197
1788,1711442065405081062,2057,2057,2064,2052,2053,2052,1196
1789,1711442065415080287,2052,2045,2021,2051,2045,2051,1196
1790,1711442065425082218,2053,2051,2055,2054,2054,2050,1197
1791,1711442065435097463,2056,2064,2062,2065,2052,2052,1195
1792,1711442065445086550,2052,2049,2056,2057,2052,2051,1195
1793,1711442065455084682,2062,2061,2088,2066,2058,2060,1195
1794,1711442065465085281,2052,2056,2028,2065,2057,2050,1195
1795,1711442065475083323,2053,2047,2036,2050,2044,2052,1193
1796,1711442065485109761,2056,2056,2056,2057,2052,2052,1197
1797,1711442065495079881,2057,2055,2040,2056,2052,2056,1195
1798,1711442065505086540,2053,2054,2065,2056,2054,2054,1195
1799,1711442065515087309,2056,2052,2041,2056,2064,2050,1196
1800,1711442065525090882,2056,2052,2055,2053,2064,2054,1198
1801,1711442065535098023,2049,2047,2036,2053,2056,2053,1196
1802,1711442065545083752,2054,2046,2040,2062,2061,2056,1197
1803,1711442065555095962,2056,2056,2093,2062,2056,2054,1196
1804,1711442065565091671,2057,2057,2066,2054,2053,2050,1198
1805,1711442065575088051,2053,2047,2040,2046,2046,2050,1197
1806,1711442065585090773,2054,2052,2050,2055,2046,2050,1196
1807,1711442065595091091,2056,2050,2040,2059,2041,2053,1196
1808,1711442065605089163,2056,2054,2042,2056,2066,2053,1197
1809,1711442065615087107,2056,2059,2068,2062,2035,2050,1198
1810,1711442065625107993,2056,2056,2036,2056,2051,2054,1194
1811,1711442065635104604,2053,2033,2020,2054,2047,2049,1197
1812,1711442065645098779,2055,2058,2053,2052,2053,2056,1196
1813,1711442065655089809,2056,2057,2063,2056,2053,2053,1196
1814,1711442065665084034,2056,2058,2060,2058,2056,2053,1197
1815,1711442065675085494,2055,2059,2057,2056,2052,2054,1196
1816,1711442065685112893,2053,2044,2032,2047,2044,2050,1196
1817,1711442065695081019,2052,2046,2024,2061,2052,2053,1194
1818,1711442065705086426,2054,2050,2032,2036,2049,2052,1196
1819,1711442065715084991,2050,2041,2061,2058,2051,2054,1196
1820,1711442065725110878,2057,2044,2021,2061,2054,2054,1195
1821,1711442065735098240,2057,2049,2055,2052,2054,2052,1198
1822,1711442065745102345,2056,2052,2060,2052,2053,2053,1196
1823,1711442065755085339,2052,2048,2040,2049,2048,2049,1197
1824,1711442065765088221,2056,2056,2086,2050,2050,2051,1198
1825,1711442065775098417,2054,2047,2017,2060,2072,2056,1200
1826,1711442065785086582,2054,2052,2042,2055,2052,2057,1197
1827,1711442065795084705,2056,2056,2045,2058,2052,2054,1196
1828,1711442065805084932,2054,2052,2058,2052,2055,2057,1195
1829,1711442065815089247,2056,2064,2056,2055,2056,2056,1197
1830,1711442065825087771,2052,2044,2024,2053,2056,2053,1196
1831,1711442065835096264,2052,2047,2035,2053,2068,2050,1196
1832,1711442065845092805,2056,2056,2080,2049,2046,2051,1196
1833,1711442065855086759,2051,2051,2064,2050,2048,2053,1195
1834,1711442065865085404,2057,2056,2061,2056,2049,2056,1194
1835,1711442065875085711,2054,2048,2060,2056,2047,2052,1196
1836,1711442065885092912,2054,2050,2043,2043,2036,2048,1198
1837,1711442065895094442,2060,2077,2086,2058,2052,2056,1196
1838,1711442065905086163,2052,2051,2048,2056,2054,2052,1196
1839,1711442065915085037,2056,2051,2000,2057,2046,2051,1194
1840,1711442065925084593,2054,2049,2029,2049,2049,2048,1195
1841,1711442065935100902,2056,2059,2110,2071,2057,2055,1198
1842,1711442065945095878,2056,2050,2040,2050,2047,2054,1195
1843,1711442065955089353,2058,2062,2090,2060,2052,2053,1197
1844,1711442065965084640,2056,2053,2056,2047,2049,2057,1196
1845,1711442065975085830,2058,2063,2085,2057,2055,2056,1196
1846,1711442065985083201,2056,2054,2056,2054,2050,2052,1196
1847,1711442065995091855,2058,2056,2060,2063,2052,2055,1196
1848,1711442066005091130,2054,2055,2056,2056,2052,2053,1195
1849,1711442066015085757,2054,2054,2057,2060,2035,2056,1195
1850,1711442066025083609,2053,2063,2065,2060,2061,2053,1194
1851,1711442066035081953,2053,2046,2039,2066,2057,2053,1194
1852,1711442066045084845,2054,2051,2036,2052,2056,2050,1196
1853,1711442066055086936,2053,2052,2040,2056,2053,2056,1197
1854,1711442066065087093,2052,2041,2020,2050,2056,2052,1195
1855,1711442066075087681,2056,2056,2088,2056,2049,2054,1195
1856,1711442066085082227,2056,2058,2076,2053,2053,2056,1195
1857,1711442066095086612,2054,2048,2046,2052,2056,2057,1197
1858,1711442066105090736,2056,2063,2054,2052,2056,2055,1194
1859,1711442066115089842,2054,2052,2062,2052,2036,2049,1197
1860,1711442066125096371,2054,2052,2045,2056,2054,2050,1194
1861,1711442066135096267,2056,2052,2062,2059,2052,2052,1197
1862,1711442066145088269,2056,2056,2060,2055,2053,2053,1194
1863,1711442066155092102,2057,2057,2069,2064,2060,2056,1197
1864,1711442066165093292,2053,2050,2044,2048,2050,2052,1198
1865,1711442066175093268,2057,2060,2069,2052,2047,2058,1195
1866,1711442066185109236,2057,2058,2081,2052,2053,2053,1197
1867,1711442066195095736,2059,2077,2068,2058,2050,2056,1197
1868,1711442066205096133,2053,2050,2053,2052,2056,2051,1197
1869,1711442066215099427,2058,2069,2058,2068,2076,2060,1196
1870,1711442066225105695,2056,2055,2054,2052,2052,2050,1195
1871,1711442066235108017,2056,2056,2054,2056,2052,2053,1196
1872,1711442066245090159,2060,2052,2050,2052,2052,2050,1197
1873,1711442066255102960,2056,2047,2036,2049,2050,2052,1196
1874,1711442066265104991,2056,2059,2096,2056,2051,2053,1195
1875,1711442066275104597,2056,2050,2029,2056,2040,2054,1196
1876,1711442066285109073,2051,2044,2033,2036,2056,2055,1194
1877,1711442066295102386,2055,2049,2075,2057,2050,2050,1197
1878,1711442066305106530,2052,2050,2034,2056,2059,2053,1195
1879,1711442066315108010,2049,2044,2033,2055,2057,2051,1197
1880,1711442066325104951,2054,2050,2035,2052,2046,2049,1195
1881,1711442066335118864,2056,2057,2095,2058,2056,2053,1197
1882,1711442066345087882,2057,2063,2083,2051,2049,2054,1197
1883,1711442066355108878,2054,2053,2036,2053,2047,2052,1194
1884,1711442066365091693,2056,2059,2013,2050,2050,2052,1196
1885,1711442066375091328,2052,2043,2041,2045,2041,2049,1196
1886,1711442066385183352,2056,2064,2040,2060,2046,2053,1195
1887,1711442066395091171,2056,2052,2052,2056,2051,2054,1197
1888,1711442066405107589,2057,2053,2049,2056,2056,2055,1197
1889,1711442066415093620,2058,2064,2062,2054,2054,2054,1197
1890,1711442066425093876,2052,2043,2064,2050,2054,2049,1193
1891,1711442066435117218,2051,2055,2032,2052,2047,2047,1193
1892,1711442066445092638,2052,2053,2013,2060,2058,2050,1196
1893,1711442066455097133,2057,2058,2027,2052,2040,2052,1195
1894,1711442066465093974,2060,2054,2056,2056,2053,2055,1196
1895,1711442066475093108,2053,2053,2043,2060,2061,2056,1195
1896,1711442066485108826,2054,2055,2072,2052,2070,2051,1194
1897,1711442066495095186,2056,2049,2042,2061,2052,2054,1195
1898,1711442066505091415,2057,2072,2114,2060,2053,2055,1196
1899,1711442066515095560,2056,2053,2081,2056,2056,2057,1195
1900,1711442066525096328,2055,2052,2027,2049,2057,2053,1197
1901,1711442066535132414,2056,2053,2048,2058,2045,2052,1197
1902,1711442066545089969,2056,2058,2050,2050,2055,2052,1196
1903,1711442066555095637,2053,2046,2030,2043,2044,2051,1198
1904,1711442066565095093,2054,2056,2067,2054,2043,2053,1197
1905,1711442066575096161,2052,2046,2027,2057,2056,2051,1196
1906,1711442066585094235,2055,2050,2057,2051,2052,2055,1197
1907,1711442066595092488,2056,2062,2045,2071,2057,2056,1196
1908,1711442066605088566,2054,2053,2072,2059,2072,2052,1197
1909,1711442066615094004,2053,2050,2025,2052,2059,2055,1196
1910,1711442066625084903,2054,2053,2056,2055,2052,2054,1194
1911,1711442066635132090,2058,2060,2072,2057,2055,2055,1196
1912,1711442066645087211,2054,2054,2062,2043,2048,2054,1196
1913,1711442066655092177,2056,2053,2036,2060,2050,2053,1193
1914,1711442066665084539,2057,2074,2048,2055,2059,2055,1196
1915,1711442066675121236,2061,2072,2148,2064,2053,2056,1196
1916,1711442066685104982,2054,2046,2027,2048,2053,2053,1196
1917,1711442066695089799,2056,2056,2051,2059,2057,2052,1195
1918,1711442066705086349,2056,2053,2060,2054,2056,2056,1198
1919,1711442066715088330,2053,2050,2034,2056,2052,2054,1195
1920,1711442066725085090,2056,2053,2036,2052,2047,2054,1200
1921,1711442066735082192,2056,2056,2064,2048,2056,2058,1200
1922,1711442066745090885,2056,2066,2069,2064,2065,2056,1195
1923,1711442066755087535,2053,2049,2031,2053,2051,2052,1197
1924,1711442066765086761,2061,2070,2116,2059,2058,2056,1197
1925,1711442066775091346,2056,2047,2040,2054,2049,2049,1197
1926,1711442066785085522,2057,2054,2073,2057,2054,2053,1196
1927,1711442066795087943,2056,2051,2052,2056,2052,2056,1195
1928,1711442066805084793,2056,2063,2045,2057,2052,2056,1197
1929,1711442066815088918,2059,2053,2081,2061,2060,2056,1196
1930,1711442066825086480,2054,2049,2040,2053,2054,2053,1194
1931,1711442066835081037,2058,2061,2064,2055,2047,2051,1197
1932,1711442066845090150,2056,2046,2040,2048,2055,2052,1195
1933,1711442066855089897,2057,2063,2049,2058,2056,2059,1196
1934,1711442066865088320,2056,2049,2052,2053,2056,2053,1198
1935,1711442066875086734,2056,2059,2017,2072,2064,2056,1196
1936,1711442066885088534,2055,2048,2019,2049,2050,2054,1195
1937,1711442066895093400,2052,2052,2060,2050,2069,2056,1196
1938,1711442066905084960,2057,2058,2093,2061,2056,2053,1197
1939,1711442066915087572,2056,2058,2096,2062,2060,2059,1195
1940,1711442066925113138,2056,2055,2040,2056,2052,2052,1196
1941,1711442066935091283,2055,2057,2069,2058,2050,2056,1197
1942,1711442066945087622,2053,2054,2057,2052,2052,2051,1195
1943,1711442066955089683,2051,2050,2042,2051,2045,2052,1195
1944,1711442066965079641,2053,2051,2061,2053,2053,2052,1194
1945,1711442066975085789,2056,2066,2058,2062,2053,2054,1196
1946,1711442066985090645,2056,2053,2078,2060,2064,2054,1196
1947,1711442066995091022,2054,2060,2077,2057,2053,2055,1195
1948,1711442067005089065,2056,2054,2043,2060,2052,2052,1196
1949,1711442067015090595,2056,2056,2036,2056,2054,2054,1196
1950,1711442067025106672,2057,2061,2091,2061,2066,2056,1194
1951,1711442067035093222,2053,2056,2056,2065,2052,2054,1196
1952,1711442067045094041,2056,2054,2022,2053,2047,2054,1196
1953,1711442067055093236,2055,2042,2010,2046,2047,2051,1197
1954,1711442067065089395,2056,2064,2078,2056,2058,2052,1197
1955,1711442067075108408,2054,2042,2026,2054,2046,2052,1196
1956,1711442067085085561,2058,2064,2072,2054,2053,2054,1196
1957,1711442067095089335,2056,2059,2061,2056,2050,2052,1196
1958,1711442067105097176,2052,2052,2045,2052,2050,2052,1195
1959,1711442067115097203,2053,2057,2077,2074,2086,2058,1195
1960,1711442067125095957,2054,2052,2059,2049,2056,2050,1196
1961,1711442067135119078,2059,2059,2045,2064,2050,2053,1198
1962,1711442067145113614,2056,2051,2040,2056,2057,2052,1197
1963,1711442067155101037,2060,2064,2047,2066,2054,2056,1196
1964,1711442067165097977,2060,2063,2091,2063,2058,2059,1196
1965,1711442067175099807,2056,2054,2060,2056,2045,2053,1195
1966,1711442067185120653,2056,2058,2084,2049,2044,2049,1197
1967,1711442067195100322,2053,2042,2038,2058,2050,2053,1197
1968,1711442067205084257,2059,2057,2057,2054,2058,2052,1195
1969,1711442067215102348,2056,2059,2094,2058,2052,2052,1196
1970,1711442067225106163,2056,2045,2025,2048,2056,2047,1192
1971,1711442067235104195,2055,2051,2044,2052,2038,2051,1195
1972,1711442067245109361,2053,2044,2040,2049,2060,2055,1195
1973,1711442067255090752,2054,2047,2036,2056,2045,2049,1197
1974,1711442067265090679,2056,2054,2043,2052,2047,2054,1195
1975,1711442067275098390,2056,2042,2045,2056,2052,2052,1196
1976,1711442067285092525,2060,2067,2082,2062,2058,2054,1195
1977,1711442067295109735,2058,2056,2060,2052,2048,2053,1197
1978,1711442067305106726,2056,2052,2040,2054,2056,2056,1197
1979,1711442067315096643,2058,2060,2038,2060,2057,2056,1196
1980,1711442067325108201,2058,2058,2088,2060,2070,2057,1197
1981,1711442067335082820,2056,2056,2073,2064,2052,2052,1198
1982,1711442067345090751,2058,2063,2088,2059,2058,2054,1196
1983,1711442067355085327,2056,2058,2071,2066,2053,2056,1195
1984,1711442067365085183,2055,2062,2056,2050,2057,2054,1197
1985,1711442067375086773,2056,2058,2093,2056,2062,2051,1196
1986,1711442067385095015,2054,2057,2084,2066,2057,2052,1196
1987,1711442067395094240,2059,2058,2057,2056,2060,2057,1197
1988,1711442067405085851,2056,2052,2057,2063,2049,2055,1197
1989,1711442067415087451,2055,2052,2028,2058,2057,2052,1196
1990,1711442067425100853,2059,2057,2073,2056,2052,2053,1194
1991,1711442067435099948,2053,2050,2052,2058,2052,2052,1195
1992,1711442067445088052,2053,2053,2056,2056,2056,2052,1195
1993,1711442067455086836,2056,2056,2081,2052,2064,2056,1194
1994,1711442067465088044,2056,2059,2088,2056,2054,2055,1195
1995,1711442067475113189,2056,2060,2044,2062,2059,2056,1194
1996,1711442067485099490,2057,2057,2084,2047,2042,2050,1196
1997,1711442067495084507,2056,2053,2066,2050,2053,2058,1197
1998,1711442067505083401,2057,2061,2047,2061,2058,2058,1196
1999,1711442067515083729,2062,2060,2078,2064,2054,2056,1197
2000,1711442067525111008,2056,2054,2035,2053,2056,2052,1197
2001,1711442067535085676,2052,2053,2033,2057,2069,2056,1197
2002,1711442067545090160,2055,2046,2015,2052,2065,2054,1199
2003,1711442067555088645,2057,2049,2037,2052,2041,2054,1197
2004,1711442067565085405,2056,2048,2037,2054,2048,2054,1198
2005,1711442067575094709,2058,2065,2095,2065,2029,2049,1195
2006,1711442067585093905,2056,2050,2055,2057,2059,2053,1197
2007,1711442067595089974,2059,2056,2060,2054,2050,2053,1195
2008,1711442067605087235,2052,2054,2053,2053,2055,2052,1194
2009,1711442067615085799,2056,2049,2053,2056,2048,2052,1195
2010,1711442067625105714,2052,2062,2046,2056,2045,2049,1196
2011,1711442067635092114,2054,2048,2041,2056,2049,2054,1194
2012,1711442067645091298,2056,2052,2061,2058,2080,2056,1196
2013,1711442067655089762,2056,2053,2083,2064,2053,2056,1197
2014,1711442067665087936,2057,2062,2056,2051,2043,2050,1193
2015,1711442067675103632,2058,2061,2061,2057,2052,2056,1197
2016,1711442067685101023,2059,2062,2129,2063,2057,2057,1195
2017,1711442067695084448,2056,2051,2053,2051,2056,2059,1197
2018,1711442067705094464,2056,2054,2081,2058,2050,2053,1195
2019,1711442067715088549,2050,2053,2030,2054,2044,2048,1196
2020,1711442067725108894,2052,2053,2039,2056,2072,2054,1197
2021,1711442067735084475,2056,2054,2043,2054,2050,2056,1197
2022,1711442067745109890,2056,2056,2077,2057,2065,2053,1194
2023,1711442067755087503,2057,2057,2033,2054,2053,2053,1197
2024,1711442067765085276,2054,2050,2038,2047,2052,2053,1198
2025,1711442067775093779,2058,2056,2056,2059,2046,2053,1195
2026,1711442067785084848,2057,2056,2072,2054,2044,2052,1197
2027,1711442067795089974,2061,2067,2096,2058,2056,2056,1193
2028,1711442067805087286,2057,2052,2068,2052,2060,2051,1198
2029,1711442067815086000,2053,2050,2063,2057,2050,2054,1197
2030,1711442067825095214,2056,2053,2048,2051,2053,2056,1196
2031,1711442067835064311,2060,2056,2088,2059,2061,2056,1197
2032,1711442067845090729,2056,2056,2056,2058,2057,2053,1198
2033,1711442067855088751,2058,2058,2071,2055,2049,2052,1196
2034,1711442067865085832,2056,2062,2079,2049,2068,2052,1195
2035,1711442067875087752,2057,2055,2073,2058,2036,2056,1196
2036,1711442067885086867,2064,2080,2057,2058,2056,2057,1196
2037,1711442067895097103,2052,2045,2057,2052,2050,2049,1196
2038,1711442067905091429,2054,2058,2083,2037,2044,2050,1197
2039,1711442067915087579,2056,2051,2049,2059,2051,2051,1194
2040,1711442067925097804,2056,2057,2066,2059,2056,2056,1196
2041,1711442067935094585,2056,2053,2032,2055,2046,2053,1198
2042,1711442067945083170,2056,2051,2032,2051,2068,2052,1197
2043,1711442067955084759,2056,2048,2023,2066,2050,2055,1197
2044,1711442067965082281,2054,2054,2047,2053,2059,2054,1197
2045,1711442067975090042,2052,2052,2041,2047,2039,2053,1196
2046,1711442067985089388,2052,2052,2088,2056,2038,2049,1197
2047,1711442067995102159,2057,2056,2041,2056,2053,2052,1197
2048,1711442068005081736,2057,2060,2086,2066,2061,2056,1196
2049,1711442068015088035,2058,2060,2072,2057,2056,2054,1195
2050,1711442068025088943,2057,2057,2047,2054,2048,2052,1194
2051,1711442068035095031,2054,2053,2067,2056,2054,2057,1195
2052,1711442068045093064,2056,2052,2049,2051,2056,2050,1196
2053,1711442068055089062,2056,2059,2082,2069,2072,2057,1196
2054,1711442068065086043,2053,2047,2029,2054,2056,2052,1196
2055,1711442068075094204,2056,2052,2070,2060,2052,2057,1196
2056,1711442068085089151,2056,2071,2071,2060,2056,2053,1197
2057,1711442068095091973,2053,2044,2029,2051,2040,2052,1194
2058,1711442068105090467,2055,2052,2047,2047,2049,2052,1196
2059,1711442068115087167,2056,2052,2036,2052,2050,2053,1198
2060,1711442068125088566,2053,2053,2061,2055,2048,2052,1196
2061,1711442068135087861,2056,2047,2034,2056,2048,2053,1197
2062,1711442068145092446,2052,2053,2064,2054,2057,2052,1196
2063,1711442068155087674,2060,2059,2025,2064,2053,2053,1198
2064,1711442068165091217,2054,2052,2020,2050,2056,2052,1196
2065,1711442068175083829,2058,2060,2094,2059,2051,2056,1198
2066,1711442068185109665,2053,2064,2069,2052,2053,2054,1198
2067,1711442068195092899,2053,2058,2048,2057,2050,2054,1199
2068,1711442068205084078,2059,2066,2083,2074,2066,2057,1196
2069,1711442068215086981,2056,2049,2044,2058,2067,2056,1196
2070,1711442068225089603,2056,2054,2043,2053,2056,2053,1196
2071,1711442068235090200,2053,2056,2072,2056,2051,2052,1193
2072,1711442068245091649,2056,2055,2030,2054,2053,2053,1197
2073,1711442068255093288,2052,2042,2013,2047,2045,2051,1197
2074,1711442068265090249,2059,2061,2072,2053,2046,2053,1195
2075,1711442068275091147,2056,2051,2040,2068,2049,2053,1196
2076,1711442068285108467,2054,2047,2023,2058,2050,2051,1196
2077,1711442068295087283,2056,2055,2039,2054,2053,2056,1198
2078,1711442068305095565,2058,2068,2076,2061,2058,2058,1195
2079,1711442068315095351,2054,2054,2037,2060,2070,2051,1195
2080,1711442068325093474,2054,2050,2024,2050,2053,2048,1196
2081,1711442068335126002,2053,2053,2044,2047,2045,2055,1197
2082,1711442068345093125,2052,2048,2056,2050,2047,2049,1197
2083,1711442068355106748,2057,2051,2049,2060,2057,2056,1197
2084,1711442068365095283,2053,2044,1994,2050,2053,2050,1195
2085,1711442068375095910,2056,2061,2058,2078,2064,2056,1197
2086,1711442068385109052,2057,2055,2068,2056,2061,2052,1196
2087,1711442068395107225,2054,2051,2044,2058,2040,2052,1196
2088,1711442068405095919,2057,2060,2057,2054,2049,2052,1198
2089,1711442068415098010,2055,2053,2069,2063,2041,2049,1195
2090,1711442068425097847,2057,2058,2066,2052,2056,2052,1194
2091,1711442068435094677,2053,2045,2051,2058,2057,2056,1197
2092,1711442068445094913,2056,2052,2037,2049,2050,2049,1194
2093,1711442068455096663,2057,2056,2032,2046,2064,2056,1195
2094,1711442068465098914,2056,2065,2092,2058,2041,2052,1195
2095,1711442068475100684,2056,2056,2040,2053,2046,2055,1194
2096,1711442068485108796,2056,2058,2077,2057,2054,2052,1196
2097,1711442068495099414,2058,2059,2042,2064,2045,2054,1195
2098,1711442068505075294,2052,2046,2042,2044,2052,2051,1196
2099,1711442068515083977,2058,2056,2052,2069,2057,2052,1195
2100,1711442068525085096,2056,2056,2050,2045,2052,2053,1197
2101,1711442068535083830,2052,2050,2039,2053,2047,2052,1197
2102,1711442068545078697,2056,2052,2047,2053,2056,2054,1198
2103,1711442068555089754,2059,2066,2051,2059,2062,2052,1198
2104,1711442068565087847,2056,2047,2056,2043,2043,2049,1197
2105,1711442068575086681,2061,2066,2109,2058,2052,2058,1197
2106,1711442068585108459,2059,2062,2074,2049,2052,2056,1195
2107,1711442068595083918,2061,2066,2100,2067,2045,2055,1196
2108,1711442068605087561,2054,2047,2034,2057,2088,2054,1196
2109,1711442068615085955,2061,2072,2106,2064,2054,2057,1198
2110,1711442068625089178,2052,2052,2034,2044,2047,2052,1196
2111,1711442068635112118,2053,2049,2041,2050,2050,2052,1195
2112,1711442068645080694,2052,2053,2042,2048,2054,2052,1197
2113,1711442068655088886,2053,2060,2056,2054,2051,2054,1196
2114,1711442068665086859,2053,2045,2031,2049,2052,2051,1197
2115,1711442068675087857,2054,2052,2049,2064,2076,2056,1196
2116,1711442068685108053,2057,2052,2064,2052,2050,2052,1196
2117,1711442068695097609,2056,2051,2042,2055,2043,2056,1196
2118,1711442068705089059,2057,2046,2037,2050,2056,2053,1197
2119,1711442068715087572,2058,2057,2012,2053,2049,2052,1196
2120,1711442068725106585,2056,2060,2036,2057,2058,2056,1196
2121,1711442068735087906,2054,2056,2047,2047,2047,2053,1195
2122,1711442068745091309,2052,2046,2045,2040,2040,2049,1196
2123,1711442068755082509,2061,2058,2093,2047,2047,2057,1198
2124,1711442068765081192,2060,2076,2124,2061,2054,2057,1194
2125,1711442068775083032,2052,2043,2026,2053,2053,2056,1196
2126,1711442068785088799,2053,2052,2040,2048,2050,2053,1194
2127,1711442068795089498,2056,2050,2052,2064,2079,2056,1196
2128,1711442068805087531,2057,2064,2090,2054,2052,2053,1197
2129,1711442068815085823,2056,2052,2054,2060,2057,2056,1196
2130,1711442068825108623,2049,2043,2012,2052,2047,2052,1194
2131,1711442068835089353,2057,2052,2041,2057,2054,2056,1197
2132,1711442068845088097,2051,2050,2031,2050,2055,2050,1195
2133,1711442068855089736,2051,2048,2065,2052,2051,2056,1197
2134,1711442068865088219,2053,2068,2065,2056,2056,2053,1197
2135,1711442068875094208,2056,2054,2075,2056,2051,2056,1197
2136,1711442068885091379,2053,2066,2079,2052,2052,2052,1195
2137,1711442068895094341,2052,2045,2025,2051,2052,2051,1197
2138,1711442068905090259,2052,2051,2059,2052,2052,2053,1197
2139,1711442068915091869,2054,2054,2047,2063,2075,2057,1195
2140,1711442068925106543,2052,2047,2024,2052,2048,2053,1196
2141,1711442068935090309,2052,2039,2014,2048,2056,2053,1195
2142,1711442068945079625,2056,2072,2062,2047,2045,2049,1195
2143,1711442068955090953,2054,2053,2064,2057,2052,2056,1198
2144,1711442068965095348,2057,2052,2034,2056,2072,2055,1197
2145,1711442068975097037,2056,2054,2046,2052,2048,2055,1197
2146,1711442068985093466,2053,2054,2088,2051,2056,2056,1196
2147,1711442068995089977,2056,2047,2037,2052,2050,2052,1197
2148,1711442069005091296,2060,2079,2180,2066,2064,2056,1197
2149,1711442069015087194,2049,2046,2032,2050,2069,2049,1198
2150,1711442069025107119,2057,2064,2088,2053,2057,2049,1194
2151,1711442069035088529,2056,2053,2045,2052,2052,2054,1195
2152,1711442069045092794,2053,2051,2045,2053,2058,2056,1196
2153,1711442069055087840,2053,2043,2030,2057,2059,2056,1196
2154,1711442069065088257,2054,2050,2046,2045,2053,2051,1196
2155,1711442069075096479,2053,2046,2032,2053,2043,2052,1195
2156,1711442069085082439,2056,2051,2058,2052,2052,2053,1196
2157,1711442069095093045,2057,2060,2075,2059,2042,2057,1196
2158,1711442069105092841,2053,2057,2019,2060,2054,2055,1196
2159,1711442069115086666,2052,2045,2010,2053,2051,2051,1198
2160,1711442069125096471,2053,2047,2025,2043,2044,2050,1197
2161,1711442069135146122,2053,2053,2045,2049,2047,2053,1197
2162,1711442069145081915,2058,2049,2037,2053,2052,2051,1198
2163,1711442069155090077,2058,2060,2049,2058,2055,2051,1196
2164,1711442069165093400,2050,2043,2033,2046,2052,2050,1195
2165,1711442069175089128,2058,2064,2117,2070,2065,2058,1197
2166,1711442069185110184,2051,2042,2031,2043,2051,2052,1196
2167,1711442069195111092,2056,2056,2067,2054,2049,2056,1195
2168,1711442069205086692,2056,2053,2020,2060,2056,2057,1198
2169,1711442069215090165,2056,2046,2040,2056,2052,2052,1196
2170,1711442069225091283,2058,2072,2079,2058,2057,2053,1193
2171,1711442069235106719,2053,2045,2026,2056,2052,2054,1195
2172,1711442069245088170,2062,2064,2080,2076,2059,2056,1197
2173,1711442069255088297,2054,2048,2032,2065,2057,2050,1194
2174,1711442069265090797,2053,2051,2039,2052,2051,2052,1195
2175,1711442069275092116,2057,2067,2098,2068,2059,2056,1197
2176,1711442069285105879,2057,2057,2034,2052,2044,2047,1194
2177,1711442069295099774,2053,2050,2031,2049,2057,2051,1196
2178,1711442069305091443,2058,2073,2086,2049,2064,2052,1196
2179,1711442069315097331,2056,2061,2012,2059,2054,2055,1195
2180,1711442069325110043,2056,2049,2050,2052,2057,2054,1196
2181,1711442069335130858,2054,2053,2037,2050,2047,2053,1195
2182,1711442069345095828,2056,2052,2056,2052,2053,2056,1195
2183,1711442069355097026,2054,2043,2034,2041,2056,2054,1197
2184,1711442069365102553,2056,2066,2100,2049,2054,2053,1196
2185,1711442069375101216,2056,2058,2072,2062,2058,2057,1195
2186,1711442069385106122,2051,2057,2061,2058,2056,2054,1197
2187,1711442069395092503,2052,2050,2045,2057,2050,2052,1196
2188,1711442069405099973,2054,2046,2024,2028,2047,2050,1195
2189,1711442069415105280,2057,2061,2056,2060,2052,2056,1197
2190,1711442069425109283,2058,2068,2085,2059,2056,2052,1195
2191,1711442069435083701,2050,2035,2010,2050,2050,2049,1197
2192,1711442069445099487,2052,2047,2056,2050,2054,2052,1196
2193,1711442069455083553,2053,2057,2064,2058,2044,2056,1194
2194,1711442069465082257,2051,2048,2031,2054,2053,2056,1196
2195,1711442069475085158,2054,2059,2074,2049,2046,2050,1196
2196,1711442069485083542,2052,2045,2036,2050,2053,2049,1195
2197,1711442069495115188,2050,2045,2028,2057,2072,2052,1198
2198,1711442069505069868,2053,2056,2075,2055,2066,2056,1194
2199,1711442069515086316,2055,2052,2054,2060,2053,2053,1195
2200,1711442069525093205,2059,2064,2084,2059,2056,2056,1196
2201,1711442069535109593,2052,2043,1997,2053,2047,2052,1195
2202,1711442069545092646,2057,2065,2052,2057,2053,2055,1196
2203,1711442069555086471,2054,2046,2032,2051,2049,2054,1194
2204,1711442069565080746,2052,2055,2049,2053,2052,2049,1196
2205,1711442069575080201,2057,2056,2049,2059,2053,2054,1196
2206,1711442069585108101,2057,2053,2053,2052,2042,2051,1197
2207,1711442069595118698,2052,2053,2045,2058,2042,2054,1197
2208,1711442069605089157,2052,2045,2028,2056,2047,2052,1195
2209,1711442069615092050,2056,2041,2005,2043,2033,2049,1194
2210,1711442069625096754,2065,2074,2115,2066,2060,2058,1194
2211,1711442069635168939,2056,2054,2056,2058,2053,2055,1195
2212,1711442069645094933,2056,2057,2072,2058,2056,2056,1196
