seq,time,data[0],data[1],data[2],data[3],data[4],data[5],data[6]
201,1711003117317173299,2050,2046,2025,2055,2081,2048,1196
202,1711003117327170852,2054,2054,2048,2049,2015,2057,1196
203,1711003117337176460,2058,2056,2024,2052,2056,2031,1193
204,1711003117347201757,2057,2069,2123,2053,2004,2056,1198
205,1711003117357174523,2054,2045,2010,2052,2065,2030,1192
206,1711003117367180011,2058,2056,2088,2049,2018,2050,1196
207,1711003117377174588,2051,2042,2024,2062,2080,2046,1193
208,1711003117387177822,2054,2048,2070,2052,2020,2052,1193
209,1711003117397173332,2053,2053,2042,2065,2136,2044,1192
210,1711003117407175875,2050,2040,2033,2040,1990,2052,1196
211,1711003117417172867,2060,2061,2038,2062,2064,2052,1197
212,1711003117427174137,2052,2038,2068,2054,2022,2057,1196
213,1711003117437173044,2062,2066,2088,2062,2068,2052,1195
214,1711003117447175275,2052,2056,2077,2056,2070,2060,1195
215,1711003117457176666,2059,2048,2006,2065,2110,2060,1196
216,1711003117467173888,2056,2052,2054,2043,2082,2056,1192
217,1711003117477172454,2065,2061,2019,2068,2073,2057,1195
218,1711003117487174656,2053,2056,2058,2062,2053,2056,1196
219,1711003117497175926,2052,2040,2000,2049,2074,2049,1197
220,1711003117507181414,2058,2055,2077,2061,2025,2059,1195
221,1711003117517174068,2065,2082,2073,2063,2086,2056,1196
222,1711003117527174247,2048,2044,2064,2047,2028,2052,1195
223,1711003117537173904,2056,2053,2030,2060,2070,2049,1195
224,1711003117547172469,2060,2056,2065,2040,1978,2063,1196
225,1711003117557174561,2057,2056,2034,2062,2070,2044,1195
226,1711003117567169620,2057,2047,2046,2057,2049,2062,1196
227,1711003117577172934,2061,2062,2068,2074,2098,2064,1196
228,1711003117587176187,2058,2053,2084,2056,2018,2059,1194
229,1711003117597179322,2056,2042,2004,2053,2086,2050,1197
230,1711003117607174030,2051,2046,2068,2055,2031,2056,1197
231,1711003117617172635,2056,2062,2056,2062,2089,2048,1196
232,1711003117627185948,2054,2047,2056,2056,2043,2056,1196
233,1711003117637181978,2050,2046,2020,2040,2074,2047,1196
234,1711003117647176576,2052,2047,2061,2041,2036,2060,1196
235,1711003117657177325,2054,2053,2040,2049,2108,2047,1193
236,1711003117667174217,2056,2046,2057,2053,2017,2056,1196
237,1711003117677176940,2052,2052,2010,2059,2076,2043,1192
238,1711003117687169454,2043,2040,2024,2040,2019,2060,1197
239,1711003117697185813,2062,2060,2058,2068,2078,2049,1197
240,1711003117707178918,2060,2072,2112,2060,2056,2068,1196
241,1711003117717175379,2052,2054,2052,2070,2104,2056,1195
242,1711003117727188923,2057,2064,2061,2064,1988,2064,1196
243,1711003117737179262,2065,2072,2077,2074,2099,2059,1197
244,1711003117747175062,2052,2041,2046,2038,2022,2052,1197
245,1711003117757178827,2056,2066,2057,2062,2082,2053,1198
246,1711003117767175419,2049,2040,2041,2057,2062,2058,1197
247,1711003117777182300,2060,2050,2010,2060,2082,2052,1197
248,1711003117787175013,2056,2055,2078,2060,2024,2053,1195
249,1711003117797177787,2056,2053,2020,2060,2100,2054,1197
250,1711003117807176883,2056,2064,2068,2052,2026,2058,1197
251,1711003117817175669,2056,2056,2023,2061,2092,2052,1197
252,1711003117827186227,2052,2052,2096,2051,2026,2056,1197
253,1711003117837181947,2054,2045,2016,2043,2074,2053,1196
254,1711003117847174460,2055,2043,2052,2040,2033,2064,1195
255,1711003117857175690,2061,2056,2011,2050,2058,2051,1196
256,1711003117867175638,2056,2050,2071,2050,2018,2056,1197
257,1711003117877176577,2056,2053,2036,2048,2088,2036,1194
258,1711003117887170274,2050,2041,2034,2060,2022,2059,1195
259,1711003117897173117,2056,2056,2024,2056,2088,2049,1198
260,1711003117907176862,2059,2065,2080,2059,2037,2057,1196
261,1711003117917174024,2060,2061,2052,2063,2072,2056,1195
262,1711003117927204832,2054,2056,2068,2064,2056,2068,1196
263,1711003117937175543,2064,2070,2079,2081,2093,2059,1198
264,1711003117947177425,2056,2049,2065,2048,2002,2049,1198
265,1711003117957175489,2058,2043,2009,2072,2131,2046,1196
266,1711003117967186308,2056,2043,2059,2049,2018,2057,1197
267,1711003117977163823,2057,2059,2056,2066,2109,2040,1193
268,1711003117987175913,2048,2047,2054,2042,2010,2057,1194
269,1711003117997177805,2062,2076,2069,2075,2076,2050,1197
270,1711003118007175308,2051,2047,2046,2042,2020,2056,1195
271,1711003118017178492,2052,2062,2037,2048,2078,2044,1193
272,1711003118027181325,2054,2053,2077,2065,2036,2050,1196
273,1711003118037181643,2054,2050,2029,2065,2064,2044,1194
274,1711003118047175229,2053,2052,2046,2045,2012,2052,1195
275,1711003118057172952,2056,2045,2008,2056,2087,2049,1195
276,1711003118067182037,2043,2035,2041,2038,2013,2046,1193
277,1711003118077173809,2063,2079,2122,2057,2056,2058,1198
278,1711003118087124944,2052,2054,2108,2045,2010,2052,1194
279,1711003118097175277,2066,2068,2072,2057,2079,2054,1195
280,1711003118107174814,2053,2050,2054,2060,2029,2058,1195
281,1711003118117174060,2080,2080,2056,2058,2073,2053,1197
282,1711003118127182093,2056,2057,2094,2050,2001,2056,1193
283,1711003118137177342,2056,2059,2057,2086,2099,2060,1197
284,1711003118147174374,2044,2036,2031,2056,2054,2054,1199
285,1711003118157175854,2059,2066,2046,2064,2088,2050,1196
286,1711003118167205048,2056,2072,2077,2043,2035,2060,1197
287,1711003118177170119,2071,2077,2120,2076,2121,2065,1194
288,1711003118187172631,2051,2055,2058,2064,2086,2057,1193
289,1711003118197175485,2062,2059,2035,2050,2068,2048,1196
290,1711003118207172656,2061,2081,2156,2064,2066,2062,1195
291,1711003118217132317,2050,2043,2027,2053,2080,2049,1196
292,1711003118227175477,2056,2048,2040,2054,2035,2053,1197
293,1711003118237177529,2057,2047,1997,2052,2079,2047,1193
294,1711003118247177307,2058,2063,2108,2056,2028,2056,1196
295,1711003118257217641,2072,2094,2208,2080,2093,2062,1196
296,1711003118267204033,2052,2044,2064,2051,2058,2056,1195
297,1711003118277212176,2060,2076,2065,2062,2101,2056,1198
298,1711003118287201594,2056,2057,2091,2060,2037,2067,1195
299,1711003118297219936,2060,2056,2028,2058,2064,2050,1199
300,1711003118307207861,2056,2058,2120,2060,2030,2053,1197
301,1711003118317158184,2048,2033,1992,2050,2106,2050,1196
302,1711003118327204089,2050,2056,2063,2033,2001,2037,1194
303,1711003118337220859,2058,2062,2036,2053,2080,2056,1197
304,1711003118347201860,2049,2046,2051,2048,1990,2060,1194
305,1711003118357229981,2061,2077,2138,2073,2087,2046,1195
306,1711003118367201895,2057,2060,2064,2057,2026,2062,1196
307,1711003118377221571,2058,2044,2000,2062,2072,2045,1192
308,1711003118387200959,2056,2050,2077,2058,2029,2060,1195
309,1711003118397229962,2054,2058,2049,2060,2084,2046,1195
310,1711003118407202748,2068,2081,2094,2068,2072,2068,1195
311,1711003118417211292,2061,2057,2020,2066,2096,2049,1196
312,1711003118427165241,2051,2041,2040,2048,2024,2060,1196
313,1711003118437206699,2066,2064,2033,2068,2095,2057,1197
314,1711003118447166038,2060,2069,2088,2056,2014,2057,1197
315,1711003118457206784,2060,2057,1996,2058,2080,2050,1196
316,1711003118467253852,2056,2058,2105,2064,2018,2054,1195
317,1711003118477165250,2055,2049,2017,2059,2083,2056,1196
318,1711003118487202229,2058,2056,2076,2053,2044,2060,1200
319,1711003118497204170,2053,2057,2042,2056,2085,2049,1200
320,1711003118507201984,2054,2064,2096,2051,2047,2057,1198
321,1711003118517204406,2058,2058,2016,2056,2074,2046,1194
322,1711003118527200366,2049,2046,2049,2069,2032,2056,1196
323,1711003118537205353,2060,2064,2022,2068,2095,2051,1197
324,1711003118547201814,2051,2041,2058,2039,1989,2057,1196
325,1711003118557212933,2062,2074,2108,2066,2065,2054,1196
326,1711003118567201759,2044,2060,2080,2053,2080,2053,1193
327,1711003118577203750,2058,2056,2077,2052,2073,2052,1196
328,1711003118587202656,2053,2048,2068,2045,2026,2052,1193
329,1711003118597203866,2053,2058,2047,2049,2062,2040,1193
330,1711003118607207300,2053,2051,2045,2046,2011,2050,1195
331,1711003118617200885,2063,2069,2064,2056,2077,2056,1194
332,1711003118627207406,2052,2048,2068,2039,2030,2052,1196
333,1711003118637200771,2061,2056,2024,2057,2075,2052,1195
334,1711003118647201520,2054,2047,2054,2040,2035,2054,1195
335,1711003118657193442,2063,2074,2104,2060,2076,2064,1194
336,1711003118667197878,2060,2052,2068,2051,2026,2053,1196
337,1711003118677201834,2065,2073,2076,2060,2064,2048,1197
338,1711003118687200409,2058,2050,2034,2066,2048,2065,1196
339,1711003118697199494,2061,2061,2081,2056,2060,2040,1196
340,1711003118707202258,2047,2049,2080,2048,2044,2056,1197
341,1711003118717198157,2052,2028,2005,2048,2056,2052,1196
342,1711003118727197384,2056,2053,2054,2052,2019,2056,1194
343,1711003118737199976,2065,2068,2054,2051,2047,2042,1194
344,1711003118747202659,2050,2044,2031,2043,2032,2055,1195
345,1711003118757192868,2057,2051,2020,2049,2069,2046,1193
346,1711003118767192194,2050,2050,2069,2040,1996,2058,1195
347,1711003118777199757,2056,2054,2036,2051,2059,2048,1194
348,1711003118787193793,2051,2043,2018,2041,2016,2053,1193
349,1711003118797194341,2058,2065,2066,2054,2053,2057,1196
350,1711003118807197615,2050,2050,2039,2049,1993,2049,1197
351,1711003118817193285,2057,2054,2044,2066,2132,2058,1196
352,1711003118827192862,2054,2042,2048,2050,2028,2056,1195
353,1711003118837193290,2060,2057,2040,2059,2088,2056,1196
354,1711003118847204229,2048,2040,2014,2056,2065,2047,1194
355,1711003118857187855,2055,2048,2017,2046,2060,2053,1196
356,1711003118867193313,2052,2050,2027,2049,2016,2049,1195
357,1711003118877190305,2057,2049,2006,2057,2076,2042,1193
358,1711003118887189992,2050,2057,2102,2057,2031,2056,1197
359,1711003118897201462,2056,2053,2057,2050,2080,2056,1196
360,1711003118907192453,2053,2056,2068,2073,2038,2051,1197
361,1711003118917183503,2057,2056,2065,2065,2076,2047,1193
362,1711003118927188771,2044,2040,2029,2036,2005,2057,1194
363,1711003118937189319,2060,2064,2076,2068,2080,2055,1196
364,1711003118947188506,2053,2049,2057,2040,2024,2060,1194
365,1711003118957188023,2053,2052,2025,2050,2057,2046,1194
366,1711003118967189693,2053,2048,2064,2033,2041,2051,1195
367,1711003118977185964,2062,2052,2016,2060,2089,2062,1197
368,1711003118987186132,2059,2057,2104,2052,2013,2056,1195
369,1711003118997185709,2064,2074,2108,2066,2084,2056,1198
370,1711003119007183562,2051,2043,2057,2042,2013,2052,1194
371,1711003119017187528,2049,2052,2043,2054,2068,2046,1193
372,1711003119027184018,2057,2068,2130,2045,2030,2057,1194
373,1711003119037194846,2056,2053,2024,2052,2042,2049,1195
374,1711003119047201205,2056,2059,2064,2064,2035,2056,1196
375,1711003119057184110,2064,2077,2073,2066,2068,2050,1196
376,1711003119067187334,2050,2044,2076,2048,2013,2050,1196
377,1711003119077187642,2052,2056,2066,2066,2081,2053,1195
378,1711003119087185326,2052,2053,2110,2069,2050,2064,1197
379,1711003119097197586,2057,2060,2064,2064,2037,2050,1197
380,1711003119107180290,2056,2054,2064,2065,2042,2057,1196
381,1711003119117186089,2057,2053,2039,2052,2096,2053,1194
382,1711003119127186487,2052,2042,2043,2037,2013,2060,1195
383,1711003119137185934,2057,2061,2040,2065,2077,2053,1194
384,1711003119147578431,2055,2045,2025,2061,2016,2054,1196
385,1711003119157190848,2052,2040,2013,2056,2092,2048,1196
386,1711003119167188512,2053,2050,2072,2044,1966,2039,1193
387,1711003119177181555,2061,2070,2102,2066,2084,2056,1196
388,1711003119187181302,2053,2046,2046,2041,2028,2058,1195
389,1711003119197180308,2060,2051,1989,2056,2112,2063,1195
390,1711003119207180917,2045,2037,2022,2049,2022,2051,1196
391,1711003119217189511,2048,2047,2019,2068,2092,2048,1196
392,1711003119227187224,2056,2047,2065,2050,2040,2049,1196
393,1711003119237186830,2052,2049,2019,2051,2085,2049,1196
394,1711003119247182459,2053,2048,2054,2036,1998,2056,1197
395,1711003119257201052,2065,2074,2098,2066,2081,2060,1195
396,1711003119267181843,2053,2065,2063,2054,2033,2053,1195
397,1711003119277187131,2060,2064,2055,2064,2073,2049,1196
398,1711003119287186477,2053,2066,2123,2066,2035,2058,1197
399,1711003119297187526,2058,2052,2046,2066,2090,2056,1196
400,1711003119307197262,2048,2056,2108,2044,2050,2043,1193
401,1711003119317189084,2057,2062,2044,2059,2110,2053,1195
402,1711003119327186336,2047,2040,2077,2079,2045,2055,1197
403,1711003119337189099,2052,2040,1996,2052,2076,2050,1197
404,1711003119347186081,2056,2065,2122,2068,2017,2061,1195
405,1711003119357190677,2052,2044,2002,2064,2096,2050,1196
406,1711003119367197248,2051,2057,2076,2061,2033,2057,1196
407,1711003119377191333,2059,2061,2035,2060,2036,2049,1197
408,1711003119387192463,2053,2043,2057,2064,2055,2056,1194
409,1711003119397213360,2047,2035,1963,2046,2086,2049,1194
410,1711003119407188851,2052,2044,2040,2040,2017,2053,1196
411,1711003119417194800,2048,2036,2039,2052,2088,2050,1197
412,1711003119427194988,2051,2042,2050,2045,2024,2047,1194
413,1711003119437185277,2054,2049,2024,2061,2074,2041,1192
414,1711003119447199100,2052,2045,2074,2057,2063,2056,1195
415,1711003119457212904,2058,2063,2105,2063,2080,2051,1194
416,1711003119467212721,2049,2042,2045,2044,2021,2044,1194
417,1711003119477202159,2057,2067,2069,2067,2073,2046,1194
418,1711003119487199131,2060,2054,2080,2060,2044,2060,1198
419,1711003119497201422,2062,2073,2139,2073,2084,2058,1196
420,1711003119507201399,2052,2049,2062,2047,2018,2056,1196
421,1711003119517199503,2064,2061,2043,2065,2112,2048,1195
422,1711003119527200763,2061,2054,2043,2057,2030,2061,1195
423,1711003119537183358,2060,2051,2062,2068,2083,2056,1196
424,1711003119547199726,2053,2056,2089,2050,2034,2056,1195
425,1711003119557186067,2064,2066,2056,2063,2091,2054,1195
426,1711003119567186916,2056,2057,2066,2059,2040,2054,1196
427,1711003119577191984,2060,2068,2068,2090,2045,2054,1196
428,1711003119587207340,2052,2048,2047,2046,2008,2044,1192
429,1711003119597188993,2058,2064,2042,2061,2084,2060,1197
430,1711003119607218377,2060,2054,2052,2049,2040,2053,1197
431,1711003119617188417,2062,2070,2096,2060,2066,2055,1196
432,1711003119627187473,2052,2067,2136,2077,2054,2053,1196
433,1711003119637190275,2058,2046,2023,2072,2137,2053,1194
434,1711003119647183299,2056,2049,2034,2044,2042,2059,1195
435,1711003119657186152,2053,2047,2022,2053,2054,2044,1192
436,1711003119667181772,2052,2050,2088,2041,2027,2050,1196
437,1711003119677185446,2053,2054,2047,2058,2077,2051,1193
438,1711003119687185764,2054,2047,2069,2049,2026,2056,1198
439,1711003119697182826,2057,2062,2044,2063,2076,2058,1198
440,1711003119707186901,2056,2050,2066,2063,2046,2058,1199
441,1711003119717186728,2057,2053,2031,2050,2068,2052,1195
442,1711003119727184942,2062,2072,2174,2073,2030,2057,1197
443,1711003119737199448,2050,2048,2015,2047,2070,2056,1197
444,1711003119747186460,2053,2047,2046,2054,2033,2064,1195
445,1711003119757197118,2048,2040,2031,2055,2066,2050,1196
446,1711003119767186725,2052,2041,2031,2043,2025,2053,1195
447,1711003119777185080,2053,2047,2019,2049,2073,2052,1195
448,1711003119787183484,2047,2045,2040,2044,2033,2043,1192
449,1711003119797188161,2060,2075,2099,2076,2112,2056,1195
450,1711003119807185373,2055,2057,2070,2049,2024,2056,1195
451,1711003119817184799,2055,2056,2035,2066,2036,2047,1193
452,1711003119827184948,2056,2064,2136,2068,2048,2060,1198
453,1711003119837185786,2056,2049,2024,2060,2093,2055,1196
454,1711003119847196173,2059,2069,2049,2055,2032,2057,1195
455,1711003119857188646,2058,2052,1999,2057,2061,2049,1196
456,1711003119867186019,2054,2057,2092,2053,2035,2052,1196
457,1711003119877183031,2053,2051,2008,2073,2073,2040,1194
458,1711003119887191845,2052,2041,2042,2047,2034,2055,1197
459,1711003119897239604,2052,2050,2049,2048,2037,2051,1196
460,1711003119907188223,2056,2056,2098,2062,2006,2058,1197
461,1711003119917183742,2060,2065,2064,2064,2101,2054,1196
462,1711003119927184711,2053,2073,2138,2056,2032,2054,1197
463,1711003119937183376,2057,2053,2028,2059,2070,2055,1196
464,1711003119947185939,2047,2043,2044,2037,1979,2041,1193
465,1711003119957214140,2056,2056,2048,2057,2070,2054,1197
466,1711003119967180463,2051,2049,2053,2057,2001,2057,1196
467,1711003119977182354,2044,2040,2007,2049,2053,2042,1194
468,1711003119987201268,2050,2044,2038,2056,2050,2061,1196
469,1711003119997211695,2061,2061,2062,2066,2086,2052,1196
470,1711003120007181655,2061,2060,2108,2050,2032,2056,1196
471,1711003120017180661,2056,2058,2028,2041,2072,2042,1193
472,1711003120027163805,2051,2052,2055,2046,1998,2046,1194
473,1711003120037188099,2054,2047,2008,2056,2064,2047,1194
474,1711003120047204918,2049,2040,2058,2040,2042,2053,1195
475,1711003120057206549,2055,2045,2031,2056,2082,2060,1196
476,1711003120067200755,2052,2047,2060,2057,2043,2060,1196
477,1711003120077204510,2059,2060,2069,2072,2097,2056,1195
478,1711003120087207282,2052,2052,2083,2048,2033,2059,1196
479,1711003120097208121,2058,2066,2017,2056,2061,2051,1196
480,1711003120107201074,2046,2037,2057,2060,2052,2056,1196
481,1711003120117207464,2062,2063,2006,2060,2057,2058,1195
482,1711003120127201250,2061,2061,2079,2057,2036,2059,1194
483,1711003120137207589,2053,2052,2056,2061,2072,2049,1196
484,1711003120147203218,2058,2048,2030,2050,2017,2044,1192
485,1711003120157213765,2066,2061,2037,2061,2101,2066,1194
486,1711003120167203072,2046,2036,2041,2049,2061,2046,1193
487,1711003120177208900,2062,2071,2074,2056,2026,2056,1195
488,1711003120187203468,2054,2045,2069,2051,2037,2049,1194
489,1711003120197201751,2056,2046,2035,2052,2067,2057,1196
490,1711003120207202430,2053,2059,2061,2065,2044,2058,1195
491,1711003120217202858,2058,2066,2081,2056,2067,2052,1195
492,1711003120227201673,2053,2046,2054,2033,2021,2051,1198
493,1711003120237202231,2056,2040,1990,2049,2074,2056,1197
494,1711003120247204292,2055,2049,2034,2059,2045,2056,1195
495,1711003120257200121,2059,2058,2065,2069,2095,2056,1196
496,1711003120267202033,2053,2061,2069,2042,2027,2052,1196
497,1711003120277200046,2064,2074,2135,2069,2088,2064,1196
498,1711003120287202097,2056,2054,2084,2056,2040,2061,1195
499,1711003120297224026,2056,2056,2033,2060,2121,2050,1197
500,1711003120307201380,2060,2056,2010,2060,2000,2056,1198
501,1711003120317200355,2061,2054,2025,2057,2065,2054,1196
502,1711003120327203750,2058,2057,2077,2051,2034,2055,1196
503,1711003120337199118,2058,2040,2032,2056,2077,2052,1195
504,1711003120347201640,2056,2043,2044,2063,2052,2056,1197
505,1711003120357194243,2056,2057,2037,2053,2063,2049,1197
506,1711003120367196885,2045,2037,2014,2073,2082,2053,1197
507,1711003120377200259,2055,2050,2017,2043,2044,2046,1194
508,1711003120387193584,2053,2050,2055,2058,2025,2056,1195
509,1711003120397192959,2053,2045,2061,2061,2071,2053,1197
510,1711003120407204138,2054,2052,2074,2049,2029,2054,1196
511,1711003120417207862,2056,2053,2020,2060,2068,2056,1197
512,1711003120427202870,2056,2036,2045,2052,2044,2056,1196
513,1711003120437215832,2064,2067,2045,2067,2082,2059,1199
514,1711003120448319246,2064,2071,2088,2070,2041,2057,1195
515,1711003120457198283,2063,2087,2115,2077,2061,2056,1195
516,1711003120467203120,2047,2035,2020,2041,1997,2043,1194
517,1711003120477207315,2052,2048,2000,2059,2029,2054,1196
518,1711003120487201641,2056,2048,2057,2063,2072,2064,1196
519,1711003120497199684,2054,2064,2068,2054,2068,2052,1196
520,1711003120507198098,2048,2029,2045,2042,2017,2053,1195
521,1711003120517201052,2053,2055,1994,2061,2080,2054,1196
522,1711003120527201701,2053,2048,2056,2067,2045,2063,1197
523,1711003120537208250,2052,2050,2008,2059,2132,2054,1193
524,1711003120547207716,2058,2062,2092,2072,2036,2051,1196
525,1711003120557185371,2058,2055,2013,2060,2068,2058,1196
526,1711003120567188484,2056,2061,2101,2065,2033,2051,1196
527,1711003120577236904,2057,2057,2112,2064,2066,2050,1197
528,1711003120587190382,2056,2067,2100,2050,2020,2056,1195
529,1711003120597242298,2058,2060,2046,2063,2080,2064,1196
530,1711003120607191759,2061,2063,2091,2062,2053,2060,1195
531,1711003120617189512,2057,2056,2056,2058,2118,2058,1194
532,1711003120627187886,2049,2042,2058,2058,2036,2050,1196
533,1711003120637188675,2057,2048,2014,2061,2062,2051,1194
534,1711003120647183782,2050,2044,2061,2050,2027,2052,1195
535,1711003120657181115,2053,2052,2047,2058,2063,2049,1195
536,1711003120667184649,2066,2076,2157,2068,2065,2068,1197
537,1711003120677185097,2053,2047,2024,2055,2059,2049,1197
538,1711003120687187659,2049,2048,2109,2058,2050,2048,1196
539,1711003120697184600,2046,2043,2020,2045,2035,2044,1195
540,1711003120707188014,2061,2061,2072,2052,2026,2056,1197
541,1711003120717186338,2041,2031,2001,2041,2035,2053,1195
542,1711003120727185675,2056,2050,2060,2042,1988,2046,1193
543,1711003120737182856,2057,2073,2080,2065,2074,2060,1196
544,1711003120747174628,2051,2053,2056,2053,2041,2056,1195
545,1711003120757177070,2058,2053,2047,2053,2065,2048,1196
546,1711003120767182818,2047,2045,2048,2041,2017,2049,1196
547,1711003120777181102,2061,2066,2074,2050,2069,2053,1195
548,1711003120787182502,2054,2046,2065,2058,2036,2052,1194
549,1711003120797184824,2061,2064,2070,2065,2074,2053,1196
550,1711003120807180412,2056,2046,2072,2042,2028,2053,1196
551,1711003120817180720,2062,2085,2104,2069,2068,2056,1195
552,1711003120827180427,2056,2056,2045,2053,2029,2049,1196
553,1711003120837181637,2052,2046,1997,2053,2047,2046,1192
554,1711003120847194138,2061,2072,2107,2072,2011,2054,1194
555,1711003120857182913,2053,2051,2028,2050,2062,2051,1196
556,1711003120867182260,2061,2068,2052,2054,2017,2057,1196
557,1711003120877183820,2055,2057,2056,2077,2128,2045,1194
558,1711003120887167275,2047,2032,2041,2051,2024,2047,1193
559,1711003120898533511,2052,2040,1996,2054,2077,2047,1196
560,1711003120907167910,2048,2043,2005,2046,2018,2047,1192
561,1711003120917189109,2057,2053,2036,2054,2068,2052,1197
562,1711003120927175180,2064,2064,2133,2072,2008,2060,1197
563,1711003120937171961,2056,2045,2008,2044,2088,2045,1193
564,1711003120947174703,2051,2053,2052,2052,2033,2051,1196
565,1711003120957164520,2056,2059,2033,2053,2075,2052,1196
566,1711003120967166952,2056,2053,2056,2052,2023,2060,1193
567,1711003120977164235,2055,2050,2033,2053,2069,2050,1197
568,1711003120987205040,2052,2049,2093,2051,2033,2052,1193
569,1711003120997173166,2072,2100,2245,2070,2068,2060,1195
570,1711003121007169767,2049,2041,2050,2064,2091,2056,1196
571,1711003121017173110,2060,2060,2034,2056,2010,2046,1192
572,1711003121027173558,2060,2068,2082,2058,2033,2056,1196
573,1711003121037176180,2056,2046,2010,2047,2064,2050,1199
574,1711003121047176228,2056,2051,2044,2053,2024,2056,1197
575,1711003121057184651,2056,2048,2020,2052,2055,2049,1198
576,1711003121067175841,2065,2066,2075,2052,2020,2061,1195
577,1711003121077176529,2060,2060,2043,2062,2061,2054,1195
578,1711003121087203879,2058,2067,2066,2048,2032,2058,1195
579,1711003121097204496,2061,2053,2040,2053,2070,2049,1199
580,1711003121107202890,2063,2068,2128,2057,2052,2056,1196
581,1711003121117200984,2052,2050,2021,2052,2067,2045,1192
582,1711003121127200379,2050,2046,2051,2050,2024,2056,1196
583,1711003121137197151,2070,2081,2121,2088,2080,2057,1196
584,1711003121147184473,2054,2052,2056,2048,2010,2056,1196
585,1711003121157178749,2059,2058,2058,2056,2082,2052,1197
586,1711003121167197432,2057,2061,2085,2067,2043,2061,1197
587,1711003121177198792,2057,2053,2012,2043,2080,2052,1196
588,1711003121187190884,2053,2047,2064,2050,2042,2058,1195
589,1711003121197185981,2053,2039,2056,2049,2068,2049,1196
590,1711003121207201318,2058,2060,2114,2059,2041,2059,1195
591,1711003121217203078,2058,2057,2046,2058,2068,2047,1192
592,1711003121227170323,2043,2030,2029,2068,2065,2042,1194
593,1711003121237204655,2056,2044,2041,2059,2080,2056,1197
594,1711003121247179935,2053,2040,2058,2043,2012,2045,1193
595,1711003121257204419,2047,2036,2012,2048,2045,2048,1197
596,1711003121267200398,2057,2051,2061,2058,2036,2053,1196
597,1711003121277175879,2048,2057,2047,2056,2075,2055,1196
598,1711003121287174733,2046,2043,2058,2045,2018,2052,1196
599,1711003121297214917,2061,2068,2090,2072,2104,2059,1197
600,1711003121307201809,2042,2037,2077,2052,2047,2053,1197
601,1711003121317204992,2061,2060,2056,2060,2051,2052,1195
602,1711003121327187396,2056,2050,2068,2056,2038,2056,1196
603,1711003121337190579,2047,2056,2042,2049,2017,2055,1194
604,1711003121347196166,2061,2073,2098,2060,2028,2056,1195
605,1711003121357189992,2053,2056,2039,2052,2060,2053,1196
606,1711003121367189126,2058,2060,2084,2066,2032,2056,1197
607,1711003121377187981,2052,2047,1997,2050,2034,2040,1192
608,1711003121387186375,2056,2060,2096,2080,2036,2060,1197
609,1711003121397186563,2052,2050,2011,2052,2078,2050,1197
610,1711003121407193683,2057,2056,2061,2081,1993,2059,1195
611,1711003121417193711,2053,2050,2047,2046,2069,2050,1195
612,1711003121427189840,2058,2062,2100,2065,2040,2060,1195
613,1711003121437191651,2054,2054,2034,2050,2069,2045,1195
614,1711003121447186097,2051,2043,2056,2053,2033,2052,1195
615,1711003121457184752,2059,2058,2066,2064,2069,2056,1196
616,1711003121467190720,2056,2054,2029,2056,2029,2055,1196
617,1711003121477188914,2056,2058,2024,2068,2100,2049,1198
618,1711003121487189031,2048,2034,2042,2065,2120,2047,1193
619,1711003121497172096,2047,2047,2031,2040,2035,2038,1195
620,1711003121507190378,2054,2047,2065,2056,2059,2056,1196
621,1711003121517185415,2054,2050,2056,2046,2080,2053,1195
622,1711003121527187276,2049,2041,2021,2056,2051,2061,1197
623,1711003121537180991,2050,2036,2005,2055,2107,2050,1197
624,1711003121547191458,2050,2043,2038,2052,2048,2053,1197
625,1711003121557178981,2057,2050,2041,2053,2025,2045,1196
626,1711003121567187824,2054,2049,2045,2054,2054,2052,1197
627,1711003121577188854,2061,2056,2040,2050,2072,2051,1196
628,1711003121587188770,2056,2052,2056,2045,2029,2053,1194
629,1711003121597187725,2053,2048,2041,2057,2088,2053,1195
630,1711003121607186821,2063,2067,2129,2065,2046,2057,1194
631,1711003121617185936,2051,2047,2009,2054,2072,2050,1197
632,1711003121627184480,2049,2051,2060,2078,2016,2049,1197
633,1711003121637184558,2064,2052,2043,2066,2081,2063,1196
634,1711003121647140601,2060,2053,2046,2052,2031,2049,1195
635,1711003121657175174,2060,2064,2067,2052,2068,2052,1195
636,1711003121667175051,2052,2052,2073,2043,2002,2053,1199
637,1711003121677176240,2056,2056,2024,2056,2075,2050,1197
638,1711003121687201946,2044,2030,2029,2050,2029,2055,1198
639,1711003121697167938,2048,2031,1973,2050,2069,2052,1197
640,1711003121707181702,2056,2050,2044,2048,2031,2057,1198
641,1711003121717184254,2054,2044,2047,2052,2074,2051,1195
642,1711003121727181385,2056,2056,2072,2051,2022,2052,1197
643,1711003121737177635,2060,2053,2018,2060,2062,2047,1193
644,1711003121747177221,2056,2057,2074,2054,2037,2063,1197
645,1711003121757171417,2058,2065,2045,2069,2092,2053,1196
646,1711003121767171565,2058,2048,2040,2048,2033,2056,1197
647,1711003121777172223,2058,2064,2086,2059,2113,2052,1196
648,1711003121787177479,2052,2044,2035,2046,2034,2052,1193
649,1711003121797172247,2056,2056,2053,2061,2068,2047,1192
650,1711003121807179337,2050,2040,2036,2038,2029,2048,1197
651,1711003121817178222,2062,2080,2161,2104,2095,2064,1196
652,1711003121827180814,2056,2047,2043,2045,2031,2056,1197
653,1711003121837184488,2052,2054,2049,2054,2051,2050,1196
654,1711003121847191809,2052,2059,2076,2051,2042,2052,1196
655,1711003121857188430,2049,2036,2020,2043,2073,2046,1192
656,1711003121867172166,2070,2061,2062,2045,2064,2058,1194
657,1711003121877196619,2061,2058,2043,2068,2126,2061,1195
658,1711003121887197298,2054,2056,2095,2048,2019,2054,1197
659,1711003121897203427,2057,2050,2012,2048,2072,2047,1193
660,1711003121907196130,2054,2066,2100,2066,2032,2052,1196
661,1711003121917194594,2050,2047,2047,2060,2070,2050,1196
662,1711003121927201584,2058,2046,2001,2069,2012,2048,1196
663,1711003121937199417,2056,2046,1985,2040,2058,2048,1197
664,1711003121947202580,2054,2052,2061,2055,2029,2050,1196
665,1711003121957186537,2050,2049,2014,2051,2039,2049,1195
666,1711003121967168519,2049,2045,2045,2056,2065,2056,1195
667,1711003121977167534,2061,2066,2032,2054,2075,2055,1194
668,1711003121987170938,2059,2061,2084,2036,2028,2053,1196
669,1711003121997199529,2058,2056,2074,2065,2072,2052,1196
670,1711003122007188144,2055,2053,2069,2070,2102,2062,1197
671,1711003122017161861,2060,2054,2041,2072,2100,2059,1197
672,1711003122027164503,2057,2068,2173,2064,2032,2064,1197
673,1711003122037164931,2053,2051,2037,2056,2085,2043,1195
674,1711003122047169827,2043,2040,2060,2045,2015,2050,1197
675,1711003122057177668,2063,2064,2061,2082,2133,2057,1197
676,1711003122067176072,2047,2034,2031,2040,2024,2051,1195
677,1711003122077173454,2060,2058,2034,2066,2085,2057,1198
678,1711003122087171337,2050,2064,2070,2058,2036,2056,1197
679,1711003122097178607,2063,2068,2073,2068,2105,2054,1196
680,1711003122107171381,2052,2046,2042,2051,2028,2060,1197
681,1711003122117171608,2051,2054,2031,2055,2082,2046,1194
682,1711003122127172567,2059,2053,2072,2053,2037,2058,1197
683,1711003122137175479,2049,2038,2012,2035,2068,2050,1197
684,1711003122147211825,2058,2049,2027,2041,2044,2059,1194
685,1711003122157168499,2056,2056,2031,2044,2018,2045,1194
686,1711003122167174257,2057,2052,2064,2052,2037,2053,1195
687,1711003122177177440,2058,2068,2062,2064,2101,2050,1198
688,1711003122187175112,2050,2044,2046,2045,2027,2056,1194
689,1711003122197183615,2052,2052,2035,2056,2056,2045,1192
690,1711003122207168143,2056,2083,2083,2046,2019,2058,1196
691,1711003122217168330,2057,2051,2052,2056,2063,2055,1196
692,1711003122227171122,2056,2069,2076,2056,2045,2054,1196
693,1711003122237179425,2048,2048,2023,2052,2070,2050,1194
694,1711003122247171647,2056,2053,2073,2050,2021,2053,1196
695,1711003122257174028,2064,2081,2122,2079,2122,2052,1196
696,1711003122267178032,2049,2039,2037,2030,1989,2050,1195
697,1711003122277173060,2056,2048,2033,2054,2051,2040,1193
698,1711003122287175662,2053,2056,2062,2054,2008,2052,1198
699,1711003122297176089,2061,2065,2063,2077,2086,2050,1199
700,1711003122307195703,2054,2049,2077,2050,2035,2054,1197
701,1711003122317177786,2052,2044,2013,2056,2079,2047,1195
702,1711003122327176080,2045,2020,2045,2053,2069,2052,1195
703,1711003122337184462,2057,2052,2061,2057,2061,2044,1193
704,1711003122347214556,2060,2047,2075,2056,2031,2058,1196
705,1711003122357174747,2057,2056,2037,2052,2070,2052,1197
706,1711003122367185615,2056,2052,2090,2056,2037,2059,1196
707,1711003122377177827,2057,2057,2038,2059,2074,2053,1197
708,1711003122387177543,2053,2050,2074,2042,2018,2054,1193
709,1711003122397181828,2060,2062,2032,2051,2074,2056,1196
710,1711003122407176595,2046,2024,2037,2043,2026,2056,1195
711,1711003122417174007,2070,2076,2108,2083,2083,2064,1197
712,1711003122427178472,2058,2067,2078,2054,2042,2060,1198
713,1711003122437175042,2056,2056,2045,2059,2075,2052,1194
714,1711003122447195057,2058,2062,2072,2060,2025,2056,1195
715,1711003122457179024,2058,2050,2050,2054,2067,2048,1195
716,1711003122467178579,2056,2047,2032,2035,2024,2051,1197
717,1711003122477166864,2057,2066,2013,2052,2076,2052,1199
718,1711003122487174014,2053,2072,2081,2057,2027,2054,1198
719,1711003122497168982,2058,2050,1993,2052,2028,2045,1195
720,1711003122507181462,2056,2049,2049,2041,2024,2061,1198
721,1711003122517178774,2060,2056,2040,2056,2067,2052,1197
722,1711003122527173952,2047,2036,2025,2074,2128,2056,1198
723,1711003122537185931,2058,2054,2022,2057,2073,2056,1197
724,1711003122547177743,2050,2040,2066,2060,2053,2057,1198
725,1711003122557168802,2056,2056,2041,2058,2085,2052,1197
726,1711003122567174590,2052,2066,2088,2060,2057,2057,1197
727,1711003122577172954,2057,2064,2072,2066,2075,2052,1200
728,1711003122587173322,2054,2056,2076,2058,2034,2050,1195
729,1711003122597215739,2059,2058,2056,2051,2087,2052,1197
730,1711003122607204484,2058,2080,2155,2073,2028,2066,1197
731,1711003122617169965,2068,2078,2095,2068,2097,2057,1197
732,1711003122627173299,2050,2047,2072,2058,2029,2050,1196
733,1711003122637174196,2058,2060,2065,2074,2080,2048,1197
734,1711003122647169094,2057,2067,2045,2050,2024,2051,1196
735,1711003122657184410,2056,2052,2056,2066,2077,2055,1197
736,1711003122667168747,2060,2056,2047,2064,2066,2057,1197
737,1711003122677175938,2056,2052,2030,2043,2034,2052,1198
738,1711003122687181395,2056,2052,2050,2050,2020,2058,1197
739,1711003122697176382,2065,2073,2088,2062,2049,2052,1196
740,1711003122707176780,2054,2050,2069,2060,2042,2054,1197
741,1711003122717182798,2064,2059,2027,2060,2077,2053,1195
742,1711003122727174368,2052,2049,2067,2053,2017,2056,1196
743,1711003122737175177,2061,2040,2020,2058,2069,2051,1196
744,1711003122747193699,2060,2054,2085,2059,2036,2056,1196
745,1711003122757165392,2052,2042,2030,2056,2072,2049,1196
746,1711003122767193993,2050,2038,2046,2048,2033,2058,1197
747,1711003122777181446,2061,2057,2034,2050,2024,2047,1193
748,1711003122787172636,2042,2032,2014,2034,2014,2053,1195
749,1711003122797172633,2054,2048,2032,2043,2056,2046,1194
750,1711003122807168802,2050,2051,2064,2052,2026,2053,1197
751,1711003122817172676,2054,2050,2048,2047,2065,2049,1197
752,1711003122827173996,2052,2044,2041,2042,2027,2051,1196
753,1711003122837174834,2060,2054,2074,2052,2074,2056,1199
754,1711003122847177927,2051,2049,2072,2042,2049,2057,1194
755,1711003122857175158,2057,2053,2056,2046,2056,2047,1194
756,1711003122867176588,2052,2053,2065,2073,2044,2061,1196
757,1711003122877182997,2056,2052,2027,2058,2092,2049,1196
758,1711003122887174848,2058,2060,2093,2058,2024,2055,1196
759,1711003122897181127,2055,2043,2008,2057,2088,2054,1197
760,1711003122907173700,2049,2045,2040,2039,2020,2052,1197
761,1711003122917179117,2062,2058,2029,2072,2089,2056,1194
762,1711003122927174805,2053,2056,2072,2064,2071,2049,1195
763,1711003122937181946,2058,2051,2035,2057,2079,2056,1198
764,1711003122947187423,2056,2060,2095,2056,2024,2056,1198
765,1711003122957178994,2058,2063,2059,2046,2049,2049,1193
766,1711003122967146538,2054,2066,2110,2061,2028,2056,1198
767,1711003122977171774,2057,2056,2020,2056,2096,2056,1196
768,1711003122987174937,2055,2051,2059,2042,2008,2056,1194
769,1711003122997169223,2061,2058,2045,2065,2069,2058,1199
770,1711003123007194517,2054,2056,2060,2061,2034,2057,1195
771,1711003123017173334,2052,2052,2037,2056,2051,2043,1192
772,1711003123027176256,2052,2041,2031,2042,1991,2047,1192
773,1711003123037173657,2053,2049,2044,2060,2086,2056,1198
774,1711003123047174115,2053,2054,2052,2049,2032,2050,1195
775,1711003123057169042,2056,2057,2051,2061,2069,2047,1193
776,1711003123067175281,2055,2065,2080,2057,2046,2060,1195
777,1711003123077172602,2064,2064,2034,2064,2061,2053,1196
778,1711003123087173140,2054,2054,2064,2050,2029,2052,1197
779,1711003123097180570,2058,2055,2031,2038,2066,2054,1197
780,1711003123107197369,2061,2069,2123,2044,1981,2056,1197
781,1711003123117179251,2054,2058,2045,2076,2112,2054,1196
782,1711003123127182033,2052,2056,2068,2053,2021,2048,1195
783,1711003123137181829,2062,2056,2027,2066,2052,2056,1197
784,1711003123147202885,2053,2040,2044,2045,2021,2049,1197
785,1711003123157189317,2062,2064,2063,2066,2079,2055,1196
786,1711003123167180876,2058,2057,2081,2074,2048,2069,1195
787,1711003123177176525,2060,2073,2076,2062,2064,2056,1197
788,1711003123187176512,2046,2034,2048,2040,2013,2044,1192
789,1711003123197190525,2055,2059,2043,2064,2083,2053,1197
790,1711003123207177307,2056,2054,2127,2055,2010,2053,1196
791,1711003123217178305,2058,2048,2037,2054,2060,2053,1197
792,1711003123227181388,2047,2045,2043,2044,2010,2058,1194
793,1711003123237183178,2066,2084,2166,2090,2117,2054,1197
794,1711003123247193604,2045,2040,2044,2045,2012,2047,1194
795,1711003123257191537,2054,2054,2040,2069,2107,2053,1195
796,1711003123267179330,2056,2053,2080,2057,2041,2060,1196
797,1711003123277183775,2059,2056,2036,2056,2075,2050,1197
798,1711003123287185404,2056,2051,2061,2053,2036,2053,1196
799,1711003123297205750,2059,2052,2034,2050,2051,2047,1193
800,1711003123307150561,2056,2047,2061,2052,2015,2053,1196
801,1711003123317136521,2053,2061,2040,2044,2029,2052,1198
802,1711003123327187966,2056,2057,2049,2043,2028,2057,1194
803,1711003123337188313,2057,2046,2021,2046,2096,2040,1192
804,1711003123347187348,2051,2044,2044,2046,2017,2054,1196
805,1711003123357190500,2056,2051,2019,2054,2075,2055,1195
806,1711003123367167003,2058,2057,2095,2060,2034,2047,1192
807,1711003123377190614,2046,2040,2018,2034,2026,2045,1192
808,1711003123387191102,2050,2040,2054,2045,2013,2043,1193
809,1711003123397202360,2053,2045,2017,2038,2068,2046,1193
810,1711003123407191405,2056,2053,2073,2049,2050,2069,1195
811,1711003123417192434,2057,2054,2036,2056,2083,2046,1193
812,1711003123427180497,2043,2037,2045,2030,1994,2036,1195
813,1711003123437193429,2055,2053,2010,2052,2063,2045,1194
814,1711003123447203144,2053,2052,2064,2052,2036,2056,1195
815,1711003123458541707,2056,2057,2059,2069,2097,2054,1195
816,1711003123467171136,2058,2062,2112,2060,2041,2060,1197
817,1711003123477168257,2061,2084,2091,2056,2077,2053,1196
818,1711003123487171951,2054,2058,2080,2047,2005,2054,1197
819,1711003123497170775,2063,2073,2084,2060,2056,2056,1197
820,1711003123507176894,2058,2052,2068,2057,2027,2056,1197
821,1711003123517176259,2058,2056,2041,2058,2094,2050,1199
822,1711003123527174051,2055,2050,2072,2050,2032,2064,1197
823,1711003123537176442,2056,2040,1983,2046,2073,2054,1198
824,1711003123547203511,2050,2044,2060,2056,2021,2060,1196
825,1711003123557178580,2060,2062,2043,2089,2170,2047,1194
826,1711003123567169970,2056,2055,2064,2055,2030,2054,1197
827,1711003123577175117,2062,2057,2056,2057,2081,2056,1194
828,1711003123587174882,2052,2046,2060,2068,2037,2054,1194
829,1711003123597175500,2052,2045,2032,2053,2042,2052,1198
830,1711003123607664881,2052,2050,2079,2060,2045,2056,1196
831,1711003123617180313,2066,2062,2068,2066,2090,2056,1196
832,1711003123627176842,2056,2065,2106,2076,2083,2056,1196
833,1711003123637183542,2059,2056,2009,2077,2136,2043,1193
834,1711003123647188017,2050,2037,2024,2037,1999,2042,1195
835,1711003123657183465,2053,2059,2045,2049,2073,2050,1197
836,1711003123667179965,2060,2060,2080,2054,2037,2051,1198
837,1711003123677185982,2059,2052,2036,2056,2077,2056,1197
838,1711003123687176872,2051,2046,2043,2056,2034,2056,1196
839,1711003123697177460,2064,2067,2101,2073,2136,2057,1197
840,1711003123707186223,2052,2047,2051,2043,2021,2054,1195
841,1711003123717190057,2056,2053,2030,2061,2068,2047,1194
842,1711003123727171518,2054,2056,2063,2057,2055,2068,1200
843,1711003123737228544,2049,2059,1997,2041,2088,2051,1198
844,1711003123747181921,2056,2055,2065,2049,2040,2058,1196
845,1711003123757182038,2061,2064,2040,2056,2073,2051,1197
846,1711003123767178077,2053,2052,2063,2048,2030,2056,1197
847,1711003123777175479,2056,2058,2049,2057,2072,2053,1197
848,1711003123787169664,2052,2043,2041,2068,2057,2053,1196
849,1711003123797194969,2060,2074,2071,2061,2064,2053,1196
850,1711003123807172183,2053,2048,2061,2057,2012,2073,1196
851,1711003123817186506,2056,2053,2041,2061,2081,2053,1195
852,1711003123827175281,2051,2047,2068,2054,2025,2053,1196
853,1711003123837172973,2056,2046,2017,2055,2083,2055,1196
854,1711003123847170435,2064,2056,2084,2065,2040,2056,1196
855,1711003123857191532,2064,2086,2103,2062,2076,2051,1194
856,1711003123867192340,2053,2060,2122,2050,2002,2054,1196
857,1711003123877188830,2059,2069,2089,2066,2060,2049,1195
858,1711003123887173066,2052,2049,2074,2041,2020,2053,1196
859,1711003123897172943,2058,2052,2060,2067,2058,2047,1194
860,1711003123907186685,2058,2051,2072,2052,2034,2058,1197
861,1711003123917184078,2055,2052,2027,2040,2063,2048,1196
862,1711003123927172381,2058,2057,2066,2049,2038,2057,1198
863,1711003123937172989,2051,2048,2011,2055,2077,2056,1195
864,1711003123947173367,2059,2061,2082,2062,2025,2063,1195
865,1711003123957180407,2061,2072,2162,2077,2096,2056,1197
866,1711003123967175404,2054,2045,2060,2056,2034,2057,1196
867,1711003123977180410,2056,2047,2016,2060,2073,2052,1197
868,1711003123987176800,2052,2043,2039,2048,2030,2053,1193
869,1711003123997176615,2054,2057,2041,2056,2069,2049,1194
870,1711003124007174859,2047,2038,2042,2047,2029,2053,1197
871,1711003124017216465,2058,2045,2001,2056,2072,2050,1195
872,1711003124027175183,2048,2049,2061,2036,2013,2056,1197
873,1711003124037185358,2051,2045,2007,2056,2068,2050,1196
874,1711003124047201305,2052,2056,2073,2049,2040,2057,1197
875,1711003124057180402,2052,2058,2064,2060,2069,2053,1195
876,1711003124067176099,2052,2036,2076,2061,2036,2057,1196
877,1711003124077162961,2053,2046,2065,2057,2076,2049,1196
878,1711003124087168949,2056,2052,2098,2064,2042,2058,1197
879,1711003124097174055,2058,2049,2030,2046,2062,2046,1195
880,1711003124107170194,2053,2050,2072,2061,2043,2057,1195
881,1711003124117172996,2059,2080,2066,2042,2034,2049,1195
882,1711003124127178622,2045,2036,2044,2044,2022,2057,1195
883,1711003124137173890,2066,2061,2067,2067,2085,2064,1195
884,1711003124147177684,2058,2074,2091,2055,2033,2060,1195
885,1711003124157194202,2054,2054,2072,2052,2068,2046,1193
886,1711003124167175412,2060,2068,2108,2043,2015,2052,1197
887,1711003124177179215,2059,2049,2023,2052,2078,2057,1197
888,1711003124187170045,2052,2037,2051,2040,2013,2058,1194
889,1711003124197176664,2054,2055,2067,2061,2068,2048,1196
890,1711003124207177271,2057,2050,2045,2047,2029,2053,1196
891,1711003124217171226,2046,2044,2021,2047,2075,2047,1194
892,1711003124227172825,2066,2096,2174,2068,2058,2064,1198
893,1711003124237175496,2056,2050,2031,2056,2072,2051,1197
894,1711003124247184731,2050,2055,2069,2046,1990,2061,1198
895,1711003124257192883,2053,2058,2050,2057,2068,2051,1197
896,1711003124267203340,2053,2062,2057,2046,2029,2060,1197
897,1711003124277190601,2072,2079,2046,2060,2078,2058,1195
898,1711003124287184305,2055,2041,2027,2053,2044,2058,1197
899,1711003124297186466,2058,2059,2056,2072,2088,2042,1194
900,1711003124307187935,2063,2057,2060,2057,2054,2058,1195
901,1711003124317212698,2058,2052,2036,2073,2089,2056,1196
902,1711003124327185624,2053,2058,2075,2052,2036,2056,1196
903,1711003124337185379,2058,2054,2026,2062,2077,2051,1196
904,1711003124347193300,2060,2056,2061,2078,2058,2065,1198
905,1711003124357188268,2058,2072,2053,2058,2068,2050,1196
906,1711003124367183735,2056,2057,2081,2052,2025,2060,1197
907,1711003124377188982,2054,2046,1993,2066,2089,2046,1195
908,1711003124387172707,2050,2054,2053,2046,2027,2055,1193
909,1711003124397172122,2056,2030,2009,2056,2092,2053,1196
910,1711003124407174453,2057,2047,2101,2078,2039,2056,1198
911,1711003124417192133,2052,2051,2034,2044,2073,2056,1196
912,1711003124427175407,2052,2056,2074,2047,2026,2056,1196
913,1711003124437174442,2072,2090,2170,2089,2086,2064,1197
914,1711003124447210718,2053,2056,2056,2043,2052,2061,1196
915,1711003124457230923,2060,2064,2061,2066,2117,2058,1196
916,1711003124467187106,2056,2067,2169,2070,2052,2065,1197
917,1711003124477176842,2057,2059,2019,2056,2074,2056,1195
918,1711003124487179925,2053,2049,2053,2049,2031,2052,1197
919,1711003124497177747,2056,2058,2053,2060,2092,2056,1198
920,1711003124507210886,2058,2053,2063,2056,2046,2061,1198
921,1711003124517164755,2056,2053,2025,2059,2061,2058,1196
922,1711003124527167827,2057,2053,2080,2062,2056,2060,1197
923,1711003124537175618,2065,2082,2154,2070,2067,2057,1197
924,1711003124547169784,2046,2041,2037,2041,2025,2049,1196
925,1711003124557174118,2056,2052,2026,2059,2083,2047,1192
926,1711003124567171390,2057,2058,2047,2047,2001,2055,1197
927,1711003124577181164,2060,2056,2036,2060,2076,2051,1197
928,1711003124587177654,2053,2034,2006,2040,1996,2048,1195
929,1711003124597178803,2064,2064,2115,2073,2107,2064,1197
930,1711003124607178458,2047,2040,2050,2050,2027,2052,1197
931,1711003124617192051,2060,2053,2048,2052,2072,2056,1198
932,1711003124627176187,2048,2058,2092,2060,2007,2046,1195
933,1711003124637176333,2067,2073,2082,2065,2077,2054,1198
934,1711003124647176761,2066,2078,2137,2057,2032,2064,1195
935,1711003124657180845,2066,2081,2082,2076,2098,2064,1196
936,1711003124667172234,2060,2060,2051,2053,2032,2056,1196
937,1711003124677177952,2056,2058,2056,2067,2078,2047,1192
938,1711003124687177447,2052,2058,2072,2054,2022,2049,1196
939,1711003124697179417,2058,2053,2024,2076,2085,2056,1197
940,1711003124707175617,2054,2044,2047,2044,2031,2054,1197
941,1711003124717188157,2056,2052,2004,2041,2085,2052,1197
942,1711003124727176732,2052,2028,2042,2052,2089,2064,1196
943,1711003124737174534,2057,2044,2035,2062,2084,2054,1196
944,1711003124747175702,2050,2053,2086,2047,2034,2060,1196
945,1711003124757195236,2056,2067,2056,2056,2073,2048,1197
946,1711003124767173160,2052,2052,2055,2046,2036,2056,1194
947,1711003124777180069,2066,2088,2141,2062,2080,2059,1196
948,1711003124787179385,2057,2057,2040,2043,2032,2057,1196
949,1711003124797181255,2056,2051,2037,2064,2074,2051,1193
950,1711003124807176051,2052,2049,2060,2063,2066,2056,1194
951,1711003124817174234,2049,2046,2036,2053,2069,2049,1197
952,1711003124827171635,2054,2047,2063,2049,2033,2056,1196
953,1711003124837178074,2061,2053,2061,2060,2076,2056,1196
954,1711003124847182118,2053,2047,2046,2052,2023,2052,1194
955,1711003124857179710,2068,2108,2164,2078,2076,2052,1197
956,1711003124867188473,2051,2042,2065,2047,2017,2049,1194
957,1711003124877173411,2056,2053,2040,2053,2077,2056,1198
958,1711003124887176893,2052,2054,2062,2052,2025,2056,1195
959,1711003124897173163,2060,2051,2019,2056,2075,2049,1196
960,1711003124907174552,2050,2032,2061,2040,2035,2051,1196
961,1711003124917173767,2061,2054,2026,2052,2059,2048,1198
962,1711003124927176098,2064,2081,2146,2085,2047,2072,1198
963,1711003124937193767,2057,2057,2041,2056,2077,2052,1197
964,1711003124947177403,2053,2045,2056,2046,2016,2056,1196
965,1711003124957176367,2057,2053,2019,2063,2085,2056,1199
966,1711003124967173738,2055,2060,2057,2067,2076,2054,1195
967,1711003124977161141,2057,2080,2058,2056,2066,2052,1194
968,1711003124987171046,2045,2032,2034,2040,2019,2051,1193
969,1711003124997169450,2064,2065,2061,2068,2080,2053,1194
970,1711003125007163324,2060,2072,2100,2056,2021,2058,1196
971,1711003125017171927,2055,2056,2044,2056,2093,2056,1193
972,1711003125027184567,2061,2061,2070,2066,2037,2064,1196
973,1711003125037174544,2056,2054,2031,2067,2083,2050,1197
974,1711003125047179721,2052,2044,2057,2047,2031,2056,1196
975,1711003125057178264,2053,2045,2025,2068,2100,2057,1197
976,1711003125067180374,2051,2046,2040,2045,2015,2056,1196
977,1711003125077164489,2062,2063,2016,2077,2098,2062,1196
978,1711003125087169475,2050,2033,2056,2056,2032,2055,1197
979,1711003125097173218,2060,2061,2053,2055,2080,2055,1197
980,1711003125107175059,2053,2056,2105,2054,2031,2052,1197
981,1711003125117180044,2061,2081,2109,2065,2074,2056,1197
982,1711003125127175862,2043,2033,2029,2028,1957,2045,1195
983,1711003125137175958,2053,2049,2000,2034,2072,2048,1197
984,1711003125147165685,2048,2050,2070,2044,2021,2052,1199
985,1711003125157169528,2065,2039,2017,2058,2071,2053,1195
986,1711003125169118116,2056,2040,2057,2051,2037,2059,1197
987,1711003125177169511,2056,2042,2017,2058,2072,2054,1195
988,1711003125187176200,2060,2054,2086,2050,2047,2057,1197
989,1711003125197141068,2051,2062,2076,2064,2081,2056,1195
990,1711003125207178636,2066,2073,2136,2073,2049,2060,1194
991,1711003125217176168,2060,2048,2026,2061,2074,2057,1195
992,1711003125227178379,2050,2045,2056,2040,2026,2054,1197
993,1711003125237169387,2056,2058,2048,2064,2094,2049,1196
994,1711003125247176317,2052,2066,2056,2047,2028,2048,1196
995,1711003125257177234,2053,2057,2041,2064,2085,2049,1196
996,1711003125267179695,2052,2046,2044,2038,2025,2051,1195
997,1711003125277183018,2059,2049,2008,2053,2061,2054,1198
998,1711003125287175761,2052,2046,2053,2041,2028,2053,1196
999,1711003125297176899,2056,2048,2021,2054,2076,2053,1197
1000,1711003125307175953,2050,2050,2053,2061,2030,2056,1194
1001,1711003125317177852,2059,2059,2061,2068,2081,2053,1197
1002,1711003125327177327,2052,2062,2148,2053,2024,2050,1196
1003,1711003125337176443,2054,2050,2034,2052,2060,2042,1196
1004,1711003125347183783,2048,2041,2039,2057,2081,2054,1195
1005,1711003125357187676,2060,2056,2036,2056,2077,2056,1197
1006,1711003125367185077,2047,2040,2042,2041,2029,2056,1195
1007,1711003125377165395,2072,2095,2068,2070,2071,2057,1196
1008,1711003125387175592,2052,2053,2062,2052,2025,2056,1193
1009,1711003125397175067,2054,2049,1995,2054,2072,2050,1196
1010,1711003125407179451,2056,2065,2072,2045,2036,2058,1196
1011,1711003125417170801,2056,2062,2030,2053,2061,2054,1196
1012,1711003125427165867,2052,2053,2057,2045,2021,2049,1195
1013,1711003125437177696,2060,2062,2068,2074,2124,2054,1195
1014,1711003125447185267,2053,2073,2066,2038,2012,2049,1196
1015,1711003125457200052,2052,2045,2052,2040,2051,2047,1195
1016,1711003125467175190,2058,2056,2081,2041,2024,2050,1196
1017,1711003125477168253,2056,2058,2057,2061,2074,2044,1192
1018,1711003125487177326,2051,2052,2073,2053,2034,2054,1198
1019,1711003125497175789,2062,2049,2034,2052,2049,2047,1193
1020,1711003125507173031,2053,2079,2117,2052,2015,2050,1195
1021,1711003125517171334,2058,2052,2020,2058,2082,2052,1198
1022,1711003125527173654,2056,2051,2065,2049,2041,2052,1196
1023,1711003125537181685,2056,2056,2041,2060,2077,2053,1195
1024,1711003125547180329,2053,2050,2047,2056,2034,2056,1197
1025,1711003125557176488,2060,2067,2045,2059,2068,2045,1193
1026,1711003125567185251,2058,2065,2067,2045,2012,2048,1194
1027,1711003125577175438,2064,2077,2134,2083,2088,2064,1196
1028,1711003125587174933,2052,2053,2069,2048,2005,2054,1196
1029,1711003125597176202,2054,2050,2036,2051,2078,2053,1198
1030,1711003125607176148,2057,2045,2063,2042,2020,2052,1195
1031,1711003125617188788,2056,2054,2025,2059,2083,2049,1199
1032,1711003125627177864,2052,2048,2052,2052,2053,2056,1198
1033,1711003125637182088,2050,2047,2040,2052,2077,2052,1194
1034,1711003125647180511,2061,2072,2128,2080,2049,2052,1196
1035,1711003125657179485,2052,2054,2052,2050,2050,2046,1194
1036,1711003125667182456,2052,2044,2042,2053,2047,2057,1196
1037,1711003125677183045,2060,2053,2041,2064,2081,2054,1198
1038,1711003125687182840,2054,2050,2059,2056,2033,2050,1197
1039,1711003125697185010,2060,2058,2039,2057,2072,2049,1197
1040,1711003125707185678,2059,2058,2083,2062,2060,2056,1198
1041,1711003125717189250,2068,2084,2076,2069,2083,2060,1196
1042,1711003125727186772,2051,2050,2080,2053,2044,2057,1196
1043,1711003125737187270,2065,2084,2153,2094,2073,2056,1196
1044,1711003125747190091,2056,2051,2016,2042,2015,2062,1197
1045,1711003125757191580,2050,2054,2024,2052,2067,2050,1195
1046,1711003125767166067,2053,2056,2072,2049,2009,2060,1197
1047,1711003125777188416,2053,2032,2024,2048,2049,2048,1196
1048,1711003125787188022,2052,2041,2066,2056,2044,2056,1193
1049,1711003125797188950,2056,2064,2044,2054,2077,2050,1195
1050,1711003125807171723,2054,2050,2067,2056,2066,2056,1196
1051,1711003125817190635,2065,2075,2092,2070,2092,2058,1197
1052,1711003125827173007,2051,2044,2056,2052,2043,2056,1195
1053,1711003125837174055,2053,2045,2019,2058,2068,2056,1199
1054,1711003125847161378,2053,2050,2054,2049,2049,2054,1195
1055,1711003125857149541,2064,2080,2093,2063,2093,2056,1197
1056,1711003125867832281,2050,2043,2052,2051,2018,2051,1195
1057,1711003125877169171,2054,2049,2010,2052,2079,2048,1197
1058,1711003125887177603,2052,2047,2062,2041,2028,2049,1197
1059,1711003125897175986,2057,2042,2055,2065,2080,2056,1196
1060,1711003125907174841,2056,2047,2075,2049,2029,2058,1196
1061,1711003125917179305,2056,2047,2026,2074,2107,2052,1198
1062,1711003125927175083,2053,2067,2145,2069,2054,2062,1197
1063,1711003125937179958,2056,2062,2028,2052,2055,2046,1195
1064,1711003125947178381,2056,2056,2072,2057,2032,2056,1198
1065,1711003125957180622,2056,2050,2017,2044,2054,2049,1196
1066,1711003125967167453,2056,2073,2070,2044,2015,2046,1193
1067,1711003125977177819,2060,2076,2100,2054,2064,2050,1196
1068,1711003125987169158,2060,2056,2044,2052,2028,2061,1193
1069,1711003125997185536,2065,2064,2060,2072,2085,2057,1197
1070,1711003126007167236,2057,2062,2077,2057,2026,2059,1197
1071,1711003126017175137,2054,2045,2013,2053,2074,2047,1192
1072,1711003126027192987,2053,2050,2041,2047,2019,2053,1195
1073,1711003126037178224,2066,2064,2082,2063,2084,2060,1197
1074,1711003126047182308,2064,2066,2122,2070,2056,2057,1193
1075,1711003126057190009,2054,2044,2013,2056,2081,2050,1196
1076,1711003126067182621,2056,2057,2067,2049,2030,2054,1196
1077,1711003126077167358,2057,2051,2039,2061,2078,2051,1196
1078,1711003126087174968,2062,2029,2068,2052,2042,2068,1197
1079,1711003126097172139,2064,2059,2075,2068,2056,2053,1197
1080,1711003126107173888,2052,2051,2056,2053,2035,2050,1196
1081,1711003126117183111,2058,2058,2040,2061,2080,2051,1196
1082,1711003126127174762,2052,2046,2042,2045,2032,2052,1196
1083,1711003126137171070,2061,2062,2100,2051,2085,2060,1197
1084,1711003126147182127,2061,2064,2075,2046,2044,2064,1196
1085,1711003126157181452,2054,2060,2046,2052,2067,2045,1194
1086,1711003126167194633,2049,2052,2055,2044,2025,2054,1196
1087,1711003126177191293,2068,2076,2078,2072,2085,2053,1196
1088,1711003126187178444,2052,2044,2047,2056,2034,2057,1195
1089,1711003126197174423,2057,2054,2065,2056,2058,2048,1196
1090,1711003126207174499,2047,2045,2029,2048,2015,2050,1197
1091,1711003126217170166,2060,2061,2052,2057,2075,2055,1196
1092,1711003126227175082,2057,2069,2084,2049,2024,2056,1195
1093,1711003126237177152,2053,2046,2028,2059,2080,2058,1196
1094,1711003126247206864,2056,2052,2053,2061,2022,2058,1195
1095,1711003126257177574,2047,2046,2043,2056,2080,2049,1196
1096,1711003126267187099,2056,2060,2072,2051,2033,2056,1196
1097,1711003126277181043,2060,2053,2034,2052,2064,2056,1197
1098,1711003126287170338,2056,2056,2091,2061,2030,2053,1197
1099,1711003126297175594,2056,2052,2013,2052,2070,2049,1196
1100,1711003126307172745,2052,2033,2060,2053,2026,2053,1197
1101,1711003126317197198,2059,2052,2036,2067,2073,2049,1198
1102,1711003126327177205,2054,2053,2065,2048,2020,2056,1196
1103,1711003126337175779,2062,2053,2027,2048,2060,2052,1199
1104,1711003126347183389,2050,2049,2033,2043,2040,2048,1197
1105,1711003126357192543,2055,2047,1996,2043,2058,2057,1196
1106,1711003126367181678,2061,2072,2083,2052,2040,2064,1197
1107,1711003126377178247,2060,2074,2015,2061,2075,2056,1198
1108,1711003126387177602,2054,2052,2069,2050,2037,2053,1193
1109,1711003126397176245,2054,2055,2049,2055,2060,2050,1196
1110,1711003126407176452,2065,2065,2098,2054,2017,2059,1195
1111,1711003126417174644,2067,2069,2058,2074,2077,2056,1195
1112,1711003126427167957,2051,2052,2045,2073,2042,2052,1196
1113,1711003126437174766,2056,2058,2062,2061,2072,2054,1196
1114,1711003126447188779,2053,2024,2034,2052,2044,2057,1196
1115,1711003126457179075,2056,2064,2056,2057,2076,2045,1193
1116,1711003126467178921,2064,2068,2104,2050,1993,2064,1194
1117,1711003126477175661,2061,2045,1971,2064,2069,2046,1192
1118,1711003126487175416,2046,2045,2021,2052,2026,2051,1195
1119,1711003126497176254,2053,2053,2047,2066,2083,2052,1197
1120,1711003126507173785,2051,2053,2074,2041,2014,2045,1195
1121,1711003126517180784,2060,2042,2038,2054,2072,2048,1197
1122,1711003126527177364,2060,2064,2144,2046,2020,2054,1197
1123,1711003126537175246,2053,2045,2051,2064,2064,2058,1197
1124,1711003126547170493,2054,2056,2056,2056,2035,2058,1195
1125,1711003126557210665,2056,2058,2025,2056,2068,2048,1196
1126,1711003126567176005,2056,2052,2044,2057,2049,2061,1197
1127,1711003126577176302,2061,2056,2035,2059,2071,2051,1197
1128,1711003126587173893,2053,2054,2057,2046,2033,2056,1193
1129,1711003126597176093,2065,2044,2048,2063,2074,2049,1195
1130,1711003126607177882,2051,2035,2066,2057,2041,2056,1196
1131,1711003126617181916,2054,2036,2028,2051,2072,2049,1197
1132,1711003126627182173,2057,2065,2144,2071,2044,2056,1195
1133,1711003126637176938,2056,2048,2033,2061,2080,2050,1197
1134,1711003126647176894,2056,2056,2058,2054,2020,2058,1196
1135,1711003126657190777,2064,2065,2047,2064,2084,2057,1197
1136,1711003126667180714,2054,2083,2105,2063,2038,2056,1195
1137,1711003126677173285,2066,2067,2074,2064,2070,2053,1197
1138,1711003126687177239,2064,2052,2066,2064,2086,2064,1198
1139,1711003126697174470,2059,2065,2077,2081,2096,2057,1196
1140,1711003126707189304,2050,2039,2041,2042,2045,2057,1199
1141,1711003126717204008,2063,2068,2095,2080,2112,2063,1195
1142,1711003126727180930,2050,2048,2042,2051,2016,2046,1193
1143,1711003126737181587,2060,2049,2024,2063,2065,2048,1196
1144,1711003126747198525,2061,2064,2100,2062,2041,2056,1195
1145,1711003126757181188,2052,2056,2042,2065,2107,2048,1196
1146,1711003126767184140,2066,2056,2096,2050,2005,2057,1195
1147,1711003126777186951,2064,2060,2064,2062,2078,2062,1194
1148,1711003126787184102,2052,2049,2060,2058,2053,2058,1195
1149,1711003126797185380,2056,2054,2022,2062,2074,2052,1196
1150,1711003126807185757,2052,2050,2081,2043,2026,2047,1193
1151,1711003126817189670,2058,2064,2076,2076,2112,2062,1197
1152,1711003126827185739,2049,2046,2066,2048,2034,2054,1197
1153,1711003126837198108,2061,2064,2088,2068,2084,2058,1197
1154,1711003126847190309,2059,2058,2102,2056,2033,2054,1197
1155,1711003126857194633,2057,2045,2029,2051,2076,2051,1195
1156,1711003126867175493,2055,2032,2016,2068,2077,2059,1193
1157,1711003126877173144,2061,2054,2042,2056,2080,2057,1195
1158,1711003126887175585,2061,2069,2094,2056,2034,2058,1195
1159,1711003126897174409,2053,2056,2035,2064,2121,2059,1198
1160,1711003126907184604,2052,2041,2051,2053,2033,2053,1195
1161,1711003126917178659,2057,2046,2016,2067,2068,2046,1193
1162,1711003126927196098,2054,2059,2071,2053,2040,2052,1196
1163,1711003126937173160,2061,2053,2028,2052,2065,2051,1195
1164,1711003126947179648,2058,2052,2063,2053,2036,2060,1194
1165,1711003126957178081,2051,2052,2064,2068,2096,2061,1197
1166,1711003126967167417,2056,2062,2098,2068,2035,2056,1198
1167,1711003126977175928,2052,2052,2024,2061,2094,2053,1197
1168,1711003126987174040,2051,2050,2048,2052,2029,2056,1194
1169,1711003126997175108,2064,2077,2048,2081,2143,2060,1196
1170,1711003127007178200,2053,2056,2086,2046,2018,2055,1195
1171,1711003127017180891,2052,2045,2036,2060,2066,2050,1196
1172,1711003127027173443,2052,2042,2049,2046,2014,2052,1197
1173,1711003127037177757,2060,2051,2030,2064,2104,2044,1193
1174,1711003127047179426,2061,2070,2147,2078,2034,2058,1196
1175,1711003127057186334,2057,2056,2067,2067,2080,2052,1198
1176,1711003127067178706,2046,2039,2055,2052,2024,2054,1197
1177,1711003127077178572,2055,2056,2038,2060,2082,2050,1196
1178,1711003127087176073,2056,2056,2064,2053,2023,2052,1199
1179,1711003127097177030,2059,2059,2045,2065,2090,2051,1198
1180,1711003127107175492,2055,2072,2129,2072,2076,2056,1196
1181,1711003127117179706,2056,2068,2036,2061,2075,2056,1197
1182,1711003127127184101,2050,2038,2044,2045,2028,2056,1196
1183,1711003127137174849,2061,2095,2075,2054,2053,2054,1196
1184,1711003127147175445,2057,2052,2052,2049,2034,2054,1199
1185,1711003127157225467,2054,2055,2031,2056,2074,2060,1197
1186,1711003127167183683,2050,2047,2051,2029,2020,2041,1193
1187,1711003127177173860,2056,2054,2065,2048,2076,2050,1194
1188,1711003127187172193,2048,2041,2040,2047,2030,2054,1194
1189,1711003127197170444,2057,2066,2041,2054,2080,2052,1197
1190,1711003127207172163,2056,2061,2080,2056,2017,2046,1193
1191,1711003127217175065,2061,2058,2032,2053,2088,2052,1196
1192,1711003127227174279,2052,2050,2080,2059,2044,2058,1199
1193,1711003127237171870,2052,2048,2006,2049,2065,2046,1192
1194,1711003127247193988,2049,2048,2044,2041,2022,2052,1196
1195,1711003127257203161,2064,2078,2064,2071,2091,2056,1196
1196,1711003127267174322,2056,2063,2072,2069,2071,2061,1194
1197,1711003127277193585,2061,2066,2044,2070,2086,2059,1197
1198,1711003127287173992,2056,2061,2095,2057,2021,2053,1197
1199,1711003127297191121,2052,2035,2008,2054,2089,2051,1198
1200,1711003127307200836,2056,2057,2080,2048,2024,2052,1197
1201,1711003127317174792,2068,2065,2037,2061,2085,2061,1196
1202,1711003127327176291,2054,2047,2057,2055,2030,2056,1197
1203,1711003127337175173,2061,2051,2038,2056,2074,2056,1195
1204,1711003127347186581,2050,2028,2052,2053,2053,2053,1195
1205,1711003127357165487,2060,2067,2114,2064,2076,2049,1195
1206,1711003127367174480,2049,2042,2052,2046,2015,2052,1197
1207,1711003127377176129,2062,2058,2069,2066,2078,2052,1196
1208,1711003127387186273,2054,2062,2072,2058,2036,2053,1195
1209,1711003127397186750,2047,2040,2032,2053,2072,2047,1193
1210,1711003127407202326,2053,2059,2065,2053,2056,2056,1197
1211,1711003127417189567,2061,2065,2078,2066,2104,2062,1196
1212,1711003127427185705,2052,2044,2054,2053,2036,2056,1197
1213,1711003127437188316,2064,2059,2034,2061,2075,2053,1194
1214,1711003127447207168,2052,2039,2032,2067,2040,2055,1197
1215,1711003127457215630,2061,2060,2052,2050,2067,2050,1195
1216,1711003127467165210,2057,2066,2051,2056,2012,2058,1196
1217,1711003127477175314,2057,2063,2077,2047,2046,2058,1196
1218,1711003127487173556,2056,2058,2075,2054,2032,2062,1197
1219,1711003127497199462,2060,2080,2081,2062,2069,2049,1196
1220,1711003127507189328,2055,2064,2082,2058,2032,2052,1195
1221,1711003127517178554,2049,2047,2012,2060,2089,2047,1196
1222,1711003127527174451,2053,2072,2084,2049,2044,2054,1196
1223,1711003127537175549,2056,2050,2042,2065,2082,2052,1195
1224,1711003127547184632,2051,2054,2069,2049,2021,2051,1195
1225,1711003127557182995,2057,2025,2011,2062,2090,2052,1196
1226,1711003127567171058,2056,2052,2098,2073,2059,2066,1198
1227,1711003127577172606,2072,2080,2112,2062,2074,2059,1195
1228,1711003127587172862,2052,2040,2033,2048,2070,2060,1194
1229,1711003127597185172,2056,2052,2000,2052,2085,2056,1197
1230,1711003127607201860,2050,2068,2080,2047,2025,2054,1196
1231,1711003127617182879,2056,2049,2024,2040,2057,2050,1196
1232,1711003127627176573,2058,2050,2034,2036,2020,2057,1194
1233,1711003127637178042,2050,2072,2033,2058,2120,2047,1192
1234,1711003127647203376,2054,2057,2056,2057,2046,2050,1195
1235,1711003127657175319,2054,2049,2029,2058,2073,2050,1195
1236,1711003127667185343,2046,2038,2032,2048,2050,2048,1196
1237,1711003127677172424,2074,2100,2117,2077,2096,2070,1196
1238,1711003127687174103,2045,2034,2056,2053,2010,2040,1195
1239,1711003127697178678,2057,2052,2028,2058,2097,2049,1199
1240,1711003127707183854,2063,2054,2072,2065,2034,2064,1196
1241,1711003127717180773,2052,2059,2036,2062,2087,2050,1198
1242,1711003127727177202,2051,2052,2066,2052,2025,2052,1195
1243,1711003127737178771,2061,2060,2045,2050,2066,2053,1197
1244,1711003127747175190,2057,2062,2081,2060,2009,2050,1195
1245,1711003127757175356,2052,2051,2045,2057,2066,2047,1193
1246,1711003127767188917,2052,2047,2044,2034,1979,2050,1196
1247,1711003127777183723,2056,2024,1985,2066,2065,2049,1194
1248,1711003127787176455,2059,2060,2103,2062,2050,2059,1192
1249,1711003127797177513,2055,2049,2039,2052,2066,2046,1193
1250,1711003127807187717,2054,2052,2067,2046,2025,2056,1195
1251,1711003127817182563,2055,2050,2041,2058,2076,2053,1197
1252,1711003127827178562,2058,2050,2060,2049,2040,2056,1195
1253,1711003127837171364,2059,2066,2030,2072,2120,2054,1195
1254,1711003127847176550,2056,2053,2099,2045,1993,2052,1193
1255,1711003127857200821,2059,2060,2081,2057,2072,2054,1194
1256,1711003127867164558,2047,2050,2062,2049,2031,2049,1198
1257,1711003127877176306,2053,2049,2025,2055,2088,2049,1197
1258,1711003127887177184,2056,2054,2080,2043,2030,2052,1196
1259,1711003127897173883,2057,2062,2080,2060,2073,2052,1198
1260,1711003127907182735,2065,2080,2080,2052,2019,2066,1197
1261,1711003127917174586,2061,2057,2069,2064,2074,2057,1196
1262,1711003127927174391,2053,2052,2046,2047,2040,2056,1196
1263,1711003127937174227,2059,2056,2037,2060,2066,2056,1196
1264,1711003127947182107,2057,2058,2076,2052,2024,2050,1196
1265,1711003127957175300,2056,2047,2004,2060,2072,2050,1195
1266,1711003127967181447,2051,2060,2031,2044,2025,2054,1194
1267,1711003127977177015,2049,2033,2006,2057,2094,2056,1197
1268,1711003127987174787,2054,2052,2066,2045,2005,2049,1194
1269,1711003127997175653,2056,2053,2038,2057,2079,2048,1197
1270,1711003128007174868,2048,2045,2062,2044,2013,2052,1196
1271,1711003128017195062,2058,2061,2042,2056,2066,2051,1195
1272,1711003128027177533,2050,2058,2066,2044,2029,2052,1196
1273,1711003128037178271,2064,2078,2060,2051,2072,2051,1196
1274,1711003128047184078,2047,2039,2056,2047,2033,2050,1195
1275,1711003128057183071,2057,2058,2034,2071,2105,2058,1194
1276,1711003128067178839,2050,2054,2058,2050,2025,2049,1197
1277,1711003128077180798,2060,2044,2015,2062,2077,2058,1198
1278,1711003128087180803,2060,2065,2129,2056,2033,2056,1197
1279,1711003128097181631,2056,2053,2043,2061,2077,2047,1194
1280,1711003128107181596,2054,2061,2065,2054,2042,2054,1196
1281,1711003128117182553,2060,2062,2029,2084,2115,2060,1195
1282,1711003128127182398,2056,2064,2075,2045,2025,2052,1196
1283,1711003128137183817,2041,2021,2005,2064,2084,2053,1195
1284,1711003128147188071,2057,2060,2064,2052,2029,2052,1198
1285,1711003128157190590,2050,2048,2025,2060,2065,2051,1196
1286,1711003128167184935,2052,2041,2032,2046,2036,2052,1196
1287,1711003128177185992,2049,2055,2043,2052,2088,2055,1196
1288,1711003128187185898,2061,2044,2047,2066,2038,2080,1194
1289,1711003128197188238,2058,2056,2070,2069,2120,2064,1196
1290,1711003128207186520,2062,2068,2149,2080,2076,2060,1196
1291,1711003128217186426,2065,2084,2067,2052,2071,2044,1192
1292,1711003128227169378,2052,2051,2051,2043,2029,2057,1194
1293,1711003128237171147,2062,2059,2024,2060,2081,2057,1195
1294,1711003128247193045,2054,2062,2096,2044,2025,2057,1197
1295,1711003128257165067,2059,2060,2047,2064,2080,2055,1197
1296,1711003128267189579,2064,2066,2112,2066,2035,2056,1197
1297,1711003128277172842,2056,2048,2032,2069,2104,2048,1195
1298,1711003128287188879,2056,2076,2072,2044,1984,2052,1195
1299,1711003128297173685,2065,2064,2052,2060,2080,2052,1195
1300,1711003128307194721,2050,2053,2081,2054,2008,2046,1194
1301,1711003128317189437,2060,2057,2068,2066,2074,2064,1197
1302,1711003128327174774,2058,2056,2070,2056,2018,2049,1196
1303,1711003128337200499,2056,2056,2025,2067,2090,2056,1196
1304,1711003128347172320,2044,2069,2088,2047,2025,2045,1194
1305,1711003128357194298,2060,2058,2049,2060,2049,2049,1195
1306,1711003128367173674,2042,2045,2068,2044,2035,2056,1197
1307,1711003128377177386,2061,2057,2052,2059,2070,2049,1195
1308,1711003128387174136,2054,2052,2085,2053,2030,2057,1195
1309,1711003128397172518,2059,2054,2033,2064,2085,2057,1193
1310,1711003128407203583,2048,2047,2032,2045,2026,2050,1196
1311,1711003128417171247,2056,2047,2040,2060,2073,2052,1196
1312,1711003128427170741,2053,2054,2056,2049,2020,2050,1196
1313,1711003128437172200,2061,2064,2061,2065,2080,2055,1195
1314,1711003128447202152,2050,2049,2063,2044,2031,2054,1196
1315,1711003128457180607,2064,2052,2019,2060,2068,2047,1193
1316,1711003128467172337,2052,2064,2115,2055,2042,2053,1196
1317,1711003128477175407,2060,2058,2047,2053,2062,2053,1195
1318,1711003128487175383,2060,2063,2098,2053,2020,2056,1197
1319,1711003128497204754,2058,2064,2036,2064,2088,2054,1197
1320,1711003128507188850,2050,2052,2064,2057,2062,2057,1194
1321,1711003128517178295,2064,2047,1970,2071,2070,2051,1195
1322,1711003128527173792,2048,2038,2029,2036,2024,2048,1193
1323,1711003128537176102,2058,2049,2036,2081,2084,2053,1195
1324,1711003128547205323,2051,2055,2068,2050,2027,2049,1195
1325,1711003128557173428,2057,2056,2037,2065,2092,2050,1199
1326,1711003128567171350,2053,2056,2104,2061,2045,2058,1196
1327,1711003128577168880,2062,2060,2052,2069,2095,2054,1196
1328,1711003128587173976,2052,2047,2062,2048,2024,2061,1197
1329,1711003128597176936,2060,2057,2044,2061,2073,2052,1196
1330,1711003128607199395,2056,2062,2098,2050,2024,2053,1195
1331,1711003128617182478,2052,2037,1992,2047,2072,2060,1197
1332,1711003128627174849,2058,2060,2048,2039,2012,2048,1195
1333,1711003128637177690,2057,2050,2034,2061,2088,2061,1197
1334,1711003128647178126,2056,2046,2049,2045,2028,2060,1198
1335,1711003128657183843,2058,2061,2058,2058,2066,2060,1195
1336,1711003128667180331,2056,2036,2032,2047,2029,2053,1197
1337,1711003128677174676,2055,2064,2037,2061,2074,2050,1193
1338,1711003128687173981,2057,2051,2050,2051,2024,2052,1195
1339,1711003128697172844,2060,2056,2038,2058,2065,2053,1196
1340,1711003128707190984,2053,2053,2076,2052,2013,2051,1196
1341,1711003128717184127,2049,2048,2041,2062,2079,2049,1194
1342,1711003128727177419,2058,2054,2088,2070,2028,2053,1196
1343,1711003128737177976,2060,2029,2024,2056,2047,2058,1197
1344,1711003128747191286,2054,2040,2046,2045,2052,2065,1197
1345,1711003128757175332,2062,2061,2058,2061,2098,2053,1195
1346,1711003128767171089,2057,2058,2064,2049,2028,2054,1197
1347,1711003128777178890,2061,2072,2041,2072,2064,2046,1195
1348,1711003128787172924,2051,2043,2050,2045,2022,2050,1195
1349,1711003128797174292,2064,2056,2047,2060,2068,2050,1194
1350,1711003128807177474,2045,2030,2034,2041,2023,2053,1196
1351,1711003128817171988,2064,2057,2053,2064,2108,2055,1197
1352,1711003128827174980,2048,2045,2048,2052,2032,2056,1196
1353,1711003128837178482,2065,2069,2058,2066,2084,2057,1197
1354,1711003128847206641,2051,2050,2048,2041,2006,2045,1194
1355,1711003128857164296,2063,2074,2072,2072,2085,2050,1196
1356,1711003128867170433,2050,2041,2053,2044,2028,2053,1197
1357,1711003128877169457,2056,2056,2041,2064,2075,2054,1196
1358,1711003128887171356,2056,2059,2070,2050,2028,2053,1196
1359,1711003128897174707,2059,2058,2032,2070,2103,2049,1197
1360,1711003128907166939,2054,2046,2053,2044,2025,2058,1197
1361,1711003128917184567,2061,2066,2068,2064,2077,2056,1196
1362,1711003128927181257,2062,2058,2061,2047,2019,2058,1198
1363,1711003128937182374,2053,2046,2035,2048,2068,2055,1197
1364,1711003128947205794,2051,2041,2021,2054,2024,2052,1197
1365,1711003128957174280,2058,2059,2048,2064,2054,2052,1194
1366,1711003128967173994,2056,2042,2049,2041,2029,2053,1195
1367,1711003128977172858,2064,2069,2065,2057,2069,2050,1196
1368,1711003128987172472,2051,2074,2059,2042,2019,2054,1194
1369,1711003128997173130,2062,2045,2040,2057,2072,2053,1197
1370,1711003129007175650,2056,2056,2056,2045,2036,2050,1196
1371,1711003129017187538,2058,2056,2054,2064,2080,2054,1196
1372,1711003129027171243,2058,2057,2064,2057,2056,2049,1196
1373,1711003129037172260,2057,2058,2064,2060,2055,2046,1196
1374,1711003129047175961,2046,2044,2027,2040,2021,2049,1195
1375,1711003129057178422,2069,2072,2088,2074,2080,2060,1197
1376,1711003129067178447,2054,2055,2058,2041,2008,2045,1193
1377,1711003129077182380,2057,2056,2043,2057,2077,2060,1196
1378,1711003129087176975,2058,2056,2081,2064,2043,2057,1196
1379,1711003129097178132,2063,2067,2108,2065,2064,2049,1197
1380,1711003129107176775,2052,2045,2047,2061,2053,2052,1196
1381,1711003129117183954,2064,2062,2043,2081,2109,2064,1198
1382,1711003129127177578,2048,2064,2062,2044,2025,2052,1197
1383,1711003129137178905,2060,2058,2057,2065,2072,2060,1197
1384,1711003129147177908,2051,2043,2048,2043,2033,2053,1196
1385,1711003129157199736,2060,2072,2100,2062,2064,2052,1197
1386,1711003129167179332,2052,2038,2037,2045,2027,2053,1196
1387,1711003129177185900,2051,2053,2053,2066,2084,2052,1197
1388,1711003129187185604,2052,2058,2078,2058,2028,2056,1194
1389,1711003129197198544,2059,2064,2064,2064,2072,2054,1195
1390,1711003129207183391,2051,2049,2069,2050,2030,2052,1195
1391,1711003129217183837,2058,2059,2070,2064,2080,2058,1195
1392,1711003129227186207,2054,2062,2053,2047,2032,2060,1196
1393,1711003129237184930,2057,2057,2030,2072,2086,2049,1196
1394,1711003129247187409,2052,2049,2049,2049,2030,2052,1194
1395,1711003129257215809,2061,2059,2046,2062,2072,2056,1195
1396,1711003129267187761,2052,2051,2060,2043,2028,2053,1194
1397,1711003129277165483,2054,2042,2041,2052,2042,2052,1194
1398,1711003129287165349,2052,2034,2056,2047,2021,2048,1195
1399,1711003129297168249,2061,2068,2096,2069,2093,2060,1196
1400,1711003129307167103,2062,2064,2040,2057,2032,2055,1195
1401,1711003129317175113,2054,2052,2030,2058,2094,2049,1198
1402,1711003129327193474,2054,2064,2084,2049,2038,2052,1197
1403,1711003129337179131,2059,2084,2058,2063,2061,2060,1198
1404,1711003129347195948,2057,2053,2045,2058,2041,2054,1196
1405,1711003129357195073,2060,2061,2039,2042,2028,2052,1196
1406,1711003129367191070,2052,2047,2048,2044,2019,2052,1197
1407,1711003129377170436,2058,2054,2081,2056,2085,2059,1197
1408,1711003129387167646,2050,2065,2058,2040,2030,2050,1193
1409,1711003129397168182,2060,2061,2078,2061,2075,2057,1197
1410,1711003129407206972,2050,2056,2053,2056,2031,2051,1196
1411,1711003129417177310,2057,2055,2040,2059,2064,2053,1194
1412,1711003129427172156,2056,2059,2074,2067,2069,2061,1196
1413,1711003129437172932,2053,2049,2048,2056,2068,2054,1197
1414,1711003129447180993,2054,2056,2117,2072,2069,2056,1198
1415,1711003129457194314,2056,2056,2027,2058,2064,2056,1197
1416,1711003129467186514,2053,2048,2060,2053,2042,2056,1195
1417,1711003129477170859,2058,2084,2068,2064,2072,2050,1196
1418,1711003129487173360,2044,2037,2033,2046,2032,2046,1195
1419,1711003129497173545,2063,2066,2049,2066,2096,2054,1197
1420,1711003129507176907,2056,2057,2070,2054,2032,2053,1197
1421,1711003129517181651,2056,2061,2058,2077,2114,2056,1198
1422,1711003129527179182,2050,2049,2060,2041,2030,2052,1196
1423,1711003129537181762,2053,2052,2042,2056,2067,2056,1197
1424,1711003129547194682,2058,2060,2060,2049,2028,2052,1195
1425,1711003129557186131,2057,2056,2044,2073,2082,2056,1196
1426,1711003129567175285,2056,2048,2059,2050,2035,2053,1194
1427,1711003129577181693,2052,2042,2030,2070,2106,2053,1196
1428,1711003129587173122,2047,2049,2035,2052,2037,2052,1194
1429,1711003129597174319,2050,2024,2014,2066,2064,2048,1195
1430,1711003129607177381,2058,2040,2005,2054,2044,2053,1195
1431,1711003129617189780,2056,2053,2042,2063,2090,2052,1196
1432,1711003129627184566,2046,2041,2060,2043,2038,2053,1196
1433,1711003129637177036,2052,2052,2063,2065,2078,2054,1197
1434,1711003129647184635,2048,2045,2033,2045,2038,2056,1196
1435,1711003129657181275,2060,2068,2125,2064,2065,2054,1195
1436,1711003129667164468,2056,2028,2061,2046,2031,2054,1195
1437,1711003129677171587,2057,2043,2044,2057,2056,2052,1197
1438,1711003129687169779,2056,2056,2074,2048,2013,2050,1196
1439,1711003129697173250,2057,2056,2050,2074,2090,2060,1196
1440,1711003129707202352,2058,2050,2060,2052,2038,2060,1196
1441,1711003129717186115,2056,2050,2064,2066,2053,2044,1192
1442,1711003129727174770,2049,2048,2032,2040,2028,2053,1197
1443,1711003129737175476,2052,2043,2030,2052,2070,2053,1196
1444,1711003129747205428,2049,2045,2051,2063,2062,2057,1197
1445,1711003129757185436,2060,2052,2022,2057,2068,2058,1194
1446,1711003129767187444,2048,2057,2055,2054,2057,2049,1198
1447,1711003129777171149,2059,2058,2065,2053,2060,2053,1196
1448,1711003129787177116,2049,2051,2056,2046,2022,2059,1193
1449,1711003129797176710,2057,2061,2108,2059,2058,2050,1196
1450,1711003129807189280,2052,2052,2087,2057,2060,2048,1197
1451,1711003129817181780,2056,2055,2060,2046,2026,2043,1194
1452,1711003129827192456,2056,2049,2033,2053,2064,2049,1194
1453,1711003129837184947,2062,2085,2106,2065,2072,2060,1196
1454,1711003129847193057,2056,2043,2015,2045,2040,2052,1196
1455,1711003129857220956,2052,2046,2043,2062,2066,2056,1196
1456,1711003129867184281,2056,2061,2075,2057,2069,2053,1196
1457,1711003129877178646,2057,2059,2074,2064,2042,2059,1196
1458,1711003129887184793,2050,2052,2041,2047,2044,2050,1194
1459,1711003129897187754,2058,2033,2015,2062,2066,2055,1196
1460,1711003129907185505,2046,2025,1973,2034,2019,2050,1197
1461,1711003129917184999,2054,2050,2021,2052,2064,2053,1198
1462,1711003129927194533,2056,2064,2073,2046,2037,2054,1196
1463,1711003129937188216,2065,2068,2139,2081,2092,2059,1195
1464,1711003129947190375,2047,2037,2040,2040,2011,2046,1194
1465,1711003129957187465,2054,2060,2085,2067,2061,2058,1198
1466,1711003129967183653,2051,2040,2047,2053,2040,2049,1197
1467,1711003129977185682,2061,2059,2083,2064,2073,2053,1195
1468,1711003129987183854,2049,2041,1998,2042,2036,2048,1194
1469,1711003129997187126,2052,2037,2051,2050,2068,2052,1196
1470,1711003130007205647,2062,2080,2162,2065,2057,2060,1197
1471,1711003130017196624,2056,2045,2037,2042,2053,2047,1192
1472,1711003130027182983,2056,2036,2047,2052,2070,2054,1195
1473,1711003130037187407,2057,2047,2052,2052,2065,2052,1193
1474,1711003130047182643,2058,2073,2097,2053,2040,2066,1195
1475,1711003130057196504,2057,2049,2056,2056,2067,2056,1196
1476,1711003130067190378,2056,2041,2038,2057,2044,2050,1195
1477,1711003130077185092,2056,2044,2036,2045,2033,2052,1196
1478,1711003130087185770,2052,2074,2063,2043,2029,2053,1196
1479,1711003130097186496,2058,2050,2030,2057,2067,2054,1197
1480,1711003130107185088,2052,2047,2033,2044,2040,2054,1196
1481,1711003130117191174,2060,2054,2008,2076,2072,2052,1196
1482,1711003130127183404,2057,2064,2056,2052,2040,2049,1196
1483,1711003130137234337,2061,2070,2064,2062,2057,2052,1197
1484,1711003130147189597,2050,2046,2052,2056,2032,2052,1198
1485,1711003130157203849,2056,2050,2060,2069,2088,2061,1196
1486,1711003130167205116,2056,2060,2056,2046,2024,2052,1196
1487,1711003130177174934,2067,2072,2099,2072,2056,2064,1198
1488,1711003130187177775,2060,2054,2053,2067,2081,2057,1196
1489,1711003130197189602,2061,2058,2053,2057,2062,2053,1196
1490,1711003130207196561,2049,2043,2046,2047,2045,2059,1196
1491,1711003130217181467,2065,2101,2137,2062,2057,2066,1197
1492,1711003130227177794,2060,2067,2161,2058,2041,2057,1197
1493,1711003130237173502,2058,2059,2062,2064,2090,2060,1197
1494,1711003130247185019,2049,2047,2042,2047,2040,2050,1195
1495,1711003130257187509,2054,2050,2048,2060,2067,2053,1196
1496,1711003130267166884,2056,2056,2056,2056,2044,2053,1195
1497,1711003130277178131,2055,2083,2047,2056,2084,2058,1196
1498,1711003130287183126,2057,2048,2046,2052,2066,2052,1195
1499,1711003130297179354,2065,2073,2052,2045,2061,2052,1197
1500,1711003130307177174,2053,2052,2056,2042,2017,2054,1197
1501,1711003130317192418,2060,2056,2036,2063,2064,2051,1196
1502,1711003130327177415,2050,2045,2044,2053,2038,2051,1195
1503,1711003130337177981,2055,2056,2051,2052,2043,2053,1196
1504,1711003130347172897,2058,2064,2064,2056,2092,2058,1195
1505,1711003130357171759,2056,2061,2088,2054,2058,2057,1196
1506,1711003130367172916,2046,2041,2025,2045,2042,2051,1196
1507,1711003130377171810,2059,2068,2046,2060,2072,2057,1195
1508,1711003130387177947,2060,2056,2033,2053,2030,2060,1194
1509,1711003130397194423,2061,2069,2110,2079,2089,2061,1197
1510,1711003130407177606,2050,2040,2067,2052,2069,2053,1196
1511,1711003130417175617,2061,2063,2036,2071,2075,2057,1195
1512,1711003130427175162,2052,2046,2032,2049,2040,2056,1196
1513,1711003130437200024,2057,2056,2044,2061,2073,2058,1197
1514,1711003130447208876,2058,2050,2056,2065,2051,2059,1196
1515,1711003130457174305,2054,2054,2018,2070,2082,2060,1195
1516,1711003130467179770,2057,2061,2072,2061,2049,2051,1197
1517,1711003130477174566,2061,2060,2068,2062,2063,2058,1195
1518,1711003130487174641,2061,2065,2086,2076,2097,2061,1196
1519,1711003130497149398,2056,2055,2073,2061,2068,2056,1197
1520,1711003130507180121,2057,2057,2066,2072,2042,2055,1197
1521,1711003130517176029,2051,2050,2072,2069,2069,2056,1197
1522,1711003130527176886,2053,2056,2069,2060,2015,2047,1193
1523,1711003130537178784,2058,2062,2050,2056,2058,2056,1196
1524,1711003130547203687,2051,2040,2032,2049,2039,2053,1196
1525,1711003130557188472,2062,2081,2107,2068,2092,2059,1197
1526,1711003130567182878,2056,2056,2098,2056,2048,2051,1194
1527,1711003130577183504,2058,2060,2065,2063,2069,2060,1194
1528,1711003130587182737,2059,2056,2067,2059,2053,2060,1194
1529,1711003130597187080,2056,2052,2053,2053,2056,2056,1195
1530,1711003130607187145,2048,2054,2053,2057,2068,2057,1196
1531,1711003130617184526,2056,2061,2053,2060,2061,2057,1197
1532,1711003130627188559,2052,2045,2048,2057,2050,2057,1196
1533,1711003130637198833,2054,2048,2036,2068,2075,2056,1196
1534,1711003130647164172,2052,2052,2064,2054,2072,2046,1194
1535,1711003130657184256,2065,2060,2056,2059,2066,2057,1196
1536,1711003130667167990,2048,2040,2043,2044,2042,2052,1197
1537,1711003130677187382,2057,2051,2055,2052,2062,2058,1196
1538,1711003130687187667,2054,2054,2046,2053,2013,2045,1192
1539,1711003130697191630,2052,2052,2074,2054,2041,2044,1194
1540,1711003130707169392,2055,2059,2080,2049,2036,2052,1195
1541,1711003130717141334,2053,2056,2082,2047,2044,2056,1194
1542,1711003130727141099,2053,2053,2072,2055,2020,2051,1196
1543,1711003130737174047,2052,2032,2026,2054,2055,2050,1195
1544,1711003130747197997,2056,2049,2057,2054,2046,2053,1196
1545,1711003130757177093,2060,2067,2085,2062,2076,2058,1196
1546,1711003130767173892,2052,2046,2066,2053,2043,2056,1193
1547,1711003130777176051,2053,2056,2053,2052,2054,2050,1196
1548,1711003130787173912,2061,2064,2068,2069,2056,2056,1194
1549,1711003130797174407,2058,2053,2024,2059,2072,2050,1195
1550,1711003130807176937,2054,2023,2004,2052,2057,2064,1197
1551,1711003130817174819,2056,2025,1972,2061,2047,2056,1196
1552,1711003130827175315,2045,2040,2044,2050,2041,2056,1194
1553,1711003130837177834,2056,2059,2064,2064,2076,2057,1194
1554,1711003130847202737,2052,2060,2054,2049,2041,2052,1194
1555,1711003130857165591,2060,2059,2056,2061,2060,2056,1196
1556,1711003130867160257,2057,2049,2030,2045,2035,2055,1195
1557,1711003130877162967,2056,2072,2090,2045,2012,2049,1195
1558,1711003130887160457,2057,2058,2049,2061,2063,2051,1197
1559,1711003130897171283,2051,2049,2025,2048,2047,2043,1195
1560,1711003130907175556,2052,2048,2040,2045,2038,2058,1196
1561,1711003130917170792,2058,2052,2075,2064,2077,2052,1196
1562,1711003130927170516,2059,2088,2134,2074,2076,2061,1197
1563,1711003130937169810,2065,2069,2088,2064,2069,2061,1196
1564,1711003130947174944,2056,2050,2041,2052,2043,2050,1196
1565,1711003130957175621,2052,2047,2047,2046,2022,2047,1194
1566,1711003130967167351,2061,2060,2068,2045,2014,2047,1193
1567,1711003130977165953,2059,2056,2072,2062,2101,2056,1197
1568,1711003130987166609,2054,2056,2048,2050,2036,2051,1195
1569,1711003130997192043,2059,2061,2057,2058,2060,2056,1196
1570,1711003131007176338,2055,2043,2040,2046,2028,2051,1196
1571,1711003131017176554,2058,2081,2122,2072,2076,2057,1194
1572,1711003131027175156,2052,2050,2044,2044,2032,2050,1196
1573,1711003131037174349,2053,2050,2044,2049,2066,2050,1196
1574,1711003131047171869,2053,2060,2086,2069,2050,2056,1197
1575,1711003131057176022,2057,2060,2036,2057,2059,2050,1196
1576,1711003131067172600,2049,2042,2029,2048,2045,2050,1197
1577,1711003131077170571,2060,2070,2116,2073,2068,2056,1196
1578,1711003131087182028,2056,2042,2034,2041,2004,2051,1196
1579,1711003131097183606,2052,2041,2034,2052,2056,2052,1196
1580,1711003131107172820,2053,2050,2040,2042,2027,2043,1194
1581,1711003131117175901,2052,2040,2037,2054,2068,2053,1193
1582,1711003131127171988,2054,2050,2056,2052,2042,2050,1197
1583,1711003131137176902,2056,2057,2056,2068,2060,2053,1197
1584,1711003131147172960,2054,2080,2059,2047,2030,2047,1193
1585,1711003131157176551,2056,2055,2043,2050,2051,2050,1196
1586,1711003131167173000,2049,2052,2040,2057,2049,2052,1197
1587,1711003131177173896,2057,2060,2070,2068,2046,2054,1196
1588,1711003131187171597,2053,2053,2068,2058,2049,2051,1195
1589,1711003131197184917,2059,2052,2042,2056,2067,2056,1195
1590,1711003131207177457,2056,2056,2055,2056,2054,2056,1197
1591,1711003131217168555,2056,2054,2113,2067,2053,2053,1195
1592,1711003131227170774,2056,2050,2035,2043,2048,2052,1196
1593,1711003131237168876,2054,2049,2038,2083,2106,2060,1196
1594,1711003131247169421,2047,2033,2028,2044,2013,2044,1194
1595,1711003131257184034,2057,2056,2044,2054,2056,2052,1196
1596,1711003131267174240,2051,2056,2053,2053,2058,2061,1197
1597,1711003131277166360,2062,2068,2088,2069,2064,2060,1196
1598,1711003131287176745,2049,2021,2019,2051,2041,2052,1196
1599,1711003131297183763,2056,2045,2045,2054,2062,2056,1198
1600,1711003131307203305,2049,2040,2042,2058,2070,2057,1197
1601,1711003131317175477,2059,2060,2083,2065,2073,2056,1196
1602,1711003131327173237,2052,2049,2044,2050,2074,2056,1194
1603,1711003131337172932,2056,2045,2024,2057,2061,2053,1196
1604,1711003131347172957,2053,2063,2108,2045,2057,2045,1194
1605,1711003131357169615,2052,2044,2045,2056,2063,2053,1196
1606,1711003131367169410,2053,2053,2044,2054,2056,2062,1196
1607,1711003131377173533,2051,2040,2017,2054,2052,2059,1196
1608,1711003131387170321,2058,2053,2029,2058,2031,2057,1195
1609,1711003131397182379,2051,2046,2025,2054,2060,2049,1198
1610,1711003131407181101,2053,2049,2038,2040,2033,2052,1196
1611,1711003131417177279,2049,2044,2044,2057,2058,2055,1196
1612,1711003131427177985,2056,2056,2043,2047,2037,2051,1197
1613,1711003131437176457,2057,2069,2096,2060,2060,2056,1196
1614,1711003131447186160,2058,2058,2105,2054,2045,2056,1197
1615,1711003131457175676,2050,2046,2030,2065,2064,2055,1198
1616,1711003131467175610,2052,2046,2022,2044,2015,2047,1194
1617,1711003131477172870,2058,2073,2066,2076,2065,2056,1196
1618,1711003131487173145,2050,2052,2053,2052,2068,2049,1197
1619,1711003131497170736,2066,2072,2074,2065,2060,2060,1197
1620,1711003131507176011,2062,2053,2047,2072,2081,2063,1198
1621,1711003131517178420,2053,2042,2036,2073,2122,2057,1195
1622,1711003131527175730,2050,2046,2011,2054,2029,2046,1192
1623,1711003131537177438,2053,2064,2043,2049,2052,2050,1196
1624,1711003131547195167,2049,2053,2040,2049,2047,2056,1196
1625,1711003131557175233,2060,2051,2069,2059,2061,2056,1197
1626,1711003131567173415,2054,2050,2044,2057,2052,2061,1196
1627,1711003131577175964,2057,2056,2069,2059,2068,2056,1197
1628,1711003131587174226,2056,2058,2065,2051,2051,2062,1196
1629,1711003131597205330,2061,2055,2059,2066,2073,2058,1196
1630,1711003131607178775,2052,2026,2028,2049,2042,2056,1198
1631,1711003131617183688,2051,2034,2047,2060,2061,2053,1196
1632,1711003131627182061,2046,2039,2036,2030,2051,2049,1196
1633,1711003131637184671,2054,2052,2042,2056,2049,2052,1194
1634,1711003131647180467,2052,2051,2044,2048,2048,2054,1196
1635,1711003131657177336,2056,2055,2069,2052,2058,2054,1196
1636,1711003131667186959,2060,2085,2109,2052,2032,2050,1196
1637,1711003131677182215,2059,2057,2050,2056,2060,2053,1196
1638,1711003131687181208,2059,2068,2109,2052,2051,2052,1198
1639,1711003131697201542,2057,2061,2073,2060,2094,2058,1197
1640,1711003131707167151,2047,2035,2031,2040,2038,2049,1197
1641,1711003131717185701,2060,2063,2053,2058,2061,2054,1196
1642,1711003131727172461,2060,2058,2064,2060,2061,2051,1196
1643,1711003131737174129,2058,2053,2056,2062,2066,2060,1195
1644,1711003131747174494,2060,2080,2077,2066,2058,2058,1197
1645,1711003131757188185,2050,2043,2060,2057,2058,2052,1197
1646,1711003131767194713,2056,2060,2068,2056,2055,2056,1196
1647,1711003131777176503,2053,2049,2060,2056,2065,2056,1198
1648,1711003131787175906,2048,2057,2139,2068,2035,2050,1195
1649,1711003131797176642,2056,2032,2033,2049,2060,2051,1195
1650,1711003131807176136,2056,2041,2043,2049,2046,2052,1196
1651,1711003131817178876,2056,2056,2089,2057,2060,2056,1196
1652,1711003131827178770,2046,2052,2064,2058,2077,2047,1194
1653,1711003131837175118,2053,2064,2050,2056,2060,2058,1196
1654,1711003131847179762,2054,2052,2040,2064,2048,2049,1195
1655,1711003131857175018,2058,2058,2070,2054,2059,2056,1199
1656,1711003131867173399,2053,2052,2052,2049,2044,2053,1195
1657,1711003131877176630,2064,2062,2112,2077,2080,2060,1195
1658,1711003131887172888,2048,2038,2037,2060,2075,2054,1195
1659,1711003131897178253,2053,2052,2063,2046,2057,2051,1196
1660,1711003131907175433,2059,2045,2040,2066,2090,2044,1192
1661,1711003131917179235,2057,2048,2047,2053,2060,2056,1195
1662,1711003131927174200,2052,2049,2074,2058,2049,2047,1194
1663,1711003131937176499,2056,2052,2040,2043,2013,2047,1194
1664,1711003131947179610,2057,2070,2071,2064,2036,2055,1197
1665,1711003131957174886,2056,2048,2055,2048,2046,2056,1197
1666,1711003131967180632,2062,2068,2062,2060,2057,2058,1197
1667,1711003131977182991,2052,2049,2032,2045,2029,2053,1195
1668,1711003131987177335,2054,2054,2042,2056,2052,2054,1194
1669,1711003131997179364,2060,2053,2056,2061,2066,2059,1196
1670,1711003132007177926,2054,2064,2060,2044,2032,2051,1197
1671,1711003132017196576,2052,2049,2041,2040,2042,2050,1195
1672,1711003132027177986,2052,2025,2010,2043,2035,2053,1196
1673,1711003132037177259,2053,2036,2040,2052,2070,2060,1196
1674,1711003132047175761,2057,2056,2047,2053,2053,2053,1197
1675,1711003132057178110,2050,2043,2053,2068,2064,2050,1197
1676,1711003132067166231,2054,2052,2054,2047,2012,2046,1195
1677,1711003132077173470,2064,2068,2092,2058,2043,2056,1198
1678,1711003132087168746,2056,2055,2048,2052,2048,2056,1197
1679,1711003132097172057,2061,2061,2070,2060,2050,2055,1197
1680,1711003132107180518,2047,2024,2050,2038,2010,2042,1192
1681,1711003132117192535,2060,2045,2056,2052,2052,2060,1198
1682,1711003132127194854,2055,2046,2014,2042,2024,2058,1195
1683,1711003132137189589,2057,2084,2120,2072,2072,2056,1195
1684,1711003132147205364,2047,2045,2000,2047,2041,2049,1197
1685,1711003132157183576,2054,2053,2048,2040,2043,2054,1196
1686,1711003132167191878,2058,2060,2054,2071,2101,2060,1197
1687,1711003132177184227,2051,2052,2054,2061,2052,2052,1197
1688,1711003132187180515,2058,2072,2060,2048,2053,2056,1193
1689,1711003132197194085,2050,2044,2045,2050,2036,2050,1195
1690,1711003132207187277,2052,2042,2034,2058,2072,2049,1198
1691,1711003132217190838,2056,2040,2044,2048,2052,2056,1197
1692,1711003132227186995,2050,2056,2056,2044,2040,2047,1194
1693,1711003132237187121,2054,2064,2079,2062,2065,2057,1195
1694,1711003132247178930,2056,2029,2036,2056,2047,2053,1197
1695,1711003132257202179,2052,2032,2022,2056,2085,2068,1196
1696,1711003132267169060,2053,2052,2041,2049,2044,2056,1196
1697,1711003132277174295,2049,2042,2031,2064,2083,2066,1196
1698,1711003132287173808,2050,2045,2037,2041,2039,2059,1196
1699,1711003132297172721,2053,2051,2036,2049,2065,2053,1196
1700,1711003132307166584,2054,2065,2065,2047,2052,2054,1195
1701,1711003132317146711,2066,2058,2064,2051,2034,2052,1196
1702,1711003132327173336,2057,2050,2083,2058,2044,2054,1195
1703,1711003132337174854,2058,2054,2058,2060,2064,2056,1195
1704,1711003132347177162,2053,2054,2058,2074,2115,2056,1196
1705,1711003132357177107,2058,2053,2057,2056,2065,2053,1196
1706,1711003132367177743,2062,2064,2053,2065,2072,2058,1196
1707,1711003132377177788,2053,2051,2040,2064,2066,2064,1196
1708,1711003132387177693,2057,2067,2082,2057,2044,2052,1193
1709,1711003132397179621,2054,2076,2062,2058,2048,2053,1193
1710,1711003132407203982,2069,2092,2184,2050,1997,2054,1195
1711,1711003132417180662,2056,2058,2076,2049,2032,2049,1197
1712,1711003132427183171,2048,2050,2049,2050,2042,2049,1195
1713,1711003132437183527,2050,2053,2050,2056,2055,2055,1194
1714,1711003132447187229,2056,2051,2064,2052,2057,2056,1195
1715,1711003132457179428,2060,2058,2061,2068,2078,2061,1195
1716,1711003132467160376,2046,2033,2005,2035,2026,2052,1196
1717,1711003132477171673,2061,2059,2042,2055,2056,2054,1195
1718,1711003132487174813,2050,2046,2040,2056,2081,2046,1194
1719,1711003132497173365,2057,2051,2035,2050,2057,2060,1195
1720,1711003132507182538,2049,2040,2004,2045,2030,2043,1193
1721,1711003132517180749,2056,2062,2075,2058,2064,2053,1197
1722,1711003132527174882,2052,2046,2036,2053,2060,2048,1196
1723,1711003132537176530,2056,2069,2061,2048,2077,2051,1194
1724,1711003132547169481,2050,2049,2039,2041,2037,2053,1196
1725,1711003132557171209,2053,2034,2012,2052,2056,2053,1195
1726,1711003132567174901,2053,2042,2014,2041,2049,2046,1192
1727,1711003132577175086,2058,2067,2087,2061,2056,2057,1194
1728,1711003132587172886,2056,2054,2044,2051,2044,2053,1193
1729,1711003132597171919,2056,2059,2055,2047,2049,2056,1195
1730,1711003132607182424,2051,2024,2041,2041,2037,2052,1196
1731,1711003132617179913,2053,2029,2042,2058,2069,2052,1196
1732,1711003132627174347,2058,2064,2085,2051,2020,2052,1196
1733,1711003132637175424,2069,2085,2168,2076,2053,2061,1196
1734,1711003132647175880,2052,2046,2022,2043,2047,2049,1192
1735,1711003132657178009,2061,2067,2100,2061,2057,2058,1196
1736,1711003132667173916,2056,2030,2025,2045,2047,2053,1197
1737,1711003132677175663,2056,2044,2069,2059,2061,2062,1194
1738,1711003132687181228,2056,2056,2048,2050,2036,2047,1195
1739,1711003132697174230,2050,2040,2046,2046,2042,2056,1196
1740,1711003132707180296,2057,2061,2102,2048,2044,2054,1197
1741,1711003132717168739,2053,2053,2058,2058,2069,2056,1197
1742,1711003132727178643,2051,2032,2053,2056,2053,2056,1195
1743,1711003132737174960,2058,2041,2057,2064,2065,2059,1195
1744,1711003132747175746,2053,2052,2061,2056,2056,2052,1195
1745,1711003132757183856,2054,2046,2061,2058,2058,2057,1194
1746,1711003132767175855,2047,2040,2034,2056,2061,2052,1195
1747,1711003132777181551,2058,2054,2046,2062,2085,2058,1195
1748,1711003132787179893,2053,2049,2052,2065,2056,2052,1193
1749,1711003132797178414,2056,2077,2047,2061,2064,2060,1195
1750,1711003132807176455,2056,2060,2049,2048,2032,2050,1195
1751,1711003132817178323,2057,2056,2061,2060,2064,2058,1196
1752,1711003132827177366,2050,2053,2053,2057,2068,2058,1194
1753,1711003132837177852,2059,2074,2070,2059,2066,2051,1198
1754,1711003132847184289,2054,2054,2050,2053,2050,2054,1197
1755,1711003132857181558,2056,2085,2076,2049,2044,2053,1194
1756,1711003132867174449,2044,2038,2049,2033,2026,2049,1196
1757,1711003132877177900,2054,2049,2042,2045,2046,2058,1198
1758,1711003132887175791,2046,2031,1994,2040,2029,2049,1194
1759,1711003132897175846,2056,2042,2025,2049,2031,2052,1197
1760,1711003132907175520,2060,2064,2084,2068,2063,2056,1196
1761,1711003132917175304,2048,2027,2041,2051,2033,2050,1197
1762,1711003132927173405,2056,2046,2064,2075,2088,2059,1198
1763,1711003132937179582,2056,2050,2047,2057,2051,2056,1195
1764,1711003132947182943,2056,2062,2070,2057,2052,2051,1197
1765,1711003132957179501,2059,2043,2048,2074,2076,2060,1196
1766,1711003132967178673,2056,2049,2045,2064,2066,2054,1197
1767,1711003132977180081,2055,2053,2047,2062,2053,2057,1196
1768,1711003132987179905,2056,2058,2046,2049,2051,2052,1193
1769,1711003132997180591,2059,2063,2072,2060,2057,2056,1197
1770,1711003133007181588,2056,2044,2012,2071,2076,2054,1195
1771,1711003133017160853,2054,2052,2049,2054,2042,2060,1196
1772,1711003133027182719,2054,2050,2021,2061,2054,2053,1196
1773,1711003133037182322,2056,2052,2078,2059,2048,2052,1199
1774,1711003133047186364,2060,2064,2073,2066,2082,2064,1196
1775,1711003133057185407,2057,2063,2065,2057,2056,2061,1194
1776,1711003133067182066,2056,2047,2026,2052,2074,2053,1196
1777,1711003133077159527,2053,2047,2038,2057,2046,2059,1198
1778,1711003133087183868,2053,2053,2054,2054,2049,2048,1196
1779,1711003133097167421,2052,2047,2045,2053,2043,2052,1195
1780,1711003133107168617,2056,2056,2033,2056,2053,2057,1194
1781,1711003133117187077,2056,2057,2068,2053,2045,2053,1197
1782,1711003133127193033,2055,2061,2060,2058,2066,2058,1196
1783,1711003133137169913,2050,2042,2072,2041,2030,2051,1195
1784,1711003133147187281,2050,2047,2052,2052,2056,2048,1196
1785,1711003133157190391,2063,2064,2109,2070,2052,2058,1195
1786,1711003133167179645,2059,2048,2051,2044,2016,2053,1195
1787,1711003133177170913,2059,2052,2046,2049,2012,2053,1196
1788,1711003133187171308,2059,2069,2098,2059,2060,2053,1193
1789,1711003133197170551,2058,2068,2097,2061,2048,2056,1197
1790,1711003133207171617,2054,2052,2040,2060,2076,2057,1194
1791,1711003133217169688,2054,2050,2058,2076,2084,2058,1195
1792,1711003133227175624,2057,2057,2096,2055,2061,2056,1197
1793,1711003133237176310,2047,2045,2037,2061,2082,2056,1194
1794,1711003133247193838,2058,2056,2043,2060,2064,2059,1196
1795,1711003133257174315,2045,2032,2017,2053,2030,2051,1195
1796,1711003133267177625,2056,2062,2072,2047,2056,2056,1196
1797,1711003133277171579,2049,2049,2045,2051,2049,2055,1196
1798,1711003133287176493,2056,2051,2036,2047,2049,2051,1196
1799,1711003133297177088,2060,2053,2022,2068,2059,2056,1195
1800,1711003133307176361,2056,2056,2032,2057,2115,2057,1196
1801,1711003133317177828,2057,2059,2064,2053,2045,2053,1195
1802,1711003133327175959,2050,2056,2047,2044,2044,2050,1196
1803,1711003133337182015,2056,2047,2070,2064,2070,2063,1197
1804,1711003133347181749,2054,2060,2056,2052,2068,2049,1194
1805,1711003133357173448,2052,2045,2050,2054,2057,2064,1196
1806,1711003133367182570,2064,2068,2062,2064,2048,2058,1197
1807,1711003133377172474,2053,2048,2070,2048,2052,2057,1195
1808,1711003133387171087,2046,2047,2053,2045,2045,2044,1192
1809,1711003133397175850,2057,2049,2070,2051,2036,2052,1196
1810,1711003133407176726,2051,2064,2042,2052,2076,2056,1197
1811,1711003133417208591,2053,2057,2065,2059,2045,2052,1198
1812,1711003133427176203,2051,2049,2033,2046,2057,2054,1196
1813,1711003133437173754,2056,2071,2077,2053,2041,2056,1197
1814,1711003133447191422,2055,2053,2051,2059,2050,2052,1198
1815,1711003133457181988,2061,2070,2102,2068,2056,2057,1197
1816,1711003133467192663,2054,2049,2042,2068,2090,2046,1194
1817,1711003133477169413,2053,2034,2054,2068,2044,2052,1196
1818,1711003133487184396,2061,2056,2073,2059,2084,2062,1197
1819,1711003133497178980,2057,2056,2072,2054,2053,2052,1197
1820,1711003133507174375,2056,2054,2019,2054,2064,2053,1197
1821,1711003133517195711,2056,2053,2050,2056,2049,2055,1195
1822,1711003133527178062,2057,2054,2039,2049,2052,2047,1195
1823,1711003133537178597,2074,2093,2203,2078,2027,2062,1195
1824,1711003133547175586,2055,2067,2047,2053,2051,2054,1195
1825,1711003133557202542,2048,2036,2035,2052,2026,2046,1192
1826,1711003133567205051,2058,2054,2070,2056,2053,2052,1197
1827,1711003133577198884,2054,2056,2053,2057,2045,2051,1197
1828,1711003133587186895,2058,2068,2097,2068,2066,2053,1193
1829,1711003133597186739,2054,2053,2060,2066,2044,2051,1195
1830,1711003133607189499,2053,2051,2020,2056,2064,2052,1196
1831,1711003133617221795,2053,2066,2057,2040,2045,2056,1195
1832,1711003133627188957,2061,2063,2052,2058,2058,2052,1196
1833,1711003133637194762,2049,2037,2030,2050,2047,2051,1195
1834,1711003133647191801,2060,2054,2042,2050,2051,2047,1193
1835,1711003133657203759,2057,2050,2040,2052,2044,2051,1197
1836,1711003133667196159,2050,2053,2036,2052,2056,2053,1198
1837,1711003133677206883,2057,2058,2078,2056,2049,2057,1197
1838,1711003133687189905,2052,2041,2080,2058,2036,2053,1195
1839,1711003133697187325,2060,2061,2123,2082,2084,2060,1197
1840,1711003133707187660,2054,2060,2066,2060,2060,2052,1196
1841,1711003133717186853,2053,2052,2054,2056,2050,2056,1195
1842,1711003133727203589,2056,2059,2067,2059,2046,2049,1198
1843,1711003133737209204,2060,2047,2040,2065,2081,2059,1196
1844,1711003133747198920,2050,2049,2032,2058,2057,2056,1195
1845,1711003133757196730,2053,2062,2068,2056,2043,2056,1196
1846,1711003133767180713,2056,2054,2041,2057,2061,2053,1197
1847,1711003133777166480,2051,2044,2047,2049,2038,2047,1193
1848,1711003133787172516,2060,2060,2042,2064,2066,2057,1195
1849,1711003133797170296,2064,2079,2117,2072,2044,2057,1198
1850,1711003133807170852,2048,2046,2025,2037,2020,2050,1195
1851,1711003133817177018,2058,2056,2052,2060,2026,2053,1196
1852,1711003133827174819,2057,2054,2023,2072,2086,2054,1196
1853,1711003133837174062,2052,2045,2040,2059,2064,2060,1196
1854,1711003133847177974,2049,2049,2029,2052,2082,2049,1195
1855,1711003133857176244,2059,2059,2104,2054,2006,2053,1195
1856,1711003133867556645,2056,2058,2056,2056,2066,2050,1196
1857,1711003133877187114,2057,2061,2072,2057,2052,2058,1196
1858,1711003133887174234,2055,2054,2040,2053,2042,2044,1194
1859,1711003133897175240,2061,2066,2122,2054,2044,2053,1195
1860,1711003133907172710,2050,2053,2018,2059,2133,2053,1193
1861,1711003133917175891,2051,2052,2068,2057,2048,2056,1195
1862,1711003133927179472,2056,2051,2043,2047,2037,2046,1194
1863,1711003133937177592,2056,2048,2072,2066,2044,2058,1196
1864,1711003133947179571,2054,2056,2041,2052,2058,2050,1196
1865,1711003133957179145,2058,2075,2128,2064,2050,2056,1195
1866,1711003133967177957,2055,2054,2112,2057,2059,2053,1196
1867,1711003133977179634,2059,2070,2056,2060,2031,2049,1197
1868,1711003133987178447,2059,2061,2081,2056,2047,2056,1195
1869,1711003133997180405,2052,2057,2105,2054,2044,2051,1195
1870,1711003134007178175,2052,2048,2008,2047,2056,2052,1196
1871,1711003134017174302,2052,2047,2033,2060,2052,2064,1195
1872,1711003134027192551,2054,2053,2037,2055,2053,2052,1197
1873,1711003134037184640,2058,2051,2032,2056,2056,2059,1194
1874,1711003134047185075,2046,2041,2015,2043,2047,2050,1197
1875,1711003134057182675,2060,2074,2116,2056,2042,2060,1197
1876,1711003134067174644,2050,2042,2028,2052,2064,2052,1194
1877,1711003134077184056,2046,2042,2057,2051,2043,2053,1194
1878,1711003134087175975,2057,2063,2076,2062,2072,2056,1195
1879,1711003134097176610,2061,2056,2062,2056,2053,2059,1199
1880,1711003134107177396,2059,2066,2032,2073,2085,2061,1195
1881,1711003134117173412,2053,2049,2052,2044,2041,2053,1195
1882,1711003134127187022,2052,2047,2060,2062,2062,2056,1197
1883,1711003134137187367,2054,2053,2068,2060,2044,2056,1196
1884,1711003134147182502,2058,2054,2036,2056,2063,2054,1197
1885,1711003134157210560,2056,2057,2062,2053,2040,2053,1197
1886,1711003134167380979,2068,2085,2096,2084,2075,2062,1195
1887,1711003134177195399,2056,2073,2068,2046,1997,2060,1197
1888,1711003134187192759,2055,2056,2048,2057,2044,2046,1192
1889,1711003134197193584,2056,2050,2069,2056,2041,2056,1197
1890,1711003134207195011,2056,2048,2015,2046,2064,2047,1195
1891,1711003134217172142,2053,2049,2076,2054,2078,2064,1196
1892,1711003134227194699,2056,2056,2027,2056,2071,2056,1196
1893,1711003134237177912,2052,2052,2057,2053,2032,2056,1198
1894,1711003134247197503,2065,2058,2050,2072,2056,2052,1196
1895,1711003134257214489,2055,2056,2078,2052,2037,2054,1198
1896,1711003134267202712,2058,2066,2081,2052,2070,2057,1197
1897,1711003134277186144,2060,2065,2069,2058,2043,2058,1195
1898,1711003134287181118,2064,2062,2053,2056,2057,2056,1196
1899,1711003134297179229,2058,2057,2083,2064,2040,2056,1196
1900,1711003134307182499,2057,2064,2056,2052,2067,2052,1197
1901,1711003134317208714,2052,2027,2041,2050,2043,2052,1197
1902,1711003134327184922,2053,2038,1998,2042,2057,2047,1194
1903,1711003134337214654,2051,2038,2026,2056,2068,2061,1197
1904,1711003134347204378,2052,2053,2011,2054,2067,2041,1193
1905,1711003134357268515,2056,2048,2060,2050,2045,2052,1196
1906,1711003134367178878,2059,2057,2048,2052,2059,2052,1195
1907,1711003134377185946,2050,2045,2062,2054,2080,2051,1196
1908,1711003134387192032,2053,2037,2006,2050,2070,2053,1193
1909,1711003134397185704,2052,2040,2064,2046,2029,2049,1195
1910,1711003134407192080,2056,2056,2045,2058,2064,2057,1197
1911,1711003134417173128,2056,2047,2046,2053,2037,2052,1196
1912,1711003134427179455,2056,2052,2061,2052,2058,2055,1195
1913,1711003134437174499,2058,2056,2064,2056,2044,2056,1196
1914,1711003134447184613,2058,2074,2049,2056,2065,2053,1195
1915,1711003134457163867,2056,2052,2083,2054,2042,2056,1196
1916,1711003134467162899,2052,2049,2024,2042,2044,2051,1194
1917,1711003134477183654,2064,2074,2098,2068,2032,2060,1196
1918,1711003134487173819,2053,2056,2024,2040,2034,2048,1196
1919,1711003134497174564,2054,2064,2084,2049,2039,2053,1196
1920,1711003134507172324,2050,2055,2062,2058,2097,2052,1195
1921,1711003134517173150,2070,2081,2149,2058,2038,2060,1197
1922,1711003134527182252,2058,2056,2066,2056,2040,2055,1197
1923,1711003134537179170,2049,2052,2096,2066,2043,2051,1196
1924,1711003134547176229,2058,2054,2033,2058,2076,2059,1195
1925,1711003134557183086,2046,2047,2051,2044,2012,2049,1196
1926,1711003134567179694,2052,2064,2036,2061,2059,2052,1196
1927,1711003134577178376,2049,2038,2032,2048,2029,2052,1196
1928,1711003134587178470,2056,2059,2036,2051,2095,2056,1193
1929,1711003134597178915,2059,2076,2065,2058,2012,2049,1196
1930,1711003134607176245,2055,2051,1989,2046,2062,2049,1194
1931,1711003134617164306,2053,2051,2084,2054,2040,2056,1193
1932,1711003134627183175,2056,2055,2044,2056,2064,2052,1197
1933,1711003134637179784,2049,2041,2040,2058,2034,2061,1197
1934,1711003134647174758,2050,2055,2045,2048,2071,2052,1197
1935,1711003134657180694,2053,2025,2067,2049,2034,2055,1194
1936,1711003134667178904,2057,2038,2036,2056,2066,2053,1195
1937,1711003134677177155,2056,2062,2121,2069,2065,2060,1196
1938,1711003134687175186,2050,2050,2041,2048,2045,2042,1194
1939,1711003134697172886,2065,2082,2154,2062,2040,2058,1197
1940,1711003134707176016,2060,2045,2018,2042,2036,2050,1198
1941,1711003134717179818,2058,2048,2068,2040,2021,2056,1197
1942,1711003134727176996,2056,2081,2073,2064,2069,2052,1195
1943,1711003134737175458,2052,2059,2069,2058,2042,2056,1195
1944,1711003134747180231,2053,2057,2031,2052,2063,2054,1197
1945,1711003134757180837,2047,2049,2057,2045,2033,2048,1197
1946,1711003134767197353,2051,2060,2046,2069,2088,2056,1197
1947,1711003134777166728,2056,2064,2102,2065,2040,2056,1196
1948,1711003134787174808,2048,2042,2028,2041,2045,2041,1193
1949,1711003134797174892,2053,2048,2060,2049,2035,2047,1193
1950,1711003134807171840,2065,2062,2063,2058,2056,2056,1197
1951,1711003134817182475,2052,2049,2057,2051,2050,2056,1195
1952,1711003134827162651,2054,2049,2026,2051,2057,2051,1197
1953,1711003134837171642,2060,2068,2112,2056,2028,2056,1195
1954,1711003134847178289,2056,2052,2016,2064,2081,2053,1195
1955,1711003134857179907,2065,2070,2122,2072,2052,2061,1197
1956,1711003134867202765,2056,2045,2078,2056,2064,2050,1194
1957,1711003134877184775,2060,2037,2061,2050,2037,2054,1195
1958,1711003134887179338,2060,2059,2043,2061,2074,2060,1199
1959,1711003134897183781,2058,2059,2096,2052,2038,2056,1196
1960,1711003134907183866,2060,2058,2033,2056,2077,2052,1196
1961,1711003134917187036,2053,2052,2062,2044,2040,2052,1197
1962,1711003134927176781,2037,2030,2009,2064,2099,2044,1194
1963,1711003134937174861,2056,2045,2041,2059,2044,2061,1196
1964,1711003134947177531,2051,2038,2027,2046,2050,2045,1193
1965,1711003134957193565,2056,2050,2074,2049,2037,2057,1197
1966,1711003134967183940,2056,2047,1997,2048,2069,2047,1195
1967,1711003134977176651,2052,2048,2061,2052,2038,2052,1197
1968,1711003134987175964,2059,2065,2067,2057,2073,2050,1194
1969,1711003134997179354,2052,2050,2056,2050,2038,2057,1194
1970,1711003135007174389,2057,2056,2056,2057,2067,2053,1194
1971,1711003135017178772,2053,2056,2085,2062,2042,2056,1195
1972,1711003135027207611,2053,2053,2036,2048,2064,2050,1195
1973,1711003135037176085,2059,2059,2093,2064,2045,2057,1196
1974,1711003135047181609,2056,2074,2043,2057,2073,2044,1193
1975,1711003135057198706,2052,2054,2075,2056,2029,2054,1195
1976,1711003135067170657,2049,2036,2021,2048,2066,2056,1193
1977,1711003135077177594,2054,2076,2102,2042,2026,2050,1195
1978,1711003135087174792,2056,2032,2021,2046,2064,2051,1197
1979,1711003135097173464,2059,2037,2029,2065,2085,2064,1198
1980,1711003135107176033,2061,2063,2052,2061,2060,2050,1197
1981,1711003135117195444,2050,2044,2031,2076,2079,2064,1196
1982,1711003135127176481,2045,2033,2005,2038,2043,2040,1194
1983,1711003135137172869,2058,2055,2105,2072,2022,2056,1196
1984,1711003135147179957,2057,2050,2050,2051,2066,2052,1194
1985,1711003135157185391,2054,2031,2086,2064,2056,2058,1198
1986,1711003135167174624,2059,2053,2040,2056,2070,2051,1196
1987,1711003135177193574,2048,2054,2118,2052,2036,2047,1194
1988,1711003135187173560,2060,2053,2036,2065,2089,2047,1192
1989,1711003135197176790,2053,2053,2070,2053,2040,2057,1198
1990,1711003135207172426,2056,2046,1989,2047,2065,2046,1194
1991,1711003135217177600,2049,2042,2051,2052,2038,2056,1194
1992,1711003135227181201,2059,2054,2032,2056,2062,2052,1197
1993,1711003135237176476,2046,2065,2052,2050,2033,2052,1197
1994,1711003135247181409,2053,2049,2016,2066,2084,2049,1198
1995,1711003135257187385,2047,2042,2060,2050,2024,2045,1194
1996,1711003135267179153,2053,2051,2031,2059,2072,2049,1195
1997,1711003135277174207,2053,2049,2070,2056,2046,2057,1198
1998,1711003135287171596,2056,2060,2024,2058,2064,2046,1195
1999,1711003135297172803,2056,2052,2051,2054,2038,2056,1197
2000,1711003135307172567,2059,2054,2044,2062,2077,2050,1197
2001,1711003135317188651,2046,2046,2079,2052,2029,2048,1196
2002,1711003135327174167,2056,2088,2087,2072,2076,2052,1196
2003,1711003135337175183,2056,2047,2052,2050,2037,2054,1196
2004,1711003135347175799,2056,2056,2013,2059,2080,2054,1194
2005,1711003135357177456,2056,2054,2053,2055,2053,2058,1199
2006,1711003135367185515,2055,2052,2022,2046,2064,2043,1193
2007,1711003135377173125,2056,2052,2047,2059,2032,2058,1197
2008,1711003135387176646,2057,2076,2066,2048,2062,2056,1195
2009,1711003135397176009,2059,2059,2089,2031,1992,2050,1196
2010,1711003135407177946,2060,2042,2020,2052,2066,2055,1198
2011,1711003135417177750,2053,2049,2068,2065,2055,2058,1196
2012,1711003135427179828,2056,2047,2019,2046,2053,2045,1193
2013,1711003135437145807,2049,2054,2072,2047,2035,2053,1197
2014,1711003135447191388,2050,2051,2021,2045,2054,2045,1193
2015,1711003135457165042,2056,2055,2088,2046,2032,2062,1196
2016,1711003135467160137,2061,2082,2016,2074,2122,2053,1196
2017,1711003135477180109,2047,2035,2049,2033,1979,2045,1192
2018,1711003135487180483,2050,2048,2010,2042,2044,2045,1193
2019,1711003135497184515,2047,2050,2070,2050,2036,2056,1197
2020,1711003135507184800,2059,2066,2040,2064,2077,2054,1197
2021,1711003135517181217,2057,2058,2084,2056,2034,2056,1195
2022,1711003135527189356,2063,2061,2022,2072,2072,2053,1198
2023,1711003135537185453,2056,2068,2079,2064,2024,2053,1196
2024,1711003135547184556,2054,2044,2003,2048,2061,2046,1193
2025,1711003135557187425,2057,2044,2043,2027,1980,2062,1197
2026,1711003135567165507,2059,2060,2042,2053,2063,2052,1196
2027,1711003135577188254,2052,2046,2065,2044,2026,2053,1195
2028,1711003135587169483,2067,2076,2102,2074,2074,2053,1193
2029,1711003135597172532,2041,2040,2056,2047,2029,2056,1195
2030,1711003135607172857,2073,2099,2066,2068,2076,2060,1197
2031,1711003135617191517,2053,2052,2070,2053,2040,2052,1196
2032,1711003135627162465,2060,2053,2039,2066,2066,2059,1195
2033,1711003135637171296,2053,2058,2095,2059,2063,2052,1196
2034,1711003135647173574,2057,2057,2030,2052,2072,2056,1197
2035,1711003135657192194,2049,2047,2060,2047,2027,2052,1195
2036,1711003135667198140,2056,2033,2012,2054,2077,2057,1195
2037,1711003135677191691,2054,2044,2069,2056,2040,2059,1195
2038,1711003135687175945,2056,2057,2040,2050,2075,2052,1195
2039,1711003135697177191,2056,2062,2093,2082,2056,2059,1198
2040,1711003135707177125,2057,2051,2014,2056,2060,2052,1195
2041,1711003135717179373,2047,2036,2060,2049,2021,2052,1195
2042,1711003135727175951,2054,2057,2047,2058,2081,2056,1196
2043,1711003135737176135,2056,2051,2081,2059,2061,2064,1197
2044,1711003135747204564,2056,2053,2012,2045,2069,2053,1197
2045,1711003135757177636,2051,2052,2084,2052,2030,2050,1196
2046,1711003135767177951,2056,2061,2045,2056,2074,2065,1197
2047,1711003135777173787,2056,2054,2041,2053,2045,2057,1198
2048,1711003135787166096,2052,2049,2032,2045,2058,2053,1195
2049,1711003135797160359,2058,2073,2112,2060,2040,2056,1197
2050,1711003135807165282,2067,2067,2032,2047,2063,2053,1198
2051,1711003135817168202,2052,2046,2073,2053,2004,2045,1193
2052,1711003135827174088,2056,2053,2032,2067,2081,2056,1196
2053,1711003135837172068,2051,2048,2057,2041,2023,2050,1196
2054,1711003135847175598,2061,2077,2084,2058,2097,2056,1196
2055,1711003135857170913,2053,2056,2073,2045,2026,2047,1193
2056,1711003135867187690,2056,2038,2029,2052,2065,2046,1193
2057,1711003135877182123,2058,2049,2080,2049,2010,2052,1198
2058,1711003135887176135,2057,2055,2024,2058,2080,2050,1198
2059,1711003135897171450,2052,2051,2072,2041,2007,2053,1197
2060,1711003135907170964,2046,2044,2032,2060,2095,2050,1197
2061,1711003135917180125,2051,2051,2066,2046,2024,2049,1196
2062,1711003135927177093,2058,2067,2041,2045,2047,2053,1199
2063,1711003135937177548,2050,2056,2094,2062,2028,2057,1196
2064,1711003135947179176,2065,2085,2051,2060,2075,2046,1193
2065,1711003135957192976,2050,2042,2058,2058,2056,2058,1195
2066,1711003135967172901,2061,2072,2105,2074,2081,2058,1196
2067,1711003135977178155,2051,2050,2070,2056,2028,2057,1194
2068,1711003135987175745,2057,2056,2036,2045,2066,2043,1193
2069,1711003135997174526,2058,2056,2072,2053,2030,2054,1196
2070,1711003136007175983,2057,2059,2046,2061,2084,2054,1194
2071,1711003136017171509,2062,2089,2109,2060,2035,2059,1196
2072,1711003136027201891,2053,2053,2049,2049,2065,2053,1196
2073,1711003136037176405,2053,2056,2085,2049,2038,2058,1197
2074,1711003136047181850,2052,2045,2016,2054,2058,2050,1197
2075,1711003136057169690,2053,2047,2050,2050,2060,2057,1196
2076,1711003136067175435,2051,2053,2041,2056,2071,2047,1195
2077,1711003136077176150,2054,2057,2092,2054,2032,2052,1196
2078,1711003136087161216,2060,2066,2058,2056,2085,2054,1197
2079,1711003136097172661,2053,2046,2080,2053,2016,2057,1200
2080,1711003136107170120,2063,2059,2036,2056,2073,2058,1197
2081,1711003136117166276,2057,2055,2052,2073,2088,2058,1197
2082,1711003136127173394,2062,2066,2077,2068,2099,2056,1196
2083,1711003136137172496,2052,2046,2068,2049,2040,2056,1196
2084,1711003136147202807,2056,2067,2027,2056,2078,2045,1194
2085,1711003136157180179,2053,2049,2049,2047,2040,2058,1196
2086,1711003136167174491,2056,2056,2040,2058,2079,2055,1196
2087,1711003136177176519,2053,2060,2092,2050,2013,2053,1195
2088,1711003136187174849,2056,2057,2057,2072,2109,2054,1194
2089,1711003136197176086,2046,2041,2055,2039,1994,2050,1196
2090,1711003136207173495,2054,2062,2049,2056,2070,2058,1196
2091,1711003136217178307,2054,2070,2067,2047,2020,2049,1194
2092,1711003136227176658,2060,2080,2053,2059,2074,2052,1194
2093,1711003136237175570,2056,2057,2068,2053,2037,2053,1196
2094,1711003136247189681,2057,2064,2042,2064,2078,2048,1195
2095,1711003136257167622,2046,2028,2032,2042,2015,2051,1194
2096,1711003136267173828,2062,2061,2033,2056,2057,2052,1197
2097,1711003136277176787,2056,2064,2128,2052,2029,2057,1196
2098,1711003136287174306,2049,2032,2011,2062,2100,2046,1194
2099,1711003136297174210,2065,2066,2132,2057,2028,2058,1196
2100,1711003136307180435,2056,2065,2057,2057,2075,2047,1193
2101,1711003136317178165,2060,2072,2156,2075,2056,2056,1195
2102,1711003136327176776,2064,2061,2028,2059,2084,2052,1197
2103,1711003136337175658,2053,2053,2052,2050,2019,2064,1195
2104,1711003136347183556,2068,2065,2035,2053,2062,2050,1196
2105,1711003136357167099,2053,2050,2052,2054,2028,2053,1196
2106,1711003136367171903,2056,2056,2033,2065,2075,2056,1197
2107,1711003136377172788,2046,2050,2044,2038,1990,2056,1195
2108,1711003136387173694,2056,2042,2030,2051,2072,2051,1195
2109,1711003136397174107,2054,2049,2058,2043,2021,2053,1194
2110,1711003136407168631,2058,2054,2009,2060,2084,2057,1196
2111,1711003136417174526,2050,2046,2058,2052,2020,2052,1196
2112,1711003136427175161,2064,2068,2041,2056,2073,2053,1196
2113,1711003136437176528,2050,2036,2047,2047,2057,2064,1197
2114,1711003136447179627,2052,2054,2024,2064,2095,2047,1192
2115,1711003136457199539,2057,2044,2040,2036,1987,2051,1196
2116,1711003136467176679,2057,2058,2034,2051,2084,2055,1197
2117,1711003136477178507,2044,2045,2073,2049,2040,2046,1196
2118,1711003136487180454,2060,2031,2012,2056,2075,2053,1197
2119,1711003136497180097,2053,2041,2051,2048,2005,2056,1197
2120,1711003136507188146,2065,2069,2052,2072,2106,2053,1197
2121,1711003136517182519,2053,2053,2072,2048,2046,2058,1197
2122,1711003136527183696,2056,2060,2047,2067,2084,2053,1197
2123,1711003136537185873,2060,2064,2088,2054,2025,2053,1197
2124,1711003136547205315,2060,2045,2012,2052,2076,2053,1196
2125,1711003136557179238,2057,2047,2063,2051,2032,2064,1193
2126,1711003136567185785,2054,2032,2027,2060,2090,2052,1196
2127,1711003136577186850,2056,2066,2141,2070,2010,2057,1197
2128,1711003136587184981,2060,2068,2080,2068,2093,2053,1195
2129,1711003136597187189,2050,2044,2065,2050,2030,2058,1194
2130,1711003136607176191,2075,2058,2029,2061,2081,2060,1197
2131,1711003136617192997,2048,2061,2085,2061,2034,2056,1197
2132,1711003136627185437,2056,2057,2033,2063,2085,2059,1197
2133,1711003136637173618,2054,2058,2076,2047,2034,2054,1196
2134,1711003136647191686,2053,2039,1988,2064,2079,2050,1197
2135,1711003136657182913,2052,2049,2074,2048,1992,2043,1196
2136,1711003136667133793,2063,2079,2068,2066,2096,2055,1193
2137,1711003136677171689,2052,2056,2084,2060,2045,2057,1195
2138,1711003136687174498,2057,2058,2061,2060,2078,2046,1194
2139,1711003136697197216,2050,2051,2067,2050,2023,2050,1199
2140,1711003136707172563,2056,2057,2028,2049,2054,2045,1195
2141,1711003136717177385,2051,2044,2057,2049,2027,2048,1197
2142,1711003136727202778,2057,2052,2058,2058,2057,2052,1197
2143,1711003136737179196,2053,2053,2056,2058,2026,2057,1198
2144,1711003136747191053,2064,2065,2051,2060,2069,2055,1196
2145,1711003136757216064,2055,2057,2068,2058,2049,2054,1197
2146,1711003136767168167,2056,2052,2036,2056,2068,2053,1195
2147,1711003136777178520,2057,2053,2068,2041,2009,2058,1196
2148,1711003136787173715,2058,2047,2027,2052,2068,2052,1196
2149,1711003136797174481,2050,2046,2088,2048,2025,2057,1195
2150,1711003136807544570,2056,2056,2036,2058,2073,2047,1194
2151,1711003136817175710,2054,2052,2067,2049,2028,2052,1196
2152,1711003136827177868,2058,2056,2038,2054,2062,2048,1197
2153,1711003136837174997,2060,2033,2049,2037,2032,2045,1193
2154,1711003136847215216,2062,2047,2045,2077,2095,2066,1195
2155,1711003136857185053,2056,2070,2082,2064,2044,2082,1195
2156,1711003136867164428,2056,2056,2033,2033,2093,2066,1196
2157,1711003136877174260,2055,2049,2052,2053,2036,2060,1194
2158,1711003136887173553,2058,2060,2042,2060,2080,2050,1195
2159,1711003136897174458,2053,2056,2068,2049,2020,2058,1197
2160,1711003136907180514,2060,2056,2043,2072,2058,2054,1196
2161,1711003136917174786,2052,2050,2076,2045,2009,2054,1197
2162,1711003136927173688,2056,2056,2040,2058,2082,2050,1196
2163,1711003136937175736,2052,2048,2067,2070,2029,2050,1195
2164,1711003136947182783,2056,2060,2035,2079,2084,2066,1195
2165,1711003136957180703,2052,2052,2072,2047,2008,2052,1197
2166,1711003136967177891,2056,2047,2040,2060,2067,2048,1197
2167,1711003136977170912,2052,2054,2080,2052,2018,2049,1193
2168,1711003136987174101,2056,2057,2041,2056,2054,2049,1196
2169,1711003136997172042,2053,2057,2082,2049,2031,2056,1197
2170,1711003137007185290,2058,2058,2060,2064,2081,2051,1195
2171,1711003137017177690,2057,2079,2080,2058,2056,2056,1197
2172,1711003137027173425,2058,2055,2034,2055,2075,2052,1198
2173,1711003137037190050,2056,2061,2060,2058,2040,2048,1196
2174,1711003137047173482,2058,2055,2040,2059,2073,2053,1196
2175,1711003137057174918,2053,2050,2073,2046,2020,2052,1195
2176,1711003137067176656,2057,2054,2039,2058,2093,2060,1198
2177,1711003137077176038,2052,2049,2064,2050,2031,2056,1197
2178,1711003137087144010,2056,2033,2033,2064,2081,2056,1196
2179,1711003137097174733,2056,2041,2068,2047,2032,2059,1197
2180,1711003137107177321,2056,2064,2061,2092,2154,2063,1196
2181,1711003137117194207,2050,2050,2068,2057,2036,2056,1196
2182,1711003137127174353,2063,2052,2032,2049,2053,2051,1196
2183,1711003137137182672,2053,2053,2069,2058,2042,2050,1197
2184,1711003137147180913,2057,2051,2040,2053,2070,2048,1197
2185,1711003137157170416,2053,2052,2066,2050,2033,2054,1197
2186,1711003137167147555,2057,2084,2056,2065,2082,2056,1197
2187,1711003137177179891,2053,2057,2093,2047,2038,2061,1194
2188,1711003137187175436,2053,2054,2033,2062,2082,2054,1194
2189,1711003137197202562,2054,2042,2072,2050,2037,2052,1196
2190,1711003137207172258,2064,2056,2039,2057,2077,2053,1196
2191,1711003137217188261,2052,2052,2068,2047,2037,2050,1194
2192,1711003137227175321,2058,2059,2038,2069,2067,2053,1194
2193,1711003137237193409,2056,2060,2070,2075,2038,2058,1193
2194,1711003137247165679,2059,2057,2041,2068,2083,2053,1196
2195,1711003137257176544,2050,2049,2068,2056,2033,2056,1195
2196,1711003137267175946,2056,2048,2035,2066,2068,2064,1196
2197,1711003137277174296,2054,2046,2066,2052,2046,2061,1195
2198,1711003137287173799,2059,2057,2043,2054,2068,2054,1196
2199,1711003137297182429,2053,2053,2076,2054,2037,2058,1195
2200,1711003137307174528,2053,2053,2045,2064,2052,2053,1195
2201,1711003137317167578,2052,2046,2066,2036,2014,2052,1196
2202,1711003137327174845,2058,2048,2040,2058,2088,2053,1196
2203,1711003137337189137,2053,2023,2047,2046,2021,2053,1195
2204,1711003137347169693,2060,2052,2045,2068,2082,2057,1196
2205,1711003137357175236,2056,2050,2078,2048,2024,2055,1197
2206,1711003137367175932,2057,2055,2039,2047,2057,2056,1196
2207,1711003137377174412,2056,2056,2064,2056,2036,2060,1196
2208,1711003137387174497,2056,2044,2038,2068,2086,2060,1195
2209,1711003137397176694,2056,2052,2062,2051,2027,2054,1197
2210,1711003137407172870,2059,2058,2033,2058,2075,2052,1195
2211,1711003137417166382,2050,2052,2072,2015,2018,2053,1197
2212,1711003137427164622,2057,2057,2045,2036,2079,2035,1192
