seq,time,data[0],data[1],data[2],data[3],data[4],data[5],data[6]
201,1711002431735201383,2046,2050,2064,2049,2045,2054,1194
202,1711002431745227891,2052,2047,2002,2013,2021,2042,1190
203,1711002431755201096,2049,2060,2077,2047,2024,2058,1195
204,1711002431765224256,2065,2062,2097,2093,2104,2062,1198
205,1711002431775201068,2059,2064,2138,2099,2104,2068,1194
206,1711002431785223608,2058,2052,2038,2051,2076,2055,1195
207,1711002431795203404,2048,2051,2078,2079,2064,2059,1194
208,1711002431805227237,2061,2038,1973,2062,2058,2050,1195
209,1711002431815200331,2052,2047,2048,2038,2026,2055,1193
210,1711002431825224194,2061,2045,2040,2048,2049,2050,1197
211,1711002431835202087,2056,2054,2049,2052,2036,2058,1194
212,1711002431845223775,2061,2049,2064,2029,2006,2044,1194
213,1711002431855199976,2044,2056,2074,2030,2043,2048,1194
214,1711002431865222455,2064,2077,2128,2053,2056,2052,1197
215,1711002431875200558,2048,2048,2054,2060,2049,2056,1193
216,1711002431885222698,2052,2032,1979,2032,2045,2046,1193
217,1711002431895205310,2052,2073,2164,2070,2042,2065,1194
218,1711002431905221357,2078,2083,2064,2073,2049,2052,1196
219,1711002431915201285,2052,2069,2115,2059,2049,2057,1195
220,1711002431925193205,2065,2065,2068,2072,2098,2056,1195
221,1711002431935199934,2059,2066,2107,2078,2085,2066,1195
222,1711002431945222164,2064,2058,2056,2034,2067,2056,1195
223,1711002431955199967,2046,2043,2072,2025,2058,2050,1196
224,1711002431965220342,2052,2036,1980,2080,2060,2058,1195
225,1711002431975200250,2054,2062,2085,2052,2057,2060,1195
226,1711002431985222809,2058,2043,2020,2105,2080,2058,1197
227,1711002431995200152,2048,2065,2052,2050,2017,2040,1193
228,1711002432005223103,2062,2047,2064,2074,2065,2057,1198
229,1711002432015202138,2048,2060,2082,2052,2024,2046,1196
230,1711002432025233414,2053,2050,2062,2074,2092,2046,1193
231,1711002432035202479,2053,2051,2045,2056,2096,2064,1195
232,1711002432045227863,2059,2041,2005,2055,2081,2063,1194
233,1711002432055205154,2053,2053,2032,2062,2013,2060,1196
234,1711002432065228555,2061,2034,1972,2045,2057,2045,1194
235,1711002432075202249,2039,2044,2038,2008,2017,2049,1194
236,1711002432085225861,2044,2033,2031,2002,2033,2042,1193
237,1711002432095202421,2045,2045,2081,2072,2066,2064,1195
238,1711002432105237003,2065,2049,2020,2049,2078,2059,1195
239,1711002432115258550,2052,2062,2046,2057,2047,2058,1195
240,1711002432125230381,2047,2034,1986,2024,1997,2030,1192
241,1711002432135206339,2042,2050,2048,2055,2033,2051,1195
242,1711002432145229590,2056,2046,2027,2052,2054,2048,1196
243,1711002432155202653,2052,2051,2050,2082,2094,2060,1195
244,1711002432165231444,2058,2051,2013,2046,2051,2050,1195
245,1711002432175202242,2051,2052,2045,2059,2063,2059,1197
246,1711002432185232537,2051,2045,2015,2044,2061,2049,1197
247,1711002432195202544,2032,2029,2035,2031,2032,2045,1194
248,1711002432205213371,2065,2056,2029,2051,2056,2060,1194
249,1711002432215203416,2052,2060,2072,2077,2109,2058,1194
250,1711002432225237197,2062,2056,2038,2064,2104,2058,1195
251,1711002432235204309,2047,2056,2072,2034,2008,2048,1195
252,1711002432245238791,2058,2043,2034,2054,2076,2052,1194
253,1711002432255201764,2054,2065,2085,2041,2010,2056,1196
254,1711002432265240776,2061,2061,2058,2056,2050,2058,1195
255,1711002432275202717,2052,2056,2068,2056,2060,2057,1192
256,1711002432285222120,2059,2058,2059,2056,2060,2058,1193
257,1711002432295201235,2052,2053,2054,2081,2043,2056,1196
258,1711002432305222632,2056,2059,2045,2053,2029,2050,1195
259,1711002432315253878,2052,2057,2064,2066,2045,2056,1194
260,1711002432325226810,2064,2056,2068,2046,2058,2049,1196
261,1711002432335203180,2047,2048,2053,2061,2054,2054,1193
262,1711002432345221351,2060,2050,2035,2050,2068,2051,1193
263,1711002432355200886,2052,2048,2068,2060,2042,2058,1195
264,1711002432365229136,2061,2060,2040,2052,2050,2038,1193
265,1711002432375202430,2046,2047,2054,2068,2068,2064,1197
266,1711002432385228817,2057,2052,2046,2070,2091,2054,1196
267,1711002432395261104,2051,2057,2081,2065,2052,2052,1195
268,1711002432405236652,2064,2060,2051,2048,2056,2054,1195
269,1711002432415201950,2045,2057,2072,2071,2053,2054,1196
270,1711002432425223146,2080,2053,2038,2052,2044,2040,1193
271,1711002432435202872,2053,2062,2078,2073,2077,2068,1195
272,1711002432445226314,2066,2056,2037,2046,2068,2056,1194
273,1711002432455201149,2052,2056,2062,2058,2048,2058,1198
274,1711002432465212377,2061,2053,2045,2054,2064,2050,1196
275,1711002432475201161,2052,2058,2063,2041,2018,2049,1194
276,1711002432485215975,2063,2057,2043,2066,2031,2056,1195
277,1711002432495204127,2042,2059,2076,2078,2057,2057,1199
278,1711002432505231956,2057,2052,2036,2044,2062,2052,1197
279,1711002432515207484,2053,2061,2086,2082,2055,2059,1195
280,1711002432525225935,2059,2048,2026,2033,2050,2056,1196
281,1711002432535202054,2061,2066,2080,2072,2074,2064,1195
282,1711002432545248560,2036,2045,2035,2041,2037,2045,1192
283,1711002432556298644,2037,2058,2078,2061,2069,2057,1193
284,1711002432565228401,2070,2064,2077,2017,2049,2049,1197
285,1711002432575201765,2045,2059,2066,2077,2082,2050,1197
286,1711002432585250705,2060,2040,2020,2014,2041,2038,1193
287,1711002432595200894,2045,2054,2066,2053,2033,2050,1196
288,1711002432605227090,2057,2044,2027,2048,2070,2052,1195
289,1711002432615202107,2056,2058,2073,2054,2030,2057,1194
290,1711002432625227822,2067,2060,2039,2060,2078,2057,1195
291,1711002432635207077,2059,2057,2071,2061,2056,2074,1197
292,1711002432645214918,2058,2045,2016,2078,2081,2046,1191
293,1711002432655202950,2047,2047,2062,2049,2028,2052,1198
294,1711002432665229557,2063,2061,2072,2060,2076,2052,1196
295,1711002432675201498,2049,2047,2056,2020,2041,2058,1193
296,1711002432685227373,2056,2050,2036,2055,2085,2061,1196
297,1711002432695201468,2050,2055,2074,2054,2053,2060,1196
298,1711002432705227574,2066,2062,2080,2012,2018,2053,1195
299,1711002432715202631,2057,2064,2096,2083,2088,2059,1196
300,1711002432725225802,2053,2043,2036,2049,2044,2039,1194
301,1711002432735202152,2052,2059,2090,2052,2013,2056,1196
302,1711002432745227616,2053,2032,1937,2027,1960,2040,1194
303,1711002432755200779,2049,2052,2064,2031,2024,2047,1194
304,1711002432765229130,2061,2049,2057,2025,2057,2057,1196
305,1711002432775202563,2040,2034,2002,2053,2036,2059,1196
306,1711002432785229801,2052,2044,2025,2036,2051,2038,1195
307,1711002432795200179,2056,2060,2061,2061,2062,2068,1196
308,1711002432805233089,2059,2059,2031,2021,2037,2050,1195
309,1711002432815200470,2050,2063,2148,2120,2084,2057,1197
310,1711002432825231095,2072,2049,2049,2057,2073,2061,1197
311,1711002432835215280,2044,2045,2010,2037,2031,2052,1196
312,1711002432845236366,2058,2040,2003,2042,2066,2049,1193
313,1711002432855201564,2052,2050,2033,2069,2069,2059,1196
314,1711002432865233932,2063,2066,2124,2070,2035,2050,1196
315,1711002432875201424,2057,2065,2112,2078,1999,2049,1194
316,1711002432885215697,2066,2044,2000,2088,2041,2049,1194
317,1711002432895201926,2049,2048,2049,2052,2004,2050,1197
318,1711002432905237841,2056,2047,2047,2064,2064,2056,1195
319,1711002432915201295,2049,2048,2055,2048,2028,2052,1195
320,1711002432925224375,2052,2049,2074,2060,2061,2042,1195
321,1711002432935200886,2051,2049,2101,2013,2042,2065,1195
322,1711002432945270456,2058,2047,2014,2038,2037,2050,1197
323,1711002432955213711,2036,2060,2120,2100,2091,2052,1197
324,1711002432965226481,2058,2046,2022,2056,2113,2067,1195
325,1711002432975265923,2066,2069,2097,2045,2046,2071,1196
326,1711002432985256239,2057,2048,2043,2034,2008,2057,1196
327,1711002432995204273,2057,2066,2120,2060,2050,2068,1194
328,1711002433005226733,2060,2052,2060,1972,2019,2037,1193
329,1711002433015202370,2052,2048,2015,2017,2028,2056,1196
330,1711002433025226992,2067,2063,2046,2040,2042,2050,1197
331,1711002433035201818,2052,2064,2068,2072,2041,2056,1196
332,1711002433045226580,2056,2047,2040,2018,2054,2044,1195
333,1711002433055202047,2056,2068,2084,2043,2076,2057,1195
334,1711002433065227872,2062,2043,2016,2043,2021,2048,1196
335,1711002433075199752,2052,2052,2034,2045,2018,2064,1192
336,1711002433085229204,2057,2051,2008,2075,2098,2057,1198
337,1711002433095202727,2050,2052,2021,2024,2012,2053,1196
338,1711002433105227038,2060,2045,2008,2058,2107,2060,1195
339,1711002433115202686,2050,2061,2068,2034,2051,2062,1197
340,1711002433125232889,2065,2065,2042,2051,2041,2053,1194
341,1711002433135202574,2053,2069,2098,2054,2040,2056,1196
342,1711002433145237768,2061,2052,2050,2072,2082,2048,1196
343,1711002433155201040,2053,2054,2053,2088,2066,2059,1195
344,1711002433165226945,2061,2038,1993,2032,2036,2040,1192
345,1711002433175200408,2045,2050,2054,2074,2142,2047,1192
346,1711002433185234439,2055,2039,1998,2064,2098,2052,1197
347,1711002433195202591,2056,2049,2035,2089,2117,2065,1195
348,1711002433205258014,2056,2040,2014,2104,2112,2054,1195
349,1711002433215212640,2053,2058,2077,2061,2008,2054,1194
350,1711002433225216993,2068,2050,2011,2067,2033,2056,1196
351,1711002433235202349,2042,2044,2070,2077,2041,2047,1195
352,1711002433245250176,2060,2052,2069,2084,2126,2057,1195
353,1711002433255201447,2047,2043,2024,2047,2001,2056,1196
354,1711002433265228864,2060,2061,2035,2060,2079,2053,1195
355,1711002433275254067,2036,2040,2024,2032,2043,2042,1192
356,1711002433285237881,2068,2062,2098,2074,2087,2060,1195
357,1711002433295201765,2052,2052,2037,2066,2037,2061,1197
358,1711002433305256926,2065,2042,2010,2050,2043,2041,1191
359,1711002433315209068,2046,2045,2062,2040,2117,2064,1194
360,1711002433325234331,2050,2033,1966,2042,2047,2032,1192
361,1711002433335202544,2040,2042,2045,2053,2042,2064,1196
362,1711002433345230964,2048,2039,2021,2021,2072,2049,1195
363,1711002433355200870,2034,2037,2027,2064,1992,2039,1192
364,1711002433365228228,2064,2052,2017,2030,2056,2058,1197
365,1711002433375201260,2057,2072,2098,2024,2010,2057,1196
366,1711002433385230200,2048,2030,2013,2040,2018,2043,1195
367,1711002433395201490,2050,2056,2066,2046,2024,2050,1197
368,1711002433405232594,2060,2053,2035,2045,2047,2050,1195
369,1711002433415265642,2050,2058,2060,2010,1983,2043,1194
370,1711002433425239447,2053,2042,2042,2031,2010,2042,1193
371,1711002433435201196,2038,2034,2000,2056,2055,2053,1196
372,1711002433445194808,2066,2075,2102,2073,2079,2058,1195
373,1711002433455205604,2049,2053,2073,2045,2004,2048,1195
374,1711002433465217722,2055,2028,1985,2058,2132,2069,1196
375,1711002433475205793,2047,2061,2104,2096,2152,2058,1195
376,1711002433485227520,2064,2046,2001,2041,2061,2049,1196
377,1711002433495201574,2060,2064,2108,2058,2040,2056,1196
378,1711002433505259340,2064,2047,2024,2074,2068,2053,1195
379,1711002433515200141,2048,2064,2090,2041,2036,2057,1197
380,1711002433525232387,2071,2072,2041,2040,2050,2052,1194
381,1711002433535203195,2051,2050,2057,2067,2034,2052,1197
382,1711002433545250422,2059,2056,2046,2089,2068,2050,1193
383,1711002433555204486,2061,2065,2049,2110,2047,2064,1195
384,1711002433565217707,2060,2057,2043,2036,1986,2061,1194
385,1711002433575203844,2049,2050,2049,2049,2061,2056,1195
386,1711002433585231282,2061,2060,2056,2065,2112,2056,1196
387,1711002433595201589,2047,2051,2092,2052,2037,2053,1196
388,1711002433605258875,2059,2050,2091,2045,2064,2054,1196
389,1711002433615200325,2040,2042,2017,2060,2058,2058,1196
390,1711002433625227633,2053,2036,1972,2052,2088,2040,1194
391,1711002433635201316,2045,2054,2058,2062,2108,2058,1196
392,1711002433645237721,2056,2043,2022,2032,2104,2047,1192
393,1711002433655201787,2053,2064,2085,2041,2023,2057,1195
394,1711002433665228643,2057,2056,2073,2060,2039,2040,1191
395,1711002433675201715,2047,2046,2048,2013,1962,2040,1189
396,1711002433685232429,2060,2064,2122,2032,2122,2055,1196
397,1711002433695199880,2054,2069,2140,2072,2040,2057,1198
398,1711002433705236396,2064,2045,2016,2050,2080,2056,1197
399,1711002433715202705,2048,2043,1952,2074,2097,2056,1194
400,1711002433725237427,2053,2040,2001,2051,2144,2047,1193
401,1711002433735201923,2061,2082,2095,2040,1972,2057,1195
402,1711002433745202418,2072,2053,2040,2064,2028,2053,1196
403,1711002433755253822,2056,2072,2088,2051,2012,2058,1195
404,1711002433765218288,2061,2047,2062,2050,2173,2059,1195
405,1711002433775256456,2053,2060,2078,2056,2066,2073,1194
406,1711002433785223096,2069,2057,2052,2076,2052,2057,1196
407,1711002433795200938,2049,2052,2058,2067,2037,2063,1196
408,1711002433805211001,2056,2040,2019,2024,2043,2047,1192
409,1711002433815257205,2068,2106,2232,2021,1989,2062,1196
410,1711002433825227964,2055,2032,2008,2030,2029,2044,1193
411,1711002433835200434,2040,2044,2064,2059,2018,2045,1192
412,1711002433845228103,2051,2051,2041,2056,1995,2043,1192
413,1711002433855255891,2050,2049,2062,2060,2043,2052,1196
414,1711002433865223623,2064,2046,2051,2053,2053,2060,1195
415,1711002433875202166,2051,2053,2051,2051,2071,2059,1194
416,1711002433885228552,2065,2054,2036,2088,2112,2061,1195
417,1711002433895202395,2047,2048,2071,2033,1993,2052,1197
418,1711002433905251085,2057,2042,1992,2041,2068,2046,1193
419,1711002433915202785,2052,2057,2077,2062,2076,2057,1197
420,1711002433925222998,2060,2044,2032,2056,2082,2060,1197
421,1711002433935201191,2056,2074,2117,2088,2112,2060,1195
422,1711002433945233849,2061,2047,2024,2043,2046,2052,1196
423,1711002433955213764,2057,2069,2056,2040,2057,2053,1195
424,1711002433965235181,2072,2053,2022,2004,2026,2042,1189
425,1711002433975201589,2053,2059,2090,2016,2008,2057,1197
426,1711002433985222765,2055,2036,2015,2035,2049,2045,1196
427,1711002433995203032,2054,2056,2100,2056,2024,2052,1196
428,1711002434005227663,2071,2075,2101,2024,2038,2047,1192
429,1711002434015202337,2047,2054,2047,2055,1975,2044,1191
430,1711002434025225436,2064,2040,1998,2038,2072,2061,1196
431,1711002434035266940,2052,2055,2000,2064,2040,2064,1196
432,1711002434045245272,2053,2036,2010,2041,2035,2042,1194
433,1711002434055199706,2048,2053,2057,2052,2039,2056,1197
434,1711002434065226292,2065,2056,2058,2040,2066,2052,1198
435,1711002434075201358,2048,2051,2052,2067,2047,2056,1194
436,1711002434085224716,2060,2044,2017,2047,2069,2052,1197
437,1711002434095201585,2052,2058,2052,2024,1902,2024,1194
438,1711002434105222268,2060,2044,2001,2033,2044,2050,1195
439,1711002434115201051,2048,2074,2104,2064,2063,2053,1196
440,1711002434125226505,2060,2050,2065,2026,2080,2054,1194
441,1711002434135206078,2048,2040,2033,2072,2064,2049,1194
442,1711002434145227293,2057,2042,2033,2058,2066,2053,1195
443,1711002434155201166,2051,2055,2087,2037,2024,2052,1195
444,1711002434165228012,2061,2040,1972,2061,2078,2046,1194
445,1711002434175201484,2046,2052,2068,2059,2051,2060,1197
446,1711002434185244691,2061,2047,2024,2060,2069,2049,1197
447,1711002434195203736,2053,2061,2082,2156,2176,2069,1195
448,1711002434205228568,2050,2050,2065,1973,2015,2034,1192
449,1711002434215264721,2052,2052,2057,2053,2051,2060,1195
450,1711002434225225880,2063,2050,2028,2061,2060,2056,1197
451,1711002434235203820,2052,2065,2098,2062,2060,2062,1195
452,1711002434245220517,2058,2044,1996,2045,2083,2057,1197
453,1711002434255202214,2056,2070,2072,2022,2028,2054,1196
454,1711002434265228389,2063,2044,2044,2061,2058,2052,1194
455,1711002434275201541,2050,2053,2065,2059,2049,2056,1193
456,1711002434285227975,2061,2053,2032,2048,2061,2050,1195
457,1711002434295201408,2062,2080,2146,2076,2042,2066,1197
458,1711002434305240116,2069,2069,2061,2014,1998,2043,1193
459,1711002434315202206,2037,2062,2132,2065,1966,2025,1195
460,1711002434325234714,2053,2044,2075,2045,2057,2054,1196
461,1711002434335206091,2050,2050,2068,2044,2049,2060,1196
462,1711002434345230102,2061,2064,2058,2064,2142,2050,1194
463,1711002434355202813,2048,2060,2078,2073,2068,2059,1195
464,1711002434365238174,2056,2041,1988,2064,2092,2050,1195
465,1711002434375201628,2060,2057,2024,2099,2077,2056,1194
466,1711002434385239163,2058,2042,2009,2057,2083,2057,1198
467,1711002434395201324,2045,2041,2061,2005,2003,2047,1194
468,1711002434405217429,2040,2020,1998,1990,2044,2036,1195
469,1711002434415201912,2053,2057,2069,2062,2047,2058,1196
470,1711002434425225412,2063,2047,2036,2053,2012,2056,1197
471,1711002434435265743,2046,2060,2069,2049,2024,2058,1196
472,1711002434445225479,2057,2049,2017,2054,2054,2052,1195
473,1711002434455200876,2046,2074,2157,2060,2061,2055,1195
474,1711002434465229454,2061,2038,2037,2062,2106,2067,1197
475,1711002434475202446,2049,2058,2109,2080,2089,2060,1193
476,1711002434485228980,2056,2039,2029,2041,2048,2052,1198
477,1711002434495201090,2052,2056,2073,2060,2096,2054,1197
478,1711002434505228828,2061,2050,2036,2065,2059,2058,1196
479,1711002434515203051,2058,2062,2119,2031,2056,2061,1196
480,1711002434525231821,2054,2041,2007,2044,2036,2040,1194
481,1711002434535204531,2065,2070,2106,2106,2082,2066,1196
482,1711002434545228071,2053,2034,2003,2058,2101,2055,1197
483,1711002434555203277,2045,2056,2074,2050,2039,2054,1195
484,1711002434565225693,2060,2057,2058,2059,2140,2054,1194
485,1711002434575202542,2060,2089,2161,2060,2045,2053,1196
486,1711002434585236211,2065,2068,2062,2042,2042,2054,1196
487,1711002434595202209,2062,2082,2109,2057,2038,2066,1196
488,1711002434605246379,2061,2048,2028,2051,2049,2049,1196
489,1711002434615201755,2044,2058,2081,2062,2072,2058,1193
490,1711002434625242047,2065,2104,2242,2007,2121,2069,1195
491,1711002434635289613,2054,2051,2040,2047,2058,2063,1195
492,1711002434645232345,2057,2060,2068,2068,2048,2044,1192
493,1711002434655201059,2034,2035,2012,2039,2034,2042,1196
494,1711002434665224868,2064,2052,2035,2049,2059,2051,1197
495,1711002434675200765,2045,2050,2060,2035,2032,2052,1193
496,1711002434685240636,2050,2041,2030,2077,2060,2052,1193
497,1711002434695208658,2064,2072,2074,2054,2086,2054,1194
498,1711002434705233189,2064,2039,2014,2056,2083,2060,1194
499,1711002434715201922,2044,2047,2060,2059,2024,2060,1196
500,1711002434725227025,2058,2060,2060,2094,2056,2042,1192
501,1711002434735201539,2058,2073,2078,2064,2025,2060,1197
502,1711002434745226380,2066,2050,2014,2070,2087,2053,1194
503,1711002434755200945,2050,2060,2132,2065,2049,2058,1195
504,1711002434765227359,2056,2041,2021,2044,2101,2043,1191
505,1711002434775202375,2048,2047,2053,2032,1992,2052,1195
506,1711002434785237376,2045,2034,2007,2029,2059,2044,1193
507,1711002434795201099,2051,2065,2080,2052,2049,2058,1196
508,1711002434805226954,2059,2053,2034,2056,2061,2053,1196
509,1711002434815202489,2042,2052,2073,2046,2028,2056,1196
510,1711002434825227482,2060,2056,2114,2095,2068,2060,1196
511,1711002434835264187,2049,2052,2073,2053,2042,2058,1196
512,1711002434845246937,2058,2047,2042,2015,2032,2045,1192
513,1711002434855201883,2061,2075,2094,2054,2062,2062,1194
514,1711002434865224290,2043,2028,1974,2009,2054,2036,1193
515,1711002434875204586,2042,2056,2058,2065,2034,2049,1194
516,1711002434885233806,2067,2064,2094,2021,2030,2049,1195
517,1711002434895200976,2047,2052,2049,2035,2020,2058,1196
518,1711002434905231649,2047,2038,2021,2035,2036,2050,1195
519,1711002434915201804,2051,2066,2080,2069,2048,2060,1197
520,1711002434925226056,2055,2037,1996,2088,2167,2065,1194
521,1711002434935209157,2051,2056,2060,2038,2027,2058,1195
522,1711002434945216574,2063,2058,2062,2053,2064,2052,1197
523,1711002434955202431,2053,2056,2078,2089,2104,2056,1196
524,1711002434965227162,2060,2050,2043,2036,1970,2050,1196
525,1711002434975202528,2057,2068,2130,2056,2032,2058,1197
526,1711002434985231749,2056,2044,2039,2054,2077,2052,1197
527,1711002434995199770,2045,2060,2104,2099,2072,2073,1196
528,1711002435005217749,2059,2040,2016,2052,2064,2049,1195
529,1711002435015199066,2052,2052,2060,2064,2050,2058,1195
530,1711002435025216352,2059,2040,2053,2051,2041,2047,1193
531,1711002435035203149,2048,2058,2077,2047,2033,2056,1194
532,1711002435045232729,2048,2036,2023,2048,2074,2054,1195
533,1711002435055201060,2053,2064,2105,2070,2041,2050,1196
534,1711002435065227765,2060,2047,2017,2019,2066,2053,1197
535,1711002435075201247,2052,2059,2068,2050,2030,2052,1194
536,1711002435085190799,2063,2044,2021,2032,2057,2057,1196
537,1711002435095204338,2054,2057,2046,2092,2029,2060,1195
538,1711002435105227346,2060,2053,2020,2082,2106,2052,1195
539,1711002435115203211,2047,2054,2058,2073,2034,2057,1194
540,1711002435125228824,2061,2054,2030,2024,2044,2053,1195
541,1711002435135186374,2057,2075,2131,2073,2050,2058,1197
542,1711002435145190525,2059,2060,2043,2045,2057,2052,1195
543,1711002435155200618,2056,2060,2042,2067,2060,2061,1195
544,1711002435165230839,2059,2035,1981,2045,2050,2056,1194
545,1711002435175205874,2054,2061,2046,2053,2037,2057,1195
546,1711002435185231306,2068,2044,2038,2074,2100,2061,1196
547,1711002435195199356,2051,2052,2039,2068,2018,2046,1193
548,1711002435205231722,2065,2063,2074,2065,2088,2048,1194
549,1711002435215202709,2054,2058,2055,2103,2104,2072,1195
550,1711002435225234664,2061,2062,2132,2049,2071,2051,1195
551,1711002435235203737,2051,2046,2032,2049,2049,2058,1197
552,1711002435245216694,2076,2094,2173,2077,2064,2056,1197
553,1711002435255203912,2053,2052,2050,2041,2031,2054,1196
554,1711002435265220788,2060,2051,2014,2036,2100,2053,1194
555,1711002435275201603,2057,2060,2082,2064,2072,2066,1193
556,1711002435285258837,2057,2047,2041,2033,2040,2051,1194
557,1711002435295205878,2056,2081,2112,2081,2064,2068,1196
558,1711002435305224927,2058,2042,2026,2058,2033,2052,1197
559,1711002435315202106,2065,2073,2116,2056,2021,2057,1196
560,1711002435325220645,2061,2052,2044,2026,1976,2037,1191
561,1711002435335200438,2041,2048,2058,2081,2061,2055,1193
562,1711002435345220901,2071,2064,2113,2060,2077,2064,1196
563,1711002435355203089,2052,2066,2061,2074,2084,2068,1196
564,1711002435365223752,2058,2039,2022,2032,2017,2046,1193
565,1711002435375201231,2056,2074,2089,2094,2064,2066,1196
566,1711002435385230200,2061,2048,2022,2048,2052,2056,1198
567,1711002435395201777,2047,2056,2034,2058,2112,2049,1196
568,1711002435405224414,2057,2035,2009,2013,2048,2052,1196
569,1711002435415200240,2045,2052,2048,2044,2022,2052,1196
570,1711002435425216895,2065,2073,2100,2036,1988,2048,1196
571,1711002435435263499,2053,2053,2064,2038,2043,2054,1196
572,1711002435445222452,2066,2052,2028,2090,2102,2056,1197
573,1711002435455202065,2053,2048,2030,2032,2026,2056,1197
574,1711002435465228670,2057,2038,2009,2069,2094,2057,1197
575,1711002435475200998,2056,2064,2080,2092,2073,2064,1195
576,1711002435485234787,2059,2058,2086,2065,2085,2048,1195
577,1711002435495201515,2050,2064,2112,2061,2009,2057,1195
578,1711002435505216217,2045,2036,2017,2051,2028,2032,1191
579,1711002435515200990,2051,2051,2052,2056,2045,2052,1195
580,1711002435525226031,2060,2048,2013,2020,2018,2044,1193
581,1711002435535206646,2046,2051,2021,2044,2028,2045,1193
582,1711002435545218662,2061,2045,2037,2059,2076,2056,1196
583,1711002435555200139,2050,2061,2051,2053,2100,2062,1196
584,1711002435565225181,2051,2041,2024,2032,2050,2046,1192
585,1711002435575202209,2046,2053,2072,2061,2049,2052,1197
586,1711002435585240947,2065,2055,2020,2062,2066,2058,1196
587,1711002435595200210,2044,2056,2080,2007,1981,2053,1195
588,1711002435605225723,2059,2050,2040,2052,2067,2056,1195
589,1711002435615202150,2051,2057,2082,2050,2038,2057,1197
590,1711002435625227723,2057,2037,2004,2062,2068,2049,1194
591,1711002435635258255,2041,2051,2045,2037,2015,2047,1192
592,1711002435645222729,2063,2043,2009,2031,1999,2052,1197
593,1711002435655203174,2057,2054,2090,2068,2001,2054,1196
594,1711002435665227053,2056,2049,2038,2066,2068,2056,1195
595,1711002435675201135,2051,2057,2110,2072,2084,2051,1195
596,1711002435685271124,2066,2047,2027,2066,2092,2056,1195
597,1711002435695255717,2047,2052,2067,2056,2065,2051,1196
598,1711002435705223567,2058,2035,1992,2036,2042,2050,1194
599,1711002435715200465,2054,2061,2103,2056,2052,2059,1195
600,1711002435725224785,2062,2040,2009,2055,2077,2052,1196
601,1711002435735204067,2048,2051,2060,2078,2059,2049,1194
602,1711002435745222487,2057,2045,2006,2064,2067,2052,1195
603,1711002435755200456,2056,2063,2079,2045,1992,2061,1194
604,1711002435765222883,2068,2053,2036,2036,2032,2050,1194
605,1711002435775201855,2050,2068,2107,2061,2035,2052,1195
606,1711002435785243658,2052,2036,1985,2025,2051,2035,1194
607,1711002435795201450,2050,2058,2057,2063,2018,2040,1195
608,1711002435805227403,2049,2038,2005,2049,2080,2043,1192
609,1711002435815200212,2046,2052,2067,2053,2036,2057,1196
610,1711002435825231055,2072,2075,2107,2080,2119,2058,1196
611,1711002435835201010,2052,2072,2081,2037,2047,2054,1196
612,1711002435845232424,2064,2047,2024,2038,2053,2056,1196
613,1711002435855201236,2047,2050,2056,2047,2005,2049,1195
614,1711002435865233341,2068,2061,2063,2062,2074,2057,1196
615,1711002435875200480,2047,2054,2072,2081,2053,2054,1193
616,1711002435885258876,2059,2046,1998,2071,2074,2056,1197
617,1711002435895202249,2051,2064,2101,2027,2029,2053,1196
618,1711002435905241528,2046,2026,1924,2065,2104,2051,1197
619,1711002435915202415,2061,2061,2070,2048,2020,2056,1197
620,1711002435925224120,2063,2055,2064,2074,2057,2049,1195
621,1711002435935273880,2057,2069,2073,2069,2062,2059,1194
622,1711002435945232212,2065,2056,2080,2060,2086,2056,1196
623,1711002435955265739,2045,2056,2076,2077,2094,2053,1196
624,1711002435965230343,2058,2042,2026,2042,2049,2058,1197
625,1711002435975201581,2057,2074,2146,2061,2042,2064,1196
626,1711002435985245389,2062,2045,2032,2056,2072,2061,1196
627,1711002435995203270,2054,2056,2051,2060,2030,2051,1196
628,1711002436005232299,2070,2062,2072,2052,2028,2046,1193
629,1711002436015200940,2045,2061,2120,2138,2132,2050,1195
630,1711002436025225039,2061,2053,2037,2044,1983,2046,1194
631,1711002436035206254,2041,2057,2096,2046,2026,2049,1194
632,1711002436045226094,2061,2050,2028,2053,2063,2051,1196
633,1711002436055201378,2043,2048,2024,2030,2029,2049,1196
634,1711002436065227732,2065,2056,2056,2045,2070,2056,1195
635,1711002436075206312,2050,2060,2108,2064,2031,2054,1194
636,1711002436085243015,2053,2036,2011,2042,2013,2041,1193
637,1711002436095201497,2047,2047,2062,2054,2029,2049,1194
638,1711002436105225946,2067,2081,2151,2070,2084,2057,1195
639,1711002436115202363,2051,2054,2088,2040,2065,2056,1194
640,1711002436125227373,2065,2052,2048,2033,2064,2051,1196
641,1711002436135202657,2037,2045,2065,2062,2072,2040,1193
642,1711002436145197830,2047,2054,2090,2024,2027,2046,1192
643,1711002436155202280,2057,2079,2171,2052,2083,2047,1193
644,1711002436165227952,2064,2056,2040,2050,2050,2049,1194
645,1711002436175221180,2049,2059,2084,2071,2053,2056,1196
646,1711002436185218648,2049,2037,1988,2054,2041,2050,1198
647,1711002436195202248,2046,2044,2020,2036,2045,2056,1194
648,1711002436205221317,2066,2056,2037,2040,2047,2054,1196
649,1711002436215202553,2044,2057,2088,2065,2058,2046,1192
650,1711002436225225699,2054,2040,2008,2035,2065,2046,1192
651,1711002436235201815,2048,2052,2040,2064,2081,2050,1196
652,1711002436245223259,2064,2050,2037,2060,2062,2053,1197
653,1711002436255202300,2046,2049,2028,2027,2052,2052,1194
654,1711002436265224325,2066,2056,2074,2058,2036,2062,1195
655,1711002436275201703,2052,2058,2080,2038,2015,2044,1191
656,1711002436285222214,2058,2041,2008,2040,1998,2040,1194
657,1711002436295199803,2065,2069,2096,2051,2029,2053,1195
658,1711002436305220204,2050,2050,2042,2049,2054,2043,1195
659,1711002436315201080,2058,2073,2088,2048,2041,2059,1194
660,1711002436325219758,2060,2036,2001,2041,2070,2051,1195
661,1711002436335202486,2052,2057,2072,2072,2058,2062,1197
662,1711002436345234941,2060,2053,2028,2040,1994,2045,1193
663,1711002436355203411,2056,2056,2056,2046,2037,2059,1196
664,1711002436365229444,2051,2036,1983,2010,2060,2046,1193
665,1711002436375204939,2056,2058,2070,2065,2043,2058,1197
666,1711002436385220411,2064,2046,2010,2042,2047,2054,1196
667,1711002436395202017,2049,2052,2044,2059,2081,2056,1195
668,1711002436405224393,2060,2052,2066,2037,2034,2043,1193
669,1711002436415201971,2051,2062,2092,2056,2036,2061,1197
670,1711002436425255537,2064,2050,2033,2054,2041,2052,1197
671,1711002436435204500,2059,2069,2102,2061,2052,2058,1196
672,1711002436445231855,2070,2076,2129,2106,2110,2060,1196
673,1711002436455214934,2046,2053,2058,2025,2020,2045,1193
674,1711002436465232440,2056,2045,2012,2028,2051,2053,1197
675,1711002436475263873,2052,2056,2057,2054,2020,2060,1196
676,1711002436485222965,2064,2058,2077,2032,2062,2052,1194
677,1711002436495201937,2056,2054,2061,2045,2024,2056,1197
678,1711002436505225515,2050,2037,2000,2044,2056,2052,1196
679,1711002436515201780,2054,2064,2068,2114,2120,2064,1194
680,1711002436525231781,2056,2040,1999,2036,2090,2057,1196
681,1711002436535202075,2047,2057,2072,2051,2049,2060,1195
682,1711002436545236203,2066,2072,2081,2049,1995,2048,1195
683,1711002436555202641,2056,2065,2077,2041,2014,2057,1196
684,1711002436565225917,2064,2069,2142,2060,2053,2056,1194
685,1711002436575205380,2052,2055,2076,2066,1974,2052,1196
686,1711002436585219108,2068,2050,2016,2072,2092,2061,1194
687,1711002436595202528,2050,2060,2101,2066,2032,2060,1193
688,1711002436605225554,2064,2054,2043,2049,2048,2051,1194
689,1711002436615201229,2052,2059,2073,2050,2034,2043,1193
690,1711002436625231981,2063,2046,2025,2048,2064,2053,1197
691,1711002436635201714,2050,2061,2079,2064,2048,2051,1196
692,1711002436645228568,2061,2050,2039,2053,2040,2053,1196
693,1711002436655201518,2045,2051,2052,2000,2009,2040,1193
694,1711002436665196219,2064,2059,2052,2069,2090,2056,1194
695,1711002436675268873,2052,2056,2049,2064,2064,2068,1194
696,1711002436685243555,2052,2045,2046,2120,2104,2054,1195
697,1711002436695202938,2038,2053,2042,2034,2024,2045,1194
698,1711002436705233991,2050,2037,2024,2041,2041,2046,1194
699,1711002436715202050,2052,2068,2123,2082,2010,2055,1196
700,1711002436725248503,2057,2042,2026,2044,2042,2047,1193
701,1711002436735202034,2050,2048,2042,2055,2028,2057,1194
702,1711002436745233077,2066,2064,2071,2047,2071,2058,1197
703,1711002436755202920,2052,2057,2088,2081,2069,2063,1195
704,1711002436765235114,2059,2052,2053,2066,2060,2048,1196
705,1711002436775201431,2046,2051,2061,2040,2021,2053,1195
706,1711002436785274996,2064,2058,2037,2080,2101,2056,1195
707,1711002436795256211,2058,2077,2116,2060,2021,2054,1194
708,1711002436805225494,2051,2038,2020,2078,2082,2047,1194
709,1711002436815201669,2050,2050,2037,2049,2045,2056,1195
710,1711002436825233574,2062,2045,2037,2045,2060,2045,1193
711,1711002436835201945,2053,2062,2125,2064,2041,2058,1195
712,1711002436845249148,2065,2053,2040,2054,2044,2042,1193
713,1711002436855200385,2047,2061,2062,2056,2038,2054,1196
714,1711002436865227209,2057,2034,1988,2040,2092,2054,1196
715,1711002436875263421,2048,2077,2153,2098,2062,2056,1193
716,1711002436885224438,2056,2040,2014,2027,2083,2045,1193
717,1711002436895204691,2051,2057,2061,2064,2072,2057,1194
718,1711002436905228991,2057,2053,2057,2054,2058,2047,1194
719,1711002436915202681,2047,2056,2060,2060,2052,2056,1193
720,1711002436925229786,2058,2052,2053,2062,2065,2054,1193
721,1711002436935201554,2052,2034,2007,1992,2045,2051,1194
722,1711002436945230271,2048,2034,2016,2035,2081,2051,1194
723,1711002436955200976,2048,2053,2052,2053,2045,2056,1195
724,1711002436965228291,2056,2046,2040,2049,2047,2047,1191
725,1711002436975202663,2058,2064,2068,2073,2062,2069,1197
726,1711002436985227323,2060,2053,2021,2049,2074,2052,1195
727,1711002436995204480,2043,2056,2064,2084,2093,2058,1194
728,1711002437005213820,2056,2035,2024,2017,2015,2042,1193
729,1711002437015267275,2057,2062,2078,2042,2038,2052,1194
730,1711002437025227639,2068,2049,2028,2048,2056,2056,1194
731,1711002437035266476,2051,2060,2079,2062,2062,2060,1193
732,1711002437045224234,2056,2048,2021,2024,2031,2043,1191
733,1711002437055202563,2052,2056,2069,2048,2025,2063,1194
734,1711002437065221521,2056,2036,2024,2029,2043,2047,1192
735,1711002437075201554,2056,2068,2117,2058,2084,2058,1193
736,1711002437085220572,2047,2032,1994,1992,2057,2046,1193
737,1711002437095203771,2050,2057,2060,2065,2056,2052,1197
738,1711002437105227729,2062,2062,2100,2045,2050,2051,1193
739,1711002437115201448,2052,2070,2084,2070,2042,2052,1195
740,1711002437125226017,2069,2072,2092,2057,2088,2044,1192
741,1711002437135202342,2050,2064,2065,2046,2037,2056,1193
742,1711002437145219868,2058,2047,2053,2055,2058,2053,1195
743,1711002437155200101,2053,2042,2024,2011,2042,2060,1193
744,1711002437165228767,2064,2028,1960,2032,2056,2062,1193
745,1711002437175201887,2054,2056,2051,2063,2043,2061,1197
746,1711002437185228669,2058,2048,2042,2061,2061,2055,1197
747,1711002437195203672,2047,2061,2078,2050,2044,2058,1196
748,1711002437205226136,2059,2038,2006,2038,2039,2050,1195
749,1711002437215201089,2041,2038,2017,2054,2027,2057,1195
750,1711002437225220448,2052,2037,2015,2024,2050,2044,1192
751,1711002437235202104,2048,2049,2056,2052,2044,2059,1196
752,1711002437245185914,2066,2057,2046,2033,2044,2056,1194
753,1711002437255201996,2060,2065,2060,2076,2049,2065,1197
754,1711002437265224781,2062,2054,2024,2039,2032,2050,1193
755,1711002437275202649,2050,2058,2066,2030,2020,2056,1193
756,1711002437285229232,2064,2059,2121,2033,2008,2056,1193
757,1711002437295204485,2053,2071,2126,2048,2074,2065,1197
758,1711002437305229485,2058,2044,2028,2053,2049,2052,1194
759,1711002437315211381,2052,2055,2058,2052,2040,2054,1195
760,1711002437325233235,2067,2070,2081,2077,2071,2054,1195
761,1711002437335256590,2047,2051,2052,2029,2024,2052,1195
762,1711002437345228597,2061,2061,2058,2065,2075,2053,1193
763,1711002437355201306,2052,2057,2085,2076,2057,2054,1195
764,1711002437365236305,2057,2040,2006,2050,2064,2049,1196
765,1711002437375201819,2057,2072,2116,2069,2057,2063,1197
766,1711002437385235436,2064,2056,2052,2053,2065,2054,1197
767,1711002437395205509,2056,2054,2058,2052,2050,2058,1194
768,1711002437405247771,2064,2049,2018,2075,2098,2056,1194
769,1711002437415186143,2061,2080,2137,2061,2016,2062,1194
770,1711002437425223266,2061,2038,2020,2050,2067,2049,1195
771,1711002437435201525,2052,2069,2076,2056,2039,2052,1196
772,1711002437445241093,2056,2040,2012,2083,2134,2052,1195
773,1711002437455200997,2045,2056,2101,2080,2089,2057,1195
774,1711002437465224514,2077,2074,2117,2065,2100,2055,1194
775,1711002437475200888,2041,2049,2054,2040,2003,2045,1191
776,1711002437485221550,2060,2045,2033,2068,2095,2061,1197
777,1711002437495222583,2056,2073,2088,2089,2011,2058,1194
778,1711002437505214088,2064,2082,2154,2074,2144,2058,1196
779,1711002437515202376,2043,2045,2058,2034,2024,2048,1196
780,1711002437525226214,2068,2061,2072,2053,2086,2051,1195
781,1711002437535201718,2051,2072,2131,2070,2055,2058,1195
782,1711002437545252446,2064,2042,2022,2061,2076,2054,1196
783,1711002437555202701,2042,2049,2070,2073,2068,2052,1193
784,1711002437565237309,2060,2043,2021,2021,2058,2050,1193
785,1711002437575202774,2052,2064,2061,2092,2060,2064,1197
786,1711002437585229777,2060,2056,2059,2057,2062,2053,1196
787,1711002437595202566,2050,2060,2063,2056,2046,2056,1196
788,1711002437605214240,2052,2042,2024,2043,2056,2044,1193
789,1711002437615200323,2039,2050,2057,2045,2020,2052,1194
790,1711002437625222768,2056,2040,2028,2056,2043,2047,1192
791,1711002437635202520,2045,2055,2074,2072,2048,2056,1194
792,1711002437645257157,2061,2049,2064,2069,2069,2060,1194
793,1711002437655200118,2041,2052,2011,2058,2059,2058,1194
794,1711002437665228154,2061,2044,2025,2064,2050,2041,1191
795,1711002437675202565,2052,2062,2101,2038,2011,2056,1193
796,1711002437685226723,2057,2043,2040,2015,2024,2047,1192
797,1711002437695204050,2047,2058,2065,2060,2076,2051,1195
798,1711002437705224911,2067,2051,2032,2050,2045,2046,1194
799,1711002437715202259,2052,2057,2075,2049,2041,2058,1195
800,1711002437725223822,2062,2062,2086,2059,2093,2054,1195
801,1711002437735202141,2049,2050,2061,2048,2073,2061,1195
802,1711002437745232892,2060,2049,2024,2035,2043,2046,1192
803,1711002437755200551,2051,2062,2070,2058,2041,2048,1196
804,1711002437765225329,2073,2076,2161,2079,2112,2058,1196
805,1711002437775202315,2049,2059,2089,2072,2090,2064,1196
806,1711002437785246412,2060,2049,2029,2041,2067,2047,1193
807,1711002437795202949,2049,2061,2070,2056,2042,2056,1196
808,1711002437805222869,2063,2046,2024,2082,2070,2050,1196
809,1711002437815201038,2047,2058,2085,2062,2044,2055,1195
810,1711002437825226138,2056,2043,2041,2040,2053,2046,1194
811,1711002437835206240,2056,2088,2196,2073,2057,2060,1195
812,1711002437845243033,2062,2049,2048,2052,2049,2047,1192
813,1711002437855200581,2054,2064,2057,2060,2029,2056,1196
814,1711002437865224760,2060,2045,2027,2047,2037,2044,1193
815,1711002437875203961,2053,2054,2070,2061,2042,2053,1196
816,1711002437885235804,2062,2057,2031,2055,2043,2046,1192
817,1711002437895200857,2048,2048,2058,2061,2052,2053,1195
818,1711002437905232389,2066,2069,2069,2060,2062,2058,1193
819,1711002437915201259,2058,2068,2114,2024,2058,2058,1196
820,1711002437925227682,2054,2044,2024,2037,2073,2049,1193
821,1711002437935276668,2049,2057,2115,2076,2058,2059,1195
822,1711002437945230791,2061,2047,2056,2064,2066,2056,1193
823,1711002437955202417,2058,2066,2075,2052,2049,2063,1194
824,1711002437965229110,2060,2046,2033,2036,2061,2056,1196
825,1711002437975266713,2045,2047,2036,2021,2020,2054,1196
826,1711002437985237949,2059,2031,1981,2062,2081,2050,1194
827,1711002437995263930,2043,2052,2041,2052,2037,2051,1197
828,1711002438005230968,2061,2047,2042,2050,2056,2056,1194
829,1711002438015200649,2052,2052,2062,2046,2041,2049,1193
830,1711002438025225508,2058,2047,2056,2032,2060,2042,1193
831,1711002438035203747,2052,2055,2089,2057,2031,2054,1197
832,1711002438045221160,2070,2059,2049,2040,2044,2052,1198
833,1711002438055201072,2054,2068,2112,2092,2064,2064,1196
834,1711002438065229277,2061,2049,2033,2018,1980,2041,1190
835,1711002438075200822,2056,2059,2035,2081,2050,2060,1192
836,1711002438085220610,2053,2037,2012,2037,2098,2052,1194
837,1711002438095202595,2060,2079,2092,2099,2052,2057,1194
838,1711002438105229087,2058,2049,2047,2028,2052,2056,1195
839,1711002438115201524,2049,2047,2056,2056,2072,2060,1195
840,1711002438125229088,2074,2071,2120,2080,2082,2064,1195
841,1711002438135204331,2048,2059,2080,2059,2047,2056,1198
842,1711002438145231995,2060,2045,2030,2061,2066,2052,1194
843,1711002438155202447,2047,2040,2028,2065,2076,2067,1196
844,1711002438165228688,2058,2042,2024,2025,2026,2062,1195
845,1711002438175201285,2045,2048,2040,2078,2074,2056,1195
846,1711002438185248317,2070,2078,2117,2056,2040,2045,1193
847,1711002438195202057,2056,2070,2129,2095,2109,2059,1195
848,1711002438205230854,2065,2047,2022,2046,2058,2057,1195
849,1711002438215201097,2046,2053,2062,2048,2045,2056,1195
850,1711002438225236105,2065,2045,1995,2043,2124,2059,1196
851,1711002438235202821,2061,2072,2069,2058,2080,2072,1194
852,1711002438245234502,2058,2040,1993,2075,2056,2048,1195
853,1711002438255201609,2048,2048,2013,2046,2044,2056,1196
854,1711002438265237990,2057,2041,1997,2033,2042,2052,1195
855,1711002438275201178,2060,2080,2124,2086,2091,2064,1193
856,1711002438285241808,2061,2041,2009,2045,2064,2059,1195
857,1711002438295199917,2056,2056,2060,2089,2081,2065,1196
858,1711002438305223833,2072,2056,2006,2029,2051,2062,1196
859,1711002438315255415,2040,2041,2042,2037,2037,2050,1194
860,1711002438325248161,2065,2043,2001,2003,2018,2049,1194
861,1711002438335204287,2052,2066,2096,2068,2021,2045,1193
862,1711002438345219146,2066,2041,2001,2037,2093,2051,1195
863,1711002438355203545,2050,2053,2056,2044,2042,2055,1197
864,1711002438365226560,2061,2034,2011,2069,2060,2053,1195
865,1711002438375205399,2051,2065,2120,2039,2017,2050,1193
866,1711002438385251219,2061,2052,2000,2041,1997,2045,1195
867,1711002438395201002,2050,2067,2120,2063,2093,2054,1196
868,1711002438405225771,2054,2040,2034,2036,2008,2030,1194
869,1711002438415200903,2049,2065,2117,2066,2078,2057,1197
870,1711002438425228486,2064,2055,2041,2038,2070,2060,1195
871,1711002438435265659,2060,2074,2104,2062,2026,2055,1198
872,1711002438445221984,2072,2054,1975,2066,2061,2064,1197
873,1711002438455201825,2058,2070,2117,2015,2031,2053,1194
874,1711002438465238206,2059,2044,2009,2053,2083,2050,1196
875,1711002438475200304,2056,2058,2078,2081,2046,2045,1193
876,1711002438485230062,2045,2041,2056,2060,2064,2049,1196
877,1711002438495202258,2040,2049,2037,2072,2057,2056,1197
878,1711002438505216015,2056,2035,1968,2074,2072,2059,1197
879,1711002438515200795,2050,2058,2057,2082,2031,2056,1197
880,1711002438525226385,2057,2047,2036,2056,2057,2046,1193
881,1711002438535203401,2048,2055,2047,2037,2041,2058,1197
882,1711002438545231636,2080,2057,2056,2044,2000,2057,1194
883,1711002438555201608,2045,2057,2083,2062,2003,2053,1196
884,1711002438565216878,2062,2045,2033,2045,2056,2056,1193
885,1711002438575273258,2053,2059,2089,2075,2060,2056,1196
886,1711002438585220135,2059,2047,2040,2046,2024,2049,1197
887,1711002438595202451,2056,2086,2120,2091,2057,2059,1197
888,1711002438605226258,2057,2043,2024,2059,2077,2041,1192
889,1711002438615202131,2052,2056,2052,2059,2051,2056,1198
890,1711002438625225486,2072,2068,2084,2064,2106,2059,1195
891,1711002438635203564,2056,2072,2140,2044,2006,2056,1195
892,1711002438645226620,2061,2047,2014,2060,2056,2040,1194
893,1711002438655200810,2047,2055,2064,2069,2049,2053,1195
894,1711002438665228975,2062,2042,2018,2035,2053,2052,1196
895,1711002438675201903,2049,2064,2130,2024,1991,2029,1190
896,1711002438685230929,2064,2077,2060,2063,2049,2055,1194
897,1711002438695202985,2044,2051,2075,2047,2031,2052,1198
898,1711002438705229988,2064,2043,2016,2050,2070,2047,1193
899,1711002438715201633,2049,2056,2057,2079,2056,2061,1198
900,1711002438725228897,2061,2051,2040,2070,2114,2056,1195
901,1711002438735202716,2040,2049,2058,2049,2048,2053,1193
902,1711002438745219489,2057,2044,2047,2039,2047,2050,1195
903,1711002438755204420,2050,2074,2085,2058,2045,2054,1194
904,1711002438765226844,2062,2040,1973,2036,2040,2052,1193
905,1711002438775205953,2050,2051,2050,2077,2054,2059,1195
906,1711002438785235210,2054,2051,2051,2035,2040,2046,1195
907,1711002438795201836,2040,2050,2059,2053,2056,2043,1193
908,1711002438805228749,2066,2050,2016,2063,2060,2056,1197
909,1711002438815201185,2056,2065,2055,2060,2028,2053,1196
910,1711002438825231254,2059,2050,2046,2032,2018,2049,1194
911,1711002438835200565,2052,2056,2048,2065,2037,2058,1196
912,1711002438845231285,2064,2052,2030,2028,2038,2053,1197
913,1711002438855199764,2054,2057,2047,2059,2030,2058,1196
914,1711002438865235063,2060,2036,1996,2072,2063,2047,1191
915,1711002438875199825,2050,2056,2056,2031,2019,2053,1194
916,1711002438885237688,2056,2039,2011,2006,2033,2042,1194
917,1711002438895204213,2046,2059,2072,2045,2033,2057,1194
918,1711002438905213562,2060,2035,2001,2045,2082,2056,1196
919,1711002438915202341,2054,2058,2100,2073,2074,2054,1195
920,1711002438925241077,2054,2034,2037,2074,2138,2045,1193
921,1711002438935298789,2056,2057,2092,2058,2038,2052,1195
922,1711002438945256427,2057,2052,2096,1996,2049,2050,1197
923,1711002438955256728,2047,2056,2046,2076,2058,2057,1196
924,1711002438965224495,2066,2052,2022,2062,2077,2053,1197
925,1711002438975201962,2043,2047,2041,2008,1992,2035,1194
926,1711002438985223093,2056,2034,1999,2033,2038,2048,1197
927,1711002438995187064,2046,2056,2065,2053,2029,2057,1197
928,1711002439005215900,2061,2048,2025,2090,2072,2054,1197
929,1711002439015201742,2047,2044,2012,1988,1989,2052,1195
930,1711002439025225357,2064,2042,2034,2044,2083,2046,1195
931,1711002439035200489,2055,2057,2033,2120,2128,2069,1194
932,1711002439045263160,2068,2058,2064,2045,2081,2056,1196
933,1711002439055199917,2047,2059,2062,2047,1995,2052,1194
934,1711002439065230696,2062,2044,1984,2085,2113,2048,1195
935,1711002439075202240,2042,2046,2047,2044,2037,2039,1193
936,1711002439085227588,2066,2054,2068,2055,2079,2058,1196
937,1711002439095202079,2052,2056,2067,2080,2112,2063,1196
938,1711002439105227608,2067,2061,2078,2088,2090,2057,1194
939,1711002439115202258,2045,2054,2086,2096,2096,2063,1196
940,1711002439125223549,2060,2042,2004,2115,2176,2063,1198
941,1711002439135202167,2042,2045,2015,2066,2076,2064,1196
942,1711002439145231553,2064,2045,2058,2046,2064,2056,1195
943,1711002439155201644,2061,2089,2188,2090,2061,2069,1197
944,1711002439165223476,2062,2048,2027,2048,2064,2049,1196
945,1711002439175202435,2049,2056,2074,2065,2017,2049,1195
946,1711002439185222313,2065,2050,2051,2049,2040,2047,1193
947,1711002439195201092,2049,2065,2056,2088,2084,2056,1195
948,1711002439205220048,2058,2048,2017,2077,2084,2053,1196
949,1711002439215201322,2048,2038,2007,2045,2032,2056,1195
950,1711002439225225337,2050,2033,2013,2091,2042,2041,1193
951,1711002439235205458,2058,2077,2160,2108,2077,2058,1196
952,1711002439245246106,2068,2040,2001,2064,2097,2058,1196
953,1711002439255192472,2056,2068,2098,2056,2024,2056,1195
954,1711002439265224744,2056,2047,2045,2040,2026,2042,1193
955,1711002439275201228,2047,2046,2010,2092,2104,2065,1194
956,1711002439285226847,2057,2042,2022,2028,1996,2049,1195
957,1711002439295204263,2046,2050,2036,2064,2040,2050,1195
958,1711002439305221566,2064,2053,2089,2056,2050,2048,1195
959,1711002439315201766,2052,2056,2032,2042,2015,2064,1197
960,1711002439325222296,2053,2037,2011,2065,2104,2046,1193
961,1711002439335256732,2050,2056,2008,2081,2115,2054,1196
962,1711002439345245300,2065,2064,2042,2086,2085,2058,1197
963,1711002439355203218,2044,2048,2064,2042,2045,2052,1196
964,1711002439365225961,2057,2054,2056,2066,2117,2056,1196
965,1711002439375199971,2049,2057,2032,2043,2025,2053,1197
966,1711002439385225950,2059,2051,2024,2037,2014,2053,1197
967,1711002439395201642,2053,2068,2110,2062,2021,2050,1197
968,1711002439405245186,2053,2045,2022,2049,2010,2036,1192
969,1711002439415201381,2057,2065,2056,2076,2048,2056,1196
970,1711002439425225297,2059,2038,2021,2054,2033,2052,1196
971,1711002439435202472,2050,2055,2064,2042,2028,2052,1195
972,1711002439445238441,2056,2037,2008,2040,2042,2042,1193
973,1711002439455201348,2042,2043,2024,2075,2040,2060,1196
974,1711002439465227239,2060,2047,2036,2060,2049,2052,1196
975,1711002439475201448,2052,2058,2050,2054,2056,2064,1193
976,1711002439485224191,2050,2034,1993,2084,2133,2051,1196
977,1711002439495223760,2058,2059,2068,2028,2037,2044,1194
978,1711002439505215494,2061,2052,2058,2055,2063,2049,1195
979,1711002439515201606,2056,2060,2066,2095,2104,2066,1194
980,1711002439525216945,2061,2042,1967,2056,2041,2054,1197
981,1711002439535198949,2058,2056,2056,2042,2040,2052,1195
982,1711002439545240610,2061,2049,2040,2050,2036,2049,1196
983,1711002439555202926,2057,2063,2048,2080,2060,2058,1198
984,1711002439565235088,2066,2049,2030,2076,2069,2056,1197
985,1711002439575201573,2054,2080,2112,2056,2000,2059,1196
986,1711002439585224708,2058,2050,2050,2049,2037,2054,1198
987,1711002439595205490,2050,2064,2099,2064,2024,2054,1196
988,1711002439605223003,2053,2036,2020,2037,2053,2050,1194
989,1711002439615200769,2047,2041,1974,2045,2016,2042,1193
990,1711002439625224264,2056,2041,2020,2036,2060,2048,1196
991,1711002439635200628,2047,2064,2098,2024,2042,2048,1196
992,1711002439645226217,2062,2049,2045,2059,2061,2060,1196
993,1711002439655203032,2049,2066,2103,2047,2045,2056,1197
994,1711002439665228220,2065,2055,2044,2011,2009,2053,1195
995,1711002439675201007,2052,2053,2061,2056,2037,2052,1195
996,1711002439685230293,2058,2056,2033,2024,2016,2047,1194
997,1711002439695203340,2057,2064,2092,2047,2021,2052,1196
998,1711002439705235953,2068,2051,2038,2057,2000,2055,1197
999,1711002439715201856,2050,2057,2056,2128,2161,2060,1195
1000,1711002439725234489,2056,2036,2016,2058,2093,2061,1195
1001,1711002439735201855,2050,2052,2063,2052,2047,2058,1196
1002,1711002439745237304,2059,2057,2085,2047,2037,2055,1196
1003,1711002439755201774,2052,2057,2078,2080,2074,2054,1195
1004,1711002439765240308,2052,2040,2011,2013,2020,2037,1195
1005,1711002439775203326,2055,2057,2060,2054,2033,2056,1197
1006,1711002439785241259,2066,2053,2048,2030,2021,2061,1197
1007,1711002439795203976,2052,2058,2078,2056,2035,2053,1194
1008,1711002439805220698,2062,2053,2050,2034,2029,2053,1195
1009,1711002439815200970,2051,2058,2112,2069,2065,2060,1196
1010,1711002439825223733,2057,2034,1997,2013,2020,2048,1196
1011,1711002439835202071,2056,2064,2086,2062,2058,2060,1198
1012,1711002439845246015,2055,2048,2048,2015,2048,2054,1196
1013,1711002439855200626,2052,2056,2048,2055,2040,2053,1196
1014,1711002439865226536,2062,2053,2052,2055,2066,2061,1194
1015,1711002439875202569,2049,2060,2085,2071,2093,2061,1193
1016,1711002439885223239,2058,2045,2028,2024,2039,2049,1193
1017,1711002439895203891,2046,2052,2053,2048,2039,2056,1193
1018,1711002439905216956,2058,2044,2012,2044,2057,2056,1195
1019,1711002439915202628,2055,2076,2127,2046,1984,2053,1195
1020,1711002439925224680,2056,2049,2006,2026,1977,2041,1194
1021,1711002439935195823,2044,2048,2044,2054,2045,2053,1196
1022,1711002439945231642,2059,2049,2063,2042,2036,2052,1195
1023,1711002439955203327,2054,2064,2064,2058,2004,2036,1192
1024,1711002439965223526,2064,2048,2038,2039,2037,2058,1196
1025,1711002439975201282,2053,2053,2105,2076,2124,2057,1196
1026,1711002439985222502,2058,2066,2158,2048,2060,2052,1196
1027,1711002439995204377,2056,2045,2008,2041,2149,2068,1194
1028,1711002440005220297,2065,2049,2014,2072,2046,2053,1196
1029,1711002440015199977,2050,2063,2092,2068,2048,2056,1195
1030,1711002440025228571,2061,2052,2059,2070,2106,2047,1195
1031,1711002440035201707,2047,2051,2035,2050,2022,2048,1194
1032,1711002440045219290,2062,2053,2035,2057,2042,2052,1196
1033,1711002440055201784,2064,2081,2116,2089,1963,2047,1193
1034,1711002440065221120,2049,2054,2071,2053,2043,2041,1193
1035,1711002440075201150,2058,2076,2106,2043,2022,2053,1196
1036,1711002440085221519,2061,2052,2029,2052,2046,2053,1193
1037,1711002440095200738,2055,2065,2058,2034,1996,2047,1193
1038,1711002440105227598,2059,2043,1986,2045,2086,2060,1196
1039,1711002440115201546,2056,2056,2069,2033,2041,2057,1194
1040,1711002440125224850,2046,2037,2012,2028,2038,2046,1191
1041,1711002440135200952,2049,2069,2098,2064,2092,2045,1192
1042,1711002440145244034,2061,2057,2030,2065,2082,2058,1195
1043,1711002440155207141,2049,2068,2104,2066,2031,2047,1192
1044,1711002440165228252,2064,2080,2068,2058,2053,2054,1197
1045,1711002440175205967,2050,2052,2025,2060,2048,2051,1196
1046,1711002440185236184,2060,2044,2028,2060,2069,2053,1197
1047,1711002440195199972,2053,2050,2036,2088,2034,2050,1196
1048,1711002440205223196,2065,2056,2021,2025,2025,2058,1196
1049,1711002440215201222,2045,2051,2039,2036,2049,2055,1197
1050,1711002440225226569,2056,2043,2026,2014,2021,2050,1195
1051,1711002440235256247,2048,2047,2050,2056,2051,2047,1192
1052,1711002440245205857,2061,2045,2028,2061,2046,2049,1195
1053,1711002440255207770,2052,2076,2152,2052,2036,2053,1193
1054,1711002440265229631,2063,2060,2081,2084,2033,2060,1197
1055,1711002440275201885,2061,2064,2076,2050,2022,2053,1194
1056,1711002440285227774,2057,2051,2036,2084,2082,2058,1195
1057,1711002440295202894,2069,2108,2149,2056,1995,2056,1195
1058,1711002440305226318,2060,2036,2011,2057,2068,2059,1196
1059,1711002440315200508,2049,2048,2013,2032,2010,2052,1196
1060,1711002440325230995,2065,2055,2041,2025,1988,2045,1194
1061,1711002440335200495,2053,2052,2082,2034,1960,2040,1193
1062,1711002440345242074,2057,2033,2015,2068,2043,2050,1196
1063,1711002440355212154,2068,2096,2241,2104,2025,2058,1195
1064,1711002440365234136,2062,2057,2052,2133,2132,2066,1195
1065,1711002440375202092,2049,2048,2042,2047,2017,2053,1196
1066,1711002440385235495,2054,2054,2080,2046,2044,2045,1194
1067,1711002440395204435,2044,2052,2045,2047,2060,2058,1197
1068,1711002440405248188,2058,2049,2043,2050,2062,2056,1195
1069,1711002440415201756,2066,2082,2164,2013,2049,2063,1196
1070,1711002440425225511,2056,2036,2024,2034,2036,2047,1193
1071,1711002440435201493,2049,2066,2129,2075,2078,2050,1197
1072,1711002440445245647,2054,2057,2084,2044,2046,2046,1192
1073,1711002440455199927,2048,2049,2035,2104,2071,2057,1194
1074,1711002440465229042,2064,2054,2029,2072,2058,2062,1196
1075,1711002440475201248,2052,2052,2026,2040,2051,2046,1190
1076,1711002440485222818,2065,2073,2077,2088,2084,2061,1195
1077,1711002440495202307,2053,2069,2113,2072,2046,2053,1197
1078,1711002440505226652,2064,2074,2137,2058,2062,2064,1198
1079,1711002440515202825,2060,2052,2058,2040,2053,2061,1195
1080,1711002440525225126,2059,2051,2080,2036,2081,2058,1196
1081,1711002440535256145,2049,2067,2081,2060,1992,2049,1196
1082,1711002440545231647,2051,2034,1958,1995,1979,2036,1193
1083,1711002440555252406,2049,2042,2045,2051,2074,2056,1197
1084,1711002440565232556,2051,2040,2017,2075,2068,2057,1196
1085,1711002440575203608,2034,2042,2064,2040,2040,2045,1193
1086,1711002440585224768,2061,2056,2101,2057,2057,2046,1192
1087,1711002440595204387,2049,2051,2048,2073,2029,2056,1194
1088,1711002440605226418,2058,2052,2057,1994,2085,2042,1193
1089,1711002440615201498,2042,2042,2044,2048,2028,2049,1196
1090,1711002440625225494,2057,2047,2029,2052,2073,2052,1195
1091,1711002440635201877,2047,2049,2074,2049,2064,2053,1194
1092,1711002440645222666,2054,2050,2050,2058,2052,2054,1194
1093,1711002440655200902,2044,2041,1988,2052,2033,2048,1194
1094,1711002440665217774,2049,2025,1978,2037,2042,2053,1194
1095,1711002440675200949,2040,2045,2060,2056,2070,2054,1195
1096,1711002440685214464,2056,2062,2060,2060,2062,2046,1191
1097,1711002440695204453,2051,2056,2055,2057,2085,2061,1195
1098,1711002440705229011,2056,2046,2068,2052,2034,2049,1195
1099,1711002440715200794,2045,2060,2073,2053,2052,2052,1197
1100,1711002440725219740,2059,2045,2032,2061,2064,2049,1197
1101,1711002440735200541,2058,2074,2116,2112,2064,2064,1195
1102,1711002440745216400,2056,2057,2109,2021,2003,2047,1193
1103,1711002440755202512,2056,2058,2061,2058,2076,2057,1195
1104,1711002440765229182,2066,2056,2050,2060,2138,2061,1195
1105,1711002440775202689,2056,2060,2060,2074,2056,2049,1196
1106,1711002440785228248,2066,2063,2072,2065,2088,2057,1196
1107,1711002440795201735,2058,2064,2049,2045,2021,2061,1194
1108,1711002440805229748,2058,2056,2056,2091,2114,2058,1196
1109,1711002440815201582,2036,2034,1996,2021,2004,2037,1192
1110,1711002440825227160,2059,2039,2010,2059,2047,2047,1193
1111,1711002440835202451,2057,2062,2063,2064,2056,2058,1198
1112,1711002440845245393,2061,2054,2047,2039,2042,2051,1197
1113,1711002440855201997,2053,2047,2044,2058,2104,2060,1197
1114,1711002440865233548,2048,2047,2054,2016,1952,2044,1192
1115,1711002440875202566,2046,2053,2052,2090,2064,2050,1194
1116,1711002440885224607,2062,2040,1998,2050,2057,2056,1194
1117,1711002440895202202,2047,2062,2100,2034,2057,2042,1193
1118,1711002440905228552,2045,2033,2018,2045,2041,2061,1196
1119,1711002440915202761,2054,2070,2111,2057,2028,2059,1196
1120,1711002440925227006,2053,2056,2081,2088,2072,2052,1196
1121,1711002440935201907,2045,2041,2058,2024,2036,2044,1193
1122,1711002440945255439,2051,2038,1993,2080,2072,2056,1195
1123,1711002440955201483,2055,2056,2041,2065,2053,2058,1196
1124,1711002440965223124,2056,2045,2047,2016,2015,2033,1192
1125,1711002440975202001,2061,2059,2077,2068,2056,2053,1195
1126,1711002440985223051,2072,2084,2154,2062,2041,2053,1196
1127,1711002440995203331,2061,2077,2124,2065,2056,2061,1196
1128,1711002441005214831,2056,2045,2032,2057,2109,2056,1194
1129,1711002441015201383,2054,2064,2110,2060,2072,2056,1195
1130,1711002441025218373,2069,2076,2101,2065,2042,2057,1196
1131,1711002441035199555,2048,2064,2102,2035,2065,2057,1197
1132,1711002441045214632,2057,2042,2038,2052,2057,2064,1194
1133,1711002441055201334,2053,2058,2112,2040,2009,2053,1194
1134,1711002441065226671,2057,2054,2066,2065,2064,2060,1196
1135,1711002441075200728,2048,2045,2051,2063,2066,2058,1192
1136,1711002441085223521,2064,2056,2051,2028,2033,2052,1196
1137,1711002441095203610,2053,2061,2057,2060,2033,2053,1194
1138,1711002441105229909,2057,2066,2106,2047,2046,2046,1192
1139,1711002441115201943,2056,2068,2042,2076,2050,2055,1195
1140,1711002441125224584,2053,2042,2041,2076,2088,2057,1195
1141,1711002441135201157,2038,2046,2035,2051,2030,2044,1193
1142,1711002441145250971,2062,2060,2069,2038,2052,2057,1196
1143,1711002441155201212,2053,2060,2088,2004,2027,2043,1193
1144,1711002441165224986,2057,2049,2045,2053,2047,2042,1193
1145,1711002441175201318,2041,2061,2133,2053,2010,2043,1193
1146,1711002441185226194,2048,2038,2043,2056,2100,2049,1194
1147,1711002441195201685,2047,2058,2082,2101,2015,2055,1193
1148,1711002441205234987,2065,2049,2004,2062,2021,2056,1194
1149,1711002441215201821,2047,2052,2051,2080,2104,2056,1195
1150,1711002441225260813,2076,2097,2154,2096,2062,2060,1196
1151,1711002441235201465,2033,2034,2031,2035,2032,2036,1192
1152,1711002441245240940,2064,2043,2008,2060,2056,2056,1194
1153,1711002441255252720,2049,2046,2032,2032,2072,2050,1196
1154,1711002441265215677,2069,2060,2088,2050,2048,2055,1195
1155,1711002441275200164,2061,2078,2113,2073,2067,2066,1194
1156,1711002441285217606,2064,2059,2095,2125,2124,2069,1195
1157,1711002441295200150,2054,2053,2026,2056,2076,2047,1192
1158,1711002441305236448,2058,2056,2076,2060,2149,2066,1195
1159,1711002441315202100,2050,2058,2095,2056,2021,2041,1194
1160,1711002441325245752,2066,2064,2067,2060,2073,2060,1197
1161,1711002441335202435,2052,2047,2051,2034,2041,2057,1195
1162,1711002441345244185,2057,2060,2105,2087,2120,2058,1196
1163,1711002441355203243,2056,2060,2056,2094,2077,2066,1194
1164,1711002441365247286,2057,2040,2011,2050,2064,2059,1195
1165,1711002441375255670,2056,2060,2054,2084,2082,2053,1195
1166,1711002441385279835,2062,2054,2040,2075,2084,2061,1196
1167,1711002441395291295,2066,2080,2114,2069,2064,2061,1195
1168,1711002441405227729,2066,2053,2026,2092,2094,2061,1195
1169,1711002441415201746,2050,2047,1981,2050,2014,2052,1194
1170,1711002441425230591,2056,2043,2038,2033,2044,2038,1193
1171,1711002441435201341,2051,2052,2046,2053,2047,2049,1197
1172,1711002441445256406,2056,2056,2036,2036,2044,2051,1196
1173,1711002441455201407,2058,2069,2088,2053,2024,2056,1196
1174,1711002441465236253,2053,2043,2026,2047,2071,2040,1196
1175,1711002441475201293,2049,2040,2033,2065,2059,2058,1194
1176,1711002441485237461,2057,2048,2042,2056,2065,2060,1196
1177,1711002441495283198,2043,2060,2108,2049,2057,2057,1195
1178,1711002441505227207,2060,2044,2026,2022,2009,2047,1194
1179,1711002441515204690,2041,2035,2000,2040,2014,2045,1194
1180,1711002441525233996,2060,2052,2046,2058,2036,2053,1195
1181,1711002441535201721,2063,2079,2106,2081,2049,2064,1196
1182,1711002441545305450,2054,2045,2052,2044,2056,2058,1197
1183,1711002441555202839,2046,2056,2057,2030,2040,2047,1194
1184,1711002441565238345,2057,2057,2049,2056,2072,2062,1193
1185,1711002441575201061,2057,2056,2050,2034,2047,2064,1196
1186,1711002441585238301,2049,2040,2038,2084,2082,2046,1193
1187,1711002441595258257,2055,2060,2076,2042,2041,2062,1197
1188,1711002441605245851,2066,2068,2048,2081,2073,2061,1196
1189,1711002441615203406,2058,2061,2056,2075,2085,2069,1197
1190,1711002441625241027,2063,2053,2041,2045,2048,2068,1197
1191,1711002441635203342,2057,2066,2112,2065,2054,2058,1195
1192,1711002441645256182,2062,2064,2098,2072,2031,2054,1195
1193,1711002441655203779,2053,2056,2041,2076,2084,2060,1196
1194,1711002441665229887,2058,2049,2044,2095,2112,2057,1195
1195,1711002441675204717,2056,2058,2056,2089,2049,2052,1193
1196,1711002441685225775,2063,2062,2029,2066,2040,2068,1196
1197,1711002441695206064,2044,2042,2038,2045,2054,2048,1193
1198,1711002441705240620,2068,2060,2080,2084,2085,2073,1196
1199,1711002441715200820,2058,2052,2029,2042,2079,2064,1197
1200,1711002441725222901,2056,2042,2024,2054,2035,2050,1195
1201,1711002441735202609,2050,2054,2078,2105,2088,2056,1194
1202,1711002441745244698,2060,2037,2007,2063,2125,2033,1194
1203,1711002441755202685,2044,2030,1992,2034,2044,2050,1194
1204,1711002441765224405,2064,2066,2096,2092,2093,2058,1197
1205,1711002441775202329,2052,2054,2054,2065,2079,2058,1197
1206,1711002441785224912,2065,2069,2141,2062,2046,2054,1197
1207,1711002441795203738,2058,2077,2118,2059,2027,2054,1194
1208,1711002441805227582,2060,2069,2105,2060,2074,2060,1195
1209,1711002441815200658,2052,2051,2047,2062,2074,2053,1195
1210,1711002441825225604,2063,2060,2030,2005,2052,2058,1197
1211,1711002441835201485,2050,2057,2024,2089,2130,2062,1196
1212,1711002441845239777,2060,2053,2058,2059,2045,2060,1195
1213,1711002441855200780,2051,2047,2045,2052,2045,2056,1197
1214,1711002441865226868,2059,2050,2087,2053,2064,2059,1196
1215,1711002441875202909,2047,2030,1989,2034,2017,2042,1191
1216,1711002441885243436,2060,2055,2050,2045,2039,2062,1197
1217,1711002441895205239,2052,2058,2094,2081,2060,2054,1195
1218,1711002441905252268,2065,2065,2088,2060,2065,2060,1195
1219,1711002441915203432,2052,2053,2050,2079,2143,2067,1195
1220,1711002441925236353,2061,2056,2058,2082,2105,2065,1196
1221,1711002441935201263,2060,2057,2057,2044,2034,2051,1193
1222,1711002441945217412,2050,2046,2010,2068,2055,2047,1195
1223,1711002441955201188,2052,2064,2073,2035,1994,2047,1193
1224,1711002441965217809,2056,2045,2048,2057,2064,2057,1195
1225,1711002441975209179,2046,2047,2040,2052,2044,2050,1195
1226,1711002441985217874,2060,2057,2056,2048,2020,2053,1195
1227,1711002441995203364,2050,2046,2028,2049,2065,2050,1195
1228,1711002442005227138,2065,2078,2123,2088,2074,2065,1195
1229,1711002442015199712,2056,2072,2139,2046,2037,2049,1193
1230,1711002442025225489,2067,2074,2118,2064,2076,2053,1193
1231,1711002442035200477,2057,2064,2075,2058,2030,2052,1195
1232,1711002442045233017,2063,2062,2090,2078,2032,2050,1192
1233,1711002442055201704,2053,2055,2053,2066,2108,2064,1197
1234,1711002442065229595,2049,2054,2050,2106,2114,2059,1199
1235,1711002442075200495,2064,2085,2129,2070,2052,2062,1193
1236,1711002442085223296,2061,2054,2100,2070,2066,2060,1195
1237,1711002442095204407,2053,2062,2064,2071,2046,2059,1198
1238,1711002442105546127,2057,2052,2033,2063,2046,2058,1196
1239,1711002442115201877,2051,2050,2032,2040,2038,2049,1196
1240,1711002442125229677,2056,2057,2049,2077,2074,2059,1195
1241,1711002442135202511,2056,2055,2009,2076,2042,2054,1196
1242,1711002442145238278,2063,2074,2087,2045,2050,2056,1195
1243,1711002442155203166,2049,2045,2047,2038,2034,2049,1194
1244,1711002442165236398,2050,2044,2058,2049,2056,2052,1196
1245,1711002442175203090,2056,2064,2085,2074,2081,2056,1196
1246,1711002442185229749,2054,2044,2004,2059,2066,2046,1194
1247,1711002442195205289,2052,2044,2023,2067,2056,2051,1196
1248,1711002442205237468,2061,2048,2028,2053,2058,2053,1195
1249,1711002442215203128,2065,2077,2075,2066,2037,2051,1196
1250,1711002442225231380,2053,2047,2045,2032,2040,2054,1195
1251,1711002442235202160,2045,2040,2017,2008,1996,2029,1194
1252,1711002442245261693,2056,2069,2152,2065,2034,2051,1197
1253,1711002442255280206,2046,2050,2040,2061,2030,2051,1195
1254,1711002442265235406,2060,2065,2068,2070,2046,2056,1193
1255,1711002442275200996,2053,2053,2064,2042,2017,2052,1194
1256,1711002442285229829,2050,2043,2021,2032,2019,2039,1192
1257,1711002442295202593,2052,2066,2075,2060,2057,2053,1193
1258,1711002442305245123,2063,2052,2016,2070,2081,2057,1195
1259,1711002442315203490,2046,2047,2033,2011,2011,2042,1195
1260,1711002442325236811,2057,2053,2072,2028,2052,2055,1195
1261,1711002442335202532,2053,2047,2020,2047,2012,2052,1196
1262,1711002442345253387,2056,2050,2013,2080,2115,2064,1192
1263,1711002442355202706,2057,2060,2082,2048,2062,2056,1196
1264,1711002442365234164,2064,2072,2108,2071,2033,2056,1197
1265,1711002442375200966,2052,2045,2036,2056,2003,2048,1196
1266,1711002442385236572,2060,2052,2045,2036,2021,2053,1196
1267,1711002442395260216,2052,2045,2028,2060,2044,2050,1196
1268,1711002442405257016,2053,2053,2065,2052,2056,2057,1195
1269,1711002442415202407,2050,2042,2007,2060,2004,2035,1193
1270,1711002442425238173,2063,2056,2064,2062,2028,2058,1196
1271,1711002442435201068,2058,2060,2028,2057,2049,2052,1195
1272,1711002442445245822,2061,2077,2148,2045,2046,2050,1196
1273,1711002442455201263,2052,2056,2047,2040,2031,2049,1194
1274,1711002442465238943,2054,2054,2059,2033,2017,2046,1192
1275,1711002442475201758,2065,2092,2154,2075,2069,2060,1195
1276,1711002442485237274,2056,2053,2023,2032,2051,2050,1193
1277,1711002442495264804,2053,2054,2045,2066,2073,2056,1196
1278,1711002442505238300,2060,2065,2085,2064,2114,2062,1196
1279,1711002442515201716,2054,2058,2059,2072,2037,2049,1197
1280,1711002442525238003,2067,2062,2072,2080,2065,2060,1197
1281,1711002442535203323,2058,2068,2125,2053,2049,2056,1197
1282,1711002442545242536,2060,2053,2038,2076,2088,2057,1196
1283,1711002442555260838,2051,2050,2036,2032,2042,2053,1196
1284,1711002442565228973,2052,2052,2055,2013,2024,2040,1193
1285,1711002442575201387,2052,2035,1986,2032,2028,2059,1196
1286,1711002442585240390,2051,2046,2014,2049,2077,2052,1197
1287,1711002442595203195,2056,2049,2010,2079,2043,2053,1196
1288,1711002442605233731,2058,2056,2049,2049,2037,2051,1197
1289,1711002442615201255,2056,2054,2037,2066,2064,2052,1194
1290,1711002442625224808,2045,2030,2023,1985,2030,2049,1195
1291,1711002442635200537,2059,2053,2064,2073,2050,2060,1195
1292,1711002442645223940,2056,2046,2037,2021,2052,2056,1196
1293,1711002442655202967,2058,2055,2105,2060,2064,2044,1194
1294,1711002442665225958,2061,2052,2033,2029,2058,2059,1195
1295,1711002442675202479,2046,2056,2028,2056,2024,2047,1193
1296,1711002442685228787,2056,2042,2040,2034,2060,2052,1196
1297,1711002442695200840,2050,2040,2022,2059,2030,2042,1193
1298,1711002442705229703,2054,2064,2048,2078,2053,2052,1195
1299,1711002442715202106,2056,2067,2090,2066,2043,2049,1196
1300,1711002442725231280,2060,2072,2091,2064,2087,2066,1195
1301,1711002442735202482,2056,2053,2049,2070,2044,2056,1196
1302,1711002442745233789,2054,2060,2090,2059,2021,2055,1194
1303,1711002442755203367,2048,2057,2087,2014,1988,2033,1194
1304,1711002442765237009,2059,2060,2046,2070,2094,2060,1196
1305,1711002442775202449,2055,2048,2045,2061,2034,2056,1195
1306,1711002442785237434,2058,2048,2010,2034,2032,2050,1194
1307,1711002442795200760,2056,2054,2039,2040,2040,2058,1195
1308,1711002442805237839,2054,2064,2069,2073,2079,2060,1196
1309,1711002442815201766,2057,2055,2037,2030,2049,2054,1196
1310,1711002442825240518,2058,2059,2059,2060,2058,2057,1194
1311,1711002442835201429,2054,2046,2041,2069,2068,2054,1195
1312,1711002442845242025,2054,2045,2034,2045,2080,2058,1196
1313,1711002442855199771,2062,2064,2033,2049,2073,2052,1197
1314,1711002442865243852,2056,2051,2052,2047,2088,2061,1199
1315,1711002442875202840,2054,2050,2052,2017,2056,2060,1193
1316,1711002442885245370,2056,2056,2032,2086,2084,2056,1193
1317,1711002442895208936,2053,2053,2025,2075,2069,2053,1193
1318,1711002442905229052,2052,2050,2037,2081,2098,2062,1195
1319,1711002442915202327,2052,2055,2047,2036,2034,2053,1196
1320,1711002442925232322,2058,2066,2094,2056,2078,2058,1197
1321,1711002442935267919,2054,2054,2050,2061,2080,2057,1195
1322,1711002442945232487,2051,2056,2076,2064,2154,2056,1196
1323,1711002442955202305,2057,2057,2025,2053,2058,2057,1196
1324,1711002442965229024,2053,2045,2009,2048,2026,2053,1196
1325,1711002442975201036,2056,2052,2015,2061,2042,2061,1195
1326,1711002442985225271,2059,2056,2058,2060,2036,2059,1194
1327,1711002442995204518,2052,2045,2020,2046,2041,2053,1195
1328,1711002443005230235,2057,2050,2067,2065,2037,2054,1195
1329,1711002443015201685,2051,2064,2045,2056,2021,2056,1194
1330,1711002443025228554,2062,2062,2108,2045,2039,2061,1195
1331,1711002443035202018,2052,2058,2096,2064,2058,2053,1196
1332,1711002443045238565,2057,2053,2057,2036,2065,2056,1194
1333,1711002443055200959,2058,2067,2115,2050,2052,2053,1196
1334,1711002443065228147,2062,2072,2137,2052,2027,2052,1197
1335,1711002443075201562,2057,2064,2073,2092,2082,2052,1196
1336,1711002443085224773,2064,2054,2004,2056,2068,2058,1193
1337,1711002443095204270,2054,2056,2043,2050,2051,2054,1196
1338,1711002443105228683,2056,2044,2052,2051,2062,2052,1196
1339,1711002443115201266,2056,2061,2076,2074,2072,2060,1196
1340,1711002443125222604,2057,2056,2056,2061,2071,2057,1193
1341,1711002443135201679,2053,2054,2067,2064,2056,2053,1196
1342,1711002443145218859,2061,2064,2095,2092,2039,2047,1190
1343,1711002443155202203,2052,2061,2080,2034,2040,2053,1195
1344,1711002443165235884,2060,2064,2072,2076,2126,2066,1195
1345,1711002443175200532,2040,2043,2050,2013,2058,2036,1193
1346,1711002443185226558,2061,2063,2072,2047,2044,2049,1197
1347,1711002443195201577,2061,2077,2110,2051,2025,2051,1196
1348,1711002443205228765,2057,2060,2106,2066,2062,2056,1196
1349,1711002443215202952,2047,2047,2028,2034,2081,2056,1195
1350,1711002443225231673,2057,2049,2058,2056,2128,2056,1195
1351,1711002443235258942,2051,2058,2044,2041,2014,2045,1193
1352,1711002443245239531,2065,2074,2106,2090,2102,2072,1196
1353,1711002443255210150,2058,2046,2028,2067,2046,2057,1195
1354,1711002443265227290,2056,2056,2043,2062,2046,2052,1197
1355,1711002443275201906,2056,2052,2032,2045,2042,2049,1195
1356,1711002443285244725,2058,2045,2040,2054,2058,2055,1195
1357,1711002443295206828,2048,2046,2041,2053,2032,2049,1197
1358,1711002443305216643,2060,2066,2128,2028,2046,2054,1195
1359,1711002443315205348,2054,2073,2122,2081,2054,2047,1193
1360,1711002443325230142,2053,2049,2046,2080,2096,2058,1195
1361,1711002443335201322,2053,2054,2035,2057,2082,2053,1196
1362,1711002443345239693,2054,2045,2043,2072,2021,2043,1193
1363,1711002443355202547,2056,2056,2088,2101,2097,2058,1195
1364,1711002443365231870,2055,2046,2056,2083,2051,2055,1195
1365,1711002443375203050,2048,2045,2024,2045,2035,2052,1196
1366,1711002443385231402,2058,2058,2089,2061,2048,2056,1196
1367,1711002443395200648,2052,2037,2025,2075,2066,2047,1194
1368,1711002443405240631,2054,2052,2063,2057,2051,2054,1197
1369,1711002443415210209,2047,2053,2082,2064,2074,2062,1194
1370,1711002443425237257,2052,2048,2036,2017,2069,2050,1196
1371,1711002443435202216,2056,2052,2048,2034,2040,2052,1197
1372,1711002443445245286,2064,2096,2161,2066,2074,2061,1196
1373,1711002443455201446,2046,2042,2021,2039,2052,2051,1195
1374,1711002443465233315,2056,2058,1995,2040,2040,2046,1194
1375,1711002443475202421,2056,2056,2033,2025,2062,2052,1192
1376,1711002443485227456,2061,2069,2141,2097,2097,2069,1195
1377,1711002443495206812,2052,2049,2019,2089,2044,2055,1194
1378,1711002443505225965,2056,2057,2059,2057,2082,2058,1197
1379,1711002443515200953,2062,2067,2065,2065,2021,2049,1194
1380,1711002443525226358,2062,2064,2066,2099,2127,2063,1194
1381,1711002443535201817,2046,2040,2035,2040,2104,2038,1192
1382,1711002443545244666,2059,2060,2052,2062,2038,2056,1195
1383,1711002443555202259,2056,2059,2052,2036,2041,2045,1193
1384,1711002443565223407,2052,2045,2021,2066,2052,2050,1193
1385,1711002443575201861,2056,2051,2034,2058,2066,2056,1196
1386,1711002443585252777,2058,2064,2105,2046,2039,2051,1198
1387,1711002443595203196,2056,2052,2038,2096,2093,2048,1196
1388,1711002443605225135,2055,2064,2090,2044,1999,2051,1195
1389,1711002443615202969,2054,2054,2053,2009,1956,2051,1198
1390,1711002443625224726,2048,2050,2037,2027,2004,2045,1192
1391,1711002443635202550,2066,2077,2072,2061,2078,2052,1196
1392,1711002443645237915,2054,2050,2042,2096,2056,2057,1196
1393,1711002443655201491,2054,2054,2050,2057,2016,2052,1198
1394,1711002443665219221,2058,2049,2041,2021,2032,2050,1195
1395,1711002443675202003,2056,2050,2049,2080,2066,2057,1196
1396,1711002443685232860,2054,2050,2041,2050,2007,2056,1196
1397,1711002443695203429,2049,2042,2016,2056,1990,2049,1196
1398,1711002443705225458,2064,2079,2088,2061,2059,2054,1195
1399,1711002443715203010,2067,2069,2075,2056,2021,2050,1196
1400,1711002443725226091,2044,2044,2056,2080,2124,2057,1197
1401,1711002443735202642,2055,2055,2032,2080,2073,2056,1197
1402,1711002443745224961,2056,2050,2042,2063,2082,2066,1196
1403,1711002443755200891,2056,2052,2025,2077,2046,2058,1196
1404,1711002443765226497,2051,2042,2053,2049,2056,2060,1195
1405,1711002443775202546,2052,2049,2037,2070,2063,2056,1197
1406,1711002443785233823,2056,2052,2046,2084,2057,2057,1199
1407,1711002443795201647,2056,2053,2047,2046,2043,2048,1196
1408,1711002443805226933,2059,2050,2061,2077,2057,2063,1194
1409,1711002443815202401,2057,2060,2068,2093,2077,2056,1194
1410,1711002443825225181,2056,2054,2059,2045,2058,2057,1196
1411,1711002443835201401,2063,2072,2066,2042,2054,2055,1195
1412,1711002443845226325,2060,2057,2093,2041,2052,2059,1193
1413,1711002443855202015,2056,2049,2033,2044,2027,2056,1195
1414,1711002443865221789,2052,2045,1995,2056,2015,2046,1193
1415,1711002443875200344,2050,2045,2032,2085,2120,2044,1192
1416,1711002443885249976,2055,2066,2123,2056,2008,2044,1192
1417,1711002443895204634,2068,2104,2120,2097,2117,2057,1196
1418,1711002443905215282,2056,2045,2024,2070,2051,2056,1194
1419,1711002443915199637,2059,2049,2017,2066,2070,2061,1196
1420,1711002443925216948,2060,2060,2051,2092,2097,2059,1196
1421,1711002443935202435,2056,2053,2037,2043,2040,2049,1197
1422,1711002443945231097,2062,2077,2168,2051,2069,2062,1196
1423,1711002443955204051,2056,2066,2108,2086,2068,2059,1196
1424,1711002443965226039,2058,2053,2061,2066,2075,2056,1195
1425,1711002443975201859,2065,2080,2114,2068,2047,2047,1192
1426,1711002443985230160,2056,2060,2080,2050,2016,2041,1193
1427,1711002443995204126,2047,2048,2060,2057,2136,2054,1198
1428,1711002444005222176,2052,2054,2085,2045,2056,2057,1195
1429,1711002444015202513,2058,2055,2040,2061,2053,2059,1196
1430,1711002444025222877,2048,2042,2025,2058,2047,2056,1194
1431,1711002444035201181,2052,2053,2040,2072,2004,2045,1194
1432,1711002444045255873,2056,2045,2038,2041,2008,2054,1198
1433,1711002444055200760,2060,2064,2066,2054,2031,2052,1195
1434,1711002444065216998,2049,2055,2081,2064,2018,2052,1195
1435,1711002444075200191,2047,2052,2041,2036,1969,2040,1191
1436,1711002444085218852,2066,2062,2073,2074,2062,2059,1195
1437,1711002444095199640,2052,2038,1966,1990,2021,2037,1192
1438,1711002444105226768,2058,2044,2037,2025,1989,2051,1194
1439,1711002444115200933,2052,2054,2035,2040,1948,2033,1193
1440,1711002444125223703,2058,2056,2108,2085,2011,2045,1193
1441,1711002444135200514,2045,2036,2004,2045,2056,2048,1193
1442,1711002444145238011,2064,2088,2088,2069,2033,2050,1195
1443,1711002444155201035,2060,2059,2105,2076,2108,2061,1196
1444,1711002444165236399,2056,2051,2021,2013,2039,2051,1196
1445,1711002444175200976,2056,2046,2000,2027,2015,2045,1192
1446,1711002444185227843,2077,2092,2137,2078,2067,2060,1197
1447,1711002444195203762,2059,2056,2053,2035,2058,2059,1195
1448,1711002444205228475,2060,2058,2001,2108,2072,2054,1196
1449,1711002444215201889,2054,2046,2010,2060,2092,2055,1196
1450,1711002444225230079,2058,2061,2078,2081,2068,2058,1195
1451,1711002444235201630,2060,2070,2130,2031,2047,2059,1194
1452,1711002444245232344,2053,2056,2060,2043,2073,2056,1195
1453,1711002444255201169,2053,2053,2010,2056,2024,2057,1195
1454,1711002444265232736,2041,2037,2028,2035,1992,2045,1194
1455,1711002444275201229,2054,2049,2001,2092,2122,2058,1195
1456,1711002444285234199,2050,2046,2019,2047,2053,2054,1193
1457,1711002444295205319,2061,2057,2052,2065,2068,2061,1196
1458,1711002444305235963,2060,2069,2105,2078,2096,2058,1197
1459,1711002444315201933,2062,2062,2000,2052,2007,2053,1194
1460,1711002444325221877,2058,2056,2024,2072,2088,2061,1197
1461,1711002444335253503,2052,2043,2066,2018,1984,2031,1192
1462,1711002444345247898,2052,2045,2028,2020,1995,2043,1194
1463,1711002444355201954,2060,2055,2064,2115,2124,2057,1195
1464,1711002444365223982,2049,2046,2036,2029,2028,2052,1194
1465,1711002444375200532,2056,2038,2013,2059,2057,2050,1197
1466,1711002444385224414,2056,2056,2092,2069,2060,2065,1197
1467,1711002444395207356,2057,2048,2050,2048,2020,2048,1193
1468,1711002444405262548,2058,2062,2074,2065,2133,2069,1196
1469,1711002444415202928,2052,2043,2009,2037,2029,2049,1194
1470,1711002444425247900,2057,2053,2073,2136,2131,2056,1196
1471,1711002444435256252,2052,2038,1994,2014,2050,2043,1193
1472,1711002444445233444,2055,2052,2054,2073,2084,2063,1194
1473,1711002444455265280,2044,2037,1995,2059,2036,2038,1192
1474,1711002444465232572,2056,2048,2050,2031,2059,2056,1197
1475,1711002444475200726,2066,2074,2090,2054,1994,2048,1193
1476,1711002444485229687,2056,2064,2100,2074,2052,2058,1195
1477,1711002444495267286,2053,2042,1998,2068,2096,2047,1191
1478,1711002444505255128,2054,2054,2058,2028,2019,2051,1195
1479,1711002444515201088,2050,2041,2028,2012,2024,2047,1194
1480,1711002444525234097,2058,2053,2058,2052,2032,2049,1195
1481,1711002444535200758,2060,2051,2028,2040,2055,2056,1194
1482,1711002444545244969,2049,2042,2028,2061,2020,2049,1196
1483,1711002444555262078,2057,2044,2028,2046,2033,2052,1194
1484,1711002444565240321,2056,2072,2115,2060,2040,2052,1195
1485,1711002444575203023,2061,2056,2101,2092,2085,2049,1197
1486,1711002444585234941,2056,2059,2080,2050,2032,2053,1196
1487,1711002444595270947,2049,2044,2045,2049,2033,2044,1192
1488,1711002444605236074,2058,2062,2074,2073,2063,2062,1195
1489,1711002444615201081,2061,2069,2160,2127,2168,2067,1196
1490,1711002444625235283,2056,2061,2088,2120,2062,2053,1197
1491,1711002444635201553,2048,2044,2027,2045,2026,2045,1194
1492,1711002444645241726,2058,2067,2145,2081,2032,2060,1196
1493,1711002444655203067,2049,2041,2012,2026,2056,2036,1193
1494,1711002444665232239,2048,2057,2062,2045,2038,2052,1195
1495,1711002444675201655,2053,2044,2035,2019,2098,2044,1191
1496,1711002444685233642,2053,2057,2093,2050,2020,2057,1194
1497,1711002444695201596,2058,2061,2072,2090,2090,2054,1195
1498,1711002444705242320,2054,2054,2063,2056,2057,2056,1194
1499,1711002444715201215,2057,2057,2050,2062,2072,2053,1197
1500,1711002444725236269,2056,2052,2072,2048,1996,2050,1194
1501,1711002444735201917,2058,2068,2132,2040,2012,2052,1195
1502,1711002444745256158,2053,2052,2073,2067,2096,2061,1196
1503,1711002444755203131,2056,2036,1984,2064,2064,2050,1195
1504,1711002444765244406,2052,2050,2034,2065,2036,2044,1194
1505,1711002444775202490,2049,2050,2032,2045,2064,2054,1197
1506,1711002444785238886,2056,2053,2066,2072,2048,2066,1193
1507,1711002444795261946,2057,2058,2083,2052,2082,2045,1194
1508,1711002444805259727,2059,2058,2072,2047,2037,2058,1197
1509,1711002444815201740,2053,2042,2021,2070,2069,2054,1195
1510,1711002444825239328,2061,2060,2068,2083,2050,2065,1195
1511,1711002444835200148,2045,2031,2023,2045,2044,2051,1196
1512,1711002444845253667,2053,2049,2061,2082,2047,2062,1196
1513,1711002444855202222,2056,2040,2009,2056,2090,2058,1194
1514,1711002444865241955,2045,2038,2017,2076,2086,2060,1197
1515,1711002444875201272,2059,2056,2033,2088,2088,2063,1193
1516,1711002444885232487,2048,2046,2051,2017,2038,2056,1196
1517,1711002444895265657,2057,2053,2056,2053,2027,2053,1195
1518,1711002444905246415,2054,2065,2085,2065,2033,2058,1197
1519,1711002444915202775,2061,2058,2030,2061,2047,2052,1199
1520,1711002444925245484,2053,2075,2173,2071,2045,2056,1196
1521,1711002444935201604,2062,2061,2078,2052,2040,2051,1194
1522,1711002444945260163,2047,2052,2088,2044,2054,2052,1197
1523,1711002444955200783,2056,2052,2058,2020,2049,2034,1194
1524,1711002444965247479,2050,2059,2051,2050,2056,2050,1196
1525,1711002444975201795,2067,2065,2064,2052,2068,2061,1196
1526,1711002444985248562,2056,2079,2167,2078,2076,2053,1197
1527,1711002444995276101,2059,2053,2022,2032,1998,2056,1195
1528,1711002445005242039,2050,2042,2030,2032,1993,2050,1197
1529,1711002445015202267,2051,2038,2002,1989,1955,2040,1194
1530,1711002445025222702,2052,2048,2058,2044,2024,2047,1193
1531,1711002445035200913,2064,2057,2004,2054,2040,2052,1194
1532,1711002445045237590,2066,2104,2205,2064,2027,2064,1197
1533,1711002445055202105,2065,2052,2047,2041,2053,2049,1195
1534,1711002445065226828,2052,2061,2064,2069,2044,2059,1195
1535,1711002445075200802,2050,2037,2006,2019,2026,2047,1191
1536,1711002445085224312,2049,2043,2044,2090,2075,2056,1195
1537,1711002445095205229,2046,2041,1993,2076,2098,2051,1196
1538,1711002445105230383,2060,2076,2089,2057,2059,2060,1196
1539,1711002445115201521,2049,2053,2025,2045,2089,2050,1196
1540,1711002445125226034,2054,2055,2052,2027,2032,2061,1197
1541,1711002445135201160,2062,2052,2059,2052,2092,2067,1197
1542,1711002445145238116,2052,2060,2060,2070,2064,2058,1195
1543,1711002445155200979,2052,2042,1989,2068,2087,2049,1197
1544,1711002445165229939,2050,2040,2012,2065,2059,2047,1193
1545,1711002445175201539,2054,2037,2002,2058,2088,2053,1196
1546,1711002445185223155,2052,2065,2116,2085,2054,2060,1197
1547,1711002445195204142,2060,2052,2014,2053,2106,2041,1192
1548,1711002445205215369,2058,2057,2060,2066,2080,2060,1198
1549,1711002445215203230,2060,2056,2015,2069,2060,2045,1192
1550,1711002445225223383,2048,2043,2058,2038,2000,2058,1197
1551,1711002445235202457,2054,2043,2017,2081,2120,2044,1192
1552,1711002445245240366,2052,2035,2024,2036,2021,2052,1196
1553,1711002445255199912,2057,2041,2016,2043,2020,2049,1196
1554,1711002445265222290,2052,2041,2050,2045,1982,2056,1196
1555,1711002445275201023,2057,2048,2032,2020,1950,2037,1189
1556,1711002445285223922,2041,2055,2080,2078,2045,2056,1197
1557,1711002445295204128,2054,2046,2016,2045,2046,2050,1194
1558,1711002445305222007,2038,2044,2050,2064,2040,2051,1196
1559,1711002445315199559,2055,2044,2010,2012,2060,2034,1192
1560,1711002445325218630,2056,2066,2064,2065,2041,2052,1196
1561,1711002445335201151,2057,2059,2064,2064,2031,2052,1194
1562,1711002445345252134,2058,2057,2044,2088,2077,2064,1193
1563,1711002445355202672,2054,2047,2035,2082,2066,2046,1193
1564,1711002445365224940,2060,2064,2088,2088,2055,2052,1194
1565,1711002445375200968,2058,2050,2064,2049,2061,2050,1195
1566,1711002445385222845,2042,2043,2020,2013,1979,2047,1193
1567,1711002445395220425,2053,2049,2019,2037,2029,2044,1191
1568,1711002445405224898,2052,2056,2069,2043,2046,2055,1196
1569,1711002445415201347,2061,2068,2072,2078,2064,2048,1194
1570,1711002445425218284,2054,2060,2091,2075,2081,2045,1192
1571,1711002445435201076,2065,2064,2090,2037,2080,2057,1197
1572,1711002445445223754,2045,2047,2056,2057,2034,2052,1194
1573,1711002445455199923,2048,2043,2038,2048,2078,2046,1195
1574,1711002445465227952,2053,2050,2035,2021,1992,2051,1196
1575,1711002445475201535,2045,2043,2005,2034,2027,2045,1189
1576,1711002445485223181,2056,2060,2078,2077,2054,2056,1196
1577,1711002445495204340,2059,2058,2052,2056,2024,2035,1193
1578,1711002445505213622,2057,2054,2081,2068,2047,2065,1194
1579,1711002445515203145,2060,2057,2015,2049,2068,2053,1194
1580,1711002445525220414,2053,2052,2064,2054,2045,2052,1195
1581,1711002445535202173,2056,2045,2024,2062,2065,2053,1194
1582,1711002445545225633,2056,2056,2068,2062,2000,2062,1196
1583,1711002445555200178,2057,2047,2041,2049,2063,2052,1197
1584,1711002445565245851,2060,2060,2078,2076,2076,2067,1195
1585,1711002445575202081,2065,2056,2065,2040,2107,2052,1197
1586,1711002445585228757,2052,2047,2059,2088,2079,2061,1197
1587,1711002445595200417,2047,2054,2054,2099,2116,2048,1195
1588,1711002445605223867,2056,2062,2133,2043,2045,2055,1197
1589,1711002445615202410,2056,2053,2052,2056,2061,2051,1196
1590,1711002445625224367,2049,2047,2043,2056,1964,2052,1198
1591,1711002445635203852,2052,2045,2025,2074,2032,2040,1194
1592,1711002445645219026,2046,2042,2041,2062,2059,2056,1196
1593,1711002445655203240,2056,2040,1981,2039,2056,2046,1193
1594,1711002445665229565,2047,2049,2059,2078,2062,2056,1196
1595,1711002445675200012,2057,2045,1987,2043,2091,2046,1192
1596,1711002445685230526,2059,2080,2091,2069,2073,2061,1194
1597,1711002445696506096,2053,2056,2058,2045,2056,2050,1196
1598,1711002445705249351,2049,2058,2080,2042,2033,2056,1194
1599,1711002445715201373,2053,2051,2040,2020,2049,2052,1193
1600,1711002445725243950,2062,2082,2167,2076,2054,2063,1195
1601,1711002445735204438,2058,2045,1985,2048,2044,2046,1193
1602,1711002445745231375,2050,2052,2048,2074,2069,2051,1196
1603,1711002445755203546,2060,2068,2022,2037,2061,2056,1196
1604,1711002445765232536,2051,2050,2051,2056,2021,2061,1196
1605,1711002445775202713,2057,2048,2038,2036,2029,2052,1196
1606,1711002445785240651,2054,2077,2108,2081,2066,2057,1197
1607,1711002445795204426,2065,2062,2043,2062,2080,2058,1196
1608,1711002445805235310,2056,2053,2064,2036,2057,2059,1198
1609,1711002445815201429,2061,2046,1992,2050,2054,2053,1195
1610,1711002445825237052,2050,2062,2071,2064,2049,2056,1196
1611,1711002445835256875,2061,2052,2019,2042,2119,2045,1196
1612,1711002445845234306,2050,2061,2096,2089,2045,2057,1197
1613,1711002445855200284,2060,2056,2052,2037,2031,2053,1195
1614,1711002445865217412,2056,2051,2058,2057,2086,2061,1194
1615,1711002445875198891,2060,2057,2020,2049,2079,2047,1192
1616,1711002445885237290,2051,2058,2072,2069,2034,2060,1197
1617,1711002445895202878,2059,2054,2047,2040,2041,2051,1197
1618,1711002445905226097,2049,2050,2053,2101,2104,2056,1196
1619,1711002445915199701,2057,2042,2000,2054,2099,2057,1197
1620,1711002445925220185,2052,2061,2093,2077,2047,2058,1196
1621,1711002445935200812,2050,2042,2028,2040,2046,2052,1196
1622,1711002445945249401,2048,2061,2080,2060,2054,2058,1196
1623,1711002445955203537,2053,2046,2036,2081,2099,2056,1196
1624,1711002445965228389,2048,2047,2070,2053,2080,2057,1196
1625,1711002445975202133,2060,2052,2024,2045,2043,2052,1196
1626,1711002445985219982,2053,2058,2070,2078,2076,2059,1199
1627,1711002445995202031,2061,2062,2063,2014,2072,2050,1196
1628,1711002446005225592,2050,2063,2104,2046,2012,2054,1195
1629,1711002446015201178,2061,2055,2040,2051,2055,2052,1198
1630,1711002446025223896,2051,2051,2046,2052,2048,2056,1197
1631,1711002446035201506,2060,2050,2010,2052,2084,2053,1196
1632,1711002446045225457,2043,2049,2043,2056,2071,2056,1196
1633,1711002446055201835,2061,2065,2129,2084,2057,2052,1196
1634,1711002446065216366,2053,2065,2092,2061,2036,2060,1196
1635,1711002446075201671,2058,2053,2037,2047,2047,2045,1191
1636,1711002446085225983,2047,2061,2076,2057,2052,2061,1197
1637,1711002446095207029,2053,2047,2050,2046,2043,2052,1197
1638,1711002446105224066,2054,2076,2177,2030,2037,2056,1195
1639,1711002446115202448,2049,2041,2009,2056,2109,2047,1193
1640,1711002446125229504,2056,2072,2117,2059,1993,2054,1196
1641,1711002446135201323,2058,2039,2008,2024,2026,2040,1194
1642,1711002446145229872,2051,2059,2137,2066,2024,2052,1194
1643,1711002446155202854,2059,2049,2034,2040,2058,2052,1197
1644,1711002446165228897,2047,2052,2081,2068,2053,2057,1197
1645,1711002446175202681,2069,2074,2083,2061,2117,2059,1197
1646,1711002446185227813,2046,2053,2056,2029,2031,2050,1195
1647,1711002446195207467,2066,2058,2024,2058,2051,2056,1196
1648,1711002446205220737,2050,2057,2081,2110,2080,2054,1195
1649,1711002446215203056,2060,2059,2031,2035,2050,2045,1193
1650,1711002446225237356,2048,2050,2037,2015,2037,2049,1194
1651,1711002446235202232,2060,2041,2000,2056,2058,2053,1197
1652,1711002446245250640,2052,2057,2063,2040,1976,2047,1193
1653,1711002446255264000,2043,2025,1992,2017,2015,2040,1194
1654,1711002446265229195,2044,2036,2047,2056,2127,2062,1195
1655,1711002446275201956,2060,2041,2012,2040,2063,2051,1197
1656,1711002446285225005,2049,2057,2070,2069,2064,2057,1194
1657,1711002446295207294,2058,2044,2027,2035,2072,2053,1195
1658,1711002446305226475,2056,2060,2094,2068,2085,2058,1194
1659,1711002446315200498,2066,2067,2070,2033,2059,2050,1196
1660,1711002446325225420,2054,2076,2147,2083,2048,2053,1194
1661,1711002446335201718,2054,2042,1975,2047,2056,2052,1193
1662,1711002446345238984,2054,2059,2058,2100,2059,2058,1195
1663,1711002446355202848,2062,2060,2050,2040,2048,2046,1193
1664,1711002446365228331,2054,2069,2110,2052,2034,2058,1196
1665,1711002446375201502,2070,2066,2130,2032,2033,2049,1196
1666,1711002446385228960,2046,2043,2019,2034,2038,2064,1198
1667,1711002446395201771,2057,2047,1994,2045,2059,2049,1195
1668,1711002446405258765,2056,2070,2120,2065,2047,2053,1198
1669,1711002446415202059,2063,2043,1941,2044,2083,2057,1195
1670,1711002446425236349,2040,2032,2018,2059,2020,2047,1191
1671,1711002446435201985,2060,2050,2028,2035,2040,2053,1195
1672,1711002446445236807,2047,2050,2071,2039,2041,2056,1195
1673,1711002446455199058,2061,2072,2117,2048,2053,2054,1195
1674,1711002446465236724,2046,2051,2043,2084,1998,2053,1196
1675,1711002446475200357,2065,2068,2093,2065,2093,2065,1196
1676,1711002446485238155,2052,2064,2116,2077,2066,2064,1196
1677,1711002446495204063,2053,2038,1997,2039,2047,2048,1195
1678,1711002446505242911,2054,2064,2110,2085,2069,2058,1196
1679,1711002446515202647,2071,2059,2057,2027,2036,2057,1194
1680,1711002446525225716,2056,2057,2047,2070,2063,2064,1196
1681,1711002446535202083,2056,2044,2013,2024,2046,2047,1193
1682,1711002446545231804,2052,2069,2112,2042,2042,2058,1194
1683,1711002446555204816,2067,2058,2043,2064,2042,2057,1195
1684,1711002446565227243,2058,2076,2130,2080,2068,2064,1196
1685,1711002446575201427,2057,2039,2014,1984,2039,2041,1193
1686,1711002446585223944,2050,2042,2060,2056,2097,2064,1196
1687,1711002446595204030,2066,2065,2077,2057,2090,2058,1195
1688,1711002446605227939,2055,2061,2068,2046,2036,2056,1197
1689,1711002446615201011,2052,2026,1973,2042,2038,2041,1196
1690,1711002446625226324,2049,2040,2029,2064,2052,2059,1196
1691,1711002446635200587,2052,2028,1974,2016,1969,2038,1194
1692,1711002446645217604,2065,2064,2123,2043,2030,2062,1198
1693,1711002446655202308,2055,2045,2022,2088,2127,2053,1194
1694,1711002446665217922,2052,2056,2062,2047,2060,2053,1197
1695,1711002446675200672,2060,2050,2040,2057,2062,2051,1194
1696,1711002446685218821,2056,2072,2133,2056,2046,2064,1196
1697,1711002446695200841,2059,2056,2069,2046,2081,2056,1196
1698,1711002446705218117,2052,2064,2060,2048,2063,2053,1196
1699,1711002446715201589,2062,2050,2034,2056,2088,2064,1198
1700,1711002446725230649,2042,2038,2016,2073,2038,2059,1197
1701,1711002446735202277,2064,2050,1964,2027,2040,2051,1196
1702,1711002446745237049,2046,2063,2094,2068,2056,2058,1197
1703,1711002446755200993,2063,2056,2033,2076,2106,2056,1198
1704,1711002446765232768,2045,2056,2067,2013,2040,2056,1194
1705,1711002446775201501,2070,2073,2082,2048,2049,2052,1197
1706,1711002446785227736,2044,2057,2082,2027,2032,2046,1194
1707,1711002446795255844,2066,2056,2028,2086,2105,2060,1196
1708,1711002446805215720,2052,2057,2070,2040,2036,2053,1197
1709,1711002446815200304,2061,2053,2050,2045,2056,2050,1194
1710,1711002446825224835,2060,2080,2120,2062,2017,2058,1196
1711,1711002446835202145,2057,2056,2074,2040,2054,2047,1193
1712,1711002446845220734,2052,2056,2071,2047,2052,2056,1195
1713,1711002446855201030,2056,2046,2015,2040,2070,2050,1195
1714,1711002446865235561,2054,2068,2073,2057,2036,2052,1196
1715,1711002446875200246,2057,2038,1977,2038,2073,2040,1191
1716,1711002446885222603,2050,2054,2042,2100,2050,2062,1197
1717,1711002446895201256,2058,2045,2000,2058,2064,2050,1196
1718,1711002446905225426,2047,2058,2046,2104,2097,2067,1194
1719,1711002446915200120,2060,2064,2072,2073,2072,2049,1194
1720,1711002446925224021,2047,2045,2039,2067,2041,2057,1197
1721,1711002446935200720,2058,2064,2104,2049,2055,2050,1197
1722,1711002446945232464,2047,2057,2092,2043,2062,2061,1196
1723,1711002446955201117,2052,2032,1994,2041,2061,2048,1195
1724,1711002446965225839,2050,2063,2104,2056,2045,2053,1195
1725,1711002446975203719,2058,2068,2091,2050,1986,2046,1194
1726,1711002446985228021,2056,2061,2075,2068,2067,2064,1196
1727,1711002446995201423,2061,2047,2022,2058,2071,2050,1196
1728,1711002447005229761,2053,2066,2093,2068,2054,2062,1195
1729,1711002447015201910,2060,2052,2014,2032,2041,2047,1193
1730,1711002447025229276,2059,2092,2174,2061,2047,2066,1197
1731,1711002447035201675,2065,2056,2000,2037,2056,2050,1194
1732,1711002447045238490,2062,2062,2084,2050,2065,2049,1193
1733,1711002447055202241,2061,2056,2036,2069,2093,2053,1195
1734,1711002447065237242,2057,2072,2090,2068,2074,2059,1195
1735,1711002447075200444,2054,2044,1997,2036,2030,2044,1192
1736,1711002447085228451,2050,2064,2077,2064,2068,2068,1195
1737,1711002447095207623,2057,2029,2001,2022,2045,2054,1194
1738,1711002447105235550,2052,2060,2119,2101,2097,2067,1198
1739,1711002447115201177,2057,2049,2028,2059,2077,2056,1195
1740,1711002447125226529,2050,2059,2081,2064,2058,2057,1196
1741,1711002447135201363,2066,2068,2060,2014,2042,2050,1193
1742,1711002447145248648,2051,2058,2122,2097,2078,2057,1196
1743,1711002447155199154,2061,2050,2065,2028,2031,2041,1192
1744,1711002447165227102,2043,2053,2068,2029,1978,2032,1193
1745,1711002447175208398,2069,2059,2091,2038,2059,2058,1197
1746,1711002447185224232,2058,2077,2118,2124,2140,2070,1196
1747,1711002447195203595,2076,2084,2127,2060,2094,2058,1196
1748,1711002447205228827,2052,2072,2118,2075,2052,2057,1196
1749,1711002447215202338,2058,2043,2040,2034,2060,2048,1195
1750,1711002447225227570,2056,2091,2122,2044,1998,2049,1196
1751,1711002447235200911,2060,2053,2021,2037,1997,2043,1192
1752,1711002447245228438,2054,2042,1969,2043,2026,2059,1196
1753,1711002447255202310,2056,2057,2080,2032,2010,2051,1194
1754,1711002447265228273,2056,2066,2107,2075,2053,2052,1195
1755,1711002447275202496,2059,2042,1997,2022,2080,2055,1195
1756,1711002447285229592,2044,2049,2053,2058,2056,2056,1193
1757,1711002447295202993,2061,2052,2040,2079,2083,2053,1197
1758,1711002447305231191,2052,2063,2085,2077,2077,2061,1196
1759,1711002447315202217,2061,2053,1969,2052,2057,2045,1193
1760,1711002447325233291,2049,2052,2051,2021,2040,2061,1196
1761,1711002447335203496,2058,2050,2084,2028,2029,2040,1193
1762,1711002447345237855,2052,2051,2044,2014,2048,2062,1194
1763,1711002447355202570,2064,2053,2043,2037,2037,2050,1194
1764,1711002447365236468,2050,2052,2064,2060,2043,2057,1197
1765,1711002447375256180,2049,2033,1966,2056,2041,2048,1196
1766,1711002447385221365,2049,2050,2046,2033,2013,2050,1197
1767,1711002447395190137,2057,2054,2024,2058,2027,2054,1197
1768,1711002447405308851,2048,2054,2093,2069,2043,2058,1194
1769,1711002447415201975,2060,2051,2019,2096,2183,2057,1195
1770,1711002447425246595,2052,2048,2052,2066,2078,2060,1197
1771,1711002447435201961,2064,2054,2028,2063,2062,2054,1197
1772,1711002447445254205,2054,2060,2090,2035,2044,2056,1197
1773,1711002447455202548,2054,2045,2002,2049,2066,2047,1193
1774,1711002447465226968,2056,2071,2118,2070,2033,2053,1196
1775,1711002447475201622,2068,2069,2088,2050,2081,2050,1195
1776,1711002447485232284,2045,2046,2058,2065,2078,2051,1195
1777,1711002447495260462,2060,2058,2079,2031,2049,2039,1194
1778,1711002447505254934,2053,2050,2057,2056,2076,2064,1197
1779,1711002447515255418,2058,2045,2031,2056,2060,2058,1198
1780,1711002447525233909,2051,2050,2060,2049,2056,2062,1195
1781,1711002447535201429,2064,2053,2020,2058,2056,2054,1196
1782,1711002447545263162,2046,2058,2074,2079,2088,2056,1196
1783,1711002447555254318,2057,2049,2027,2028,2017,2042,1193
1784,1711002447565240754,2049,2061,2080,2059,2046,2052,1194
1785,1711002447575201271,2060,2055,2007,2058,2085,2058,1195
1786,1711002447585234919,2055,2081,2165,2040,2031,2058,1197
1787,1711002447595272986,2058,2046,2003,2038,2020,2051,1195
1788,1711002447605241878,2052,2069,2108,2025,2009,2056,1197
1789,1711002447615203196,2057,2047,2040,2076,2108,2060,1196
1790,1711002447625241583,2046,2056,2092,2058,2041,2054,1195
1791,1711002447635201649,2055,2047,2028,2041,2024,2047,1194
1792,1711002447645267700,2046,2045,2056,2012,1994,2042,1193
1793,1711002447655201875,2073,2082,2094,2058,2017,2045,1195
1794,1711002447665222077,2051,2043,2014,2048,2024,2052,1195
1795,1711002447675199747,2058,2039,2004,2032,2052,2052,1193
1796,1711002447685219218,2048,2045,2030,2050,2057,2053,1195
1797,1711002447695201897,2060,2053,2037,2068,2085,2056,1196
1798,1711002447705227399,2044,2047,2052,2056,2056,2056,1196
1799,1711002447715202624,2061,2064,2100,2073,2128,2049,1197
1800,1711002447725230852,2049,2063,2078,2061,2040,2058,1194
1801,1711002447735205235,2065,2049,2025,2035,2106,2060,1196
1802,1711002447745243152,2053,2061,2079,2092,2161,2068,1197
1803,1711002447755201193,2057,2047,2028,2058,2065,2057,1199
1804,1711002447765226405,2055,2057,2068,2092,2050,2062,1195
1805,1711002447775201108,2061,2052,2020,2046,2064,2047,1196
1806,1711002447785223073,2058,2053,2004,2080,2060,2068,1197
1807,1711002447795204470,2061,2057,2086,2052,2064,2056,1195
1808,1711002447805226646,2050,2053,2072,2075,2064,2052,1197
1809,1711002447815201039,2067,2068,2098,2072,2115,2052,1196
1810,1711002447825223235,2050,2049,2044,2048,2074,2064,1196
1811,1711002447835201416,2064,2056,2067,2057,2066,2059,1196
1812,1711002447845235224,2042,2049,2108,2081,2112,2066,1194
1813,1711002447855200460,2069,2059,2037,2050,2061,2062,1195
1814,1711002447865231693,2049,2052,2070,2034,1959,2052,1195
1815,1711002447875200907,2056,2046,2022,2029,2029,2052,1195
1816,1711002447885229515,2054,2062,2076,2057,2040,2052,1194
1817,1711002447895203117,2065,2052,2010,2087,2073,2052,1195
1818,1711002447905233178,2060,2090,2167,2057,2083,2064,1197
1819,1711002447915202101,2056,2045,2017,2048,2092,2058,1197
1820,1711002447925229978,2053,2057,2077,2074,2034,2054,1196
1821,1711002447935201696,2057,2046,1983,2056,2091,2049,1194
1822,1711002447945230354,2058,2070,2105,2065,2011,2065,1195
1823,1711002447955200980,2065,2057,2050,2021,2060,2039,1193
1824,1711002447965232434,2052,2056,2067,2053,2047,2062,1195
1825,1711002447975202549,2065,2064,2088,2072,2069,2060,1197
1826,1711002447985246848,2061,2090,2201,2057,2057,2058,1197
1827,1711002447995212685,2057,2044,2041,2057,2060,2048,1195
1828,1711002448005213750,2051,2046,2039,2094,2104,2064,1195
1829,1711002448015200416,2066,2065,2106,2038,2051,2049,1195
1830,1711002448025217421,2037,2034,2008,2051,2044,2058,1196
1831,1711002448035200631,2064,2058,2024,2060,2072,2061,1194
1832,1711002448045244017,2050,2053,2053,2069,2097,2054,1198
1833,1711002448055200935,2060,2057,2043,2035,2124,2052,1195
1834,1711002448065226798,2049,2056,2078,2028,2049,2056,1195
1835,1711002448075201611,2053,2066,2027,2032,2053,2047,1192
1836,1711002448085226431,2051,2051,2024,2035,2025,2047,1193
1837,1711002448095202897,2060,2043,2036,2029,2025,2047,1193
1838,1711002448105218730,2053,2064,2104,2126,2130,2053,1197
1839,1711002448115201359,2066,2058,2050,2067,2078,2061,1196
1840,1711002448125212242,2061,2108,2217,2069,2025,2057,1195
1841,1711002448135200030,2056,2049,2055,2099,2152,2052,1194
1842,1711002448145233297,2049,2053,2025,2052,2030,2048,1197
1843,1711002448155201478,2056,2049,2042,2075,2085,2059,1197
1844,1711002448165228311,2056,2067,2090,2046,2036,2058,1193
1845,1711002448175201331,2061,2058,2125,2030,2061,2047,1195
1846,1711002448185226992,2049,2053,2038,2068,2041,2058,1197
1847,1711002448195204031,2060,2035,2024,2085,2153,2057,1199
1848,1711002448205226186,2061,2074,2159,2093,2048,2056,1198
1849,1711002448215201550,2064,2056,2069,2035,2076,2053,1196
1850,1711002448225224406,2060,2065,2104,2080,2048,2064,1197
1851,1711002448235200031,2077,2082,2151,2084,2105,2063,1196
1852,1711002448245226615,2052,2071,2080,2120,2116,2064,1196
1853,1711002448255202420,2060,2072,2066,2052,2047,2056,1197
1854,1711002448265229444,2047,2062,2109,2068,2053,2045,1194
1855,1711002448275202184,2060,2053,2073,2052,2012,2043,1193
1856,1711002448285236893,2056,2072,2152,2043,1973,2037,1193
1857,1711002448295292353,2063,2047,2005,2032,2056,2052,1196
1858,1711002448305230464,2050,2061,2068,2058,2018,2042,1194
1859,1711002448315201209,2064,2044,2016,2026,2032,2044,1192
1860,1711002448325242312,2044,2048,2041,2059,2031,2051,1196
1861,1711002448335201374,2066,2049,2029,2054,2056,2056,1195
1862,1711002448345238198,2050,2052,2025,2049,2044,2058,1195
1863,1711002448355208281,2056,2035,1988,2037,2044,2058,1197
1864,1711002448365223183,2060,2065,2083,2099,2150,2067,1195
1865,1711002448375199980,2068,2062,2108,2058,2031,2049,1198
1866,1711002448385222806,2050,2058,2052,2074,2034,2050,1196
1867,1711002448395201847,2053,2032,2002,2068,2061,2054,1197
1868,1711002448405237118,2044,2060,2123,2052,2045,2053,1197
1869,1711002448415202012,2059,2044,2039,2066,2073,2053,1197
1870,1711002448425223837,2041,2056,2070,2030,2058,2047,1194
1871,1711002448435202517,2061,2054,2080,2043,1981,2047,1192
1872,1711002448445252797,2046,2036,2035,2033,2040,2054,1196
1873,1711002448455200989,2056,2041,2010,2036,2016,2050,1193
1874,1711002448465217132,2059,2061,2107,2056,2066,2060,1196
1875,1711002448475200542,2059,2083,2122,2039,2036,2037,1194
1876,1711002448485223719,2056,2058,2077,2032,2036,2057,1193
1877,1711002448495202380,2056,2038,2018,2065,2088,2053,1193
1878,1711002448505212401,2060,2062,2108,2032,2015,2044,1192
1879,1711002448515201151,2061,2068,2061,2066,2085,2058,1195
1880,1711002448525210682,2063,2085,2229,2075,2064,2063,1196
1881,1711002448535260190,2052,2046,2038,2049,2042,2049,1195
1882,1711002448545227549,2063,2066,2107,2062,2036,2060,1194
1883,1711002448555202502,2060,2049,2052,2029,2021,2053,1195
1884,1711002448565223375,2056,2050,2056,2101,2090,2068,1196
1885,1711002448575200954,2061,2051,2017,2046,2052,2054,1196
1886,1711002448585232537,2049,2047,2026,2062,2054,2059,1197
1887,1711002448595201849,2060,2055,2088,2046,1988,2032,1195
1888,1711002448605215799,2044,2041,2036,2009,2038,2050,1197
1889,1711002448615200962,2056,2047,2000,2027,2025,2044,1195
1890,1711002448625217246,2052,2052,2058,2084,2104,2060,1195
1891,1711002448635201146,2062,2036,1964,2071,2087,2059,1196
1892,1711002448645225506,2052,2063,2090,2085,2028,2058,1195
1893,1711002448655202233,2061,2056,2032,2054,2058,2052,1196
1894,1711002448665218637,2056,2050,2029,2043,2034,2056,1194
1895,1711002448675201455,2053,2032,2004,2026,2024,2045,1189
1896,1711002448685226967,2056,2061,2054,2065,2074,2049,1194
1897,1711002448695201410,2061,2060,2059,2012,2009,2056,1196
1898,1711002448705227993,2044,2038,2047,2044,2012,2051,1194
1899,1711002448715201123,2062,2045,2032,2050,2069,2052,1194
1900,1711002448725220934,2039,2048,2057,2056,2036,2045,1194
1901,1711002448735203633,2052,2078,2122,2072,2040,2062,1194
1902,1711002448745230547,2053,2050,2069,2044,2020,2060,1194
1903,1711002448755202153,2068,2050,2048,2091,2044,2058,1194
1904,1711002448765223607,2053,2060,2120,2068,2046,2057,1194
1905,1711002448775205194,2056,2045,1992,2052,2075,2059,1195
1906,1711002448785247207,2042,2047,2059,2020,2016,2053,1195
1907,1711002448795202051,2056,2046,1969,2068,2096,2058,1194
1908,1711002448805230088,2053,2044,2033,2032,2033,2044,1192
1909,1711002448815200904,2051,2041,2008,2062,2062,2045,1193
1910,1711002448825232096,2058,2059,2040,2080,2044,2058,1196
1911,1711002448835202581,2056,2041,1979,2057,2058,2050,1195
1912,1711002448845233192,2049,2050,2040,2033,2058,2061,1196
1913,1711002448855253543,2056,2043,2026,2048,2047,2052,1196
1914,1711002448865236603,2064,2065,2036,2057,2059,2059,1196
1915,1711002448875300339,2048,2044,2024,2049,2056,2049,1195
1916,1711002448885238611,2049,2053,2082,2040,2056,2067,1196
1917,1711002448895204376,2060,2052,2018,2074,2064,2045,1190
1918,1711002448905239798,2040,2049,2043,2025,2010,2043,1193
1919,1711002448915200704,2054,2054,2021,2040,2049,2058,1194
1920,1711002448925241325,2061,2080,2140,2047,2008,2057,1195
1921,1711002448935260013,2056,2048,2028,2050,2032,2044,1193
1922,1711002448945217613,2052,2055,2079,2052,2017,2058,1196
1923,1711002448955257022,2056,2058,2083,2056,2064,2057,1194
1924,1711002448965233648,2047,2050,2078,2066,2061,2061,1196
1925,1711002448975201988,2063,2050,1978,2045,2066,2048,1196
1926,1711002448985253310,2058,2072,2113,2088,2125,2070,1195
1927,1711002448995202394,2054,2061,2047,2058,2084,2055,1195
1928,1711002449005232915,2066,2060,2057,2004,2029,2056,1197
1929,1711002449015201686,2050,2050,2054,2041,2058,2042,1194
1930,1711002449025229552,2060,2068,2062,2043,2052,2056,1196
1931,1711002449035431364,2051,2052,1992,2054,2052,2041,1194
1932,1711002449045279160,2049,2046,2026,2063,2052,2059,1195
1933,1711002449055200900,2059,2054,2042,2064,2076,2060,1193
1934,1711002449065223535,2066,2093,2155,2063,2029,2062,1195
1935,1711002449075201173,2064,2085,2122,2067,2073,2059,1195
1936,1711002449085228577,2053,2072,2091,2040,2048,2061,1196
1937,1711002449095202718,2062,2047,2018,2028,2055,2056,1196
1938,1711002449105244511,2049,2049,2060,2056,2048,2053,1194
1939,1711002449115201689,2060,2049,2005,2053,2024,2045,1192
1940,1711002449125224815,2050,2047,2047,2045,2034,2056,1194
1941,1711002449135201721,2060,2043,2013,2045,2079,2056,1196
1942,1711002449145248764,2037,2042,2040,2043,2052,2048,1197
1943,1711002449155208868,2072,2073,2141,2074,2084,2060,1197
1944,1711002449165228818,2044,2042,2040,2050,2032,2048,1194
1945,1711002449175202027,2057,2069,2096,2073,2067,2052,1197
1946,1711002449185226706,2050,2051,2074,2089,2101,2061,1198
1947,1711002449195205637,2058,2065,2074,2062,2129,2064,1197
1948,1711002449205214485,2049,2060,2115,2044,2048,2053,1196
1949,1711002449215203355,2056,2043,2000,2060,2115,2064,1196
1950,1711002449225227843,2053,2050,2090,2084,2044,2068,1195
1951,1711002449235201814,2064,2076,2051,2046,2059,2058,1196
1952,1711002449245239478,2048,2051,2072,2066,2143,2065,1195
1953,1711002449255200544,2065,2058,2011,2037,2052,2056,1194
1954,1711002449265224342,2052,2047,2062,2068,2033,2056,1195
1955,1711002449275201408,2060,2051,2076,2062,2053,2052,1193
1956,1711002449285223492,2056,2068,2101,2130,2032,2064,1194
1957,1711002449295203395,2068,2072,2081,2019,1985,2045,1196
1958,1711002449305228174,2042,2050,2038,2076,2060,2053,1197
1959,1711002449315202365,2053,2045,2001,2061,2088,2052,1196
1960,1711002449325228788,2049,2049,2057,2056,2040,2058,1196
1961,1711002449335201506,2053,2037,2006,2072,2018,2045,1193
1962,1711002449345249821,2036,2036,2032,2035,2040,2046,1192
1963,1711002449355200747,2062,2059,2044,2044,1982,2039,1193
1964,1711002449365225046,2062,2076,2160,2085,2072,2063,1195
1965,1711002449375203315,2069,2067,2049,2061,2063,2057,1195
1966,1711002449385222042,2054,2065,2114,2065,2104,2066,1195
1967,1711002449395204610,2060,2050,2067,2072,2099,2056,1196
1968,1711002449405249468,2041,2029,2007,2077,2013,2040,1194
1969,1711002449415207828,2059,2053,2068,2025,2068,2064,1196
1970,1711002449425227808,2058,2070,2112,2088,2076,2062,1197
1971,1711002449435200908,2057,2046,2014,2049,2049,2046,1193
1972,1711002449445225907,2051,2054,2068,2037,2021,2051,1196
1973,1711002449455200088,2056,2066,2044,2049,2023,2049,1196
1974,1711002449465242843,2056,2056,2040,2047,2046,2052,1195
1975,1711002449475202726,2061,2062,2028,2075,2037,2053,1194
1976,1711002449485245100,2052,2059,2056,2067,2008,2057,1195
1977,1711002449495200494,2056,2053,2041,2025,2041,2044,1194
1978,1711002449505179004,2053,2056,2088,2041,2078,2066,1196
1979,1711002449515202230,2056,2045,2048,2050,2118,2048,1193
1980,1711002449525238021,2049,2045,2077,2049,2027,2056,1196
1981,1711002449535201802,2047,2024,1995,2034,2038,2047,1193
1982,1711002449545241931,2052,2058,2073,2050,2044,2061,1196
1983,1711002449555265187,2057,2057,2052,2124,2084,2048,1196
1984,1711002449565250571,2048,2073,2067,2064,2060,2053,1196
1985,1711002449575201366,2066,2067,2044,2056,2032,2045,1195
1986,1711002449585225044,2054,2049,2015,2056,2077,2061,1196
1987,1711002449595203443,2054,2038,2035,2056,2084,2062,1196
1988,1711002449605224265,2053,2062,2084,2085,2060,2061,1196
1989,1711002449615202373,2063,2048,2026,2090,2133,2065,1195
1990,1711002449625223045,2037,2051,2077,2072,2064,2058,1195
1991,1711002449635201535,2052,2055,2101,2113,2093,2056,1196
1992,1711002449645225592,2057,2061,2090,2064,2053,2061,1196
1993,1711002449655199253,2059,2034,1984,2036,2002,2050,1196
1994,1711002449665211327,2050,2048,2040,2081,2106,2064,1196
1995,1711002449675199787,2054,2049,2028,2029,2040,2048,1194
1996,1711002449685220077,2045,2042,2034,2012,1985,2045,1193
1997,1711002449695203186,2052,2044,2032,2078,2072,2053,1195
1998,1711002449705218987,2046,2055,2033,2063,2032,2054,1195
1999,1711002449715201054,2056,2049,2040,2012,2039,2049,1195
2000,1711002449725221194,2046,2049,2035,2003,1977,2035,1193
2001,1711002449735201037,2054,2047,2031,2034,2041,2046,1193
2002,1711002449745228420,2040,2042,2049,2061,2061,2057,1195
2003,1711002449755203754,2057,2044,2007,2084,2058,2042,1194
2004,1711002449765234405,2053,2060,2066,2072,2107,2068,1195
2005,1711002449775201492,2052,2052,2060,2032,2043,2057,1198
2006,1711002449785249667,2058,2061,2058,2085,2118,2064,1197
2007,1711002449795258345,2060,2041,2007,2042,2049,2058,1197
2008,1711002449805234911,2056,2069,2068,2054,2037,2056,1194
2009,1711002449815200345,2061,2052,2035,2032,2040,2054,1194
2010,1711002449825232880,2056,2064,2088,2041,2066,2065,1196
2011,1711002449835201520,2061,2059,2042,2066,2049,2056,1196
2012,1711002449845254945,2047,2042,2031,2056,2064,2060,1197
2013,1711002449855200220,2056,2036,2040,2037,2012,2050,1196
2014,1711002449865227224,2040,2045,2060,2086,2036,2056,1196
2015,1711002449875202347,2056,2042,2040,2045,2061,2052,1196
2016,1711002449885225914,2054,2056,2084,2059,2030,2045,1193
2017,1711002449895205115,2057,2057,2093,2061,2049,2056,1196
2018,1711002449905224804,2050,2073,2085,2001,2008,2045,1195
2019,1711002449915201270,2059,2057,2020,2074,2072,2049,1193
2020,1711002449925220648,2053,2053,2037,2072,2042,2058,1195
2021,1711002449935201392,2065,2048,1993,2032,2056,2064,1197
2022,1711002449945226342,2044,2057,2077,2032,2045,2051,1196
2023,1711002449955201726,2052,2050,2018,2047,2035,2045,1194
2024,1711002449965220413,2052,2056,2082,2018,2036,2058,1196
2025,1711002449975200967,2052,2037,2024,2035,2077,2052,1195
2026,1711002449985219303,2056,2077,2148,2086,2067,2065,1195
2027,1711002449995203364,2054,2038,1995,2039,2047,2047,1193
2028,1711002450005226420,2053,2072,2112,2058,2088,2062,1196
2029,1711002450015200359,2054,2014,1996,2039,2056,2045,1194
2030,1711002450025222804,2070,2091,2170,2085,2068,2072,1196
2031,1711002450035201323,2054,2043,2018,2054,2063,2050,1196
2032,1711002450045226492,2051,2053,2056,2035,2039,2057,1196
2033,1711002450055200362,2037,2035,2013,1996,1826,2015,1194
2034,1711002450065232465,2052,2057,2076,2068,2032,2056,1197
2035,1711002450075200583,2061,2048,2037,2056,2068,2056,1193
2036,1711002450085224239,2060,2076,2112,2076,2065,2064,1196
2037,1711002450095277944,2067,2060,2071,2069,2098,2059,1193
2038,1711002450105228599,2064,2073,2085,2073,2068,2058,1194
2039,1711002450115200925,2054,2047,2045,2104,2129,2053,1195
2040,1711002450125224852,2062,2078,2172,2073,2053,2071,1195
2041,1711002450135200486,2058,2052,2002,2013,2010,2036,1196
2042,1711002450145236906,2049,2047,2061,2028,2036,2060,1196
2043,1711002450155202941,2056,2036,2009,2028,2057,2058,1197
2044,1711002450165226057,2046,2069,2132,2042,1959,2040,1193
2045,1711002450175202782,2055,2041,2010,2108,2146,2059,1198
2046,1711002450185226939,2053,2050,2040,2078,2087,2062,1197
2047,1711002450195276084,2061,2047,2024,2040,2017,2052,1197
2048,1711002450205223974,2056,2053,2035,2044,2058,2069,1196
2049,1711002450215200950,2061,2056,2049,2096,2076,2061,1196
2050,1711002450225224897,2052,2065,2101,2037,2045,2040,1193
2051,1711002450235201302,2052,2037,2033,2035,2093,2044,1191
2052,1711002450245236741,2047,2041,2056,2034,2013,2042,1193
2053,1711002450255201823,2069,2040,2012,2052,2047,2053,1197
2054,1711002450265222705,2053,2072,2060,2047,2009,2045,1192
2055,1711002450275200071,2058,2053,2065,2059,2072,2061,1196
2056,1711002450285224068,2056,2062,2062,2073,2060,2049,1196
2057,1711002450295209590,2064,2065,2072,2072,2027,2048,1194
2058,1711002450305225041,2044,2059,2137,2042,2001,2047,1193
2059,1711002450315200374,2054,2044,2052,2051,2063,2045,1194
2060,1711002450325226785,2047,2046,2026,2050,2052,2056,1196
2061,1711002450335201626,2048,2034,2001,2016,2045,2046,1193
2062,1711002450345236806,2064,2090,2173,2060,2019,2058,1194
2063,1711002450355202309,2056,2045,2031,2059,2037,2048,1194
2064,1711002450365233930,2046,2058,2090,2064,2070,2052,1195
2065,1711002450375201439,2064,2072,2023,1987,2008,2050,1198
2066,1711002450385235555,2066,2080,2078,2069,2037,2058,1197
2067,1711002450395205938,2057,2041,2013,2036,2056,2048,1196
2068,1711002450405236938,2054,2062,2088,2043,2065,2057,1196
2069,1711002450415202322,2058,2064,2065,2065,2083,2049,1195
2070,1711002450425241889,2047,2049,2072,2086,2068,2066,1196
2071,1711002450435201180,2061,2053,2044,2092,2076,2044,1193
2072,1711002450445257781,2046,2045,2049,2047,2028,2048,1195
2073,1711002450455202043,2057,2041,2026,2045,2052,2051,1195
2074,1711002450465243975,2045,2034,2031,2073,2088,2058,1194
2075,1711002450475201462,2040,2028,1978,2040,2009,2042,1192
2076,1711002450485227424,2047,2050,2062,2045,2040,2047,1192
2077,1711002450495259376,2057,2046,2036,2054,2049,2047,1191
2078,1711002450505222354,2043,2032,2047,2059,2052,2053,1195
2079,1711002450515201956,2072,2059,2087,2097,2094,2062,1197
2080,1711002450525222997,2047,2049,2066,2069,2031,2056,1194
2081,1711002450535201445,2058,2049,2033,2033,2036,2050,1197
2082,1711002450545253086,2059,2085,2181,2073,2064,2057,1196
2083,1711002450555200144,2052,2027,1994,2053,2076,2049,1195
2084,1711002450565229391,2058,2062,2084,2060,2020,2058,1196
2085,1711002450575201908,2058,2058,2064,2052,2042,2054,1196
2086,1711002450585228470,2051,2052,2057,2062,2080,2054,1193
2087,1711002450595204354,2057,2054,2051,2037,2007,2037,1193
2088,1711002450605228802,2049,2045,2058,2088,2080,2066,1194
2089,1711002450615202040,2075,2046,2036,2040,2044,2048,1196
2090,1711002450625223513,2047,2050,2066,2032,2036,2051,1196
2091,1711002450635201560,2061,2051,2022,2028,2044,2049,1196
2092,1711002450645264182,2052,2043,2053,2074,2050,2054,1194
2093,1711002450655200339,2053,2030,1968,2071,2049,2044,1192
2094,1711002450665215850,2058,2066,2120,2060,2024,2053,1196
2095,1711002450675200560,2057,2053,2045,2077,2056,2053,1195
2096,1711002450685214888,2052,2044,1968,2072,2032,2046,1192
2097,1711002450695201563,2062,2044,1996,2066,2061,2056,1195
2098,1711002450705223767,2050,2067,2104,2048,2110,2063,1194
2099,1711002450715200361,2059,2064,2075,2069,2077,2057,1195
2100,1711002450725221744,2049,2050,2040,2064,2042,2060,1196
2101,1711002450735199822,2064,2066,2100,2088,2115,2058,1196
2102,1711002450745217216,2054,2081,2074,2073,2056,2057,1195
2103,1711002450755201606,2057,2048,2052,2056,2057,2047,1195
2104,1711002450765228419,2060,2076,2122,2067,2046,2064,1197
2105,1711002450775201326,2061,2048,2032,2051,2064,2056,1197
2106,1711002450785224572,2053,2059,2076,2041,2048,2057,1196
2107,1711002450795208071,2060,2051,2035,2050,2059,2056,1197
2108,1711002450805231066,2056,2061,2056,2061,2081,2065,1196
2109,1711002450815202410,2054,2042,2013,2077,2060,2056,1195
2110,1711002450825225595,2050,2048,2002,2056,2021,2056,1195
2111,1711002450835201860,2053,2044,2009,2046,2076,2059,1195
2112,1711002450845218904,2053,2065,2080,2049,2040,2056,1195
2113,1711002450855202482,2050,2044,2037,2048,2046,2049,1196
2114,1711002450865230236,2049,2054,2045,2078,2072,2062,1197
2115,1711002450875201361,2063,2038,2033,2104,2090,2061,1195
2116,1711002450885223745,2049,2037,2035,2037,1997,2042,1194
2117,1711002450895201321,2052,2037,2032,2035,2041,2046,1193
2118,1711002450905218015,2054,2058,2074,2006,2128,2062,1195
2119,1711002450915202555,2058,2038,1973,2047,2064,2048,1196
2120,1711002450925221342,2054,2059,2079,2058,2028,2060,1197
2121,1711002450935259115,2058,2048,2005,2024,2068,2061,1194
2122,1711002450945237284,2056,2066,2100,2077,2033,2052,1196
2123,1711002450955211965,2056,2042,2010,2052,2064,2044,1193
2124,1711002450965231874,2052,2096,2125,2050,2026,2056,1197
2125,1711002450975200344,2064,2046,2022,2060,2069,2049,1195
2126,1711002450985231404,2045,2046,2041,2076,2078,2058,1197
2127,1711002450995204172,2060,2051,2032,2049,2080,2053,1197
2128,1711002451005226876,2059,2067,2133,2045,2064,2061,1197
2129,1711002451015199542,2056,2032,1975,2088,2085,2047,1196
2130,1711002451025228298,2043,2048,2074,2071,2083,2052,1196
2131,1711002451035199751,2060,2046,2032,2050,2053,2046,1193
2132,1711002451045243416,2049,2060,2096,2070,2052,2057,1197
2133,1711002451055201684,2063,2053,2020,2059,2049,2052,1196
2134,1711002451065213377,2070,2077,2075,2060,1970,2047,1194
2135,1711002451075199330,2060,2043,2008,2050,2038,2052,1194
2136,1711002451085211944,2048,2050,2047,2076,2077,2060,1196
2137,1711002451095200612,2059,2056,2070,2064,2056,2052,1196
2138,1711002451105222864,2060,2083,2095,2056,2049,2056,1196
2139,1711002451115201743,2060,2047,2031,2037,2036,2047,1193
2140,1711002451125222653,2056,2056,2066,2059,2047,2056,1196
2141,1711002451135201552,2049,2050,2048,2030,2066,2045,1195
2142,1711002451145241990,2051,2054,2072,2080,2073,2059,1196
2143,1711002451155200689,2059,2050,2032,2061,2071,2053,1194
2144,1711002451165232661,2056,2057,2072,2083,2067,2064,1194
2145,1711002451175203364,2060,2051,2047,2096,2113,2058,1196
2146,1711002451185228412,2056,2059,2045,2062,2046,2056,1196
2147,1711002451195203663,2058,2053,2038,2058,2065,2048,1195
2148,1711002451205226217,2040,2041,2032,2029,2027,2058,1196
2149,1711002451215202520,2056,2051,2028,2008,2017,2044,1194
2150,1711002451225225335,2053,2052,2054,2062,2037,2060,1196
2151,1711002451235257717,2061,2047,2005,2021,2037,2045,1193
2152,1711002451245230263,2048,2061,2096,2056,2017,2047,1195
2153,1711002451255200786,2058,2047,2022,2060,2024,2050,1196
2154,1711002451265216736,2061,2064,2123,2068,2114,2078,1197
2155,1711002451275201948,2060,2040,1994,2042,2111,2062,1195
2156,1711002451285224591,2056,2056,2049,2073,2015,2061,1196
2157,1711002451295258687,2060,2049,2041,2061,2065,2053,1195
2158,1711002451305221584,2052,2060,2086,2050,1996,2056,1196
2159,1711002451315202628,2059,2046,2029,2061,2023,2047,1194
2160,1711002451325218598,2055,2047,2034,2053,1991,2056,1195
2161,1711002451335201124,2070,2067,2066,2058,2064,2051,1195
2162,1711002451345230400,2045,2025,2045,2061,2047,2052,1195
2163,1711002451355201413,2058,2032,2007,2061,2074,2045,1194
2164,1711002451365216803,2048,2043,2048,2074,2082,2055,1196
2165,1711002451375200371,2052,2036,1981,2049,2057,2047,1192
2166,1711002451385218005,2046,2056,2071,2041,2033,2056,1199
2167,1711002451395202013,2064,2057,2033,2064,2124,2059,1197
2168,1711002451405232542,2057,2045,2054,2033,2045,2042,1193
2169,1711002451415200078,2071,2064,2112,2058,2075,2060,1194
2170,1711002451425216250,2050,2053,2061,2043,2019,2053,1197
2171,1711002451435201511,2056,2053,2040,2046,2013,2044,1194
2172,1711002451445237901,2058,2078,2121,2064,2049,2061,1195
2173,1711002451455200699,2052,2047,2066,2062,2072,2045,1195
2174,1711002451465224144,2062,2108,2200,2066,2044,2062,1196
2175,1711002451475201911,2060,2052,2048,2079,2078,2060,1194
2176,1711002451485219053,2056,2056,2080,2039,2047,2058,1197
2177,1711002451495201639,2066,2048,2018,2060,2117,2053,1197
2178,1711002451505217720,2039,2044,2023,2054,2064,2044,1192
2179,1711002451515200326,2064,2069,2058,2056,2066,2057,1196
2180,1711002451525249731,2064,2072,2141,2075,2024,2065,1196
2181,1711002451535201387,2054,2044,2035,2080,2068,2058,1195
2182,1711002451545265471,2044,2053,2054,2053,2036,2056,1195
2183,1711002451555218610,2056,2050,2027,2072,2066,2054,1196
2184,1711002451565226886,2051,2057,2050,2070,2051,2057,1194
2185,1711002451575201966,2067,2052,2058,2058,2070,2053,1194
2186,1711002451585212387,2045,2048,2050,2049,2068,2056,1198
2187,1711002451595202206,2056,2043,2008,2069,2124,2059,1196
2188,1711002451605219881,2058,2062,2064,2073,2032,2060,1195
2189,1711002451615202577,2056,2039,2019,2104,2144,2062,1196
2190,1711002451625219148,2054,2055,2060,2079,2053,2062,1196
2191,1711002451635201755,2063,2042,2006,2064,2154,2052,1198
2192,1711002451645258333,2054,2077,2189,2089,2122,2064,1196
2193,1711002451655203157,2059,2018,2011,2052,2096,2058,1196
2194,1711002451665222233,2048,2060,2100,2028,2040,2053,1196
2195,1711002451675202284,2060,2052,2025,2030,2015,2048,1194
2196,1711002451685221551,2048,2048,2035,2096,2031,2058,1196
2197,1711002451695210459,2062,2050,2016,2038,2068,2050,1195
2198,1711002451705226039,2057,2075,2105,2047,2048,2058,1197
2199,1711002451715201300,2062,2049,2029,2060,2068,2050,1196
2200,1711002451725216450,2047,2047,2072,2049,2042,2054,1195
2201,1711002451735200819,2056,2040,1997,2060,2078,2050,1195
2202,1711002451745238913,2051,2061,2112,2067,2045,2062,1196
2203,1711002451755200537,2060,2057,2068,2030,2010,2041,1193
2204,1711002451765219564,2053,2052,2042,2057,2044,2055,1196
2205,1711002451775201489,2063,2057,2045,2041,2116,2059,1196
2206,1711002451785221056,2048,2048,2058,2053,2033,2058,1194
2207,1711002451795202831,2073,2086,2161,2058,2037,2052,1196
2208,1711002451805236616,2049,2042,2040,2084,2064,2058,1197
2209,1711002451815201528,2057,2045,2033,2053,2045,2045,1193
2210,1711002451825226515,2056,2069,2102,2062,2024,2052,1197
2211,1711002451835200705,2069,2073,2084,2041,2050,2054,1196
2212,1711002451845234250,2051,2061,2088,2088,2035,2050,1195
