seq,time,data[0],data[1],data[2],data[3],data[4],data[5],data[6]
201,1711441574333399067,2052,2046,2056,2040,2044,2052,1197
202,1711441574343399112,2044,2064,2045,1988,2022,2038,1192
203,1711441574353398786,2051,2045,2021,2037,2022,2042,1193
204,1711441574363337283,2062,2054,2022,2046,2034,2056,1196
205,1711441574373398888,2057,2065,2061,2041,2039,2053,1195
206,1711441574383399063,2053,2047,2045,2063,2076,2061,1196
207,1711441574393397966,2055,2061,2071,2057,2049,2057,1195
208,1711441574403399775,2056,2052,2061,2065,2060,2052,1196
209,1711441574413397165,2050,2056,2058,2073,2096,2055,1197
210,1711441574423399415,2029,2049,2050,2073,2069,2049,1196
211,1711441574433398778,2056,2054,2054,2047,2050,2057,1194
212,1711441574443396530,2056,2055,2076,2049,2049,2045,1194
213,1711441574453397317,2057,2059,2072,2044,2044,2060,1198
214,1711441574463397882,2048,2053,2058,2047,2044,2051,1196
215,1711441574473396906,2059,2054,2068,2070,2064,2062,1197
216,1711441574483398283,2052,2041,2045,2030,2052,2052,1197
217,1711441574493398108,2053,2039,2053,2042,2054,2052,1197
218,1711441574503397853,2051,2044,2011,2065,2062,2056,1197
219,1711441574513398370,2053,2040,2021,2055,2051,2054,1196
220,1711441574523395900,2054,2054,2056,2052,2059,2056,1196
221,1711441574533396546,2085,2058,2055,2046,2058,2059,1198
222,1711441574543397353,2028,2047,2072,2040,2033,2047,1189
223,1711441574553395796,2092,2046,2014,2040,2050,2048,1194
224,1711441574563397674,2068,2048,2052,2057,2046,2049,1195
225,1711441574573395345,2054,2077,2061,2057,2048,2051,1195
226,1711441574583393637,2121,2062,2056,2052,2056,2054,1196
227,1711441574593395466,2040,2049,2042,2071,2062,2056,1195
228,1711441574603395732,2032,2036,2038,2064,2072,2055,1196
229,1711441574613394685,2057,2049,2042,2065,2051,2052,1197
230,1711441574623395161,2054,2052,2049,2061,2056,2051,1195
231,1711441574633396128,2061,2056,2046,2058,2049,2057,1198
232,1711441574643396173,2047,2067,2107,2055,2056,2052,1196
233,1711441574653394756,2048,2052,2052,2081,2063,2056,1197
234,1711441574663392076,2052,2056,2060,2032,2042,2046,1192
235,1711441574673401099,2052,2056,2055,2051,2045,2052,1196
236,1711441574683409350,2059,2056,2058,2061,2056,2056,1197
237,1711441574693405257,2088,2046,2046,2066,2052,2056,1196
238,1711441574703394141,2045,2045,2064,2050,2038,2064,1198
239,1711441574713391982,2043,2041,2032,2023,2029,2049,1197
240,1711441574723418729,2049,2085,2105,2094,2072,2058,1196
241,1711441574733392473,2056,2060,2076,2074,2056,2053,1198
242,1711441574743390395,2030,2051,2064,2042,2053,2050,1195
243,1711441574753393116,2056,2050,2040,2065,2056,2056,1195
244,1711441574763408460,2056,2073,2082,2025,2045,2050,1195
245,1711441574773405409,2054,2056,2072,2040,2051,2052,1199
246,1711441574783392590,2053,2037,1994,2112,2080,2060,1196
247,1711441574793391203,2050,2044,2054,2040,2043,2044,1194
248,1711441574803391989,2072,2062,2064,2054,2062,2054,1194
249,1711441574813392886,2053,2068,2074,2072,2053,2051,1195
250,1711441574823440534,2053,2052,2065,2048,2045,2049,1196
251,1711441574833390172,2052,2046,2024,2052,2061,2053,1196
252,1711441574843388985,2050,2053,2074,2057,2059,2052,1194
253,1711441574853391545,2052,2047,2048,2050,2048,2051,1196
254,1711441574863391560,2054,2052,2065,2054,2051,2050,1195
255,1711441574873393288,2061,2043,2011,2057,2050,2053,1196
256,1711441574883388815,2052,2038,1996,2068,2029,2041,1195
257,1711441574893389301,2064,2096,2184,2086,2073,2055,1196
258,1711441574903388775,2050,2046,2043,2036,2056,2050,1196
259,1711441574913390333,2056,2056,2052,2056,2089,2064,1195
260,1711441574923403464,2045,2040,2028,2054,2064,2041,1193
261,1711441574933390545,2059,2080,2124,2040,2048,2055,1196
262,1711441574943341815,2053,2046,2040,2074,2052,2064,1195
263,1711441574953389122,2061,2056,2047,2054,2036,2062,1197
264,1711441574963389969,2058,2069,2097,2040,2040,2050,1193
265,1711441574973399192,2051,2040,2026,2047,2056,2046,1193
266,1711441574983416711,2051,2053,2054,2047,2073,2053,1196
267,1711441574993386999,2060,2074,2106,2060,2056,2052,1196
268,1711441575003387826,2054,2056,2070,2049,2052,2050,1196
269,1711441575013389203,2051,2054,2052,2060,2054,2051,1196
270,1711441575023452380,2049,2049,2044,2050,2055,2052,1197
271,1711441575033346149,2052,2042,2010,2049,2043,2048,1196
272,1711441575043385919,2050,2033,1999,2042,2060,2049,1198
273,1711441575053387998,2051,2029,2052,2056,2047,2049,1198
274,1711441575063388684,2057,2057,2105,2056,2056,2056,1196
275,1711441575073389439,2052,2033,2008,2046,2056,2056,1195
276,1711441575083391778,2058,2061,2132,2057,2060,2057,1194
277,1711441575093391482,2059,2058,2096,2060,2058,2053,1195
278,1711441575103391777,2052,2046,2031,2048,2054,2052,1195
279,1711441575113392793,2057,2069,2124,2053,2056,2057,1197
280,1711441575123399029,2053,2051,2052,2052,2045,2046,1193
281,1711441575133390157,2056,2052,2034,2045,2068,2053,1197
282,1711441575143394329,2056,2041,2009,2085,2120,2064,1193
283,1711441575153394152,2063,2092,2125,2047,2114,2075,1197
284,1711441575163396121,2055,2053,2049,2050,2022,2052,1197
285,1711441575173397227,2052,2035,2019,2060,2047,2064,1197
286,1711441575183392503,2056,2055,2090,2051,2055,2033,1192
287,1711441575193400422,2062,2057,2076,2076,2140,2072,1195
288,1711441575203397931,2053,2048,2037,2056,2076,2052,1197
289,1711441575213401263,2057,2045,2042,2056,2067,2060,1196
290,1711441575223389734,2053,2050,2047,2048,2068,2053,1196
291,1711441575233383627,2061,2051,2040,2060,2076,2074,1195
292,1711441575243381547,2049,2056,2108,2061,2070,2061,1198
293,1711441575253381000,2050,2043,2024,2053,2052,2061,1197
294,1711441575263384151,2051,2056,2020,2049,2033,2030,1194
295,1711441575273423541,2064,2064,2060,2069,2053,2053,1197
296,1711441575283381133,2052,2081,2067,2044,2044,2042,1193
297,1711441575293393702,2057,2060,2131,2056,2045,2053,1198
298,1711441575303383326,2058,2067,2108,2045,2057,2057,1198
299,1711441575313385305,2053,2046,2036,2056,2062,2056,1198
300,1711441575323419184,2056,2050,2056,2067,2093,2058,1195
301,1711441575333379762,2062,2089,2095,2077,2050,2060,1197
302,1711441575343383073,2051,2043,2041,2036,2016,2052,1194
303,1711441575353383267,2052,2039,1992,2061,2056,2064,1197
304,1711441575363400395,2056,2062,2036,2064,2060,2050,1196
305,1711441575373384348,2058,2072,2058,2060,2044,2055,1196
306,1711441575383380906,2050,2055,2047,2064,2062,2050,1197
307,1711441575393382834,2048,2042,2036,2060,2076,2053,1195
308,1711441575403381626,2053,2048,2041,2049,2053,2049,1195
309,1711441575413414704,2056,2052,1998,2059,2050,2050,1195
310,1711441575423388117,2053,2052,2016,2050,2057,2057,1198
311,1711441575433378362,2052,2041,2008,2054,2045,2056,1198
312,1711441575443383136,2061,2070,2069,2077,2057,2051,1197
313,1711441575453379132,2064,2076,2101,2072,2056,2056,1196
314,1711441575463395748,2056,2048,2038,2054,2057,2058,1198
315,1711441575473379963,2057,2047,2024,2047,2046,2049,1196
316,1711441575483382742,2051,2044,2029,2052,2054,2056,1196
317,1711441575493384160,2068,2084,2127,2030,2058,2055,1197
318,1711441575503384965,2056,2060,2072,1998,2001,2046,1194
319,1711441575513410619,2052,2051,2058,2021,2011,2046,1196
320,1711441575524299545,2052,2047,2030,2052,2048,2054,1196
321,1711441575533382934,2052,2044,2018,2054,2055,2054,1195
322,1711441575543386526,2062,2051,2045,2057,2030,2053,1196
323,1711441575553386760,2052,2049,2058,2080,2062,2070,1197
324,1711441575563406412,2051,2056,2018,2066,2064,2060,1195
325,1711441575573376399,2056,2060,2053,2056,2053,2046,1191
326,1711441575583388827,2054,2052,2048,2058,2061,2050,1196
327,1711441575593378671,2052,2053,2040,2065,2061,2049,1194
328,1711441575603377524,2088,2106,2046,2069,2079,2066,1193
329,1711441575613398739,2049,2043,2020,2047,2027,2041,1194
330,1711441575623395778,2063,2076,2121,2064,2046,2060,1196
331,1711441575633378889,2052,2046,2026,2060,2065,2057,1195
332,1711441575643378603,2058,2089,2059,2061,2066,2058,1195
333,1711441575653379640,2060,2056,2058,2054,2053,2052,1196
334,1711441575663414641,2057,2053,2037,2057,2061,2050,1194
335,1711441575673380168,2056,2051,2043,2056,2064,2053,1196
336,1711441575683383430,2053,2022,1982,2060,2065,2067,1196
337,1711441575693378253,2049,2028,1995,2056,2056,2049,1194
338,1711441575703378689,2058,2053,2059,2053,2056,2056,1197
339,1711441575713378322,2056,2049,2050,2064,2058,2052,1198
340,1711441575723382344,2054,2049,2043,2047,2051,2056,1196
341,1711441575733379243,2051,2052,2053,2054,2025,2047,1196
342,1711441575743382363,2065,2060,2088,2071,2041,2044,1192
343,1711441575753378620,2057,2049,1985,2051,2030,2043,1194
344,1711441575763380939,2057,2049,2064,2045,2052,2054,1196
345,1711441575773381103,2049,2040,1994,2056,2054,2050,1196
346,1711441575783379164,2057,2045,1990,2071,2078,2058,1196
347,1711441575793377565,2054,2047,2047,2050,2050,2049,1197
348,1711441575803377058,2052,2046,2033,2041,2073,2057,1195
349,1711441575813391160,2054,2078,2057,2055,2056,2056,1197
350,1711441575823395803,2057,2045,2081,2059,2052,2056,1197
351,1711441575833377322,2048,2034,2099,2057,2054,2053,1195
352,1711441575843380963,2058,2048,2004,2056,2053,2051,1196
353,1711441575853377531,2048,2037,2050,2057,2049,2049,1199
354,1711441575863380742,2053,2043,2025,2047,2052,2048,1197
355,1711441575873376397,2058,2048,2068,2056,2064,2050,1195
356,1711441575883373356,2057,2057,2019,2056,2059,2064,1196
357,1711441575893372228,2057,2054,2026,2058,2051,2052,1196
358,1711441575903372322,2050,2051,2080,2051,2054,2051,1196
359,1711441575913372517,2050,2039,2034,2061,2072,2058,1197
360,1711441575923402189,2052,2070,2056,2052,2049,2061,1197
361,1711441575933375501,2056,2062,2038,2056,2048,2048,1196
362,1711441575943378131,2066,2057,2105,2060,2057,2060,1196
363,1711441575953376702,2056,2049,2052,2051,2052,2057,1194
364,1711441575963381616,2053,2047,2040,2046,2050,2054,1196
365,1711441575973376811,2056,2052,2043,2051,2047,2051,1197
366,1711441575983376284,2065,2081,2097,2048,2050,2062,1197
367,1711441575993377932,2063,2061,2026,2066,2069,2056,1195
368,1711441576003378516,2056,2042,2026,2056,2056,2052,1198
369,1711441576013407666,2049,2038,1968,2052,2047,2051,1198
370,1711441576023389664,2056,2061,2121,2059,2058,2052,1195
371,1711441576033377875,2056,2056,2064,2060,2050,2053,1198
372,1711441576043378549,2054,2053,2089,2046,2048,2052,1197
373,1711441576053378713,2059,2062,2020,2069,2056,2057,1197
374,1711441576063408434,2054,2047,2033,2060,2049,2058,1196
375,1711441576073380954,2053,2038,2002,2044,2023,2040,1195
376,1711441576083384595,2052,2052,2018,2105,2102,2069,1200
377,1711441576093385350,2056,2038,1958,2056,2066,2052,1198
378,1711441576103386365,2050,2050,2019,2093,2065,2058,1197
379,1711441576113410194,2055,2045,2028,2078,2099,2060,1196
380,1711441576123395209,2064,2068,2113,2051,2099,2069,1195
381,1711441576133385393,2057,2072,2140,2040,2064,2043,1193
382,1711441576143382070,2054,2045,2034,2051,2008,2041,1192
383,1711441576153383115,2045,2043,2038,2088,2020,2055,1195
384,1711441576163392467,2053,2052,2053,2047,2041,2050,1197
385,1711441576173386568,2053,2047,2051,2058,2042,2060,1197
386,1711441576183387173,2056,2053,2046,2065,2065,2056,1197
387,1711441576193375263,2052,2030,2084,2056,2065,2049,1195
388,1711441576203391759,2058,2048,2058,2052,2044,2072,1196
389,1711441576213402643,2064,2057,2089,2059,2050,2060,1197
390,1711441576223373831,2056,2042,2047,2045,2055,2054,1197
391,1711441576233379134,2061,2068,2078,2057,2055,2057,1198
392,1711441576243377194,2049,2042,2038,2052,2066,2056,1197
393,1711441576253374162,2060,2057,2077,2072,2064,2070,1195
394,1711441576263380787,2044,2046,1989,2056,2043,2041,1193
395,1711441576273376102,2049,2046,2038,2058,2052,2051,1198
396,1711441576283366046,2043,2045,2054,2054,2056,2041,1195
397,1711441576293369035,2061,2058,2069,2064,2048,2046,1193
398,1711441576303369138,2047,2038,2017,2020,2040,2041,1195
399,1711441576313388650,2064,2080,2144,2090,2093,2061,1197
400,1711441576323391217,2054,2047,2042,2052,2047,2045,1194
401,1711441576333370662,2048,2043,2017,2074,2071,2058,1196
402,1711441576343370203,2050,2092,2106,2036,2015,2049,1196
403,1711441576353368955,2060,2056,2035,2074,2064,2054,1196
404,1711441576363374829,2053,2049,2040,2061,2072,2060,1195
405,1711441576373375183,2050,2047,2030,2073,2084,2056,1195
406,1711441576383369015,2047,2036,2014,2040,2059,2054,1195
407,1711441576393388786,2057,2041,1997,2067,2059,2052,1195
408,1711441576403367368,2052,2051,2046,2053,2046,2049,1195
409,1711441576413382751,2052,2023,2028,2056,2058,2052,1196
410,1711441576423375250,2058,2054,2017,2066,2048,2050,1196
411,1711441576433378089,2052,2052,2042,2056,2049,2047,1194
412,1711441576443380227,2061,2061,2121,2061,2061,2056,1196
413,1711441576453370571,2051,2040,2032,2052,2046,2053,1198
414,1711441576463378530,2057,2053,2042,2049,2047,2034,1193
415,1711441576473388653,2056,2056,2037,2057,2044,2040,1195
416,1711441576483378657,2053,2050,2040,2049,2052,2052,1195
417,1711441576493380734,2056,2046,2033,2057,2053,2050,1197
418,1711441576503374666,2055,2035,1991,2046,2052,2056,1197
419,1711441576513379278,2050,2042,2014,2066,2046,2055,1197
420,1711441576523384031,2057,2068,2117,2047,2046,2049,1198
421,1711441576533392440,2056,2052,2054,2042,2040,2052,1193
422,1711441576543384047,2053,2052,2039,2078,2104,2062,1194
423,1711441576553377569,2064,2060,2049,2080,2062,2064,1197
424,1711441576563378423,2049,2053,2053,2041,2014,2041,1194
425,1711441576573378497,2052,2046,2030,2044,2062,2053,1196
426,1711441576583375284,2058,2060,2054,2048,2060,2066,1195
427,1711441576593374847,2056,2043,2042,2061,2053,2058,1195
428,1711441576603371673,2056,2051,2058,2053,2036,2049,1195
429,1711441576613372388,2058,2053,2044,2064,2074,2056,1195
430,1711441576623376960,2052,2044,2074,2057,2056,2056,1195
431,1711441576633383366,2061,2083,2072,2058,2069,2054,1197
432,1711441576643382908,2059,2053,2018,2046,2052,2050,1196
433,1711441576653376119,2056,2066,2065,2061,2056,2056,1198
434,1711441576663383456,2056,2084,2086,2058,2069,2056,1195
435,1711441576673390574,2044,2035,2039,2064,2090,2046,1193
436,1711441576683355078,2055,2049,2068,2052,2049,2050,1194
437,1711441576693372565,2053,2052,2058,2052,2053,2055,1196
438,1711441576703373911,2052,2044,2035,2049,2040,2050,1197
439,1711441576713372862,2046,2065,2074,2069,2065,2056,1196
440,1711441576723391301,2053,2069,2024,2057,2045,2055,1197
441,1711441576733374993,2053,2051,2072,2053,2045,2049,1194
442,1711441576743376650,2053,2041,2025,2059,2066,2055,1194
443,1711441576753371072,2057,2068,2122,2072,2072,2048,1197
444,1711441576763374072,2056,2048,2066,2056,2056,2059,1196
445,1711441576773371299,2057,2052,2057,2057,2060,2053,1198
446,1711441576783380000,2067,2079,2096,2096,2073,2050,1196
447,1711441576793385123,2059,2058,2047,2053,2040,2058,1197
448,1711441576803377532,2057,2049,2068,2052,2040,2049,1197
449,1711441576813376963,2042,2024,2000,2068,2044,2048,1196
450,1711441576823380354,2058,2050,2035,2056,2069,2052,1195
451,1711441576833380577,2058,2055,2044,2053,2040,2048,1196
452,1711441576843372094,2057,2068,2084,2052,2052,2055,1200
453,1711441576853377187,2064,2072,2053,2065,2057,2051,1196
454,1711441576863373103,2066,2056,1990,2056,2064,2063,1195
455,1711441576873402243,2060,2077,2069,2051,2045,2053,1198
456,1711441576883377087,2055,2056,2072,2045,2052,2048,1196
457,1711441576893375248,2051,2056,2033,2065,2066,2056,1195
458,1711441576903375902,2053,2052,2047,2058,2050,2048,1195
459,1711441576913372198,2061,2075,2142,2080,2080,2064,1195
460,1711441576923381068,2053,2047,2060,2052,2054,2054,1196
461,1711441576933379529,2048,2043,2041,2043,2032,2044,1193
462,1711441576943373160,2066,2082,2104,2057,2089,2066,1195
463,1711441576953372673,2054,2052,2064,2049,2054,2052,1196
464,1711441576963391622,2057,2055,2048,2051,2049,2052,1194
465,1711441576973384662,2054,2043,2045,2057,2050,2053,1196
466,1711441576983392160,2062,2074,2081,2064,2068,2056,1196
467,1711441576993374810,2056,2049,2044,2049,2042,2044,1193
468,1711441577003374753,2063,2065,2056,2056,2052,2052,1197
469,1711441577013384123,2059,2084,2063,2058,2052,2053,1198
470,1711441577023391080,2049,2041,2038,2043,2053,2050,1196
471,1711441577033376845,2052,2044,2020,2041,2064,2053,1197
472,1711441577043373931,2053,2047,2040,2052,2045,2054,1198
473,1711441577053374254,2048,2049,2024,2053,2058,2048,1197
474,1711441577063402361,2050,2052,2046,2050,2050,2053,1198
475,1711441577073368648,2058,2072,2148,2079,2070,2057,1198
476,1711441577083379972,2058,2047,2041,2032,2030,2044,1194
477,1711441577093376558,2058,2048,2057,2050,2045,2046,1193
478,1711441577103371250,2058,2060,2035,2058,2052,2049,1198
479,1711441577113370150,2048,2032,1975,2060,2047,2050,1195
480,1711441577123382808,2055,2045,2042,2064,2069,2053,1193
481,1711441577133381778,2052,2047,2039,2054,2045,2052,1197
482,1711441577143399715,2056,2049,2045,2053,2060,2054,1195
483,1711441577153373316,2049,2030,2000,2062,2058,2056,1194
484,1711441577163383829,2062,2060,2101,2061,2058,2055,1194
485,1711441577173384252,2056,2051,2088,2056,2048,2056,1196
486,1711441577183375628,2052,2049,2069,2061,2058,2051,1194
487,1711441577193373737,2054,2046,2012,2054,2081,2054,1195
488,1711441577203371465,2056,2052,2054,2053,2045,2052,1197
489,1711441577213397788,2053,2055,2054,2067,2058,2056,1197
490,1711441577223391668,2061,2092,2076,2067,2058,2066,1197
491,1711441577233377603,2052,2040,2008,2046,2053,2053,1195
492,1711441577243371284,2061,2056,2061,2050,2048,2054,1196
493,1711441577253373010,2060,2061,2056,2059,2052,2054,1198
494,1711441577263390947,2056,2056,2076,2074,2072,2056,1197
495,1711441577273379787,2062,2082,2062,2056,2050,2052,1197
496,1711441577283370753,2053,2046,2037,2049,2045,2051,1196
497,1711441577293378640,2057,2056,2051,2041,2041,2051,1196
498,1711441577303377761,2056,2052,2040,2060,2064,2071,1197
499,1711441577313376250,2047,2036,2011,2050,2037,2049,1197
500,1711441577323386753,2056,2048,2007,2056,2047,2053,1196
501,1711441577333376024,2056,2025,2033,2055,2056,2056,1195
502,1711441577343372931,2053,2033,2042,2046,2049,2050,1196
503,1711441577353376641,2052,2056,2042,2051,2053,2048,1195
504,1711441577363387394,2053,2048,2036,2049,2050,2049,1198
505,1711441577373377838,2058,2064,2077,2064,2072,2061,1196
506,1711441577383373882,2058,2050,2030,2047,2040,2050,1196
507,1711441577393373033,2053,2044,2015,2049,2048,2052,1197
508,1711441577403373717,2063,2046,1974,2084,2075,2058,1196
509,1711441577413373700,2058,2050,2037,2065,2074,2053,1196
510,1711441577423392719,2056,2061,2102,2055,2056,2049,1197
511,1711441577433378353,2054,2057,2102,2040,2034,2050,1196
512,1711441577443375550,2061,2068,2102,2046,2041,2054,1196
513,1711441577453374129,2053,2050,2056,2042,2036,2058,1199
514,1711441577463375284,2061,2050,2053,2036,2050,2061,1195
515,1711441577473431005,2056,2058,2062,2042,2040,2050,1198
516,1711441577483382002,2065,2089,2163,2053,2053,2061,1196
517,1711441577493371073,2057,2034,2000,2056,2080,2068,1197
518,1711441577503375414,2057,2056,2038,2066,2085,2053,1197
519,1711441577513371469,2058,2057,2047,2064,2069,2056,1196
520,1711441577523408042,2060,2080,2046,2050,2063,2058,1198
521,1711441577533379519,2045,2044,2040,2060,2067,2050,1198
522,1711441577543396013,2058,2053,2043,2054,2050,2056,1194
523,1711441577553376708,2052,2049,2045,2060,2052,2052,1196
524,1711441577563374126,2052,2050,2045,2062,2074,2053,1196
525,1711441577573427763,2056,2049,2041,2068,2059,2056,1194
526,1711441577583380984,2052,2047,2024,2034,2048,2049,1194
527,1711441577593370025,2056,2080,2072,2060,2047,2050,1195
528,1711441577603370168,2062,2059,2052,2057,2046,2056,1195
529,1711441577613374478,2070,2098,2122,2072,2073,2060,1198
530,1711441577623373810,2056,2053,2022,2067,2077,2059,1196
531,1711441577633377510,2056,2058,2058,2052,2056,2059,1197
532,1711441577643380227,2054,2058,2065,2047,2046,2052,1197
533,1711441577653377404,2049,2032,1996,2043,2041,2054,1197
534,1711441577663379180,2054,2054,2080,2052,2051,2048,1196
535,1711441577673382749,2053,2054,2058,2052,2060,2056,1197
536,1711441577683400876,2058,2052,2041,2045,2052,2048,1197
537,1711441577693378596,2054,2050,2062,2052,2050,2052,1197
538,1711441577703382115,2061,2074,2072,2056,2067,2053,1194
539,1711441577713407206,2053,2043,2061,2065,2081,2058,1195
540,1711441577723430664,2053,2040,2058,2055,2059,2060,1197
541,1711441577733378385,2057,2054,2064,2052,2048,2053,1196
542,1711441577743401542,2052,2042,2045,2051,2047,2047,1192
543,1711441577753429749,2065,2065,2104,2074,2042,2050,1195
544,1711441577763412288,2058,2054,2073,2063,2050,2052,1196
545,1711441577773373635,2058,2056,2142,2049,2052,2056,1196
546,1711441577783431400,2059,2046,2082,2048,2052,2056,1197
547,1711441577793414850,2061,2068,2133,2068,2053,2059,1197
548,1711441577803374124,2056,2047,2036,2052,2041,2047,1194
549,1711441577813373986,2055,2056,2041,2059,2036,2053,1197
550,1711441577823460375,2053,2041,2004,2046,2040,2049,1197
551,1711441577833438715,2052,2042,2021,2052,2033,2047,1195
552,1711441577843414742,2050,2045,2032,2052,2046,2050,1197
553,1711441577853376781,2053,2052,2039,2058,2064,2053,1198
554,1711441577863373897,2056,2048,2047,2053,2056,2055,1197
555,1711441577873374280,2052,2066,2176,2068,2072,2057,1197
556,1711441577883440231,2060,2061,2060,2069,2053,2056,1195
557,1711441577893373875,2056,2044,2028,2040,2028,2047,1192
558,1711441577903375570,2054,2045,2034,2072,2060,2054,1197
559,1711441577913375803,2058,2057,2074,2045,2032,2051,1197
560,1711441577923375124,2057,2049,2066,2064,2050,2054,1197
561,1711441577933432878,2058,2060,2041,2058,2053,2052,1195
562,1711441577943378145,2050,2041,2024,2056,2070,2052,1195
563,1711441577953409789,2058,2061,2085,2064,2056,2053,1195
564,1711441577963374663,2058,2053,2050,2049,2051,2058,1195
565,1711441577973372802,2053,2050,2047,2052,2054,2052,1196
566,1711441577983394566,2058,2045,2034,2049,2059,2052,1196
567,1711441577993367155,2057,2036,1984,2065,2053,2052,1195
568,1711441578003372508,2050,2048,2021,2053,2047,2048,1196
569,1711441578013376558,2051,2050,2016,2068,2065,2060,1195
570,1711441578023413260,2058,2046,2049,2045,2055,2054,1198
571,1711441578033416388,2053,2040,2024,2044,2034,2060,1194
572,1711441578043375830,2055,2049,2058,2069,2026,2056,1198
573,1711441578053372044,2045,2024,2055,2049,2041,2048,1198
574,1711441578063376204,2061,2058,2134,2054,2052,2058,1199
575,1711441578073373801,2052,2045,2041,2052,2044,2052,1198
576,1711441578083376488,2056,2061,2109,2079,2056,2049,1197
577,1711441578093374105,2053,2046,2042,2050,2041,2050,1194
578,1711441578103378094,2056,2049,2038,2056,2054,2049,1196
579,1711441578113377083,2065,2132,2193,2076,2064,2058,1197
580,1711441578123406973,2056,2052,2067,2058,2068,2056,1197
581,1711441578133402796,2057,2060,2082,2056,2049,2056,1197
582,1711441578143371437,2048,2040,2033,2037,2056,2047,1192
583,1711441578153401406,2054,2052,2032,2053,2050,2051,1196
584,1711441578163391218,2050,2031,1996,2047,2061,2054,1194
585,1711441578173370650,2048,2028,1981,2050,2030,2056,1196
586,1711441578183382494,2055,2055,2057,2062,2051,2053,1196
587,1711441578193420939,2053,2047,2041,2054,2047,2054,1196
588,1711441578203406133,2056,2061,2061,2049,2044,2046,1194
589,1711441578213369142,2057,2061,2036,2058,2061,2057,1196
590,1711441578223401045,2045,2031,2010,2046,2054,2051,1194
591,1711441578233406207,2048,2038,2001,2056,2029,2052,1196
592,1711441578243422009,2056,2043,2056,2047,2044,2058,1199
593,1711441578253398725,2049,2047,2052,2042,2057,2044,1197
594,1711441578263402725,2066,2092,2161,2052,2045,2056,1197
595,1711441578273398127,2052,2045,2015,2050,2045,2053,1197
596,1711441578283401254,2052,2032,2040,2058,2054,2056,1195
597,1711441578293406316,2057,2060,2050,2056,2052,2055,1197
598,1711441578303404053,2058,2056,2061,2058,2056,2052,1196
599,1711441578313404415,2052,2045,2006,2058,2056,2049,1198
600,1711441578323400730,2056,2059,2045,2057,2053,2047,1193
601,1711441578333401272,2058,2072,2083,2069,2057,2056,1195
602,1711441578343411603,2060,2065,2145,2069,2090,2060,1195
603,1711441578353395183,2054,2050,2034,2058,2052,2053,1196
604,1711441578363403791,2057,2053,2051,2060,2057,2052,1196
605,1711441578373401628,2058,2060,2036,2054,2061,2052,1196
606,1711441578383402081,2057,2056,2056,2054,2054,2055,1197
607,1711441578393407513,2048,2046,2032,2053,2049,2051,1196
608,1711441578403404799,2069,2091,2161,2074,2077,2060,1196
609,1711441578413401294,2053,2052,2076,2072,2059,2056,1194
610,1711441578423409511,2056,2045,2024,2052,2057,2058,1194
611,1711441578433418359,2057,2052,2031,2062,2053,2054,1198
612,1711441578443407160,2051,2036,2030,2046,2057,2055,1196
613,1711441578453394646,2049,2046,2041,2052,2044,2045,1194
614,1711441578463399627,2053,2049,2042,2057,2066,2056,1195
615,1711441578473400140,2056,2059,2084,2050,2052,2049,1197
616,1711441578483401013,2054,2060,2059,2062,2064,2053,1199
617,1711441578493418739,2053,2042,2017,2056,2059,2053,1194
618,1711441578503397630,2055,2063,2056,2056,2052,2052,1196
619,1711441578513399074,2053,2049,2072,2044,2057,2053,1196
620,1711441578523398744,2057,2062,2116,2045,2045,2053,1196
621,1711441578533401762,2059,2048,2025,2057,2049,2057,1197
622,1711441578543399208,2056,2072,2117,2050,2058,2051,1194
623,1711441578553389561,2057,2057,2066,2053,2046,2057,1195
624,1711441578563391246,2050,2043,2022,2051,2050,2050,1195
625,1711441578573395726,2049,2073,2015,2060,2048,2040,1195
626,1711441578583397852,2060,2060,2077,2068,2062,2056,1194
627,1711441578593414796,2054,2065,2044,2044,2029,2052,1198
628,1711441578603392544,2059,2072,2076,2075,2074,2060,1195
629,1711441578613397004,2056,2054,2065,2058,2047,2052,1195
630,1711441578623398329,2052,2044,2031,2040,2044,2052,1196
631,1711441578633413529,2048,2035,1988,2046,2057,2056,1196
632,1711441578643398091,2052,2068,2022,2070,2057,2057,1197
633,1711441578653394936,2060,2056,2019,2067,2053,2052,1197
634,1711441578663397703,2057,2047,2032,2055,2046,2053,1195
635,1711441578673398386,2058,2055,2077,2064,2040,2049,1196
636,1711441578683399489,2056,2044,2064,2050,2056,2060,1196
637,1711441578693436282,2054,2061,2074,2047,2054,2053,1196
638,1711441578703399612,2053,2082,2052,2056,2046,2052,1196
639,1711441578713386108,2052,2049,2049,2049,2050,2050,1195
640,1711441578723394405,2052,2043,2016,2059,2050,2052,1196
641,1711441578733396872,2054,2041,2015,2074,2097,2056,1197
642,1711441578743389679,2052,2049,2043,2051,2046,2052,1195
643,1711441578753398998,2053,2049,2044,2050,2045,2047,1193
644,1711441578763389282,2056,2027,2077,2050,2040,2059,1195
645,1711441578773392028,2056,2037,2048,2056,2050,2059,1195
646,1711441578783392029,2051,2058,2061,2047,2056,2051,1195
647,1711441578793392863,2054,2047,2039,2056,2052,2052,1196
648,1711441578803398665,2057,2041,2026,2048,2056,2056,1195
649,1711441578813395701,2058,2059,2037,2072,2064,2059,1196
650,1711441578823393258,2053,2053,2052,2052,2053,2052,1196
651,1711441578833394922,2052,2043,2017,2053,2072,2045,1192
652,1711441578843394312,2056,2045,2064,2053,2052,2049,1196
653,1711441578853393944,2053,2053,2045,2056,2052,2058,1198
654,1711441578863385408,2060,2065,2072,2056,2050,2056,1194
655,1711441578873392082,2054,2043,2030,2052,2061,2057,1197
656,1711441578883395180,2057,2063,2084,2042,2044,2050,1195
657,1711441578893401143,2050,2043,2046,2061,2052,2053,1196
658,1711441578903391245,2054,2042,2029,2053,2060,2054,1196
659,1711441578913390836,2049,2053,2056,2056,2059,2056,1196
660,1711441578923394164,2058,2052,2037,2044,2051,2052,1197
661,1711441578933395337,2059,2057,2065,2053,2070,2056,1195
662,1711441578943403455,2052,2039,2008,2056,2052,2052,1194
663,1711441578954413612,2060,2059,2040,2062,2056,2058,1197
664,1711441578964114794,2056,2048,2063,2052,2060,2057,1195
665,1711441578973399381,2063,2063,2043,2053,2065,2057,1196
666,1711441578983399863,2054,2043,2020,2042,2058,2049,1195
667,1711441578993406878,2046,2014,2016,2047,2040,2038,1195
668,1711441579003332055,2057,2029,2050,2044,2052,2051,1195
669,1711441579013402401,2048,2044,2017,2046,2037,2048,1196
670,1711441579023402271,2057,2056,2056,2049,2052,2056,1194
671,1711441579033403854,2056,2051,2028,2054,2058,2049,1196
672,1711441579043423363,2051,2046,2046,2047,2052,2053,1194
673,1711441579053406871,2066,2104,2108,2056,2052,2056,1195
674,1711441579063391442,2057,2048,2040,2053,2056,2053,1197
675,1711441579073389919,2056,2042,2032,2039,2036,2049,1196
676,1711441579083388688,2060,2058,2085,2058,2047,2057,1199
677,1711441579093434056,2058,2048,2054,2057,2052,2056,1194
678,1711441579103413106,2060,2057,2080,2057,2054,2058,1196
679,1711441579113391474,2054,2047,2036,2049,2061,2052,1194
680,1711441579123390935,2056,2060,2075,2056,2052,2055,1196
681,1711441579133392307,2053,2039,1977,2056,2046,2053,1196
682,1711441579143428228,2064,2093,2106,2072,2074,2054,1196
683,1711441579153413138,2056,2057,2069,2057,2059,2061,1198
684,1711441579163391347,2054,2056,2056,2054,2055,2051,1196
685,1711441579173396227,2051,2051,2039,2051,2043,2048,1196
686,1711441579183398031,2074,2076,2076,2061,2059,2061,1197
687,1711441579193424472,2052,2042,2022,2040,2048,2050,1196
688,1711441579203400818,2059,2058,2076,2060,2056,2058,1195
689,1711441579213453239,2056,2064,2042,2068,2054,2053,1195
690,1711441579223385359,2057,2050,2048,2044,2044,2052,1196
691,1711441579233381772,2056,2047,2050,2059,2057,2050,1197
692,1711441579243442821,2057,2064,2084,2056,2051,2053,1197
693,1711441579253441759,2054,2047,2034,2064,2058,2047,1197
694,1711441579263385351,2061,2046,2014,2072,2075,2057,1196
695,1711441579273389980,2052,2053,2018,2057,2057,2052,1195
696,1711441579283387676,2056,2049,2114,2074,2057,2056,1194
697,1711441579293410521,2058,2060,2112,2067,2054,2057,1197
698,1711441579303387627,2056,2046,2035,2048,2049,2056,1194
699,1711441579313388669,2051,2038,2006,2057,2060,2057,1196
700,1711441579323385554,2056,2056,2010,2060,2058,2057,1195
701,1711441579333386596,2049,2044,2032,2055,2050,2048,1198
702,1711441579343835046,2052,2040,2013,2041,2042,2053,1195
703,1711441579353393701,2058,2056,2037,2052,2050,2053,1195
704,1711441579363395957,2058,2073,2103,2056,2054,2058,1195
705,1711441579373394083,2056,2059,2062,2052,2038,2045,1193
706,1711441579383400346,2054,2085,2051,2054,2056,2058,1195
707,1711441579393421707,2053,2054,2054,2055,2055,2049,1194
708,1711441579403383004,2052,2052,2049,2052,2065,2058,1196
709,1711441579413383905,2052,2043,2035,2046,2052,2051,1195
710,1711441579423383936,2055,2074,2098,2046,2049,2061,1193
711,1711441579433386221,2051,2033,2046,2055,2051,2054,1195
712,1711441579443390250,2048,2034,2026,2052,2051,2053,1196
713,1711441579453381222,2058,2061,2047,2058,2056,2050,1196
714,1711441579463391713,2056,2068,2109,2058,2065,2051,1196
715,1711441579473384079,2056,2037,2028,2046,2043,2053,1195
716,1711441579483391204,2060,2070,2097,2056,2050,2056,1196
717,1711441579493382056,2045,2040,2088,2062,2052,2050,1195
718,1711441579503379732,2047,2031,2032,2052,2050,2054,1196
719,1711441579513388850,2052,2056,2100,2052,2044,2051,1197
720,1711441579523378952,2058,2049,2038,2052,2048,2047,1194
721,1711441579533382038,2056,2061,2108,2070,2085,2053,1196
722,1711441579543376278,2049,2063,2046,2040,2041,2047,1193
723,1711441579553381568,2056,2046,2029,2056,2058,2054,1198
724,1711441579563385457,2056,2046,2013,2057,2056,2061,1194
725,1711441579573378733,2053,2044,2030,2056,2054,2051,1196
726,1711441579583386680,2061,2065,2094,2054,2050,2057,1196
727,1711441579593372152,2055,2064,2121,2050,2042,2051,1197
728,1711441579603382994,2062,2074,2072,2074,2053,2051,1197
729,1711441579613350751,2059,2046,2065,2052,2065,2053,1196
730,1711441579623383816,2066,2078,2171,2063,2061,2061,1195
731,1711441579633380991,2056,2052,2035,2046,2047,2049,1196
732,1711441579643386152,2052,2050,2051,2035,2044,2053,1197
733,1711441579653388016,2050,2047,2047,2058,2065,2052,1198
734,1711441579663378709,2057,2078,2044,2053,2052,2051,1198
735,1711441579673379129,2056,2052,2010,2056,2046,2048,1198
736,1711441579683398468,2060,2057,2124,2057,2050,2056,1197
737,1711441579693382687,2053,2042,2041,2056,2047,2052,1196
738,1711441579703379883,2056,2050,2048,2062,2064,2057,1196
739,1711441579713379682,2052,2026,2041,2052,2043,2050,1197
740,1711441579723381507,2057,2037,2034,2064,2050,2052,1198
741,1711441579733386046,2047,2036,2020,2063,2058,2054,1197
742,1711441579743382079,2050,2040,2020,2045,2043,2053,1195
743,1711441579753376819,2057,2066,2103,2040,2044,2053,1196
744,1711441579763379545,2054,2051,2040,2061,2064,2057,1198
745,1711441579773393001,2056,2062,2041,2060,2060,2057,1197
746,1711441579783386931,2056,2058,2049,2053,2052,2052,1195
747,1711441579793383284,2056,2060,2100,2060,2052,2055,1197
748,1711441579803377113,2060,2069,2146,2056,2040,2048,1196
749,1711441579813376532,2052,2047,2050,2072,2056,2052,1197
750,1711441579823391983,2057,2053,2084,2071,2074,2051,1197
751,1711441579833382133,2058,2053,2064,2049,2040,2051,1196
752,1711441579843379600,2056,2054,2072,2064,2048,2050,1196
753,1711441579853378047,2061,2058,2021,2053,2056,2052,1197
754,1711441579863377456,2056,2045,2013,2047,2056,2055,1197
755,1711441579873394039,2057,2065,2047,2047,2046,2052,1197
756,1711441579883372568,2056,2056,2058,2056,2057,2053,1198
757,1711441579893380343,2057,2067,2109,2062,2056,2059,1197
758,1711441579903378551,2052,2016,2004,2066,2091,2055,1196
759,1711441579913376817,2053,2026,2030,2054,2050,2052,1197
760,1711441579923400654,2052,2044,2036,2058,2064,2050,1197
761,1711441579933426695,2059,2068,2085,2049,2054,2055,1196
762,1711441579943368734,2057,2059,2110,2069,2093,2053,1196
763,1711441579953376018,2052,2036,2000,2062,2056,2047,1192
764,1711441579963372081,2060,2060,2061,2050,2057,2056,1196
765,1711441579973403031,2059,2080,2068,2052,2044,2050,1194
766,1711441579983436006,2054,2050,2035,2049,2054,2054,1197
767,1711441579993370409,2054,2053,2041,2050,2049,2056,1195
768,1711441580003376291,2063,2101,2129,2058,2050,2056,1197
769,1711441580013367995,2054,2041,1990,2061,2053,2050,1194
770,1711441580023393163,2058,2055,1999,2072,2077,2061,1196
771,1711441580033385227,2053,2047,2058,2056,2058,2052,1196
772,1711441580043374426,2063,2092,2096,2056,2043,2056,1198
773,1711441580053371199,2056,2049,2044,2057,2079,2047,1196
774,1711441580063374285,2056,2052,2057,2053,2048,2050,1197
775,1711441580073401277,2077,2106,2132,2077,2066,2064,1198
776,1711441580083387259,2053,2042,2009,2046,2047,2052,1197
777,1711441580093381157,2053,2052,2080,2059,2053,2052,1196
778,1711441580103368812,2053,2051,2072,2056,2049,2047,1193
779,1711441580113370205,2057,2046,2089,2078,2078,2062,1196
780,1711441580123394261,2055,2052,2057,2037,2043,2055,1196
781,1711441580133421133,2052,2045,2098,2054,2043,2052,1194
782,1711441580143378199,2056,2042,2034,2057,2055,2053,1194
783,1711441580153371866,2052,2042,2041,2058,2056,2053,1194
784,1711441580163369832,2056,2056,2073,2072,2056,2052,1197
785,1711441580173368318,2054,2082,2044,2057,2046,2059,1196
786,1711441580183382937,2055,2065,2112,2065,2060,2053,1194
787,1711441580193376624,2051,2051,2082,2056,2064,2049,1196
788,1711441580203371584,2054,2049,2101,2042,2053,2060,1197
789,1711441580213372465,2057,2068,2115,2052,2045,2052,1196
790,1711441580223395118,2056,2057,2026,2055,2056,2050,1196
791,1711441580233397162,2057,2065,2070,2064,2064,2054,1195
792,1711441580243428713,2055,2045,2068,2066,2050,2048,1200
793,1711441580253375108,2052,2042,2051,2045,2062,2054,1198
794,1711441580263374206,2056,2058,2052,2056,2050,2054,1198
795,1711441580273375308,2052,2053,2050,2060,2056,2057,1196
796,1711441580283375939,2056,2053,2041,2062,2070,2054,1197
797,1711441580293373884,2055,2054,2044,2060,2054,2054,1197
798,1711441580303373894,2055,2050,2030,2071,2066,2056,1198
799,1711441580313375316,2057,2082,2095,2056,2043,2056,1197
800,1711441580323376598,2056,2043,2037,2034,2047,2050,1197
801,1711441580333422136,2050,2042,2029,2060,2056,2056,1194
802,1711441580343377219,2057,2050,2004,2066,2049,2053,1193
803,1711441580353380545,2054,2055,2070,2059,2062,2052,1196
804,1711441580363381215,2054,2024,2026,2053,2042,2046,1191
805,1711441580373382607,2049,2024,2040,2062,2052,2046,1194
806,1711441580383392276,2052,2045,2043,2041,2040,2047,1195
807,1711441580393413257,2055,2047,2034,2058,2062,2052,1196
808,1711441580403365854,2056,2047,2032,2048,2053,2052,1198
809,1711441580413368549,2061,2068,2089,2075,2057,2051,1197
810,1711441580423370502,2059,2064,2088,2077,2079,2057,1197
811,1711441580433419637,2056,2047,2027,2050,2052,2055,1197
812,1711441580443370782,2058,2080,2107,2057,2056,2052,1197
813,1711441580453368457,2053,2049,2047,2060,2064,2047,1194
814,1711441580463370240,2056,2051,2047,2059,2047,2050,1197
815,1711441580473370480,2054,2054,2033,2050,2053,2050,1197
816,1711441580483371301,2060,2061,2090,2057,2044,2047,1194
817,1711441580493366591,2049,2034,2028,2047,2048,2051,1198
818,1711441580503372924,2054,2049,2043,2056,2056,2054,1200
819,1711441580513375068,2050,2070,2059,2050,2059,2049,1196
820,1711441580523394996,2051,2045,2021,2056,2040,2053,1196
821,1711441580533396298,2047,2044,2040,2057,2060,2052,1197
822,1711441580543368583,2064,2106,2089,2084,2074,2056,1196
823,1711441580553362000,2054,2045,2036,2055,2062,2050,1194
824,1711441580563367110,2062,2052,2047,2049,2047,2056,1196
825,1711441580573367951,2047,2037,2006,2056,2057,2051,1196
826,1711441580583387298,2052,2045,2021,2061,2056,2052,1197
827,1711441580593367379,2055,2069,2054,2049,2050,2056,1195
828,1711441580603370264,2056,2060,2047,2057,2073,2055,1195
829,1711441580613367138,2066,2104,2107,2072,2075,2054,1198
830,1711441580623368400,2054,2049,2056,2043,2061,2053,1195
831,1711441580633360625,2054,2060,2122,2060,2063,2052,1196
832,1711441580643407345,2056,2053,2011,2067,2060,2056,1196
833,1711441580653367787,2052,2056,2062,2064,2068,2052,1198
834,1711441580663366003,2056,2068,2073,2067,2070,2051,1199
835,1711441580673362646,2055,2047,2061,2060,2061,2050,1197
836,1711441580683415018,2052,2042,2062,2060,2058,2055,1196
837,1711441580693408936,2042,2034,2028,2050,2052,2052,1194
838,1711441580703362064,2060,2053,2050,2056,2057,2051,1197
839,1711441580713374778,2056,2052,2046,2056,2051,2049,1198
840,1711441580723409725,2056,2050,2043,2056,2049,2046,1195
841,1711441580733419013,2055,2068,2063,2054,2053,2050,1198
842,1711441580743368996,2068,2066,2060,2068,2058,2059,1196
843,1711441580753411358,2051,2048,2046,2052,2047,2056,1196
844,1711441580763361851,2056,2056,2077,2062,2056,2060,1195
845,1711441580773360558,2050,2039,2002,2053,2038,2058,1196
846,1711441580783362181,2047,2044,2036,2039,2034,2046,1194
847,1711441580793396166,2053,2074,2110,2063,2056,2058,1196
848,1711441580803385025,2057,2043,2028,2043,2078,2050,1197
849,1711441580813363944,2058,2062,2062,2051,2051,2053,1197
850,1711441580823364203,2053,2055,2096,2054,2072,2053,1196
851,1711441580833360546,2056,2056,2058,2061,2056,2056,1196
852,1711441580843412205,2060,2064,2082,2054,2056,2057,1197
853,1711441580853387747,2056,2060,2084,2062,2058,2057,1198
854,1711441580863364873,2060,2061,2095,2057,2067,2058,1196
855,1711441580873365132,2056,2049,2042,2047,2056,2054,1196
856,1711441580883396553,2054,2050,2044,2050,2046,2052,1197
857,1711441580893403106,2060,2068,2108,2079,2075,2056,1195
858,1711441580903368669,2052,2040,2018,2042,2026,2047,1195
859,1711441580913396933,2053,2056,2040,2050,2052,2053,1196
860,1711441580923397854,2060,2057,2056,2050,2052,2052,1196
861,1711441580933373697,2051,2047,2045,2048,2045,2055,1196
862,1711441580943394186,2053,2044,2058,2057,2053,2052,1194
863,1711441580953400328,2056,2046,2050,2058,2056,2053,1196
864,1711441580963396760,2053,2070,2047,2061,2061,2050,1197
865,1711441580973396329,2056,2058,2077,2061,2055,2053,1195
866,1711441580983399054,2062,2056,2041,2052,2054,2054,1196
867,1711441580993378533,2056,2053,2056,2048,2044,2049,1196
868,1711441581003375768,2058,2064,2068,2054,2057,2050,1196
869,1711441581013396908,2054,2056,2056,2055,2050,2051,1196
870,1711441581023361818,2052,2053,2053,2052,2046,2056,1197
871,1711441581033394962,2059,2061,2056,2056,2054,2056,1194
872,1711441581043385461,2056,2063,2094,2053,2059,2056,1195
873,1711441581053390009,2055,2038,1996,2048,2032,2048,1197
874,1711441581063365130,2053,2045,2040,2066,2068,2059,1197
875,1711441581073362393,2052,2053,2048,2060,2049,2046,1194
876,1711441581083397830,2055,2045,2035,2054,2049,2057,1195
877,1711441581093360086,2056,2052,2030,2044,2048,2054,1195
878,1711441581103387287,2057,2064,1997,2037,2030,2045,1195
879,1711441581113356095,2046,2041,2045,2052,2043,2045,1195
880,1711441581123361154,2055,2060,2053,2058,2053,2049,1197
881,1711441581133369529,2049,2053,2073,2058,2046,2045,1194
882,1711441581143362914,2056,2049,2061,2049,2060,2056,1194
883,1711441581153379195,2064,2091,2093,2068,2053,2053,1197
884,1711441581163390094,2052,2047,2056,2059,2056,2049,1195
885,1711441581173365966,2053,2049,2038,2056,2056,2048,1197
886,1711441581183368320,2064,2075,2117,2053,2049,2058,1194
887,1711441581193388657,2054,2058,2075,2050,2047,2048,1196
888,1711441581203390048,2049,2048,2026,2052,2069,2053,1196
889,1711441581213358867,2050,2050,2046,2061,2052,2053,1198
890,1711441581223391930,2063,2057,2116,2063,2054,2058,1196
891,1711441581233385315,2056,2057,2054,2064,2062,2056,1197
892,1711441581243401847,2056,2077,2044,2040,2042,2049,1198
893,1711441581253385573,2050,2058,2085,2058,2052,2058,1197
894,1711441581263360213,2060,2069,2082,2057,2054,2056,1197
895,1711441581273368588,2056,2054,2057,2064,2062,2054,1197
896,1711441581283361984,2056,2050,2108,2062,2060,2052,1197
897,1711441581293395467,2051,2050,2044,2041,2036,2046,1194
898,1711441581303383292,2055,2054,2076,2056,2060,2056,1196
899,1711441581313400123,2061,2056,2002,2060,2064,2053,1198
900,1711441581323371276,2064,2069,2087,2061,2064,2058,1197
901,1711441581333363350,2051,2056,2053,2053,2054,2052,1196
902,1711441581343384169,2052,2052,2076,2047,2054,2056,1196
903,1711441581353382644,2059,2084,2117,2062,2074,2068,1196
904,1711441581363394606,2050,2016,2024,2065,2060,2050,1195
905,1711441581373395116,2050,2022,2026,2046,2045,2053,1194
906,1711441581383407578,2056,2053,2073,2049,2053,2053,1196
907,1711441581393413869,2061,2083,2162,2056,2044,2052,1196
908,1711441581403385693,2052,2040,2033,2050,2059,2053,1197
909,1711441581413405510,2051,2040,2045,2088,2097,2050,1196
910,1711441581423373467,2057,2049,2068,2048,2047,2050,1196
911,1711441581433371392,2056,2051,2024,2061,2056,2054,1197
912,1711441581443426336,2056,2062,2057,2061,2059,2062,1197
913,1711441581453390085,2064,2090,2153,2068,2072,2068,1198
914,1711441581463394342,2052,2050,2038,2052,2044,2050,1198
915,1711441581473372839,2055,2045,2065,2080,2059,2056,1196
916,1711441581483374300,2061,2089,2077,2058,2044,2056,1197
917,1711441581493442672,2056,2045,2026,2040,2054,2056,1195
918,1711441581503402432,2052,2045,2035,2052,2057,2048,1196
919,1711441581513394094,2065,2077,2105,2052,2045,2055,1195
920,1711441581523378223,2055,2040,2013,2047,2047,2056,1197
921,1711441581533373151,2055,2076,2056,2042,2050,2053,1196
922,1711441581543398068,2059,2066,2030,2041,2029,2050,1196
923,1711441581553377347,2045,2033,2004,2042,2045,2046,1194
924,1711441581563385321,2050,2040,2016,2056,2056,2053,1196
925,1711441581573388135,2056,2051,2017,2058,2057,2053,1196
926,1711441581583362775,2052,2047,2049,2050,2053,2056,1197
927,1711441581593431687,2051,2041,2057,2050,2052,2051,1196
928,1711441581603389263,2056,2035,2032,2048,2047,2053,1197
929,1711441581613387449,2050,2046,2044,2057,2052,2056,1197
930,1711441581623371045,2056,2047,2040,2056,2050,2049,1198
931,1711441581633364491,2052,2052,2047,2056,2056,2052,1196
932,1711441581643376303,2053,2049,2038,2056,2052,2054,1197
933,1711441581653380008,2052,2037,2072,2060,2069,2057,1197
934,1711441581663401729,2060,2050,2067,2056,2049,2054,1197
935,1711441581673364065,2055,2052,2024,2059,2052,2052,1199
936,1711441581683366979,2053,2047,2078,2064,2056,2056,1196
937,1711441581693386285,2054,2044,2038,2068,2065,2054,1197
938,1711441581703382497,2057,2052,2035,2057,2049,2052,1196
939,1711441581713372115,2052,2038,2057,2053,2051,2046,1193
940,1711441581723367304,2052,2036,2033,2052,2050,2052,1197
941,1711441581733362133,2048,2040,2025,2056,2056,2052,1197
942,1711441581743367211,2060,2056,2076,2066,2057,2053,1195
943,1711441581753383311,2058,2056,2050,2056,2049,2057,1197
944,1711441581763388851,2057,2052,2042,2067,2056,2053,1194
945,1711441581773392747,2052,2055,2058,2055,2049,2050,1200
946,1711441581783366224,2060,2088,2052,2047,2050,2057,1197
947,1711441581793392885,2056,2052,2067,2069,2070,2056,1197
948,1711441581803384868,2056,2052,2097,2057,2049,2057,1197
949,1711441581813388523,2054,2044,2024,2058,2045,2056,1196
950,1711441581823381478,2056,2047,2036,2056,2058,2052,1197
951,1711441581833403019,2054,2058,2088,2044,2054,2053,1195
952,1711441581843418236,2049,2009,2010,2056,2057,2052,1197
953,1711441581853397505,2061,2058,2070,2061,2068,2055,1197
954,1711441581863406081,2052,2043,2016,2056,2052,2049,1197
955,1711441581873392342,2060,2075,2116,2045,2054,2055,1194
956,1711441581883392121,2051,2040,2007,2050,2040,2052,1198
957,1711441581893386188,2056,2055,2075,2052,2045,2057,1196
958,1711441581903351890,2053,2047,2037,2042,2045,2053,1195
959,1711441581913347339,2057,2059,2041,2049,2052,2052,1196
960,1711441581923360434,2058,2061,2072,2056,2051,2057,1196
961,1711441581933370482,2068,2088,2128,2064,2060,2053,1197
962,1711441581943521502,2056,2041,2020,2047,2044,2054,1195
963,1711441581953793458,2057,2057,2048,2056,2053,2056,1196
964,1711441581963386839,2061,2082,2041,2052,2052,2052,1194
965,1711441581973386006,2052,2045,2012,2046,2045,2056,1196
966,1711441581983389482,2052,2031,2005,2053,2051,2053,1194
967,1711441581993401394,2058,2069,2066,2068,2068,2054,1195
968,1711441582003387965,2052,2042,2031,2062,2064,2055,1195
969,1711441582013378284,2057,2058,2026,2060,2068,2059,1194
970,1711441582023370036,2062,2068,2078,2057,2066,2051,1196
971,1711441582033370855,2062,2044,1998,2060,2053,2054,1197
972,1711441582043390952,2056,2059,2085,2050,2051,2056,1198
973,1711441582053384127,2052,2036,2029,2043,2042,2052,1197
974,1711441582063387270,2064,2064,2076,2061,2053,2053,1196
975,1711441582073389312,2062,2066,2061,2057,2054,2056,1197
976,1711441582083389620,2061,2082,2068,2055,2056,2056,1197
977,1711441582093403114,2060,2053,2062,2061,2067,2053,1196
978,1711441582103370990,2057,2065,2062,2062,2052,2053,1197
979,1711441582113391898,2056,2057,2108,2056,2048,2052,1196
980,1711441582123393439,2053,2052,2045,2058,2044,2055,1195
981,1711441582133391352,2057,2057,2059,2065,2059,2056,1194
982,1711441582143370029,2052,2066,2034,2048,2055,2052,1196
983,1711441582153375307,2052,2085,2092,2057,2049,2045,1193
984,1711441582163378491,2064,2064,2071,2050,2071,2049,1199
985,1711441582173379891,2058,2052,2046,2050,2049,2051,1196
986,1711441582183367855,2056,2045,2024,2054,2056,2056,1196
987,1711441582193388012,2054,2053,2044,2054,2048,2048,1193
988,1711441582203379163,2053,2042,2025,2049,2051,2050,1196
989,1711441582213363280,2064,2065,2163,2064,2052,2057,1198
990,1711441582223364670,2053,2035,2068,2060,2058,2054,1198
991,1711441582233378735,2057,2057,2038,2052,2059,2053,1196
992,1711441582243409242,2060,2053,2036,2055,2042,2056,1196
993,1711441582253401244,2062,2068,2133,2068,2060,2056,1199
994,1711441582263378057,2052,2026,2038,2059,2059,2054,1198
995,1711441582273387753,2058,2040,2043,2056,2057,2056,1197
996,1711441582283367181,2056,2050,2006,2056,2034,2052,1196
997,1711441582293392999,2060,2054,1996,2051,2049,2056,1197
998,1711441582303376044,2068,2068,2101,2050,2057,2056,1195
999,1711441582313376953,2048,2039,2027,2052,2050,2051,1196
1000,1711441582323379877,2054,2060,2062,2060,2058,2052,1196
1001,1711441582333378542,2052,2072,2058,2052,2049,2052,1197
1002,1711441582343384070,2068,2066,2050,2066,2064,2059,1193
1003,1711441582353379660,2054,2054,2078,2060,2053,2054,1196
1004,1711441582363369317,2057,2064,2058,2057,2049,2058,1196
1005,1711441582373371950,2046,2036,2010,2060,2056,2053,1196
1006,1711441582383369412,2056,2047,2017,2047,2042,2059,1196
1007,1711441582393368198,2056,2073,2049,2048,2035,2049,1197
1008,1711441582403391981,2059,2056,2042,2059,2053,2053,1196
1009,1711441582413376850,2053,2045,2026,2058,2050,2053,1197
1010,1711441582423365676,2064,2073,2090,2060,2060,2059,1196
1011,1711441582433364211,2054,2052,2113,2056,2059,2063,1197
1012,1711441582443376122,2066,2073,2115,2065,2058,2059,1197
1013,1711441582453371411,2047,2054,2021,2056,2060,2050,1196
1014,1711441582463377680,2059,2054,2066,2058,2050,2051,1197
1015,1711441582473379111,2056,2054,2047,2053,2049,2057,1197
1016,1711441582483368979,2061,2052,2052,2053,2052,2054,1197
1017,1711441582493388324,2057,2064,2101,2058,2054,2055,1197
1018,1711441582503367311,2062,2068,2138,2066,2056,2057,1196
1019,1711441582513384262,2054,2056,2037,2072,2057,2056,1195
1020,1711441582523377767,2060,2076,2056,2066,2056,2054,1195
1021,1711441582533372505,2051,2047,2047,2046,2043,2050,1197
1022,1711441582543399715,2056,2054,2063,2044,2048,2052,1195
1023,1711441582553377570,2053,2044,2032,2056,2050,2054,1198
1024,1711441582563376886,2054,2056,2088,2052,2048,2050,1198
1025,1711441582573379088,2056,2052,2057,2046,2028,2047,1194
1026,1711441582583376230,2052,2029,2016,2053,2047,2052,1196
1027,1711441582593390516,2059,2063,2105,2059,2042,2056,1198
1028,1711441582603371687,2056,2056,2067,2067,2056,2052,1196
1029,1711441582613375162,2053,2049,2040,2045,2054,2052,1196
1030,1711441582623361943,2047,2042,2020,2053,2048,2048,1197
1031,1711441582633379035,2051,2052,2033,2058,2045,2054,1196
1032,1711441582643396796,2048,2020,2027,2047,2052,2053,1196
1033,1711441582653365704,2056,2044,2080,2058,2050,2056,1199
1034,1711441582663362986,2055,2048,2049,2049,2052,2052,1196
1035,1711441582673363285,2058,2056,2036,2046,2048,2057,1196
1036,1711441582683393811,2050,2032,2033,2046,2044,2050,1197
1037,1711441582693404901,2059,2068,2122,2063,2055,2053,1197
1038,1711441582703371193,2061,2060,2063,2050,2037,2057,1197
1039,1711441582713368736,2059,2040,2002,2052,2041,2053,1197
1040,1711441582723374254,2053,2046,2040,2053,2052,2054,1197
1041,1711441582733364313,2061,2072,2069,2052,2054,2053,1197
1042,1711441582743385431,2060,2068,2062,2058,2053,2053,1195
1043,1711441582753353869,2053,2058,2043,2052,2052,2053,1195
1044,1711441582763367592,2060,2056,2096,2060,2056,2056,1195
1045,1711441582773363743,2057,2040,2018,2062,2045,2056,1196
1046,1711441582783368199,2053,2045,2027,2050,2040,2053,1195
1047,1711441582793390140,2051,2047,2036,2053,2059,2052,1196
1048,1711441582803365249,2056,2053,2040,2052,2051,2054,1195
1049,1711441582813365107,2056,2064,2080,2077,2069,2050,1195
1050,1711441582823369001,2059,2053,2026,2053,2052,2052,1197
1051,1711441582833365483,2058,2038,2044,2064,2064,2056,1197
1052,1711441582843379437,2058,2042,2108,2056,2052,2058,1197
1053,1711441582853367883,2058,2064,2104,2049,2043,2051,1198
1054,1711441582863366798,2053,2056,2074,2052,2056,2054,1195
1055,1711441582873368500,2058,2056,2042,2065,2067,2056,1198
1056,1711441582883371703,2058,2058,2054,2058,2050,2056,1197
1057,1711441582893376671,2052,2056,2034,2052,2044,2050,1197
1058,1711441582903368763,2058,2058,2043,2060,2054,2054,1197
1059,1711441582913367288,2056,2044,2054,2059,2049,2047,1195
1060,1711441582923367666,2058,2068,2085,2052,2058,2059,1196
1061,1711441582933366883,2051,2052,2072,2049,2046,2045,1194
1062,1711441582943372841,2060,2072,2122,2062,2062,2055,1197
1063,1711441582953355827,2053,2054,2057,2056,2054,2054,1197
1064,1711441582963364170,2057,2040,2030,2056,2049,2053,1197
1065,1711441582973360291,2056,2060,2041,2085,2081,2060,1198
1066,1711441582983366540,2056,2056,2034,2062,2062,2055,1195
1067,1711441582993368983,2052,2042,2038,2057,2062,2053,1197
1068,1711441583003378298,2052,2045,2072,2053,2047,2053,1195
1069,1711441583013363898,2050,2019,2044,2050,2054,2055,1196
1070,1711441583023359185,2066,2059,2153,2064,2058,2056,1196
1071,1711441583033399760,2053,2043,2002,2052,2043,2045,1194
1072,1711441583043365962,2056,2060,2082,2060,2058,2056,1196
1073,1711441583053358495,2049,2039,2029,2055,2060,2052,1198
1074,1711441583063363912,2050,2040,2028,2046,2054,2052,1195
1075,1711441583073367004,2061,2061,2040,2033,2038,2051,1197
1076,1711441583083364206,2049,2020,2015,2049,2045,2054,1197
1077,1711441583093419700,2056,2029,2040,2050,2048,2048,1197
1078,1711441583103360763,2056,2046,2015,2056,2056,2056,1199
1079,1711441583113382402,2053,2054,2031,2042,2048,2052,1196
1080,1711441583123369704,2064,2057,2042,2066,2076,2062,1197
1081,1711441583133375712,2056,2052,2057,2054,2056,2053,1196
1082,1711441583143386079,2053,2049,2059,2050,2053,2054,1196
1083,1711441583153372800,2057,2080,2058,2056,2060,2056,1195
1084,1711441583163369030,2056,2072,2114,2059,2054,2056,1199
1085,1711441583173364879,2053,2043,2006,2046,2046,2049,1195
1086,1711441583183366188,2056,2052,2050,2053,2043,2047,1195
1087,1711441583193367507,2051,2047,2035,2072,2070,2053,1196
1088,1711441583203364558,2064,2072,2121,2064,2052,2053,1194
1089,1711441583213367600,2052,2047,2047,2056,2047,2052,1195
1090,1711441583223364381,2058,2044,2136,2060,2047,2057,1196
1091,1711441583233363146,2052,2028,2040,2068,2065,2060,1196
1092,1711441583243375787,2060,2053,2035,2058,2056,2052,1199
1093,1711441583253356576,2056,2051,2048,2061,2051,2056,1198
1094,1711441583263360280,2058,2063,2059,2058,2060,2057,1197
1095,1711441583273364385,2056,2050,2045,2062,2061,2060,1196
1096,1711441583283367759,2056,2053,2093,2077,2052,2052,1197
1097,1711441583293363377,2061,2063,2014,2060,2060,2057,1197
1098,1711441583303363995,2059,2049,2010,2058,2052,2052,1197
1099,1711441583313362549,2052,2056,2056,2053,2053,2056,1198
1100,1711441583323366473,2057,2065,2109,2061,2056,2053,1197
1101,1711441583333367121,2053,2040,2041,2051,2041,2050,1197
1102,1711441583343366757,2063,2042,2038,2056,2045,2059,1196
1103,1711441583353359230,2060,2068,2100,2061,2045,2051,1195
1104,1711441583363370699,2056,2048,2017,2057,2044,2051,1197
1105,1711441583373363822,2058,2049,2044,2050,2053,2053,1196
1106,1711441583383363979,2052,2036,2034,2053,2042,2050,1196
1107,1711441583393375358,2057,2070,2074,2056,2075,2058,1196
1108,1711441583403365636,2050,2037,2029,2047,2045,2052,1195
1109,1711441583413367517,2062,2075,2069,2055,2047,2056,1195
1110,1711441583423367543,2052,2047,2036,2053,2056,2054,1197
1111,1711441583433373041,2057,2049,2020,2050,2055,2052,1197
1112,1711441583443405720,2057,2058,2102,2064,2058,2054,1196
1113,1711441583453348216,2054,2051,2042,2065,2057,2060,1198
1114,1711441583463371147,2056,2051,2066,2053,2056,2054,1196
1115,1711441583473370924,2056,2061,2156,2061,2060,2055,1197
1116,1711441583483371832,2056,2058,2065,2056,2045,2052,1197
1117,1711441583493389323,2046,2037,2000,2052,2043,2048,1196
1118,1711441583503373519,2064,2077,2110,2055,2040,2056,1197
1119,1711441583513349629,2052,2052,2075,2049,2043,2052,1197
1120,1711441583523382300,2048,2047,2030,2043,2043,2049,1197
1121,1711441583533380644,2059,2079,2141,2062,2049,2056,1197
1122,1711441583543378396,2060,2049,2043,2050,2045,2053,1195
1123,1711441583553376238,2049,2051,2049,2059,2048,2052,1195
1124,1711441583563359863,2053,2046,2038,2044,2044,2049,1197
1125,1711441583573362745,2056,2058,2059,2050,2050,2054,1196
1126,1711441583583380367,2060,2043,2001,2064,2057,2056,1197
1127,1711441583593398279,2056,2070,2072,2049,2046,2056,1198
1128,1711441583603361734,2059,2042,2032,2050,2054,2054,1196
1129,1711441583613363044,2059,2052,2071,2055,2050,2054,1196
1130,1711441583623403969,2059,2037,2051,2068,2065,2053,1196
1131,1711441583633384689,2047,2035,2053,2061,2056,2052,1196
1132,1711441583643357333,2065,2089,2170,2072,2053,2056,1197
1133,1711441583653362330,2060,2056,2053,2058,2060,2058,1198
1134,1711441583663360152,2052,2042,2034,2061,2056,2050,1197
1135,1711441583673370960,2056,2037,2060,2055,2053,2052,1197
1136,1711441583683361287,2056,2040,2076,2062,2059,2055,1199
1137,1711441583693370692,2051,2044,2041,2060,2067,2056,1195
1138,1711441583703368636,2056,2052,2028,2058,2062,2057,1197
1139,1711441583713365717,2056,2072,2076,2057,2054,2052,1198
1140,1711441583723359552,2052,2043,2008,2069,2060,2053,1198
1141,1711441583733376261,2047,2028,2004,2050,2040,2047,1195
1142,1711441583743369594,2062,2064,2061,2064,2057,2059,1194
1143,1711441583753363519,2046,2045,2044,2048,2045,2052,1197
1144,1711441583763359198,2058,2060,2055,2059,2056,2056,1196
1145,1711441583773359806,2050,2047,2046,2038,2029,2050,1197
1146,1711441583783360414,2061,2056,2047,2084,2050,2053,1198
1147,1711441583793367174,2055,2056,2055,2043,2049,2055,1198
1148,1711441583803367080,2060,2074,2052,2046,2049,2054,1197
1149,1711441583813370283,2064,2064,2108,2056,2058,2053,1195
1150,1711441583823371803,2053,2047,2031,2054,2052,2054,1196
1151,1711441583833362262,2058,2058,2037,2063,2044,2057,1196
1152,1711441583843369182,2052,2045,2040,2056,2054,2056,1198
1153,1711441583853367175,2054,2056,2037,2056,2053,2051,1197
1154,1711441583863370047,2046,2032,2028,2054,2050,2052,1200
1155,1711441583873366076,2056,2056,2074,2057,2056,2051,1198
1156,1711441583883372075,2054,2042,2012,2049,2047,2050,1197
1157,1711441583893427509,2043,2032,2010,2044,2049,2050,1198
1158,1711441583903361177,2050,2042,2044,2053,2050,2051,1198
1159,1711441583913372335,2053,2049,2064,2053,2040,2045,1194
1160,1711441583923376270,2060,2062,2058,2056,2056,2061,1197
1161,1711441583933369533,2053,2056,2064,2050,2033,2049,1198
1162,1711441583943381734,2061,2069,2038,2050,2051,2056,1193
1163,1711441583953394376,2056,2066,2093,2053,2052,2056,1195
1164,1711441583963365566,2052,2043,2041,2049,2053,2053,1195
1165,1711441583973363860,2056,2053,2047,2077,2076,2057,1195
1166,1711441583983380789,2053,2044,2010,2060,2058,2049,1196
1167,1711441583993342281,2054,2056,2075,2058,2051,2052,1198
1168,1711441584003359311,2064,2074,2074,2062,2059,2058,1198
1169,1711441584013370729,2063,2083,2070,2060,2061,2054,1197
1170,1711441584023380534,2058,2053,2056,2074,2061,2057,1197
1171,1711441584033370721,2056,2043,2039,2033,2051,2049,1197
1172,1711441584043371438,2052,2045,2026,2030,2047,2052,1196
1173,1711441584053362687,2052,2043,1989,2063,2068,2053,1199
1174,1711441584063363585,2060,2074,2106,2067,2064,2055,1198
1175,1711441584073362679,2058,2056,2067,2056,2056,2052,1197
1176,1711441584083366632,2056,2056,2054,2058,2052,2053,1195
1177,1711441584093376518,2056,2046,2037,2057,2056,2049,1197
1178,1711441584103382876,2061,2064,2105,2058,2054,2055,1196
1179,1711441584113367011,2052,2058,2132,2061,2061,2058,1197
1180,1711441584123369131,2056,2064,2052,2059,2051,2062,1198
1181,1711441584133375329,2052,2056,2085,2036,2043,2048,1198
1182,1711441584143380815,2057,2054,2070,2068,2061,2052,1195
1183,1711441584153365542,2052,2082,2054,2056,2045,2050,1199
1184,1711441584163370226,2053,2045,2044,2061,2059,2054,1197
1185,1711441584173369751,2058,2072,2098,2054,2058,2052,1199
1186,1711441584183373324,2056,2061,2080,2064,2056,2058,1197
1187,1711441584193375063,2053,2048,2056,2052,2053,2052,1196
1188,1711441584203371082,2056,2038,2106,2059,2069,2052,1197
1189,1711441584213375877,2052,2031,2043,2053,2040,2046,1194
1190,1711441584223387004,2056,2052,2036,2058,2056,2059,1198
1191,1711441584233382833,2052,2041,2046,2049,2056,2053,1197
1192,1711441584243407927,2057,2051,2060,2058,2056,2056,1197
1193,1711441584253385388,2066,2072,2100,2054,2054,2057,1200
1194,1711441584263389723,2050,2031,2041,2052,2038,2053,1197
1195,1711441584273366905,2056,2044,2037,2056,2054,2059,1197
1196,1711441584283360598,2056,2052,2041,2055,2044,2056,1200
1197,1711441584293388609,2060,2064,2102,2057,2045,2051,1197
1198,1711441584303372233,2056,2049,2046,2051,2047,2053,1197
1199,1711441584313365655,2056,2053,2046,2051,2047,2050,1197
1200,1711441584323385581,2052,2052,2046,2054,2053,2054,1197
1201,1711441584333373944,2058,2053,2038,2059,2044,2053,1196
1202,1711441584343383538,2056,2036,2060,2053,2059,2058,1193
1203,1711441584353357794,2056,2037,2042,2068,2051,2052,1195
1204,1711441584363362850,2056,2051,2031,2049,2054,2052,1197
1205,1711441584373365841,2056,2060,2042,2056,2068,2050,1195
1206,1711441584383365307,2055,2053,2042,2066,2047,2052,1196
1207,1711441584393388858,2058,2068,2113,2064,2061,2059,1197
1208,1711441584403368253,2052,2046,2029,2053,2050,2052,1197
1209,1711441584413368731,2057,2076,2075,2059,2042,2050,1196
1210,1711441584423369678,2055,2060,2073,2061,2053,2052,1195
1211,1711441584433365626,2050,2051,2036,2052,2070,2058,1198
1212,1711441584443393937,2053,2049,2031,2065,2040,2049,1196
1213,1711441584453364866,2053,2056,2044,2052,2045,2056,1197
1214,1711441584463359221,2052,2046,2033,2058,2050,2050,1196
1215,1711441584473353306,2056,2056,2050,2050,2058,2057,1197
1216,1711441584483366377,2063,2080,2166,2068,2056,2056,1199
1217,1711441584493384808,2054,2043,2098,2055,2049,2052,1197
1218,1711441584503382029,2056,2042,2034,2057,2056,2051,1196
1219,1711441584513363619,2048,2047,2057,2049,2044,2048,1199
1220,1711441584523383243,2056,2049,2033,2067,2060,2059,1198
1221,1711441584533374522,2056,2068,2045,2055,2048,2053,1198
1222,1711441584543379367,2062,2051,2050,2041,2048,2054,1195
1223,1711441584553359084,2051,2052,2060,2039,2055,2047,1195
1224,1711441584563376384,2056,2068,2037,2049,2040,2052,1195
1225,1711441584573365498,2053,2045,2048,2054,2064,2056,1196
1226,1711441584583366606,2057,2053,2051,2049,2050,2054,1197
1227,1711441584593372975,2057,2100,2136,2056,2049,2052,1196
1228,1711441584603354043,2051,2038,2014,2057,2049,2050,1196
1229,1711441584613366885,2056,2062,2064,2057,2062,2059,1197
1230,1711441584623363564,2056,2056,2051,2051,2046,2052,1199
1231,1711441584633372276,2056,2050,2080,2056,2061,2053,1196
1232,1711441584643383404,2052,2052,2095,2047,2050,2057,1198
1233,1711441584653373411,2056,2037,2040,2057,2052,2056,1196
1234,1711441584663360952,2057,2021,2040,2058,2059,2056,1198
1235,1711441584673359516,2059,2042,2046,2052,2057,2052,1198
1236,1711441584683361325,2058,2060,2125,2066,2059,2057,1196
1237,1711441584693398783,2053,2051,2040,2055,2050,2050,1198
1238,1711441584703365004,2052,2040,2020,2056,2050,2053,1198
1239,1711441584713362765,2061,2072,2076,2058,2055,2052,1196
1240,1711441584723378531,2055,2043,2032,2060,2056,2058,1196
1241,1711441584733364741,2048,2036,2037,2053,2053,2052,1196
1242,1711441584743389715,2056,2050,2042,2057,2061,2056,1195
1243,1711441584753360925,2061,2058,2045,2056,2058,2053,1198
1244,1711441584763365911,2054,2040,2021,2056,2044,2056,1198
1245,1711441584773364464,2056,2056,2050,2051,2049,2059,1196
1246,1711441584783360832,2054,2056,2101,2068,2054,2054,1196
1247,1711441584793366189,2056,2054,2038,2055,2052,2058,1197
1248,1711441584803367707,2058,2054,2056,2054,2050,2052,1196
1249,1711441584813357944,2055,2052,2050,2056,2058,2053,1196
1250,1711441584823375905,2060,2051,2056,2054,2047,2050,1196
1251,1711441584833370380,2050,2047,2040,2054,2056,2049,1195
1252,1711441584843378401,2062,2072,2161,2056,2053,2052,1196
1253,1711441584853362517,2050,2025,2028,2058,2053,2052,1197
1254,1711441584863362533,2066,2075,2104,2061,2052,2057,1197
1255,1711441584873365614,2049,2051,2053,2057,2050,2052,1197
1256,1711441584883367003,2058,2101,2113,2058,2057,2052,1196
1257,1711441584893382369,2049,2047,2046,2052,2055,2052,1199
1258,1711441584903381092,2060,2069,2047,2065,2054,2058,1196
1259,1711441584913357563,2057,2061,2045,2051,2056,2053,1195
1260,1711441584923387155,2057,2054,2078,2053,2050,2056,1197
1261,1711441584933369326,2053,2046,2026,2056,2065,2048,1198
1262,1711441584943381887,2052,2067,2022,2065,2057,2052,1196
1263,1711441584953372956,2055,2052,2031,2051,2064,2053,1196
1264,1711441584963359435,2059,2050,2036,2060,2057,2058,1196
1265,1711441584973375933,2058,2052,2048,2053,2062,2052,1195
1266,1711441584983368404,2053,2041,2009,2045,2053,2051,1195
1267,1711441584993394311,2056,2050,2021,2053,2056,2058,1198
1268,1711441585003361933,2053,2041,2019,2057,2045,2052,1196
1269,1711441585013364553,2060,2088,2085,2056,2057,2059,1197
1270,1711441585023364818,2046,2043,2046,2053,2044,2052,1196
1271,1711441585033363902,2048,2046,2021,2052,2057,2048,1196
1272,1711441585043375769,2060,2068,2064,2064,2060,2058,1200
1273,1711441585053368230,2052,2048,2053,2054,2056,2053,1197
1274,1711441585063371832,2056,2056,2064,2068,2050,2054,1196
1275,1711441585073370995,2052,2047,2026,2056,2046,2054,1197
1276,1711441585083372142,2052,2047,2018,2053,2046,2050,1198
1277,1711441585093402707,2054,2073,2060,2054,2051,2053,1198
1278,1711441585103382973,2060,2044,2024,2052,2053,2053,1199
1279,1711441585113373049,2059,2081,2060,2057,2052,2053,1198
1280,1711441585123372282,2054,2051,2048,2049,2041,2051,1197
1281,1711441585133377518,2053,2052,2063,2054,2050,2052,1197
1282,1711441585143415696,2054,2040,2026,2067,2055,2052,1195
1283,1711441585153379171,2051,2056,2060,2052,2053,2053,1197
1284,1711441585163376310,2058,2044,2032,2056,2051,2056,1197
1285,1711441585173360544,2056,2052,2047,2041,2054,2059,1198
1286,1711441585183360900,2053,2037,2031,2064,2058,2053,1198
1287,1711441585193380122,2056,2047,2040,2068,2062,2053,1197
1288,1711441585203382862,2056,2049,2031,2057,2069,2054,1197
1289,1711441585213364061,2048,2015,2030,2046,2056,2053,1196
1290,1711441585223386289,2057,2047,2063,2056,2056,2056,1198
1291,1711441585233365914,2047,2036,2017,2044,2046,2055,1196
1292,1711441585243367322,2049,2042,2022,2060,2060,2056,1199
1293,1711441585253360664,2056,2057,2046,2049,2049,2056,1198
1294,1711441585263366741,2052,2061,2026,2057,2042,2052,1197
1295,1711441585273361155,2046,2022,2061,2049,2045,2050,1200
1296,1711441585283394725,2049,2032,2045,2061,2060,2050,1198
1297,1711441585293364732,2051,2042,2001,2044,2048,2050,1197
1298,1711441585303388814,2060,2064,2071,2054,2057,2055,1195
1299,1711441585313359041,2053,2051,2056,2048,2052,2052,1199
1300,1711441585323363334,2057,2058,2072,2056,2056,2054,1196
1301,1711441585333374090,2056,2051,2056,2048,2047,2051,1198
1302,1711441585343373604,2054,2018,2032,2065,2043,2054,1196
1303,1711441585353368769,2054,2055,2049,2052,2047,2052,1197
1304,1711441585363363855,2047,2045,2044,2042,2046,2052,1196
1305,1711441585373365062,2064,2085,2162,2059,2054,2057,1197
1306,1711441585383373123,2060,2061,2114,2061,2057,2054,1193
1307,1711441585393368198,2045,2037,2021,2053,2046,2047,1194
1308,1711441585403362312,2058,2056,2034,2068,2066,2056,1198
1309,1711441585413370462,2056,2061,2066,2058,2058,2055,1195
1310,1711441585423375998,2060,2080,2073,2056,2056,2060,1194
1311,1711441585433377636,2053,2045,2031,2042,2054,2053,1197
1312,1711441585443366329,2058,2040,2034,2050,2045,2060,1196
1313,1711441585453354351,2058,2042,2047,2053,2052,2053,1196
1314,1711441585463357602,2058,2051,2105,2058,2047,2051,1196
1315,1711441585473355684,2054,2053,2061,2056,2036,2052,1197
1316,1711441585483351350,2056,2047,1998,2059,2062,2057,1196
1317,1711441585493377917,2050,2050,2047,2052,2056,2053,1198
1318,1711441585503360237,2061,2069,2108,2064,2056,2057,1198
1319,1711441585513360163,2054,2047,2002,2056,2053,2054,1197
1320,1711441585523380576,2049,2030,1992,2042,2042,2050,1196
1321,1711441585533367266,2048,2034,2009,2053,2046,2050,1198
1322,1711441585543360948,2054,2042,2018,2056,2052,2050,1196
1323,1711441585553364030,2056,2048,2060,2052,2046,2051,1196
1324,1711441585563364485,2056,2043,2036,2064,2052,2056,1197
1325,1711441585573376013,2056,2077,2106,2052,2047,2051,1196
1326,1711441585583369274,2058,2013,2020,2069,2062,2058,1196
1327,1711441585593344742,2052,2031,2036,2052,2057,2053,1198
1328,1711441585603375887,2056,2050,2046,2056,2044,2056,1195
1329,1711441585613370442,2060,2056,2048,2067,2062,2056,1197
1330,1711441585623396537,2060,2062,2038,2058,2056,2052,1198
1331,1711441585633566090,2049,2044,2053,2042,2050,2056,1196
1332,1711441585643377670,2052,2041,2040,2058,2057,2056,1198
1333,1711441585653363468,2053,2074,2069,2052,2042,2052,1198
1334,1711441585663366038,2054,2044,2049,2054,2036,2046,1196
1335,1711441585673391823,2057,2047,1991,2062,2052,2052,1199
1336,1711441585683369955,2057,2054,2044,2057,2058,2054,1196
1337,1711441585693379970,2053,2046,2033,2052,2055,2052,1197
1338,1711441585703327904,2055,2060,2045,2054,2052,2054,1199
1339,1711441585713372826,2056,2067,2068,2048,2046,2052,1197
1340,1711441585723377680,2057,2069,2042,2058,2056,2054,1197
1341,1711441585733394628,2052,2044,2046,2052,2057,2053,1197
1342,1711441585743375706,2057,2056,2054,2057,2049,2056,1196
1343,1711441585753375280,2050,2037,2026,2048,2054,2050,1196
1344,1711441585763376358,2057,2059,2097,2053,2052,2052,1195
1345,1711441585773393455,2060,2062,2102,2053,2060,2056,1197
1346,1711441585783400895,2061,2075,2047,2046,2032,2050,1196
1347,1711441585793398144,2056,2045,2042,2052,2052,2052,1197
1348,1711441585803384453,2052,2048,2064,2054,2050,2056,1197
1349,1711441585813385830,2056,2064,2087,2058,2056,2054,1196
1350,1711441585823402939,2056,2062,2058,2074,2079,2058,1197
1351,1711441585833385800,2054,2088,2057,2052,2052,2052,1195
1352,1711441585843385164,2056,2054,2057,2054,2052,2055,1197
1353,1711441585853385900,2056,2058,2058,2060,2059,2057,1196
1354,1711441585863385415,2058,2054,2028,2058,2052,2053,1196
1355,1711441585873391481,2050,2039,2028,2052,2053,2056,1197
1356,1711441585883369624,2057,2053,2067,2062,2069,2052,1198
1357,1711441585893372033,2054,2056,2083,2056,2061,2054,1197
1358,1711441585903373081,2060,2093,2064,2053,2051,2056,1197
1359,1711441585913375810,2052,2047,2037,2048,2050,2052,1196
1360,1711441585923372790,2056,2064,2048,2058,2056,2050,1197
1361,1711441585933377443,2060,2061,2091,2057,2050,2052,1199
1362,1711441585943377228,2048,2041,2034,2064,2060,2053,1196
1363,1711441585953368908,2048,2034,2008,2044,2056,2055,1197
1364,1711441585963373130,2057,2069,2064,2056,2053,2054,1196
1365,1711441585973393715,2049,2022,2015,2046,2042,2052,1198
1366,1711441585983369884,2056,2034,2024,2049,2050,2056,1200
1367,1711441585993371703,2048,2043,2072,2044,2045,2054,1197
1368,1711441586003356538,2050,2044,2032,2050,2057,2054,1195
1369,1711441586013362173,2052,2047,2045,2060,2056,2049,1197
1370,1711441586023369401,2049,2042,2028,2045,2046,2052,1194
1371,1711441586033368363,2058,2062,2034,2053,2060,2056,1196
1372,1711441586043369880,2056,2056,2011,2046,2042,2047,1194
1373,1711441586053363803,2053,2056,2050,2049,2056,2052,1198
1374,1711441586063373305,2052,2052,2037,2056,2062,2051,1197
1375,1711441586073371165,2053,2048,2041,2050,2055,2054,1197
1376,1711441586083369215,2048,2057,2072,2050,2053,2051,1196
1377,1711441586093379890,2056,2051,2035,2053,2054,2053,1199
1378,1711441586103365536,2057,2051,2044,2067,2064,2053,1196
1379,1711441586113366422,2052,2062,2041,2052,2059,2043,1194
1380,1711441586123387606,2059,2050,2024,2042,2046,2050,1197
1381,1711441586133380978,2052,2050,2062,2052,2053,2050,1196
1382,1711441586143363398,2048,2040,2024,2048,2045,2051,1196
1383,1711441586153365276,2052,2045,2031,2055,2058,2050,1198
1384,1711441586163362053,2056,2045,2015,2057,2052,2050,1195
1385,1711441586173372548,2067,2100,2109,2061,2057,2057,1195
1386,1711441586183380578,2056,2041,2015,2049,2051,2051,1194
1387,1711441586193364711,2052,2054,2026,2048,2059,2049,1197
1388,1711441586203372470,2061,2051,2053,2057,2052,2054,1197
1389,1711441586213362515,2048,2040,2034,2049,2056,2052,1199
1390,1711441586223383429,2056,2046,2015,2056,2061,2054,1197
1391,1711441586233434702,2054,2053,2049,2055,2054,2052,1198
1392,1711441586243358348,2066,2075,2102,2069,2060,2062,1199
1393,1711441586253363483,2054,2025,2024,2073,2067,2053,1200
1394,1711441586263359088,2045,2027,2035,2056,2058,2052,1196
1395,1711441586273359172,2058,2047,2037,2053,2044,2055,1198
1396,1711441586283387121,2056,2047,2064,2057,2047,2053,1197
1397,1711441586293365974,2054,2049,2062,2053,2052,2049,1197
1398,1711441586303360116,2061,2060,2033,2057,2052,2056,1197
1399,1711441586313359619,2056,2047,2098,2053,2053,2052,1196
1400,1711441586323393268,2056,2039,2038,2053,2049,2050,1197
1401,1711441586333361721,2055,2052,2058,2051,2052,2053,1196
1402,1711441586343386523,2057,2068,2123,2060,2056,2056,1196
1403,1711441586353366269,2057,2062,2064,2054,2052,2051,1198
1404,1711441586363368677,2056,2067,2034,2058,2050,2054,1196
1405,1711441586373367158,2051,2048,2039,2050,2050,2050,1197
1406,1711441586383381580,2052,2044,2033,2051,2050,2055,1198
1407,1711441586393372617,2053,2052,2033,2054,2060,2056,1198
1408,1711441586403363563,2054,2045,2026,2056,2053,2053,1197
1409,1711441586413360411,2052,2047,2040,2054,2054,2052,1199
1410,1711441586423393570,2053,2026,2000,2061,2060,2056,1197
1411,1711441586433365479,2051,2037,2033,2052,2054,2056,1197
1412,1711441586443367447,2042,2047,2053,2052,2047,2045,1194
1413,1711441586453364976,2056,2066,2110,2058,2068,2057,1199
1414,1711441586463360482,2049,2040,2042,2065,2073,2055,1198
1415,1711441586473365866,2052,2057,2011,2052,2050,2052,1196
1416,1711441586483363957,2053,2058,2066,2047,2053,2053,1197
1417,1711441586493361857,2060,2098,2120,2062,2047,2052,1198
1418,1711441586503325129,2049,2049,2061,2057,2044,2052,1197
1419,1711441586513393706,2057,2054,2054,2056,2056,2060,1198
1420,1711441586523387829,2062,2062,2093,2063,2056,2053,1198
1421,1711441586533381832,2052,2044,2088,2048,2046,2050,1197
1422,1711441586543364201,2057,2077,2061,2058,2056,2055,1195
1423,1711441586553369616,2056,2043,2016,2060,2052,2050,1196
1424,1711441586563365973,2053,2044,2021,2053,2050,2056,1196
1425,1711441586573406224,2048,2048,2041,2052,2057,2053,1197
1426,1711441586583374838,2074,2117,2169,2079,2058,2056,1196
1427,1711441586593368610,2052,2045,2024,2054,2060,2051,1196
1428,1711441586603363234,2050,2047,2019,2052,2052,2052,1197
1429,1711441586613363548,2060,2052,2032,2054,2053,2054,1197
1430,1711441586623385365,2057,2056,2053,2052,2061,2058,1198
1431,1711441586633375430,2052,2046,2024,2057,2060,2052,1197
1432,1711441586643381194,2065,2097,2161,2072,2060,2058,1196
1433,1711441586653366831,2046,2041,2015,2052,2052,2045,1196
1434,1711441586663367476,2050,2049,2041,2056,2052,2054,1197
1435,1711441586673385074,2057,2081,2068,2058,2064,2056,1197
1436,1711441586683378946,2050,2048,2043,2053,2058,2052,1195
1437,1711441586693368891,2054,2053,2029,2049,2052,2051,1198
1438,1711441586703369656,2059,2072,2037,2060,2062,2056,1196
1439,1711441586713370322,2054,2060,2123,2053,2053,2052,1197
1440,1711441586723413289,2050,2045,2035,2056,2058,2054,1197
1441,1711441586733381462,2055,2073,2074,2056,2056,2056,1195
1442,1711441586743369483,2058,2053,2044,2056,2052,2051,1194
1443,1711441586753373454,2056,2048,2044,2054,2053,2053,1197
1444,1711441586763374299,2057,2055,2045,2053,2050,2056,1198
1445,1711441586773384253,2058,2063,2168,2060,2054,2053,1196
1446,1711441586783375240,2056,2053,2041,2055,2059,2054,1197
1447,1711441586793375164,2050,2041,2032,2054,2058,2052,1196
1448,1711441586803360088,2068,2049,2052,2056,2053,2058,1196
1449,1711441586813361435,2059,2061,2093,2056,2053,2056,1198
1450,1711441586823383452,2058,2049,2022,2054,2052,2059,1196
1451,1711441586833383075,2056,2052,2047,2050,2061,2057,1200
1452,1711441586843358742,2064,2064,2039,2056,2048,2051,1199
1453,1711441586853381510,2050,2049,2037,2052,2052,2050,1196
1454,1711441586863378758,2061,2084,2080,2053,2052,2053,1197
1455,1711441586873389513,2057,2058,2043,2058,2053,2054,1198
1456,1711441586883358177,2059,2066,2085,2061,2056,2053,1197
1457,1711441586893363902,2056,2052,2044,2056,2049,2054,1196
1458,1711441586903362323,2057,2054,2054,2056,2056,2050,1196
1459,1711441586913361966,2059,2065,2062,2065,2069,2051,1195
1460,1711441586923394333,2057,2048,2031,2060,2050,2050,1197
1461,1711441586933367506,2049,2042,2027,2053,2056,2052,1196
1462,1711441586943368291,2050,2038,2025,2052,2045,2053,1193
1463,1711441586953358857,2058,2037,2035,2053,2056,2053,1197
1464,1711441586963362006,2058,2057,2068,2064,2061,2056,1196
1465,1711441586973381809,2053,2048,2045,2052,2054,2053,1199
1466,1711441586983368878,2062,2061,2096,2060,2053,2056,1197
1467,1711441586993368942,2049,2039,2013,2049,2064,2049,1195
1468,1711441587003362043,2063,2081,2168,2058,2053,2060,1197
1469,1711441587013362618,2045,2025,2026,2049,2053,2052,1197
1470,1711441587023377389,2064,2065,2116,2068,2065,2056,1198
1471,1711441587033381430,2057,2069,2061,2052,2049,2053,1197
1472,1711441587043362747,2056,2066,2160,2064,2054,2050,1196
1473,1711441587053359263,2056,2056,2073,2047,2044,2053,1196
1474,1711441587063360509,2057,2050,2045,2054,2044,2057,1198
1475,1711441587073396181,2052,2018,2022,2053,2045,2052,1195
1476,1711441587083376566,2059,2058,2068,2069,2068,2060,1196
1477,1711441587093377612,2052,2041,2022,2056,2056,2057,1198
1478,1711441587103369960,2056,2052,2054,2058,2052,2055,1196
1479,1711441587113366085,2051,2052,2054,2052,2054,2053,1198
1480,1711441587123407208,2053,2048,2053,2064,2060,2056,1196
1481,1711441587133398604,2054,2056,2064,2058,2066,2058,1198
1482,1711441587143365314,2066,2078,2049,2059,2058,2056,1194
1483,1711441587153360928,2056,2065,2064,2057,2057,2051,1196
1484,1711441587163367123,2060,2056,2045,2056,2056,2052,1195
1485,1711441587173365283,2048,2044,2011,2050,2048,2056,1198
1486,1711441587183388501,2052,2036,2033,2049,2052,2050,1198
1487,1711441587193358957,2058,2042,2048,2056,2068,2057,1198
1488,1711441587203365192,2060,2053,2040,2058,2060,2057,1198
1489,1711441587213366096,2054,2052,2068,2050,2046,2052,1198
1490,1711441587223386510,2058,2056,2064,2058,2057,2053,1197
1491,1711441587233388276,2052,2049,2046,2053,2053,2050,1197
1492,1711441587243389201,2056,2041,2044,2061,2061,2054,1197
1493,1711441587253379936,2051,2040,2016,2050,2044,2052,1197
1494,1711441587263368637,2057,2053,2044,2055,2057,2058,1199
1495,1711441587273366276,2052,2048,2040,2061,2058,2058,1197
1496,1711441587283374224,2057,2056,2124,2062,2053,2054,1196
1497,1711441587293364889,2052,2039,2054,2052,2049,2056,1197
1498,1711441587303361496,2056,2046,2051,2060,2053,2054,1197
1499,1711441587313365166,2056,2045,2020,2050,2050,2052,1199
1500,1711441587323366682,2057,2056,2056,2057,2056,2054,1197
1501,1711441587333371555,2050,2050,2036,2061,2065,2056,1196
1502,1711441587343366458,2053,2049,2009,2059,2056,2056,1195
1503,1711441587353370850,2053,2043,2028,2054,2054,2056,1194
1504,1711441587363369991,2062,2093,2060,2065,2052,2051,1194
1505,1711441587373371177,2061,2069,2095,2068,2057,2056,1197
1506,1711441587383400847,2059,2060,2076,2056,2057,2053,1197
1507,1711441587393366684,2054,2049,2050,2053,2054,2051,1197
1508,1711441587403345326,2057,2045,2042,2059,2056,2055,1197
1509,1711441587413373754,2056,2034,1994,2046,2052,2052,1197
1510,1711441587423374820,2056,2036,1994,2060,2053,2053,1196
1511,1711441587433374362,2051,2038,2014,2045,2047,2052,1195
1512,1711441587443382310,2059,2072,2118,2064,2066,2054,1197
1513,1711441587453381091,2064,2075,2112,2061,2068,2057,1198
1514,1711441587463382587,2053,2047,2059,2056,2040,2052,1198
1515,1711441587473383532,2057,2066,2060,2053,2047,2053,1198
1516,1711441587483447168,2055,2028,2036,2069,2066,2051,1198
1517,1711441587493388568,2052,2040,2057,2052,2056,2054,1199
1518,1711441587503354986,2058,2050,2056,2053,2052,2052,1196
1519,1711441587513370078,2052,2056,2064,2058,2056,2053,1198
1520,1711441587523372917,2052,2047,2053,2046,2043,2050,1195
1521,1711441587533385535,2056,2050,2010,2054,2056,2053,1198
1522,1711441587543392431,2059,2066,2104,2062,2056,2054,1196
1523,1711441587553368888,2057,2060,2064,2056,2052,2054,1198
1524,1711441587563362339,2067,2089,2125,2061,2056,2056,1197
1525,1711441587573361971,2055,2051,2059,2053,2053,2057,1196
1526,1711441587583391162,2056,2050,2027,2049,2054,2054,1197
1527,1711441587593358351,2064,2069,2069,2066,2051,2057,1196
1528,1711441587603363834,2062,2056,2082,2056,2064,2056,1197
1529,1711441587613361644,2057,2098,2092,2051,2058,2052,1197
1530,1711441587623362939,2058,2048,2024,2056,2049,2052,1196
1531,1711441587633369896,2043,2032,1998,2049,2052,2053,1197
1532,1711441587643368356,2065,2059,2074,2060,2056,2054,1199
1533,1711441587653373148,2058,2056,2066,2053,2053,2052,1198
1534,1711441587663366519,2059,2064,2056,2059,2057,2058,1197
1535,1711441587673362143,2045,2044,2061,2049,2053,2047,1193
1536,1711441587683381654,2059,2075,2044,2056,2046,2050,1197
1537,1711441587693366187,2050,2039,2008,2050,2047,2052,1199
1538,1711441587703368064,2069,2102,2164,2070,2058,2056,1198
1539,1711441587713362016,2057,2058,2115,2057,2053,2056,1198
1540,1711441587723375645,2055,2044,2054,2058,2059,2056,1198
1541,1711441587733372522,2056,2061,2112,2056,2067,2053,1195
1542,1711441587743360993,2060,2095,2116,2065,2063,2056,1194
1543,1711441587753365725,2045,2036,2040,2048,2049,2050,1194
1544,1711441587763359356,2052,2040,2039,2053,2051,2050,1193
1545,1711441587773361894,2065,2088,2173,2067,2056,2050,1196
1546,1711441587783369221,2057,2063,2068,2065,2051,2052,1197
1547,1711441587793358203,2052,2056,2049,2054,2056,2052,1195
1548,1711441587803353717,2057,2048,2013,2064,2046,2054,1196
1549,1711441587813354443,2047,2034,1967,2050,2059,2055,1197
1550,1711441587823361790,2060,2064,2071,2057,2054,2056,1197
1551,1711441587833371391,2062,2044,2058,2053,2050,2056,1197
1552,1711441587843358590,2058,2054,2047,2049,2054,2053,1198
1553,1711441587853387478,2056,2074,2143,2059,2060,2056,1196
1554,1711441587863363566,2063,2068,2116,2067,2061,2059,1200
1555,1711441587873366114,2058,2067,2082,2061,2065,2057,1197
1556,1711441587883380444,2054,2086,2058,2064,2060,2054,1197
1557,1711441587893367813,2050,2040,2058,2049,2051,2056,1197
1558,1711441587903364319,2059,2045,2066,2053,2047,2056,1199
1559,1711441587913345035,2058,2058,2046,2050,2057,2055,1199
1560,1711441587923360759,2057,2056,2060,2058,2056,2053,1198
1561,1711441587933791545,2049,2045,2040,2051,2048,2051,1198
1562,1711441587943361257,2050,2032,2009,2050,2047,2056,1196
1563,1711441587953387861,2050,2031,2032,2050,2061,2051,1196
1564,1711441587963366181,2056,2052,2034,2056,2052,2055,1195
1565,1711441587973366997,2056,2057,2054,2056,2056,2054,1197
1566,1711441587983366388,2056,2052,2068,2062,2051,2055,1199
1567,1711441587993370690,2050,2077,2064,2048,2047,2045,1193
1568,1711441588003369510,2059,2062,2073,2056,2056,2057,1196
1569,1711441588013362890,2056,2051,2040,2054,2053,2058,1196
1570,1711441588023385916,2060,2056,2076,2061,2053,2057,1197
1571,1711441588033411438,2056,2060,2057,2052,2055,2056,1198
1572,1711441588043364258,2053,2044,2076,2060,2052,2053,1197
1573,1711441588053367307,2057,2042,2056,2053,2046,2051,1196
1574,1711441588063366838,2052,2046,2054,2052,2051,2052,1197
1575,1711441588073364446,2057,2067,2089,2058,2058,2056,1197
1576,1711441588083366843,2054,2049,2029,2062,2052,2052,1197
1577,1711441588093365752,2061,2084,2140,2063,2058,2057,1198
1578,1711441588103364893,2061,2084,2101,2063,2053,2056,1198
1579,1711441588113365025,2046,2043,2033,2050,2052,2048,1197
1580,1711441588123365539,2056,2052,2060,2054,2052,2054,1198
1581,1711441588133384318,2056,2054,2062,2055,2059,2056,1198
1582,1711441588143372076,2053,2056,2054,2057,2050,2048,1196
1583,1711441588153351879,2055,2048,2029,2053,2052,2053,1200
1584,1711441588163367251,2057,2056,2100,2059,2053,2056,1197
1585,1711441588173363596,2050,2040,2021,2056,2057,2052,1198
1586,1711441588183366504,2056,2047,2018,2060,2055,2056,1198
1587,1711441588193384952,2056,2056,2040,2058,2066,2056,1197
1588,1711441588203358934,2056,2056,2029,2058,2058,2056,1195
1589,1711441588213373244,2062,2070,2055,2056,2059,2058,1197
1590,1711441588223363968,2056,2038,2006,2061,2052,2057,1197
1591,1711441588233383848,2058,2048,2047,2051,2056,2052,1198
1592,1711441588243366377,2056,2049,2041,2058,2052,2054,1198
1593,1711441588253382350,2052,2050,2064,2056,2052,2055,1197
1594,1711441588263349749,2064,2069,2143,2076,2074,2061,1198
1595,1711441588273367847,2054,2057,2040,2053,2060,2053,1197
1596,1711441588283371957,2056,2052,2072,2059,2056,2053,1196
1597,1711441588293368673,2056,2060,2099,2058,2057,2054,1196
1598,1711441588303369476,2066,2064,2106,2064,2058,2057,1198
1599,1711441588313370431,2053,2035,2050,2054,2055,2054,1197
1600,1711441588323370573,2061,2057,2054,2062,2056,2056,1197
1601,1711441588333372880,2048,2064,2033,2056,2063,2050,1197
1602,1711441588343371370,2057,2059,2085,2065,2058,2050,1193
1603,1711441588353369337,2057,2054,2046,2048,2052,2051,1197
1604,1711441588363353299,2057,2038,2070,2052,2053,2050,1197
1605,1711441588373372618,2057,2050,2100,2053,2053,2056,1196
1606,1711441588383355888,2053,2046,2050,2057,2052,2053,1195
1607,1711441588393356482,2052,2056,2061,2056,2047,2054,1195
1608,1711441588403375350,2053,2045,2031,2050,2056,2056,1194
1609,1711441588413357679,2061,2077,2112,2056,2053,2053,1196
1610,1711441588423359704,2059,2050,2067,2061,2058,2052,1197
1611,1711441588433359005,2050,2039,2021,2050,2054,2052,1196
1612,1711441588443364287,2062,2061,2106,2060,2058,2052,1196
1613,1711441588453362637,2048,2037,2025,2052,2053,2049,1197
1614,1711441588463363751,2054,2048,2050,2058,2053,2054,1197
1615,1711441588473364825,2049,2043,2028,2052,2053,2056,1196
1616,1711441588483365048,2056,2058,2083,2060,2047,2058,1195
1617,1711441588493367936,2059,2070,2057,2060,2053,2056,1196
1618,1711441588503365914,2050,2049,2024,2050,2038,2052,1197
1619,1711441588513365836,2060,2058,2073,2051,2056,2053,1198
1620,1711441588523365297,2053,2034,1995,2054,2049,2053,1194
1621,1711441588533372504,2060,2092,2059,2056,2056,2056,1197
1622,1711441588543368809,2055,2068,2094,2065,2059,2056,1195
1623,1711441588553362800,2051,2041,2028,2044,2045,2053,1197
1624,1711441588563364725,2061,2075,2062,2058,2052,2053,1197
1625,1711441588573367864,2051,2056,2076,2047,2054,2054,1195
1626,1711441588583418524,2064,2073,2080,2061,2040,2056,1195
1627,1711441588593365073,2059,2094,2065,2055,2060,2056,1195
1628,1711441588603366548,2050,2052,2035,2062,2056,2055,1196
1629,1711441588613363444,2064,2064,2095,2058,2058,2054,1196
1630,1711441588623365470,2057,2052,2081,2052,2053,2053,1196
1631,1711441588633403896,2059,2052,2079,2065,2066,2056,1194
1632,1711441588643375093,2057,2053,2134,2071,2057,2055,1198
1633,1711441588653356990,2055,2049,2063,2058,2057,2052,1198
1634,1711441588663362734,2064,2050,2001,2062,2057,2057,1194
1635,1711441588673362225,2053,2052,2040,2057,2053,2053,1196
1636,1711441588683388047,2061,2059,2052,2062,2056,2054,1196
1637,1711441588693362500,2053,2047,2114,2057,2052,2056,1197
1638,1711441588703402249,2047,2043,2026,2052,2050,2052,1194
1639,1711441588713362645,2053,2029,2028,2051,2054,2056,1196
1640,1711441588723364711,2064,2062,2090,2060,2046,2057,1195
1641,1711441588733368911,2051,2044,2030,2048,2044,2052,1196
1642,1711441588743376148,2054,2043,2041,2056,2043,2049,1194
1643,1711441588753359507,2052,2045,2133,2050,2044,2047,1193
1644,1711441588763360532,2064,2056,2101,2067,2060,2060,1195
1645,1711441588773358930,2047,2042,2034,2052,2051,2052,1194
1646,1711441588783420021,2051,2041,2029,2057,2050,2050,1195
1647,1711441588793376530,2055,2042,2023,2056,2054,2053,1197
1648,1711441588803357655,2050,2049,2019,2059,2052,2052,1198
1649,1711441588813360222,2058,2058,2064,2047,2049,2050,1196
1650,1711441588823362639,2054,2064,2043,2057,2057,2052,1198
1651,1711441588833426706,2056,2058,2061,2057,2054,2053,1198
1652,1711441588843361481,2049,2047,2047,2063,2065,2056,1196
1653,1711441588853370992,2056,2049,2031,2045,2048,2052,1199
1654,1711441588863369902,2056,2051,2052,2051,2052,2052,1195
1655,1711441588873369103,2054,2064,2040,2049,2052,2053,1197
1656,1711441588883434572,2058,2063,2118,2060,2054,2056,1194
1657,1711441588893364989,2064,2081,2068,2063,2064,2052,1195
1658,1711441588903369671,2053,2044,2045,2055,2054,2052,1195
1659,1711441588913363260,2053,2046,2038,2052,2053,2053,1197
1660,1711441588923363643,2053,2043,2041,2052,2053,2052,1200
1661,1711441588933375138,2065,2073,2137,2061,2068,2052,1196
1662,1711441588943373467,2060,2072,2088,2059,2053,2056,1195
1663,1711441588953395402,2060,2105,2056,2052,2058,2053,1195
1664,1711441588963371898,2056,2053,2070,2053,2056,2057,1196
1665,1711441588973369426,2052,2050,2100,2051,2052,2052,1196
1666,1711441588983380018,2059,2068,2114,2059,2053,2056,1196
1667,1711441588993374310,2052,2050,2031,2044,2047,2052,1197
1668,1711441589003371777,2054,2052,2042,2056,2052,2052,1196
1669,1711441589013371298,2064,2101,2077,2064,2060,2058,1196
1670,1711441589023371429,2057,2062,2040,2056,2051,2052,1196
1671,1711441589033409704,2052,2057,2061,2054,2057,2051,1196
1672,1711441589043366582,2054,2052,2052,2063,2066,2052,1198
1673,1711441589053371924,2058,2064,2047,2057,2056,2056,1196
1674,1711441589063377937,2054,2047,2031,2059,2055,2055,1198
1675,1711441589073378189,2053,2073,2066,2052,2050,2056,1196
1676,1711441589083394492,2056,2047,2024,2059,2056,2054,1194
1677,1711441589093390986,2053,2047,2053,2046,2051,2050,1193
1678,1711441589103362382,2056,2047,2036,2061,2056,2056,1197
1679,1711441589113383825,2064,2072,2140,2058,2060,2056,1195
1680,1711441589123387864,2054,2047,2025,2054,2068,2053,1195
1681,1711441589133383637,2052,2022,2041,2052,2052,2050,1197
1682,1711441589143382586,2060,2039,2057,2057,2055,2053,1194
1683,1711441589153376957,2052,2052,2038,2057,2071,2058,1198
1684,1711441589163369885,2057,2058,2077,2068,2045,2055,1195
1685,1711441589173367531,2052,2052,2049,2050,2052,2049,1197
1686,1711441589183366771,2055,2052,2042,2056,2050,2053,1197
1687,1711441589193371551,2052,2068,2059,2053,2052,2049,1196
1688,1711441589203368076,2053,2053,2028,2060,2050,2052,1195
1689,1711441589213365783,2054,2050,2074,2056,2061,2050,1194
1690,1711441589223362979,2060,2056,2042,2058,2046,2054,1193
1691,1711441589233534392,2052,2052,2044,2049,2050,2052,1194
1692,1711441589243398821,2056,2047,2061,2057,2051,2056,1197
1693,1711441589253378283,2055,2058,2082,2053,2057,2054,1198
1694,1711441589263381550,2054,2018,2024,2056,2052,2054,1199
1695,1711441589273377644,2060,2058,2064,2057,2057,2054,1198
1696,1711441589283384408,2053,2052,2051,2050,2052,2053,1198
1697,1711441589293379951,2053,2047,2046,2052,2057,2053,1196
1698,1711441589303372609,2058,2059,2041,2058,2053,2052,1197
1699,1711441589313374854,2053,2048,2041,2053,2061,2050,1196
1700,1711441589323374184,2046,2024,2033,2058,2049,2052,1196
1701,1711441589333390928,2056,2039,2045,2056,2056,2052,1198
1702,1711441589343396610,2057,2053,2038,2062,2060,2058,1196
1703,1711441589353369479,2064,2076,2071,2055,2052,2055,1196
1704,1711441589363364581,2055,2058,2070,2060,2055,2059,1196
1705,1711441589373368740,2057,2046,2018,2048,2050,2053,1193
1706,1711441589383369062,2065,2074,2093,2068,2053,2060,1198
1707,1711441589393377590,2053,2058,2058,2056,2062,2054,1198
1708,1711441589403356060,2058,2047,2040,2056,2056,2064,1200
1709,1711441589413364898,2048,2047,2048,2051,2050,2051,1196
1710,1711441589423361262,2059,2073,2113,2059,2056,2056,1199
1711,1711441589433366845,2049,2035,2033,2053,2053,2053,1196
1712,1711441589443373999,2059,2053,2069,2063,2056,2052,1199
1713,1711441589453369211,2061,2080,2076,2053,2058,2052,1197
1714,1711441589463363933,2059,2045,2031,2058,2049,2049,1195
1715,1711441589473361199,2058,2080,2141,2060,2046,2058,1194
1716,1711441589483360729,2054,2047,2048,2056,2049,2056,1197
1717,1711441589493371751,2061,2063,2066,2052,2050,2052,1197
1718,1711441589503365321,2053,2041,2018,2055,2052,2053,1198
1719,1711441589513362416,2052,2056,2058,2049,2062,2060,1198
1720,1711441589523363500,2056,2066,2082,2066,2059,2058,1197
1721,1711441589533380564,2060,2058,2068,2054,2058,2058,1198
1722,1711441589543363432,2053,2045,2045,2056,2052,2053,1196
1723,1711441589553356500,2050,2046,2021,2064,2053,2052,1199
1724,1711441589563370799,2061,2062,2092,2054,2052,2059,1197
1725,1711441589573364147,2054,2054,2051,2053,2044,2049,1197
1726,1711441589583369629,2055,2042,1985,2048,2044,2053,1198
1727,1711441589593365483,2052,2047,2041,2052,2055,2050,1197
1728,1711441589603365033,2062,2065,2084,2064,2056,2056,1194
1729,1711441589613367079,2056,2037,2040,2052,2053,2053,1196
1730,1711441589623367431,2060,2065,2102,2060,2056,2057,1198
1731,1711441589633365739,2053,2052,2054,2049,2053,2053,1195
1732,1711441589643358025,2064,2075,2122,2072,2059,2058,1196
1733,1711441589653368227,2050,2046,2028,2054,2056,2050,1198
1734,1711441589663363198,2060,2057,2025,2060,2056,2056,1197
1735,1711441589673362387,2055,2073,2060,2052,2063,2054,1197
1736,1711441589683365916,2061,2057,2070,2054,2051,2052,1195
1737,1711441589693370366,2053,2067,2100,2053,2049,2049,1196
1738,1711441589703370958,2052,2060,2047,2056,2048,2052,1196
1739,1711441589713365428,2059,2050,2047,2058,2054,2050,1197
1740,1711441589723368927,2062,2076,2099,2066,2053,2057,1198
1741,1711441589733369520,2058,2056,2053,2053,2054,2052,1197
1742,1711441589743365593,2054,2069,2069,2057,2064,2051,1193
1743,1711441589753355715,2061,2065,2088,2057,2053,2052,1195
1744,1711441589763364443,2057,2062,2061,2061,2057,2056,1196
1745,1711441589773365397,2058,2071,2105,2056,2050,2054,1194
1746,1711441589783368704,2056,2045,2051,2052,2045,2053,1196
1747,1711441589793361842,2058,2061,2047,2053,2052,2052,1194
1748,1711441589803366262,2061,2043,2081,2064,2060,2060,1196
1749,1711441589813363829,2058,2048,2066,2054,2056,2052,1197
1750,1711441589823323071,2053,2054,2080,2056,2049,2053,1197
1751,1711441589833368139,2053,2057,2049,2054,2056,2053,1195
1752,1711441589843377900,2049,2048,2058,2052,2050,2051,1196
1753,1711441589853366249,2057,2057,2051,2054,2061,2058,1197
1754,1711441589863369606,2056,2072,2127,2055,2056,2058,1197
1755,1711441589873364397,2050,2071,2100,2060,2056,2051,1195
1756,1711441589883364970,2056,2078,2048,2056,2050,2056,1196
1757,1711441589893366464,2052,2050,2040,2055,2054,2053,1197
1758,1711441589903366135,2053,2048,2045,2058,2047,2050,1196
1759,1711441589913366708,2053,2050,2046,2056,2054,2054,1197
1760,1711441589923367120,2057,2051,2048,2055,2053,2057,1198
1761,1711441589933370447,2048,2043,2016,2044,2050,2048,1198
1762,1711441589943365990,2063,2078,2030,2060,2069,2058,1195
1763,1711441589953367735,2050,2064,2038,2049,2048,2048,1197
1764,1711441589963371674,2064,2093,2194,2075,2065,2060,1196
1765,1711441589973372176,2057,2052,2044,2057,2056,2056,1196
1766,1711441589983374031,2057,2056,2061,2057,2050,2052,1197
1767,1711441589993365737,2056,2051,2057,2052,2057,2050,1198
1768,1711441590003374445,2054,2061,2130,2061,2057,2056,1197
1769,1711441590013374967,2051,2043,2016,2049,2046,2054,1197
1770,1711441590023375858,2068,2105,2125,2062,2046,2057,1197
1771,1711441590033358765,2057,2068,2124,2057,2047,2054,1196
1772,1711441590043352394,2057,2065,2049,2054,2052,2051,1197
1773,1711441590053379506,2058,2053,2052,2051,2053,2055,1198
1774,1711441590063361452,2061,2076,2097,2055,2057,2050,1196
1775,1711441590073363997,2056,2061,2102,2057,2057,2054,1196
1776,1711441590083364208,2052,2036,2007,2054,2052,2054,1197
1777,1711441590093364208,2054,2049,1988,2050,2056,2052,1197
1778,1711441590103393055,2057,2050,2064,2057,2056,2053,1197
1779,1711441590113389959,2050,2048,2050,2047,2058,2056,1196
1780,1711441590123363819,2061,2067,2104,2067,2062,2061,1197
1781,1711441590133366685,2056,2062,2040,2048,2056,2053,1196
1782,1711441590143364732,2059,2058,2097,2069,2058,2056,1197
1783,1711441590153358220,2050,2034,2038,2050,2051,2052,1197
1784,1711441590163366646,2056,2034,2048,2061,2056,2054,1196
1785,1711441590173364352,2056,2065,2065,2057,2043,2050,1198
1786,1711441590183364753,2056,2056,2046,2056,2056,2057,1196
1787,1711441590193379693,2052,2041,2020,2058,2059,2048,1195
1788,1711441590203367199,2050,2035,1996,2050,2046,2053,1196
1789,1711441590213360868,2059,2056,2045,2058,2056,2052,1196
1790,1711441590223371177,2056,2049,2080,2058,2049,2051,1194
1791,1711441590233368443,2058,2044,2101,2056,2055,2056,1197
1792,1711441590243367812,2054,2054,2056,2053,2053,2054,1197
1793,1711441590253374456,2055,2063,2077,2049,2056,2052,1198
1794,1711441590263367983,2060,2076,2112,2057,2054,2056,1196
1795,1711441590273366151,2060,2077,2084,2064,2070,2058,1196
1796,1711441590283363956,2056,2051,2049,2057,2049,2052,1194
1797,1711441590293387993,2060,2056,2100,2056,2055,2052,1195
1798,1711441590303368075,2051,2043,2045,2056,2053,2052,1196
1799,1711441590313366903,2052,2066,2063,2056,2057,2056,1198
1800,1711441590323385760,2051,2041,2018,2052,2048,2053,1196
1801,1711441590333366122,2049,2048,2036,2045,2047,2049,1197
1802,1711441590343796716,2057,2047,2043,2056,2056,2056,1195
1803,1711441590353362416,2061,2062,2042,2054,2051,2052,1195
1804,1711441590363368629,2056,2062,2092,2058,2066,2054,1194
1805,1711441590373370963,2056,2051,2041,2052,2045,2052,1197
1806,1711441590383360734,2060,2065,2103,2065,2059,2064,1194
1807,1711441590393388959,2057,2051,2030,2060,2056,2056,1196
1808,1711441590403384481,2057,2058,2055,2052,2050,2052,1195
1809,1711441590413366236,2052,2060,2090,2054,2056,2053,1195
1810,1711441590423377729,2060,2088,2044,2066,2056,2050,1196
1811,1711441590433375275,2054,2053,2059,2052,2058,2050,1193
1812,1711441590443385524,2057,2045,2040,2060,2063,2060,1194
1813,1711441590453374474,2053,2045,2033,2053,2045,2051,1195
1814,1711441590463360266,2057,2047,2015,2058,2057,2057,1194
1815,1711441590473363083,2050,2052,2035,2046,2056,2051,1197
1816,1711441590483363203,2054,2053,2067,2068,2056,2053,1196
1817,1711441590493363965,2056,2056,2040,2057,2055,2050,1197
1818,1711441590503364687,2054,2063,2080,2061,2054,2057,1199
1819,1711441590513364628,2053,2043,2078,2053,2052,2053,1196
1820,1711441590523368505,2061,2075,2108,2061,2056,2052,1197
1821,1711441590533363766,2053,2056,2064,2055,2060,2052,1197
1822,1711441590543384858,2053,2049,2081,2057,2050,2056,1196
1823,1711441590553370490,2053,2052,2056,2052,2056,2052,1194
1824,1711441590563370511,2054,2041,2053,2057,2053,2052,1196
1825,1711441590573365591,2048,2041,2034,2052,2052,2052,1195
1826,1711441590583366294,2060,2070,2158,2064,2053,2054,1195
1827,1711441590593368057,2058,2057,2054,2052,2053,2053,1197
1828,1711441590603368218,2058,2048,2021,2056,2058,2058,1196
1829,1711441590613369030,2054,2056,2075,2053,2057,2054,1196
1830,1711441590623369482,2053,2047,2043,2056,2056,2052,1196
1831,1711441590633371325,2056,2028,2060,2056,2065,2056,1198
1832,1711441590643534782,2050,2033,2057,2055,2053,2054,1197
1833,1711441590653370545,2060,2074,2070,2053,2056,2051,1198
1834,1711441590663388400,2057,2072,2093,2058,2056,2056,1197
1835,1711441590673377359,2056,2046,2008,2056,2051,2052,1197
1836,1711441590683376767,2046,2015,2012,2056,2051,2049,1197
1837,1711441590693397669,2050,2030,2036,2050,2064,2052,1197
1838,1711441590703381057,2050,2043,2031,2056,2036,2053,1198
1839,1711441590713376519,2051,2056,2041,2053,2049,2056,1195
1840,1711441590723377391,2057,2052,2030,2061,2053,2056,1196
1841,1711441590733363855,2055,2065,2120,2062,2058,2051,1197
1842,1711441590743372622,2057,2059,2088,2066,2054,2055,1194
1843,1711441590753374156,2052,2047,2042,2053,2057,2055,1196
1844,1711441590763379497,2048,2028,2054,2059,2056,2060,1196
1845,1711441590773362435,2058,2042,2042,2056,2057,2056,1194
1846,1711441590783362675,2056,2060,2073,2064,2052,2056,1194
1847,1711441590793382804,2056,2052,2035,2053,2044,2053,1196
1848,1711441590803372134,2056,2053,2042,2057,2046,2052,1196
1849,1711441590813366112,2052,2056,2070,2047,2052,2055,1197
1850,1711441590823365622,2055,2044,2086,2057,2050,2050,1196
1851,1711441590833378177,2057,2042,2013,2050,2053,2052,1195
1852,1711441590843380392,2058,2060,2035,2061,2050,2056,1195
1853,1711441590853362287,2055,2045,2012,2056,2053,2053,1196
1854,1711441590863367298,2049,2049,2031,2051,2050,2050,1195
1855,1711441590873363851,2055,2050,2056,2054,2054,2049,1197
1856,1711441590883364002,2050,2050,2061,2053,2048,2048,1197
1857,1711441590893358201,2064,2096,2108,2057,2050,2054,1197
1858,1711441590903368842,2056,2045,2028,2054,2045,2053,1195
1859,1711441590913365005,2059,2079,2138,2063,2049,2052,1195
1860,1711441590923366969,2050,2060,2047,2057,2057,2054,1198
1861,1711441590933411205,2054,2047,2032,2047,2056,2056,1196
1862,1711441590943366769,2058,2053,2027,2062,2056,2056,1194
1863,1711441590953360298,2052,2053,2045,2050,2050,2052,1194
1864,1711441590963352472,2059,2046,2017,2057,2053,2056,1196
1865,1711441590973363455,2059,2051,2053,2053,2054,2056,1196
1866,1711441590983372853,2056,2052,2058,2054,2048,2050,1197
1867,1711441590993347284,2059,2065,2150,2065,2067,2058,1197
1868,1711441591003367964,2051,2041,2025,2052,2054,2052,1196
1869,1711441591013361370,2063,2077,2085,2058,2061,2057,1195
1870,1711441591023363785,2069,2090,2092,2064,2056,2057,1195
1871,1711441591033428769,2054,2077,2034,2046,2049,2053,1195
1872,1711441591043389704,2061,2058,2093,2060,2056,2056,1197
1873,1711441591053362842,2058,2052,2057,2054,2051,2052,1196
1874,1711441591063365225,2053,2045,2037,2056,2053,2048,1195
1875,1711441591073361468,2050,2041,2028,2053,2066,2052,1196
1876,1711441591083364783,2059,2056,2060,2057,2047,2053,1195
1877,1711441591093365715,2054,2050,2054,2045,2052,2053,1193
1878,1711441591103380132,2056,2057,2088,2066,2072,2052,1197
1879,1711441591113364512,2056,2040,2000,2047,2054,2057,1197
1880,1711441591123367747,2057,2044,2037,2060,2056,2053,1197
1881,1711441591133364561,2058,2066,2110,2058,2048,2056,1196
1882,1711441591143387324,2056,2047,2033,2058,2051,2056,1195
1883,1711441591153363277,2052,2052,2042,2052,2054,2058,1193
1884,1711441591163364920,2059,2058,2072,2060,2050,2056,1195
1885,1711441591173364148,2050,2043,2018,2045,2049,2051,1195
1886,1711441591183376141,2056,2049,2063,2060,2052,2054,1194
1887,1711441591193361963,2053,2053,2104,2056,2054,2051,1196
1888,1711441591203362193,2056,2049,2065,2064,2055,2058,1196
1889,1711441591213363324,2055,2046,2053,2050,2053,2056,1197
1890,1711441591223363154,2062,2062,2066,2061,2059,2060,1196
1891,1711441591233386728,2053,2044,2022,2049,2064,2050,1196
1892,1711441591243369635,2053,2047,2027,2056,2048,2052,1196
1893,1711441591253360698,2058,2050,2044,2053,2056,2052,1198
1894,1711441591263363442,2053,2042,2028,2057,2050,2056,1196
1895,1711441591273369554,2056,2059,2057,2052,2056,2056,1198
1896,1711441591283374253,2058,2061,2074,2059,2055,2060,1197
1897,1711441591293378069,2058,2078,2072,2058,2058,2056,1196
1898,1711441591303357740,2051,2026,2040,2061,2056,2057,1197
1899,1711441591313364873,2064,2056,2090,2060,2046,2059,1196
1900,1711441591323363339,2056,2066,2122,2057,2058,2058,1196
1901,1711441591333386965,2054,2053,2056,2052,2052,2051,1197
1902,1711441591343356666,2052,2045,2046,2066,2052,2054,1195
1903,1711441591353361785,2056,2049,2035,2043,2051,2052,1196
1904,1711441591363365121,2052,2004,1951,2057,2055,2058,1197
1905,1711441591373360312,2057,2040,2052,2052,2053,2055,1196
1906,1711441591383363026,2054,2052,2056,2058,2053,2052,1196
1907,1711441591393359429,2058,2052,2011,2049,2053,2056,1195
1908,1711441591403362444,2054,2047,2055,2057,2059,2059,1198
1909,1711441591413362473,2052,2045,2037,2052,2076,2057,1195
1910,1711441591423376500,2056,2049,2052,2055,2053,2057,1196
1911,1711441591433367262,2052,2049,2037,2052,2053,2051,1197
1912,1711441591443383643,2060,2033,2009,2061,2057,2059,1197
1913,1711441591453355308,2054,2043,2072,2054,2054,2050,1200
1914,1711441591463358454,2050,2033,2018,2054,2047,2051,1197
1915,1711441591473359044,2057,2078,2137,2059,2060,2057,1197
1916,1711441591483360056,2056,2057,2025,2062,2056,2059,1197
1917,1711441591493377830,2054,2052,2038,2050,2061,2056,1197
1918,1711441591503365996,2052,2056,2050,2061,2064,2053,1197
1919,1711441591513361287,2058,2063,2062,2056,2053,2056,1198
1920,1711441591523380393,2050,2035,2038,2056,2049,2052,1200
1921,1711441591533372717,2060,2068,2073,2057,2061,2054,1196
1922,1711441591543406403,2058,2050,2030,2064,2056,2055,1196
1923,1711441591553365644,2054,2048,2030,2052,2051,2052,1197
1924,1711441591563368809,2056,2052,2064,2058,2054,2052,1197
1925,1711441591573370782,2064,2081,2047,2061,2059,2060,1195
1926,1711441591583370731,2047,2045,2064,2057,2064,2056,1195
1927,1711441591593419295,2061,2064,2093,2056,2056,2058,1197
1928,1711441591603371492,2058,2053,2043,2057,2054,2054,1195
1929,1711441591613387883,2051,2049,2040,2051,2055,2053,1197
1930,1711441591623385117,2058,2049,2030,2059,2056,2059,1196
1931,1711441591633374076,2068,2076,2116,2060,2057,2059,1195
1932,1711441591643376069,2049,2020,2022,2057,2051,2053,1197
1933,1711441591653372461,2052,2045,2099,2054,2056,2056,1199
1934,1711441591663352433,2052,2049,2040,2056,2050,2051,1198
1935,1711441591673377650,2056,2053,2052,2049,2056,2053,1197
1936,1711441591683358383,2056,2061,2105,2064,2055,2054,1196
1937,1711441591693390595,2053,2040,2033,2054,2064,2051,1197
1938,1711441591703354925,2054,2049,2044,2056,2049,2052,1197
1939,1711441591713362670,2052,2040,2049,2049,2054,2053,1197
1940,1711441591723388379,2068,2091,2113,2064,2056,2057,1194
1941,1711441591733362338,2054,2058,2084,2053,2056,2053,1195
1942,1711441591743365053,2056,2046,2033,2060,2056,2056,1197
1943,1711441591753353080,2050,2048,2016,2053,2054,2052,1198
1944,1711441591763364070,2053,2050,2042,2056,2062,2056,1197
1945,1711441591773364410,2052,2046,2027,2050,2050,2049,1197
1946,1711441591783363148,2052,2041,2072,2061,2050,2051,1197
1947,1711441591793407863,2060,2057,2100,2055,2065,2056,1195
1948,1711441591803366383,2058,2073,2174,2065,2056,2056,1197
1949,1711441591813361694,2059,2085,2098,2058,2056,2056,1197
1950,1711441591823394155,2049,2044,2042,2058,2051,2051,1196
1951,1711441591833374727,2056,2055,2044,2053,2054,2052,1198
1952,1711441591843354558,2056,2052,2038,2056,2049,2053,1197
1953,1711441591853365739,2060,2059,2038,2054,2052,2052,1198
1954,1711441591863345480,2061,2089,2089,2061,2054,2056,1197
1955,1711441591873358344,2053,2052,2058,2049,2041,2051,1196
1956,1711441591883359445,2056,2056,2054,2057,2045,2052,1197
1957,1711441591893356379,2053,2029,1995,2044,2052,2052,1196
1958,1711441591903365877,2061,2080,2081,2061,2060,2058,1197
1959,1711441591913359183,2050,2053,2037,2054,2056,2055,1197
1960,1711441591923383540,2059,2088,2067,2053,2056,2052,1195
1961,1711441591933383290,2052,2053,2074,2049,2052,2049,1196
1962,1711441591943385994,2046,2043,2035,2056,2046,2050,1196
1963,1711441591953366456,2047,2041,2017,2049,2048,2052,1195
1964,1711441591963369862,2056,2045,2025,2055,2053,2053,1196
1965,1711441591973362327,2051,2049,2046,2048,2040,2045,1195
1966,1711441591983359611,2056,2054,2050,2054,2046,2054,1195
1967,1711441591993366964,2048,2015,2047,2053,2056,2053,1196
1968,1711441592003365612,2063,2061,2064,2058,2056,2056,1196
1969,1711441592013366141,2057,2078,2160,2058,2054,2056,1197
1970,1711441592023370008,2051,2036,2015,2056,2054,2056,1196
1971,1711441592033379314,2057,2064,2083,2056,2051,2052,1196
1972,1711441592043360997,2054,2054,2072,2061,2056,2054,1196
1973,1711441592053361838,2056,2054,2049,2057,2056,2054,1198
1974,1711441592063380803,2052,2044,2043,2056,2052,2055,1197
1975,1711441592073365131,2065,2101,2120,2059,2068,2056,1197
1976,1711441592083362825,2058,2062,2067,2060,2056,2054,1195
1977,1711441592093364467,2056,2050,2069,2054,2058,2057,1197
1978,1711441592103371820,2060,2074,2125,2067,2061,2057,1198
1979,1711441592113357542,2055,2046,2026,2050,2057,2052,1198
1980,1711441592123371867,2057,2060,2064,2056,2052,2052,1196
1981,1711441592133364081,2046,2072,2056,2048,2052,2051,1198
1982,1711441592143365843,2060,2056,2057,2060,2056,2056,1196
1983,1711441592153381993,2058,2064,2089,2058,2056,2052,1195
1984,1711441592163366111,2061,2062,2041,2061,2061,2054,1196
1985,1711441592173363815,2048,2047,2040,2056,2054,2052,1196
1986,1711441592183363383,2058,2044,2040,2056,2056,2056,1197
1987,1711441592193365506,2056,2048,2025,2051,2056,2051,1198
1988,1711441592203376135,2052,2052,2080,2061,2056,2054,1196
1989,1711441592213363689,2062,2073,2113,2058,2056,2052,1196
1990,1711441592223381412,2054,2050,2048,2056,2054,2056,1198
1991,1711441592233660571,2053,2046,2030,2051,2054,2050,1195
1992,1711441592243378314,2056,2052,2046,2062,2057,2056,1197
1993,1711441592253391989,2045,2056,2094,2045,2038,2052,1197
1994,1711441592263377209,2057,2052,2065,2060,2047,2054,1197
1995,1711441592273380213,2050,2046,2045,2049,2047,2052,1197
1996,1711441592283378449,2061,2074,2122,2066,2054,2056,1195
1997,1711441592293379138,2056,2064,2097,2055,2058,2054,1196
1998,1711441592303382934,2053,2050,2056,2058,2052,2056,1197
1999,1711441592313379336,2056,2049,2062,2053,2055,2052,1195
2000,1711441592323406127,2055,2050,2053,2053,2053,2054,1196
2001,1711441592333381618,2050,2048,2039,2054,2055,2047,1193
2002,1711441592343393079,2056,2022,2028,2051,2037,2052,1195
2003,1711441592353395832,2062,2061,2088,2067,2052,2060,1196
2004,1711441592363393296,2056,2044,2033,2056,2053,2054,1197
2005,1711441592373388766,2054,2053,2075,2055,2056,2052,1197
2006,1711441592383388194,2054,2042,2032,2056,2054,2056,1197
2007,1711441592393372552,2060,2066,2045,2048,2049,2052,1193
2008,1711441592403388952,2056,2045,2008,2050,2049,2056,1196
2009,1711441592413377529,2056,2060,2109,2056,2052,2050,1196
2010,1711441592423403618,2064,2080,2080,2068,2067,2056,1195
2011,1711441592433396172,2065,2056,2072,2058,2057,2060,1196
2012,1711441592443397904,2055,2050,2048,2055,2056,2053,1197
2013,1711441592453393134,2057,2060,2085,2056,2052,2052,1198
2014,1711441592463376310,2060,2053,2044,2053,2055,2061,1195
2015,1711441592473376860,2057,2060,2090,2056,2053,2050,1195
2016,1711441592483395214,2052,2041,2033,2056,2052,2052,1195
2017,1711441592493376305,2047,2041,2057,2055,2060,2050,1196
2018,1711441592503397315,2065,2105,2128,2064,2041,2056,1198
2019,1711441592513374940,2058,2050,2029,2050,2046,2049,1196
2020,1711441592523408304,2056,2057,2088,2058,2058,2059,1198
2021,1711441592533365039,2056,2049,2044,2050,2057,2052,1196
2022,1711441592543379665,2061,2052,2029,2064,2059,2058,1195
2023,1711441592553372080,2056,2048,2028,2049,2056,2052,1196
2024,1711441592563362019,2061,2074,2135,2061,2056,2056,1195
2025,1711441592573363770,2057,2053,2042,2054,2052,2050,1195
2026,1711441592583361896,2056,2078,2030,2058,2053,2057,1197
2027,1711441592593362796,2049,2046,2044,2050,2062,2052,1196
2028,1711441592603365690,2057,2064,2072,2064,2056,2056,1196
2029,1711441592613364206,2060,2064,2070,2050,2052,2055,1196
2030,1711441592623362110,2050,2044,2037,2052,2050,2049,1197
2031,1711441592633370605,2057,2042,2003,2052,2056,2053,1195
2032,1711441592643368620,2054,2049,2076,2059,2050,2052,1197
2033,1711441592653371745,2058,2056,2041,2051,2060,2050,1195
2034,1711441592663409347,2054,2056,2078,2056,2054,2056,1196
2035,1711441592673367254,2053,2046,2060,2050,2055,2053,1194
2036,1711441592683368264,2058,2066,2131,2065,2056,2055,1195
2037,1711441592693366360,2060,2049,2042,2058,2053,2053,1196
2038,1711441592703366729,2051,2038,1990,2053,2048,2050,1195
2039,1711441592713366236,2050,2053,2042,2056,2054,2052,1195
2040,1711441592723381073,2049,2040,2056,2053,2052,2054,1196
2041,1711441592733372315,2060,2044,2041,2053,2044,2050,1197
2042,1711441592743366523,2054,2046,2052,2046,2040,2052,1195
2043,1711441592753357344,2050,2040,2041,2047,2052,2048,1196
2044,1711441592763364566,2054,2047,2005,2057,2049,2058,1196
2045,1711441592773364274,2049,2043,2018,2049,2052,2047,1194
2046,1711441592783361678,2057,2057,2021,2061,2062,2054,1197
2047,1711441592793365283,2054,2058,2022,2056,2063,2057,1195
2048,1711441592803362166,2058,2046,2060,2064,2057,2058,1193
2049,1711441592813373216,2056,2056,2062,2056,2053,2052,1195
2050,1711441592823383414,2053,2052,2056,2056,2043,2050,1197
2051,1711441592833366431,2053,2054,2063,2056,2052,2052,1195
2052,1711441592843366529,2061,2072,2101,2061,2056,2056,1197
2053,1711441592853371357,2056,2059,2089,2052,2052,2050,1197
2054,1711441592863363601,2060,2086,2072,2059,2052,2053,1196
2055,1711441592873360704,2052,2045,2070,2056,2056,2056,1194
2056,1711441592883361955,2056,2056,2080,2060,2057,2052,1196
2057,1711441592893360972,2057,2057,2057,2052,2056,2057,1197
2058,1711441592903372572,2058,2083,2104,2063,2057,2056,1195
2059,1711441592913366930,2053,2047,2053,2049,2054,2053,1194
2060,1711441592923389102,2065,2075,2109,2066,2053,2056,1195
2061,1711441592933366036,2053,2049,2043,2054,2058,2052,1196
2062,1711441592943382096,2057,2043,2045,2056,2047,2053,1195
2063,1711441592953365853,2050,2044,2048,2050,2052,2056,1194
2064,1711441592963359349,2053,2046,2056,2055,2054,2052,1194
2065,1711441592973367003,2058,2068,2088,2049,2055,2052,1195
2066,1711441592983364566,2052,2034,2008,2050,2051,2049,1198
2067,1711441592993363272,2050,2052,2048,2047,2049,2047,1195
2068,1711441593003363351,2060,2094,2041,2061,2053,2055,1196
2069,1711441593013361856,2048,2036,2014,2050,2053,2050,1196
2070,1711441593023390439,2056,2042,2012,2053,2051,2053,1197
2071,1711441593033366972,2062,2081,2136,2066,2069,2056,1198
2072,1711441593043368101,2059,2058,2077,2061,2052,2052,1196
2073,1711441593053367498,2056,2050,2048,2056,2058,2053,1200
2074,1711441593063367966,2057,2056,2044,2052,2049,2050,1197
2075,1711441593073365059,2056,2077,2062,2049,2059,2053,1197
2076,1711441593083365667,2049,2052,2067,2053,2048,2050,1195
2077,1711441593093363652,2053,2047,2053,2052,2052,2053,1197
2078,1711441593103362948,2053,2056,2068,2060,2049,2052,1194
2079,1711441593113365621,2054,2041,2005,2048,2049,2047,1192
2080,1711441593123365919,2058,2053,2070,2062,2048,2050,1197
2081,1711441593133365887,2051,2049,2024,2043,2044,2051,1197
2082,1711441593143368750,2048,2057,2054,2052,2050,2054,1196
2083,1711441593153365752,2061,2057,2043,2053,2053,2049,1196
2084,1711441593163366531,2056,2056,2032,2058,2057,2054,1196
2085,1711441593173366579,2053,2046,2052,2051,2052,2052,1196
2086,1711441593183367869,2052,2036,2011,2059,2055,2056,1198
2087,1711441593193369180,2058,2068,2059,2057,2056,2055,1197
2088,1711441593203369810,2050,2056,2032,2056,2053,2056,1198
2089,1711441593213370508,2056,2068,2041,2056,2053,2053,1193
2090,1711441593223387518,2066,2061,2122,2060,2065,2056,1198
2091,1711441593233384290,2056,2072,2097,2056,2052,2056,1199
2092,1711441593243371422,2056,2046,2053,2059,2053,2057,1196
2093,1711441593253377282,2054,2054,2056,2053,2056,2051,1196
2094,1711441593263374023,2056,2056,2062,2057,2055,2056,1196
2095,1711441593273378339,2056,2043,2064,2048,2054,2052,1195
2096,1711441593283376934,2054,2054,2083,2061,2051,2056,1197
2097,1711441593293392923,2056,2088,2043,2057,2056,2053,1195
2098,1711441593303379334,2056,2056,2040,2064,2056,2054,1197
2099,1711441593313378120,2053,2056,2036,2052,2066,2053,1196
2100,1711441593323385552,2052,2047,2042,2056,2048,2050,1196
2101,1711441593333379949,2055,2063,2071,2058,2054,2056,1196
2102,1711441593343379626,2054,2044,2030,2053,2052,2052,1194
2103,1711441593353354675,2051,2026,2058,2055,2056,2054,1197
2104,1711441593363364142,2057,2036,2068,2060,2056,2056,1194
2105,1711441593373365221,2053,2049,2040,2054,2058,2054,1194
2106,1711441593383362554,2056,2059,2045,2061,2052,2054,1197
2107,1711441593393386158,2056,2050,2029,2059,2065,2056,1195
2108,1711441593403366677,2056,2046,2021,2056,2054,2050,1197
2109,1711441593413367587,2053,2046,2033,2050,2051,2051,1197
2110,1711441593423393374,2063,2071,2124,2064,2056,2056,1196
2111,1711441593433361120,2048,2040,2048,2050,2048,2052,1196
2112,1711441593443366758,2053,2041,2033,2059,2051,2056,1198
2113,1711441593453363099,2062,2061,2074,2060,2069,2057,1197
2114,1711441593463360592,2056,2058,2046,2058,2056,2053,1198
2115,1711441593473361652,2054,2046,1999,2047,2055,2056,1198
2116,1711441593483359425,2054,2072,2064,2062,2068,2052,1196
2117,1711441593493362829,2062,2058,2088,2052,2052,2053,1194
2118,1711441593503368018,2058,2057,2056,2062,2060,2059,1196
2119,1711441593513368907,2056,2065,2065,2058,2060,2057,1197
2120,1711441593523398662,2055,2052,2056,2054,2049,2052,1197
2121,1711441593533368892,2052,2049,2034,2053,2050,2052,1196
2122,1711441593543370343,2056,2077,2058,2058,2053,2053,1193
2123,1711441593553366063,2051,2047,2034,2052,2048,2050,1194
2124,1711441593563364297,2058,2061,2043,2061,2053,2053,1193
2125,1711441593573356009,2050,2041,2041,2053,2054,2054,1196
2126,1711441593583346507,2056,2041,1989,2056,2052,2058,1197
2127,1711441593593368639,2053,2050,2046,2050,2045,2050,1198
2128,1711441593603359919,2051,2046,2046,2054,2056,2053,1197
2129,1711441593613368043,2057,2062,2096,2054,2056,2051,1198
2130,1711441593623366988,2052,2036,2012,2057,2049,2051,1195
2131,1711441593633368409,2061,2062,2034,2052,2056,2054,1199
2132,1711441593643367124,2052,2047,2060,2053,2053,2051,1196
2133,1711441593653373634,2051,2037,2029,2049,2052,2053,1197
2134,1711441593663362892,2056,2056,2058,2060,2052,2056,1197
2135,1711441593673363480,2058,2052,2032,2056,2053,2057,1197
2136,1711441593683367506,2053,2052,2005,2057,2056,2056,1196
2137,1711441593693394485,2050,2047,2033,2053,2057,2054,1198
2138,1711441593703371920,2069,2064,2083,2071,2052,2052,1196
2139,1711441593713361097,2050,2047,2021,2050,2054,2052,1195
2140,1711441593723392916,2057,2057,2078,2056,2050,2053,1197
2141,1711441593733367144,2050,2040,2042,2048,2052,2054,1195
2142,1711441593743365999,2056,2054,2069,2057,2060,2053,1197
2143,1711441593753361759,2052,2052,2033,2047,2054,2048,1196
2144,1711441593763366385,2053,2060,2096,2060,2052,2054,1193
2145,1711441593773364610,2064,2094,2176,2062,2075,2060,1197
2146,1711441593783363967,2053,2054,2036,2056,2052,2050,1194
2147,1711441593793414983,2059,2056,2065,2056,2065,2052,1195
2148,1711441593803352750,2057,2056,2027,2061,2056,2050,1196
2149,1711441593813361595,2056,2062,2061,2057,2052,2051,1196
2150,1711441593823380129,2052,2040,2029,2061,2052,2054,1194
2151,1711441593833360338,2059,2053,2029,2056,2056,2050,1196
2152,1711441593843351840,2050,2048,2044,2058,2053,2053,1197
2153,1711441593853360053,2071,2116,2128,2056,2043,2056,1198
2154,1711441593863362606,2050,2045,2036,2053,2041,2050,1196
2155,1711441593873364037,2052,2042,2029,2050,2048,2052,1197
2156,1711441593883364074,2052,2050,2042,2056,2047,2052,1197
2157,1711441593893377819,2053,2057,2050,2048,2052,2053,1195
2158,1711441593903378477,2056,2048,2047,2058,2052,2054,1196
2159,1711441593913375600,2056,2053,2049,2048,2050,2051,1194
2160,1711441593923379845,2069,2069,2073,2056,2057,2060,1196
2161,1711441593933374543,2056,2042,2033,2052,2055,2053,1197
2162,1711441593943396113,2058,2058,2051,2056,2065,2053,1196
2163,1711441593953384738,2056,2054,2071,2055,2048,2047,1192
2164,1711441593963367072,2052,2051,2040,2056,2052,2054,1195
2165,1711441593973365717,2050,2052,2033,2048,2053,2052,1194
2166,1711441593983370224,2053,2048,2037,2060,2052,2057,1196
2167,1711441593993429766,2056,2047,2016,2054,2052,2052,1195
2168,1711441594003381321,2053,2049,2035,2052,2051,2052,1196
2169,1711441594013379182,2061,2094,2077,2056,2057,2053,1196
2170,1711441594023380021,2053,2053,2072,2060,2058,2056,1196
2171,1711441594033367264,2052,2056,2033,2057,2052,2050,1196
2172,1711441594043415954,2053,2050,2046,2056,2051,2049,1196
2173,1711441594053368199,2055,2053,2047,2047,2053,2054,1199
2174,1711441594063362224,2057,2076,2088,2063,2051,2052,1195
2175,1711441594073362201,2051,2058,2063,2054,2052,2052,1196
2176,1711441594083366195,2054,2045,2056,2057,2051,2056,1194
2177,1711441594093367885,2052,2033,2046,2054,2053,2054,1194
2178,1711441594104152150,2057,2036,2073,2060,2053,2056,1195
2179,1711441594113372238,2054,2047,2053,2056,2053,2053,1197
2180,1711441594123375151,2062,2068,2161,2062,2050,2057,1196
2181,1711441594133378603,2053,2053,2047,2056,2052,2053,1194
2182,1711441594143403158,2056,2049,2056,2062,2056,2054,1194
2183,1711441594153399017,2055,2053,2040,2056,2053,2056,1196
2184,1711441594163376511,2057,2061,2076,2058,2053,2051,1196
2185,1711441594173375715,2056,2078,2034,2054,2055,2053,1193
2186,1711441594183374199,2056,2047,2030,2052,2048,2050,1195
2187,1711441594193392542,2052,2048,2028,2053,2054,2052,1197
2188,1711441594203412748,2056,2062,2046,2054,2052,2053,1196
2189,1711441594213378187,2056,2056,2067,2057,2057,2052,1196
2190,1711441594223392863,2056,2058,2051,2064,2061,2048,1195
2191,1711441594233368703,2056,2050,2046,2053,2052,2052,1197
2192,1711441594243370654,2058,2060,2079,2056,2054,2053,1197
2193,1711441594253371302,2054,2051,2053,2056,2069,2057,1197
2194,1711441594263374505,2062,2091,2092,2062,2052,2054,1194
2195,1711441594273368891,2057,2052,2025,2056,2058,2053,1195
2196,1711441594283363608,2058,2052,2052,2056,2052,2050,1198
2197,1711441594293372983,2050,2042,2046,2053,2053,2052,1194
2198,1711441594303366356,2055,2072,2072,2056,2053,2050,1198
2199,1711441594313365692,2046,2014,2018,2052,2053,2050,1195
2200,1711441594323358295,2060,2038,2061,2058,2057,2058,1197
2201,1711441594333359003,2052,2048,2040,2054,2056,2050,1198
2202,1711441594343358599,2054,2045,2027,2060,2068,2057,1195
2203,1711441594353356592,2061,2065,2100,2055,2053,2053,1195
2204,1711441594363356679,2056,2052,2077,2058,2051,2049,1196
2205,1711441594373350574,2052,2076,2057,2050,2053,2052,1195
2206,1711441594383361873,2064,2068,2096,2066,2056,2057,1197
2207,1711441594393369765,2052,2047,2033,2049,2053,2053,1197
2208,1711441594403370593,2062,2057,2070,2061,2051,2053,1197
2209,1711441594413364869,2057,2057,2057,2053,2054,2053,1197
2210,1711441594423369155,2046,2017,2022,2058,2050,2054,1194
2211,1711441594433352970,2055,2042,2049,2054,2058,2056,1196
2212,1711441594443368447,2064,2066,2056,2064,2056,2052,1194
