seq,time,data[0],data[1],data[2],data[3],data[4],data[5],data[6]
201,1710926181097269404,2057,2056,2049,2032,2049,2062,1196
202,1710926181107269551,2058,2056,2057,2019,2033,2049,1196
203,1710926181117292661,2057,2061,2053,2067,2063,2060,1196
204,1710926181127265116,2045,2045,2048,2084,2045,2038,1194
205,1710926181137279158,2052,2052,2052,2100,2058,2049,1197
206,1710926181147271771,2063,2056,2058,2043,2060,2069,1196
207,1710926181157270405,2057,2056,2053,2052,2057,2036,1195
208,1710926181167268136,2054,2048,2045,2045,2040,2049,1196
209,1710926181177268033,2044,2044,2052,2008,2032,2043,1193
210,1710926181187267568,2054,2052,2047,2040,2008,2035,1193
211,1710926181197266403,2053,2051,2055,2128,2066,2057,1194
212,1710926181207267100,2056,2053,2054,2076,2061,2030,1192
213,1710926181217264602,2053,2053,2058,2095,2060,2061,1194
214,1710926181227261643,2060,2054,2052,2078,2057,2048,1194
215,1710926181237264385,2056,2059,2053,2035,2062,2049,1194
216,1710926181247262517,2055,2052,2052,2052,2051,2066,1195
217,1710926181257269067,2052,2054,2053,2080,2065,2046,1193
218,1710926181267267149,2056,2055,2067,2099,2052,2038,1192
219,1710926181277267477,2053,2050,2044,2055,2052,2038,1193
220,1710926181287267643,2053,2056,2059,2041,2054,2057,1194
221,1710926181297267780,2054,2060,2074,2054,2021,2034,1192
222,1710926181307267987,2052,2053,2072,2064,2033,2051,1194
223,1710926181317262613,2062,2054,2057,2029,2056,2046,1193
224,1710926181327263581,2058,2049,2043,2052,2057,2061,1196
225,1710926181337263808,2053,2056,2053,2069,2074,2059,1197
226,1710926181347270287,2057,2058,2062,2076,2052,2061,1197
227,1710926181357272608,2056,2051,2052,2068,2070,2057,1196
228,1710926181367262785,2055,2052,2059,2119,2043,2048,1195
229,1710926181377268733,2056,2054,2058,2063,2058,2057,1196
230,1710926181387274661,2057,2056,2061,2040,2077,2092,1197
231,1710926181397267554,2053,2053,2048,2100,2070,2053,1193
232,1710926181407267651,2044,2039,2045,2035,2022,2041,1193
233,1710926181417268549,2053,2053,2053,2072,2038,2054,1197
234,1710926181427313901,2056,2057,2060,2062,2058,2056,1197
235,1710926181437270395,2055,2052,2047,2038,2080,2060,1192
236,1710926181447286262,2065,2061,2062,2013,2054,2104,1196
237,1710926181457269977,2054,2050,2042,2032,2046,2070,1195
238,1710926181467268992,2050,2054,2064,2084,2058,2068,1196
239,1710926181477295919,2057,2056,2056,2052,2073,2085,1195
240,1710926181487296267,2057,2054,2057,2060,2037,2064,1196
241,1710926181497265194,2051,2046,2039,2072,2052,2043,1192
242,1710926181507269499,2061,2058,2068,2093,2060,2068,1196
243,1710926181517266860,2057,2052,2056,2104,2084,2058,1194
244,1710926181527265584,2051,2050,2055,2090,2068,2064,1197
245,1710926181537274778,2053,2052,2046,1994,2060,2052,1197
246,1710926181547283421,2060,2064,2077,2090,2053,2066,1195
247,1710926181557274220,2049,2052,2045,2053,2044,2041,1194
248,1710926181567271131,2056,2053,2064,2044,2020,2023,1193
249,1710926181577270676,2047,2041,2036,2060,2052,2053,1194
250,1710926181587278127,2050,2052,2054,2024,2057,2058,1197
251,1710926181597278294,2051,2052,2055,2057,2058,2058,1194
252,1710926181607293359,2056,2051,2054,2044,2030,2039,1193
253,1710926181617271584,2053,2056,2056,2002,2056,2008,1192
254,1710926181627266641,2060,2061,2068,2090,2075,2082,1194
255,1710926181637266447,2060,2056,2058,2014,2062,2030,1192
256,1710926181647289587,2056,2056,2064,2096,2062,2057,1195
257,1710926181657273904,2065,2061,2057,2026,2075,2061,1196
258,1710926181667271957,2053,2052,2056,2072,2059,2041,1192
259,1710926181677273847,2052,2054,2061,2074,2054,2053,1196
260,1710926181687282199,2053,2056,2064,2056,2056,2057,1195
261,1710926181697282466,2056,2053,2047,2053,2060,2064,1192
262,1710926181707267284,2054,2052,2061,2072,2051,2036,1192
263,1710926181717271498,2058,2053,2056,2065,2060,2053,1195
264,1710926181727265053,2053,2046,2052,2068,2024,2039,1193
265,1710926181737267433,2046,2038,2026,2040,2056,2048,1195
266,1710926181747279994,2049,2049,2057,2004,2041,2060,1194
267,1710926181757295820,2057,2049,2040,2000,2066,2066,1196
268,1710926181767284986,2053,2054,2063,2061,2049,2053,1195
269,1710926181777272348,2056,2052,2051,2038,2046,2044,1192
270,1710926181787281052,2056,2060,2075,2084,2069,2063,1196
271,1710926181797280617,2060,2059,2061,2012,2061,2053,1196
272,1710926181807264603,2048,2048,2054,2053,2055,2001,1193
273,1710926181817264439,2051,2045,2037,2034,2055,2052,1196
274,1710926181827265458,2065,2064,2072,2082,2056,2047,1194
275,1710926181837274822,2055,2052,2045,2078,2058,2035,1190
276,1710926181847272193,2057,2056,2062,2096,2052,2064,1195
277,1710926181857273843,2052,2047,2040,2054,2062,2053,1195
278,1710926181867270152,2056,2055,2058,2073,2052,2056,1194
279,1710926181877271361,2049,2052,2047,2064,2025,1983,1193
280,1710926181887287347,2054,2052,2061,2013,2049,2064,1196
281,1710926181897288847,2052,2052,2047,2079,2061,2047,1194
282,1710926181907275588,2054,2051,2058,2054,2050,2053,1196
283,1710926181917275455,2056,2053,2047,2070,2078,2074,1196
284,1710926181927273898,2054,2056,2083,2100,2044,2050,1196
285,1710926181937274325,2053,2051,2051,2078,2058,2070,1196
286,1710926181947273460,2057,2056,2065,2082,2051,2065,1194
287,1710926181957274919,2060,2054,2047,2090,2064,2054,1197
288,1710926181967296316,2056,2056,2069,2108,2077,2077,1196
289,1710926181977278730,2054,2049,2046,2076,2069,2074,1194
290,1710926181987249330,2055,2055,2066,2092,2055,2045,1191
291,1710926181997284042,2056,2049,2046,2050,2059,2050,1193
292,1710926182007271876,2057,2047,2052,2036,2028,2070,1196
293,1710926182017287331,2054,2047,2038,1972,2052,2046,1192
294,1710926182027278341,2056,2058,2066,2067,2056,2057,1193
295,1710926182037279469,2052,2051,2043,2047,2054,2057,1195
296,1710926182047282331,2057,2052,2060,2101,2046,2040,1193
297,1710926182057278260,2052,2047,2040,2029,2056,2049,1196
298,1710926182067277936,2054,2057,2064,2058,2051,2072,1196
299,1710926182077282190,2066,2068,2081,2126,2083,2121,1196
300,1710926182087282838,2054,2053,2059,2066,2057,2086,1196
301,1710926182097285539,2054,2049,2043,2020,2044,2050,1195
302,1710926182107280527,2052,2049,2050,2030,2024,2046,1192
303,1710926182117281655,2054,2053,2048,2041,2064,2040,1193
304,1710926182127295337,2059,2064,2077,2084,2046,2062,1194
305,1710926182137280064,2053,2053,2056,2070,2056,2058,1196
306,1710926182147277636,2057,2055,2068,2114,2042,2057,1197
307,1710926182157276640,2048,2040,2024,2044,2040,2056,1197
308,1710926182167274022,2051,2052,2056,2010,2024,2073,1197
309,1710926182177277685,2049,2052,2041,2053,2051,2042,1193
310,1710926182187273474,2064,2062,2073,2020,2046,2016,1192
311,1710926182198478286,2065,2052,2036,2028,2052,2060,1195
312,1710926182207256605,2054,2056,2064,2040,2040,2034,1193
313,1710926182217263044,2057,2060,2054,2075,2072,2057,1196
314,1710926182227262088,2058,2053,2062,2040,2029,2046,1193
315,1710926182237274588,2056,2050,2040,2022,2044,2064,1194
316,1710926182247475305,2054,2058,2072,2140,2056,2090,1195
317,1710926182257284690,2052,2052,2044,2045,2069,2062,1197
318,1710926182267300787,2061,2060,2069,2094,2054,2068,1194
319,1710926182277289412,2052,2047,2040,2035,2063,2050,1195
320,1710926182287272325,2057,2050,2046,2069,2066,2032,1190
321,1710926182297281670,2057,2049,2027,2050,2075,2073,1196
322,1710926182307258161,2058,2058,2068,2065,2029,2070,1193
323,1710926182317297122,2060,2056,2058,2085,2083,2045,1190
324,1710926182327304252,2058,2060,2078,2086,2047,2047,1192
325,1710926182337290672,2059,2064,2070,1917,2051,2058,1196
326,1710926182347297752,2052,2051,2052,2056,2044,2056,1197
327,1710926182357269445,2051,2053,2051,2045,2072,2088,1196
328,1710926182367276294,2068,2063,2072,2025,2031,2058,1196
329,1710926182377282192,2049,2055,2047,2029,2071,2052,1195
330,1710926182387308478,2057,2057,2066,2076,2041,2060,1196
331,1710926182397753378,2056,2052,2048,2069,2052,2043,1193
332,1710926182407263877,2050,2047,2052,2019,2016,2039,1192
333,1710926182417268742,2056,2058,2057,2063,2072,2054,1196
334,1710926182427268427,2057,2053,2066,2065,2041,2056,1194
335,1710926182437264787,2057,2056,2049,2090,2072,2060,1194
336,1710926182447277037,2056,2055,2060,2057,2051,2054,1195
337,1710926182457266243,2052,2048,2034,2042,2049,2042,1192
338,1710926182467222576,2047,2049,2050,2055,2028,2047,1193
339,1710926182477275603,2056,2056,2042,2065,2061,2053,1196
340,1710926182487309213,2047,2048,2053,1996,2013,2047,1190
341,1710926182497266619,2056,2050,2045,2068,2080,2059,1194
342,1710926182507265373,2053,2052,2060,2072,2050,2051,1194
343,1710926182517271201,2057,2064,2057,2068,2065,2051,1193
344,1710926182527271728,2059,2059,2061,2052,2060,2049,1197
345,1710926182537285650,2054,2053,2046,2058,2077,2034,1193
346,1710926182547271601,2057,2055,2061,2084,2046,2060,1195
347,1710926182557273490,2064,2061,2053,2041,2058,2020,1193
348,1710926182567271514,2053,2053,2062,2080,2022,2032,1191
349,1710926182577275166,2057,2054,2056,2072,2060,2052,1195
350,1710926182587276585,2056,2056,2061,2078,2056,2062,1197
351,1710926182597295298,2054,2054,2058,2079,2056,2049,1195
352,1710926182607271198,2048,2052,2068,2091,2050,2064,1196
353,1710926182617271074,2051,2050,2050,2068,2064,2056,1194
354,1710926182627262424,2059,2056,2062,2024,2031,2054,1197
355,1710926182637265797,2052,2052,2041,2045,2057,2050,1193
356,1710926182647274730,2047,2052,2062,2059,2058,2071,1195
357,1710926182657282111,2049,2044,2032,2040,2061,2064,1193
358,1710926182667262300,2060,2056,2065,2078,2057,2070,1196
359,1710926182677281012,2058,2058,2049,2057,2072,2056,1194
360,1710926182687275307,2056,2057,2079,2028,2040,2058,1195
361,1710926182697265515,2052,2057,2060,2056,2049,2047,1192
362,1710926182707270170,2053,2049,2059,2029,2029,2048,1195
363,1710926182717268974,2053,2054,2048,2056,2064,2058,1194
364,1710926182727274220,2064,2066,2077,2018,2041,2058,1196
365,1710926182737279868,2053,2048,2037,2062,2056,2007,1194
366,1710926182747273652,2056,2049,2062,2084,2040,2073,1196
367,1710926182757285391,2056,2050,2041,2047,2060,2052,1196
368,1710926182767281179,2045,2041,2048,2056,2026,2044,1194
369,1710926182777281506,2049,2045,2033,2027,2072,2052,1196
370,1710926182787283036,2057,2054,2053,2034,2057,2066,1194
371,1710926182797261501,2055,2056,2050,2063,2056,2040,1192
372,1710926182807277708,2055,2054,2057,2088,2047,2060,1195
373,1710926182817271944,2053,2055,2041,1985,2054,2040,1192
374,1710926182827272862,2056,2061,2076,2035,2047,2051,1195
375,1710926182837282246,2064,2060,2052,2086,2085,2064,1193
376,1710926182847272184,2052,2049,2059,2061,2052,2064,1193
377,1710926182857260588,2056,2049,2040,2048,2065,2076,1195
378,1710926182867278197,2057,2056,2071,2040,2032,2044,1192
379,1710926182877280829,2052,2050,2046,2144,2072,2048,1195
380,1710926182887415090,2050,2047,2046,2040,2014,2048,1196
381,1710926182897289007,2058,2050,2042,2046,2057,2018,1192
382,1710926182907273394,2056,2056,2064,2025,2032,2031,1192
383,1710926182917273651,2056,2052,2043,2001,2056,2042,1189
384,1710926182927281743,2056,2058,2068,2069,2026,2064,1194
385,1710926182937280487,2060,2057,2056,2072,2071,2008,1192
386,1710926182947274291,2051,2053,2071,2113,2070,2066,1197
387,1710926182957269970,2055,2053,2045,2080,2081,2014,1192
388,1710926182967268593,2056,2052,2062,2077,2074,2065,1196
389,1710926182977298908,2050,2053,2043,2049,2073,2053,1196
390,1710926182988854875,2052,2053,2057,2050,2040,2044,1192
391,1710926182997262901,2057,2053,2050,2088,2062,2052,1195
392,1710926183007281874,2065,2066,2076,2037,2058,2042,1191
393,1710926183017267814,2057,2052,2042,2049,2076,2073,1196
394,1710926183027264574,2056,2052,2054,2060,2057,2126,1194
395,1710926183037274419,2054,2052,2045,2042,2042,2047,1191
396,1710926183047254588,2059,2059,2062,2088,2048,2056,1196
397,1710926183057274221,2057,2053,2040,2076,2062,2056,1195
398,1710926183067274067,2057,2050,2056,2040,2050,2057,1197
399,1710926183077289964,2058,2056,2044,2030,2064,2056,1196
400,1710926183087271936,2056,2052,2062,2067,2031,2073,1195
401,1710926183097270069,2056,2054,2053,2016,2060,2059,1192
402,1710926183107272129,2056,2056,2065,2066,2042,2044,1192
403,1710926183117266665,2052,2056,2045,2065,2056,2049,1195
404,1710926183127271701,2064,2065,2076,2060,2061,2046,1195
405,1710926183137273170,2059,2052,2045,2060,2068,2071,1196
406,1710926183147271193,2055,2051,2056,2054,2048,2056,1197
407,1710926183157260900,2052,2050,2044,1998,2074,2071,1196
408,1710926183167273700,2058,2056,2066,2070,2050,2056,1196
409,1710926183177268005,2059,2058,2054,2045,2062,2060,1193
410,1710926183187288350,2056,2056,2063,2060,2037,2056,1198
411,1710926183197303305,2056,2050,2045,2031,2047,2043,1192
412,1710926183207273064,2052,2053,2059,2067,2043,2096,1194
413,1710926183217272800,2052,2048,2046,2032,2052,2052,1195
414,1710926183227278106,2052,2052,2058,2021,2048,2078,1195
415,1710926183237272152,2059,2053,2047,2028,2061,2057,1195
416,1710926183247274963,2049,2047,2048,2064,2042,2048,1194
417,1710926183257262496,2056,2052,2045,2040,2067,2055,1194
418,1710926183267273963,2053,2053,2056,2062,2044,2056,1195
419,1710926183277264362,2057,2058,2058,2083,2079,2056,1194
420,1710926183287276321,2057,2057,2068,2064,2041,2058,1195
421,1710926183297272340,2051,2050,2042,2085,2072,2065,1194
422,1710926183307268128,2053,2048,2059,2053,2029,2040,1193
423,1710926183317270449,2054,2049,2048,2092,2070,2056,1194
424,1710926183327400843,2060,2060,2064,2069,2064,2061,1197
425,1710926183337280741,2058,2051,2047,2065,2084,2067,1196
426,1710926183347267172,2054,2058,2065,2000,2043,2063,1194
427,1710926183357272228,2056,2057,2050,1963,2046,2069,1195
428,1710926183367264068,2061,2062,2078,2056,2038,2056,1196
429,1710926183377285014,2056,2056,2055,2061,2079,2076,1194
430,1710926183387291082,2052,2054,2068,2040,2046,2066,1195
431,1710926183397275750,2056,2057,2049,2080,2064,2052,1193
432,1710926183407274584,2052,2052,2057,2068,2044,1984,1192
433,1710926183417275692,2050,2045,2040,2028,2048,2065,1194
434,1710926183427270729,2051,2049,2054,2046,2036,2052,1196
435,1710926183437265946,2059,2065,2064,2128,2069,2049,1194
436,1710926183447277965,2053,2050,2056,2086,2046,2071,1195
437,1710926183457268774,2060,2059,2058,2078,2077,2072,1194
438,1710926183467282406,2056,2053,2065,2096,2036,2051,1195
439,1710926183477266152,2065,2064,2056,2058,2064,2069,1194
440,1710926183487270537,2056,2050,2056,2074,2045,2062,1194
441,1710926183497276435,2053,2053,2044,2049,2056,2048,1196
442,1710926183507263316,2055,2054,2065,2068,2039,2056,1195
443,1710926183517265025,2050,2052,2044,2046,2068,2052,1195
444,1710926183527265522,2051,2050,2057,2091,2040,2093,1193
445,1710926183537279325,2058,2049,2039,2021,2049,2048,1194
446,1710926183547272649,2056,2052,2056,2047,2036,2057,1196
447,1710926183557273036,2063,2060,2057,2095,2086,2065,1194
448,1710926183567265849,2055,2052,2055,2046,2036,2022,1192
449,1710926183577270223,2053,2045,2031,2056,2056,2072,1196
450,1710926183587271683,2053,2056,2058,2058,2032,2058,1195
451,1710926183597321353,2058,2057,2052,2041,2059,2053,1196
452,1710926183607278648,2060,2052,2058,2052,2041,2091,1193
453,1710926183617287912,2054,2054,2046,2060,2080,2056,1195
454,1710926183627267570,2051,2052,2061,2001,2036,2008,1191
455,1710926183637347107,2056,2052,2044,2071,2069,2061,1192
456,1710926183647280367,2056,2051,2060,2063,2032,2063,1196
457,1710926183657264403,2052,2051,2047,2067,2061,2050,1194
458,1710926183667263157,2055,2052,2058,2069,2040,2077,1193
459,1710926183677264375,2055,2053,2044,2024,2060,2052,1194
460,1710926183687273068,2053,2056,2056,2032,2049,2064,1195
461,1710926183697769185,2056,2056,2048,2042,2041,2063,1195
462,1710926183707269514,2056,2057,2064,1980,2028,2046,1193
463,1710926183717262667,2052,2048,2038,2018,2069,2051,1194
464,1710926183727277883,2053,2050,2057,2032,2050,2043,1192
465,1710926183737276807,2053,2054,2045,2076,2074,2056,1196
466,1710926183748145140,2054,2056,2072,2049,2047,2011,1193
467,1710926183757271159,2054,2052,2047,2061,2054,2047,1193
468,1710926183767281736,2054,2046,2052,2036,2039,2052,1197
469,1710926183777283305,2060,2054,2043,2043,2060,2004,1193
470,1710926183787272811,2056,2053,2062,2064,2031,2051,1194
471,1710926183797278999,2056,2036,2037,2028,2062,2047,1192
472,1710926183807268886,2059,2058,2063,2017,2045,2052,1195
473,1710926183817276167,2056,2052,2057,2079,2043,2044,1193
474,1710926183827277505,2056,2057,2060,2088,2040,2049,1195
475,1710926183837292961,2057,2055,2049,2038,2066,2051,1193
476,1710926183847274332,2057,2053,2054,2056,2045,2054,1196
477,1710926183857285660,2052,2049,2044,2080,2059,2058,1194
478,1710926183867274234,2060,2064,2069,2078,2041,2058,1195
479,1710926183877273088,2052,2050,2048,2052,2056,2044,1192
480,1710926183887276091,2053,2052,2061,2061,2047,2067,1193
481,1710926183897275586,2055,2053,2054,2033,2061,2068,1196
482,1710926183907280051,2055,2056,2064,2052,2052,2064,1196
483,1710926183917293964,2056,2053,2047,2066,2070,2058,1193
484,1710926183927280074,2056,2055,2060,2023,2040,2067,1195
485,1710926183937279118,2057,2057,2059,2062,2050,2046,1193
486,1710926183947279374,2050,2056,2074,2040,2057,2072,1195
487,1710926183957259633,2058,2073,2054,2066,2071,2063,1196
488,1710926183967277043,2058,2057,2065,2094,2042,2053,1194
489,1710926183977276999,2052,2049,2053,2069,2075,2049,1194
490,1710926183987277948,2057,2060,2070,2080,2037,2072,1195
491,1710926183997279918,2044,2041,2047,2069,2036,2044,1192
492,1710926184007286366,2054,2056,2056,2104,2047,2053,1195
493,1710926184017280491,2057,2066,2051,2035,2054,2049,1196
494,1710926184027281199,2062,2075,2084,2073,2042,2053,1195
495,1710926184037262700,2049,2047,2041,2121,2067,2060,1194
496,1710926184047263227,2050,2048,2053,2043,2045,2043,1191
497,1710926184057287750,2056,2061,2060,2113,2056,2047,1192
498,1710926184067280763,2059,2057,2069,2136,2060,2050,1196
499,1710926184077262765,2050,2049,2047,2109,2067,2050,1197
500,1710926184087288079,2054,2050,2056,2065,2056,2052,1195
501,1710926184097285531,2057,2053,2044,2072,2077,2065,1195
502,1710926184107283834,2052,2052,2064,2055,2034,2029,1194
503,1710926184117269744,2054,2052,2049,2077,2070,1969,1192
504,1710926184127264210,2056,2060,2066,2091,2046,2052,1196
505,1710926184137267251,2054,2056,2060,2083,2073,2041,1194
506,1710926184147264653,2050,2047,2054,2053,2030,2042,1194
507,1710926184157265270,2053,2052,2058,2060,2054,2051,1195
508,1710926184167286817,2056,2053,2068,2084,2046,2054,1196
509,1710926184177281804,2056,2052,2052,2050,2069,2033,1193
510,1710926184187269427,2056,2059,2069,1998,2029,2056,1194
511,1710926184197287838,2056,2053,2057,2069,2065,2057,1193
512,1710926184207273898,2046,2052,2065,2107,2022,2063,1194
513,1710926184217263244,2052,2054,2044,2061,2061,2048,1194
514,1710926184227267739,2049,2048,2061,2064,2038,2047,1192
515,1710926184237269328,2054,2052,2047,2054,2041,2056,1194
516,1710926184247269185,2052,2048,2054,2015,2062,2064,1197
517,1710926184257270613,2065,2066,2058,2028,2068,2019,1193
518,1710926184267262985,2057,2057,2064,2093,2064,2018,1192
519,1710926184277293138,2054,2056,2064,2110,2046,2048,1195
520,1710926184287269921,2051,2053,2059,2080,2048,2052,1195
521,1710926184297267222,2060,2065,2070,2041,2065,2052,1193
522,1710926184307247802,2042,2029,2040,2046,2025,2040,1193
523,1710926184317275520,2048,2031,2017,2047,2074,2079,1194
524,1710926184327254446,2050,2036,2040,2016,2030,2081,1195
525,1710926184337299388,2058,2046,2048,2082,2079,2064,1195
526,1710926184347306838,2051,2046,2053,2005,2044,2058,1195
527,1710926184357277258,2050,2047,2043,2037,2058,2005,1192
528,1710926184367267918,2056,2056,2061,2056,2048,2057,1193
529,1710926184377303381,2057,2056,2044,2077,2062,2046,1193
530,1710926184387272638,2053,2050,2057,2045,2031,2049,1196
531,1710926184397268637,2046,2041,2033,2077,2066,2049,1194
532,1710926184407274505,2057,2069,2080,2069,2049,2056,1196
533,1710926184417253822,2049,2042,2047,2072,2062,2077,1196
534,1710926184427266942,2054,2070,2062,2062,2035,2042,1190
535,1710926184437267621,2052,2048,2045,2047,2064,2053,1193
536,1710926184447268198,2050,2049,2057,2100,2032,2029,1192
537,1710926184457264758,2054,2033,2036,1984,2058,2008,1191
538,1710926184467282738,2054,2049,2047,2062,2052,2057,1196
539,1710926184477271242,2050,2057,2061,2059,2064,2068,1194
540,1710926184487278492,2048,2061,2082,2113,2060,2075,1195
541,1710926184497274271,2038,2046,2043,2090,2073,2045,1192
542,1710926184507263737,2043,2058,2050,2067,2055,2057,1195
543,1710926184517285284,2033,2042,2069,2083,2057,1992,1190
544,1710926184527269952,2049,2050,2061,2072,2059,2070,1193
545,1710926184537271180,2057,2044,2041,2042,2056,2057,1194
546,1710926184547271617,2051,2046,2049,2051,2024,2048,1196
547,1710926184557269108,2058,2088,2076,2071,2067,2059,1196
548,1710926184567260238,2032,2044,2047,2069,2049,2033,1194
549,1710926184577272257,2047,2058,2064,2062,2049,2064,1196
550,1710926184587287442,2127,2073,2061,2096,2043,2042,1194
551,1710926184597268282,2040,2029,2028,2042,2014,2044,1193
552,1710926184607258339,2053,2040,2058,2069,2040,2050,1194
553,1710926184617271020,2035,2047,2047,2042,2060,2050,1196
554,1710926184627268892,2031,2052,2057,1992,2025,2130,1197
555,1710926184637266033,2056,2058,2051,2003,2044,2105,1194
556,1710926184647268975,2069,2065,2071,2120,2040,2049,1196
557,1710926184657269943,2065,2056,2052,2061,2076,2069,1195
558,1710926184667276982,2052,2068,2067,2060,2040,2053,1195
559,1710926184677280105,2055,2047,2054,2104,2073,2055,1195
560,1710926184687269140,2054,2054,2072,2112,2078,2109,1196
561,1710926184697272573,2053,2051,2053,2022,2065,2050,1197
562,1710926184707253243,2050,2057,2064,2085,2029,2048,1196
563,1710926184717276834,2042,2049,2041,2047,2077,2029,1192
564,1710926184727270718,2047,2041,2067,2092,2044,2068,1195
565,1710926184737270704,2083,2071,2038,2061,2064,2059,1194
566,1710926184747268817,2048,2040,2041,2048,2058,2067,1193
567,1710926184757268563,2065,2058,2042,2049,2069,2053,1196
568,1710926184767269512,2046,2047,2067,2050,2047,2050,1197
569,1710926184777250832,2033,2031,2036,2033,2061,2049,1195
570,1710926184787266969,2049,2056,2070,2080,2056,2067,1196
571,1710926184797188817,2049,2074,2061,2054,2071,2050,1196
572,1710926184807257173,2045,2045,2056,2041,2047,2090,1195
573,1710926184817229567,2045,2046,2043,2061,2044,2042,1192
574,1710926184827244842,2061,2056,2060,2056,2043,2024,1193
575,1710926184837270327,2068,2068,2075,2076,2077,2062,1194
576,1710926184847214627,2039,2046,2046,2034,2034,2048,1197
577,1710926184857199395,2056,2069,2066,2094,2074,2056,1197
578,1710926184867270766,2064,2056,2066,2049,2058,2068,1197
579,1710926184877228964,2046,2058,2044,2045,2038,2050,1198
580,1710926184887281419,2053,2047,2052,2050,2045,2029,1193
581,1710926184897271006,2058,2062,2056,2047,2060,2054,1197
582,1710926184907269609,2032,2053,2046,2041,2027,2050,1196
583,1710926184917271890,2054,2044,2045,2018,2076,2031,1195
584,1710926184927289670,2052,2057,2045,2067,2046,2065,1195
585,1710926184937266713,2056,2050,2059,2039,2068,2060,1198
586,1710926184947268583,2056,2052,2052,2068,2045,2072,1196
587,1710926184957266455,2050,2025,2029,2045,2078,2019,1193
588,1710926184967266641,2063,2071,2058,2001,2015,2049,1197
589,1710926184977269182,2058,2064,2080,2120,2089,2068,1196
590,1710926184987272295,2056,2075,2073,2072,2060,2074,1195
591,1710926184997265167,2058,2050,2044,2045,2061,2052,1197
592,1710926185007265665,2050,2054,2046,2031,1997,2031,1192
593,1710926185017265731,2058,2060,2055,2079,2077,2050,1194
594,1710926185027263713,2056,2056,2056,2076,2053,1988,1192
595,1710926185037189349,2045,2034,2048,2044,2045,2046,1190
596,1710926185047267904,2057,2080,2100,2090,2077,2073,1194
597,1710926185057268852,2061,2052,2035,2046,2049,2077,1194
598,1710926185067267886,2056,2053,2058,2064,2052,2056,1194
599,1710926185077268033,2053,2054,2047,2069,2076,2053,1194
600,1710926185087234586,2048,2042,2054,2036,2036,2038,1192
601,1710926185097272093,2052,2046,2046,2048,2069,2036,1193
602,1710926185107269584,2054,2075,2068,2048,2037,2056,1195
603,1710926185117271073,2054,2044,2044,2051,2069,2058,1195
604,1710926185127272101,2053,2053,2056,1961,2024,2004,1194
605,1710926185137275063,2054,2069,2064,2051,2068,2056,1196
606,1710926185147273556,2059,2067,2060,2053,2039,2045,1193
607,1710926185157271118,2052,2034,2034,2043,2054,2060,1197
608,1710926185167271575,2060,2064,2064,2038,2042,2056,1196
609,1710926185177271892,2053,2049,2045,1992,2042,2052,1195
610,1710926185187281176,2045,2052,2058,2082,2058,2056,1193
611,1710926185197258269,2059,2080,2076,2048,2043,2072,1196
612,1710926185207274235,2069,2050,2053,2058,2040,2054,1196
613,1710926185217273891,2055,2090,2068,2064,2061,2060,1195
614,1710926185227279829,2052,2046,2060,2036,2037,2076,1194
615,1710926185237276518,2056,2049,2040,2024,2065,2052,1194
616,1710926185247274050,2060,2065,2080,2075,2056,2058,1197
617,1710926185257275018,2048,2034,2026,2029,2038,2040,1194
618,1710926185267275124,2051,2054,2046,2088,2043,2050,1197
619,1710926185277276563,2060,2073,2065,2100,2077,2060,1195
620,1710926185287291057,2052,2057,2060,2069,2058,2080,1195
621,1710926185297230578,2054,2052,2052,2044,2062,2056,1193
622,1710926185307273757,2052,2066,2058,2042,2046,2056,1194
623,1710926185317273362,2060,2071,2050,2064,2078,2062,1197
624,1710926185327278367,2060,2056,2069,2076,2048,2083,1195
625,1710926185337273014,2053,2044,2047,2027,2064,2057,1198
626,1710926185347248393,2049,2082,2064,2076,2053,2053,1197
627,1710926185357185480,2055,2052,2045,2056,2076,2062,1196
628,1710926185367254327,2052,2056,2056,2037,2036,2012,1194
629,1710926185377301924,2054,2055,2045,2104,2067,2083,1196
630,1710926185387281551,2052,2039,2046,2078,2049,2045,1192
631,1710926185397279133,2064,2097,2067,2075,2060,2049,1194
632,1710926185407280552,2053,2057,2046,2081,2041,2043,1195
633,1710926185417268605,2064,2056,2062,2051,2070,2062,1196
634,1710926185427282818,2055,2053,2054,1981,2031,2028,1193
635,1710926185437282304,2050,2044,2047,2049,2059,2054,1194
636,1710926185447282601,2051,2040,2057,2073,2044,2052,1196
637,1710926185457238423,2059,2049,2044,2050,2050,2064,1197
638,1710926185467283624,2049,2040,2052,2054,2047,2092,1196
639,1710926185477294712,2053,2073,2072,2008,2058,2047,1193
640,1710926185487212613,2066,2088,2071,2046,2044,1968,1193
641,1710926185497296808,2064,2056,2056,2122,2078,2059,1194
642,1710926185507213316,2049,2042,2064,2097,2049,2054,1195
643,1710926185517269128,2059,2056,2052,2050,2065,2068,1196
644,1710926185527266860,2053,2057,2068,2055,2047,2055,1194
645,1710926185537277156,2058,2060,2068,2010,2052,2038,1192
646,1710926185547248989,2047,2046,2029,2036,2049,2091,1195
647,1710926185557266749,2051,2048,2051,2064,2076,2068,1197
648,1710926185567265763,2053,2073,2066,2064,2036,2051,1195
649,1710926185577283343,2052,2061,2041,2004,2045,2028,1193
650,1710926185587270615,2060,2052,2053,2028,2050,2056,1196
651,1710926185597254150,2060,2058,2052,2062,2075,2066,1195
652,1710926185607264075,2059,2078,2081,2082,2068,2064,1194
653,1710926185617263931,2057,2049,2045,2096,2062,2021,1194
654,1710926185627320775,2056,2056,2057,2086,2051,2018,1196
655,1710926185637271127,2056,2040,2041,2057,2072,2060,1194
656,1710926185647289738,2059,2056,2062,2033,2045,2062,1194
657,1710926185657261180,2047,2047,2033,2046,2044,2021,1193
658,1710926185667287126,2053,2052,2066,2053,2039,2044,1193
659,1710926185677283725,2057,2060,2054,1999,2048,2050,1194
660,1710926185687272189,2058,2040,2037,2092,2045,2049,1196
661,1710926185697274130,2052,2043,2040,2031,2062,2024,1192
662,1710926185707268856,2061,2054,2052,2064,2056,2056,1195
663,1710926185717270345,2051,2046,2053,2079,2088,2062,1197
664,1710926185727269851,2047,2044,2070,1902,2024,2036,1194
665,1710926185737269947,2055,2033,2040,2058,2080,2068,1194
666,1710926185747226541,2062,2074,2079,2027,2045,2057,1195
667,1710926185757269158,2053,2077,2057,2068,2069,2062,1197
668,1710926185767275206,2052,2052,2060,2028,2040,2062,1197
669,1710926185777286874,2046,2052,2048,1986,2052,2044,1193
670,1710926185787276270,2052,2053,2053,2015,2038,2050,1194
671,1710926185797267930,2045,2032,2026,2073,2055,2030,1192
672,1710926185807269239,2053,2047,2057,2098,2064,2052,1196
673,1710926185817272331,2055,2078,2074,2046,2071,2044,1192
674,1710926185827269642,2060,2048,2050,2043,2041,2047,1192
675,1710926185837274778,2057,2054,2056,2068,2060,2053,1194
676,1710926185847271618,2054,2051,2052,2042,2041,2053,1195
677,1710926185857269861,2054,2075,2062,2043,2045,2040,1193
678,1710926185867269356,2069,2083,2104,2009,2032,2021,1194
679,1710926185877269954,2047,2053,2046,2064,2053,2042,1193
680,1710926185887276272,2059,2056,2056,2060,2042,2060,1194
681,1710926185897269415,2047,2042,2040,2048,2056,2002,1192
682,1710926185907265644,2048,2060,2040,2033,2045,2061,1195
683,1710926185917270480,2056,2049,2049,1998,2057,2076,1194
684,1710926185927266639,2052,2053,2068,2096,2049,2059,1196
685,1710926185937267076,2052,2056,2050,1992,2034,2064,1195
686,1710926185947264247,2065,2065,2058,2052,2049,2051,1196
687,1710926185957265245,2053,2065,2052,2080,2064,2054,1197
688,1710926185967265962,2052,2054,2056,2086,2056,2030,1194
689,1710926185977291527,2050,2034,2029,2072,2068,2064,1196
690,1710926185987267638,2058,2056,2047,2082,2056,2064,1195
691,1710926185997267554,2056,2083,2073,2139,2070,2067,1196
692,1710926186007268281,2056,2063,2072,2085,2047,2069,1195
693,1710926186017271213,2057,2054,2045,2049,2076,2058,1196
694,1710926186027266531,2054,2057,2050,2042,2040,2053,1195
695,1710926186037266396,2052,2041,2042,1996,2069,2080,1193
696,1710926186047266613,2050,2068,2060,2085,2052,2056,1196
697,1710926186057270968,2049,2043,2047,2079,2063,2045,1192
698,1710926186067282285,2052,2050,2058,2085,2056,2011,1193
699,1710926186077277232,2049,2045,2047,2050,2056,2059,1196
700,1710926186087265646,2058,2056,2065,2073,2061,2045,1192
701,1710926186097263268,2053,2073,2061,2050,2057,2050,1194
702,1710926186107266149,2047,2044,2072,2051,2058,2046,1192
703,1710926186117268840,2056,2065,2069,2052,2063,2062,1195
704,1710926186127277343,2051,2058,2056,2106,2050,2056,1195
705,1710926186137268652,2046,2037,2030,2031,2043,2046,1193
706,1710926186147266514,2053,2045,2053,2061,2047,2057,1196
707,1710926186157269446,2064,2060,2054,2009,2064,2075,1196
708,1710926186167269422,2057,2053,2064,2070,2053,2083,1196
709,1710926186177285679,2053,2069,2054,2117,2056,2043,1194
710,1710926186187265076,2047,2037,2046,1985,2041,2062,1196
711,1710926186197266826,2055,2049,2050,2053,2075,2068,1197
712,1710926186207265279,2056,2057,2049,2029,2062,2062,1195
713,1710926186217267840,2051,2057,2041,2060,2039,2026,1194
714,1710926186227268106,2064,2052,2068,2017,2052,2046,1194
715,1710926186237264476,2065,2057,2069,2076,2067,2048,1196
716,1710926186247265855,2056,2048,2046,2068,2053,2069,1197
717,1710926186257270590,2057,2053,2043,2026,2046,2042,1194
718,1710926186267270886,2060,2060,2061,2056,2049,2068,1197
719,1710926186277277616,2050,2052,2049,2081,2062,2064,1195
720,1710926186287273144,2047,2061,2048,2100,2046,2072,1195
721,1710926186297272218,2054,2049,2032,2020,2054,2068,1196
722,1710926186307267314,2043,2037,2043,2056,2045,2045,1194
723,1710926186317268683,2047,2046,2038,2054,2061,2050,1194
724,1710926186327297704,2054,2060,2071,2040,2045,2056,1195
725,1710926186337269838,2056,2047,2036,2015,2049,2069,1195
726,1710926186347279132,2060,2089,2089,2048,2037,2043,1192
727,1710926186357263508,2065,2073,2057,2072,2070,2058,1196
728,1710926186367265187,2049,2049,2060,2077,2035,2053,1197
729,1710926186377288999,2053,2056,2054,2038,2067,2044,1195
730,1710926186387264849,2051,2047,2050,2058,2041,2052,1197
731,1710926186397264464,2052,2028,2052,2034,2064,2061,1196
732,1710926186407259561,2061,2056,2059,2041,2060,2040,1194
733,1710926186417267713,2064,2050,2055,2076,2072,2052,1194
734,1710926186427269483,2060,2077,2059,2056,2038,2021,1193
735,1710926186437263828,2052,2052,2056,2027,2033,2040,1193
736,1710926186447264215,2056,2069,2059,2054,2052,2060,1196
737,1710926186457265423,2055,2067,2067,2056,2064,2061,1196
738,1710926186467268065,2058,2058,2068,2051,2056,2048,1196
739,1710926186477279693,2057,2067,2070,2003,2069,2059,1196
740,1710926186487262807,2052,2082,2092,2015,2040,2064,1197
741,1710926186497263665,2049,2043,2030,2029,2067,2050,1197
742,1710926186507261677,2059,2056,2059,2042,2029,2053,1195
743,1710926186517264168,2060,2031,2033,2068,2080,2025,1194
744,1710926186527272219,2056,2040,2055,2100,2056,2022,1194
745,1710926186537265543,2047,2049,2032,2032,2052,2041,1195
746,1710926186547263795,2054,2039,2046,2062,2056,2053,1198
747,1710926186557266296,2062,2053,2041,2058,2074,2086,1196
748,1710926186567282123,2053,2057,2052,2035,2056,2084,1195
749,1710926186577277079,2054,2043,2041,2045,2071,2003,1193
750,1710926186587258079,2065,2040,2042,2067,2056,2062,1198
751,1710926186597266472,2056,2050,2048,2043,2056,2049,1198
752,1710926186607264835,2054,2049,2064,1992,2024,2050,1196
753,1710926186617264400,2055,2035,2046,2084,2065,2068,1198
754,1710926186627270177,2060,2042,2049,2037,2056,2059,1196
755,1710926186637265534,2062,2060,2045,2028,2073,2108,1196
756,1710926186647268957,2050,2044,2055,2056,2054,2046,1192
757,1710926186657268382,2054,2044,2043,2057,2057,2061,1195
758,1710926186667263729,2060,2057,2057,2061,2033,2029,1193
759,1710926186677273935,2054,2054,2059,2093,2075,2072,1196
760,1710926186687270445,2049,2046,2051,2074,2045,2048,1195
761,1710926186697266052,2063,2052,2044,2052,2057,2051,1194
762,1710926186707271248,2050,2055,2054,1998,2024,2047,1194
763,1710926186717268730,2053,2041,2043,2045,2066,2041,1192
764,1710926186727271501,2056,2040,2046,2050,2062,2088,1197
765,1710926186737267950,2057,2062,2061,2140,2065,2051,1195
766,1710926186747268358,2057,2069,2065,2061,2040,2052,1194
767,1710926186757274465,2053,2037,2041,2009,2064,2082,1196
768,1710926186767265985,2054,2064,2062,2018,2045,2057,1194
769,1710926186777270510,2052,2040,2042,2059,2062,2072,1193
770,1710926186787266348,2050,2035,2051,2066,2057,2059,1194
771,1710926186797263880,2049,2031,2024,1987,2058,2045,1194
772,1710926186807267452,2053,2062,2080,2032,2041,2053,1195
773,1710926186817283970,2052,2051,2050,2069,2049,2045,1192
774,1710926186827280450,2044,2060,2088,2063,2045,2078,1198
775,1710926186837279634,2058,2072,2067,2040,2053,2050,1194
776,1710926186847272006,2056,2058,2060,2014,2042,2048,1194
777,1710926186857266302,2056,2050,2046,2102,2056,2050,1193
778,1710926186867272590,2060,2052,2053,2007,2038,2052,1194
779,1710926186877269219,2052,2026,2044,2058,2062,2065,1194
780,1710926186887268664,2070,2046,2082,2060,2061,2059,1195
781,1710926186897299139,2050,2036,2055,2054,2051,2045,1194
782,1710926186907272524,2061,2052,2060,2071,2047,2019,1194
783,1710926186917267361,2061,2068,2052,1985,2058,2053,1196
784,1710926186927275211,2042,2043,2051,2037,2022,2015,1192
785,1710926186937270188,2056,2066,2061,1981,2056,2047,1193
786,1710926186947274943,2048,2061,2052,2019,2043,2047,1192
787,1710926186957269429,2047,2057,2053,2058,2065,2033,1195
788,1710926186967270938,2058,2061,2068,2104,2056,2057,1196
789,1710926186977286333,2046,2044,2041,2011,2050,2047,1193
790,1710926186987272693,2056,2044,2061,2080,2049,2069,1197
791,1710926186997295022,2060,2047,2052,2078,2076,2029,1192
792,1710926187007257397,2056,2037,2033,2063,2052,2043,1195
793,1710926187017268113,2056,2050,2041,2053,2062,2048,1194
794,1710926187027267969,2052,2050,2057,2087,2046,2029,1194
795,1710926187037269058,2047,2045,2032,2107,2072,2061,1194
796,1710926187047269434,2048,2014,2033,2046,2037,2062,1196
797,1710926187057273768,2070,2056,2057,2066,2082,2064,1196
798,1710926187067270408,2052,2057,2054,2037,2043,2050,1195
799,1710926187077275865,2056,2065,2069,2074,2059,2072,1194
800,1710926187087254440,2056,2052,2059,2001,2027,2068,1202
801,1710926187097276378,2061,2074,2054,2066,2069,2062,1197
802,1710926187107274701,2049,2063,2050,1968,2036,2057,1195
803,1710926187117274456,2056,2056,2066,2042,2058,2011,1193
804,1710926187127274322,2052,2030,2048,2136,2042,2051,1194
805,1710926187137274529,2058,2053,2050,2051,2049,2052,1197
806,1710926187147282420,2060,2066,2064,2112,2046,2061,1196
807,1710926187157273690,2065,2078,2056,2076,2060,2052,1196
808,1710926187167274317,2047,2042,2046,2069,2047,2048,1195
809,1710926187177285594,2052,2049,2041,2043,2044,2038,1194
810,1710926187187275010,2056,2060,2069,2053,2037,2058,1198
811,1710926187197304923,2048,2020,2041,2080,2072,2052,1195
812,1710926187207210350,2060,2064,2058,1979,2035,2052,1195
813,1710926187217275810,2064,2065,2080,2046,2048,2045,1194
814,1710926187227279814,2054,2049,2045,2059,2045,2057,1196
815,1710926187237276554,2050,2050,2038,2053,2058,2046,1192
816,1710926187247279936,2057,2041,2044,2026,2046,2061,1194
817,1710926187257278800,2061,2054,2047,2029,2056,2067,1194
818,1710926187267260591,2052,2028,2057,2010,2048,2056,1194
819,1710926187277285565,2063,2049,2056,2091,2051,2060,1194
820,1710926187287279881,2067,2072,2069,2075,2060,2107,1195
821,1710926187297283524,2054,2049,2042,2046,2059,2056,1195
822,1710926187307281145,2052,2054,2069,2109,2061,2065,1195
823,1710926187317263548,2056,2056,2049,2056,2072,2056,1193
824,1710926187327264596,2054,2040,2037,2095,2047,2052,1196
825,1710926187337263861,2050,2052,2032,2028,2069,2052,1195
826,1710926187347276882,2047,2045,2054,2086,2054,2052,1197
827,1710926187357282969,2050,2028,2041,2080,2065,2049,1197
828,1710926187367265252,2056,2056,2075,2081,2052,2038,1193
829,1710926187377291788,2054,2045,2034,2067,2064,1995,1192
830,1710926187387265855,2056,2053,2048,2071,2044,2058,1195
831,1710926187397267153,2056,2053,2048,2043,2061,2072,1195
832,1710926187407267781,2054,2057,2054,2052,2038,2059,1195
833,1710926187417266304,2060,2061,2077,2078,2076,2060,1196
834,1710926187427212999,2052,2046,2061,2000,2054,2056,1196
835,1710926187437264252,2054,2052,2046,2017,2057,2061,1196
836,1710926187447220114,2052,2023,2042,2033,2040,2050,1193
837,1710926187457225671,2057,2057,2060,2058,2060,2055,1195
838,1710926187467263690,2052,2052,2066,2038,2044,2060,1195
839,1710926187477206607,2065,2052,2052,2088,2074,2018,1193
840,1710926187487238284,2053,2047,2072,2056,2040,2052,1197
841,1710926187497269920,2054,2054,2044,2037,2053,2064,1195
842,1710926187507242073,2052,2064,2061,2036,2033,2067,1197
843,1710926187517266355,2056,2051,2053,2025,2070,2034,1192
844,1710926187527266271,2050,2038,2046,2053,2047,2052,1197
845,1710926187537269022,2068,2066,2056,2053,2064,2042,1192
846,1710926187547278466,2056,2048,2057,2067,2036,2054,1195
847,1710926187557272642,2052,2079,2057,2056,2052,2052,1197
848,1710926187567270163,2048,2056,2057,2044,2046,2075,1196
849,1710926187577269979,2050,2051,2041,1992,2052,2048,1196
850,1710926187587243164,2052,2032,2026,2002,2042,2053,1196
851,1710926187597278567,2060,2032,2026,2060,2060,2044,1193
852,1710926187607272762,2058,2036,2053,2024,2058,2065,1194
853,1710926187617265334,2062,2076,2060,2071,2058,2053,1194
854,1710926187627265531,2056,2048,2048,2077,2069,2090,1197
855,1710926187637265317,2062,2070,2064,2029,2064,2070,1194
856,1710926187647282916,2049,2047,2054,2060,2041,2048,1197
857,1710926187657274225,2059,2058,2069,2108,2076,2057,1196
858,1710926187667269903,2058,2056,2059,2062,2046,2056,1195
859,1710926187677319273,2050,2037,2054,2101,2074,2064,1195
860,1710926187687271048,2060,2060,2065,2086,2024,2056,1197
861,1710926187697241789,2061,2068,2040,1949,2076,2072,1197
862,1710926187707266131,2051,2056,2065,2056,2058,2054,1197
863,1710926187717268070,2060,2062,2051,2047,2062,2022,1192
864,1710926187727266073,2056,2040,2057,2082,2053,2082,1195
865,1710926187737264957,2062,2046,2052,1988,2045,2054,1196
866,1710926187747279912,2052,2041,2060,2084,2046,2065,1195
867,1710926187757268827,2054,2036,2042,2049,2060,2049,1197
868,1710926187767266859,2059,2072,2095,1988,2035,2051,1196
869,1710926187777306169,2058,2052,2054,2040,2078,2030,1193
870,1710926187787275377,2051,2062,2064,2071,2048,2046,1193
871,1710926187797281375,2048,2033,2029,2027,2064,2054,1196
872,1710926187807268497,2045,2029,2052,2044,2036,2059,1194
873,1710926187817269565,2057,2048,2064,2099,2068,2061,1193
874,1710926187827268308,2049,2051,2061,2012,2029,2067,1195
875,1710926187837267743,2056,2053,2045,2053,2047,2068,1192
876,1710926187847288889,2065,2089,2092,2036,2051,2069,1195
877,1710926187857274468,2050,2040,2040,2041,2052,2070,1196
878,1710926187867271850,2060,2072,2060,2043,2043,2015,1193
879,1710926187877288657,2058,2058,2047,2057,2075,2058,1194
880,1710926187887272803,2054,2049,2045,2043,2053,2049,1195
881,1710926187897327703,2058,2049,2060,2109,2072,2040,1191
882,1710926187907266974,2057,2069,2064,2051,2037,2064,1194
883,1710926187917272401,2060,2079,2066,2086,2055,2043,1193
884,1710926187927267598,2047,2044,2046,2040,2038,2044,1192
885,1710926187937270740,2052,2047,2042,2062,2047,2068,1197
886,1710926187947265145,2058,2066,2064,2065,2058,2060,1196
887,1710926187957264140,2055,2040,2038,2082,2070,2078,1195
888,1710926187967273703,2064,2085,2080,2075,2055,2046,1192
889,1710926187977218625,2048,2055,2040,2051,2064,2058,1195
890,1710926187987269749,2053,2044,2056,2018,2024,2052,1194
891,1710926187997255237,2056,2050,2034,2011,2057,2053,1196
892,1710926188007292323,2060,2053,2047,2044,2047,2050,1196
893,1710926188017275718,2050,2038,2030,2076,2064,2053,1196
894,1710926188027265965,2052,2096,2076,2061,2052,2068,1195
895,1710926188037267966,2053,2052,2051,2032,2049,2013,1190
896,1710926188047261029,2058,2056,2068,2067,2039,2009,1192
897,1710926188057263960,2053,2052,2040,2084,2056,2045,1192
898,1710926188067274957,2053,2056,2068,2104,2066,2069,1194
899,1710926188077253262,2048,2049,2036,2073,2053,2060,1193
900,1710926188087272394,2048,2002,2042,2085,2053,2069,1194
901,1710926188097266368,2056,2030,2036,2004,2020,2012,1193
902,1710926188107274971,2056,2074,2074,2013,2056,2064,1195
903,1710926188117240682,2047,2046,2053,2059,2060,2040,1192
904,1710926188127274843,2061,2065,2068,2064,2057,2055,1193
905,1710926188137275300,2056,2061,2040,2042,2076,2086,1194
906,1710926188147271278,2049,2072,2065,2053,2034,2036,1193
907,1710926188157269701,2053,2047,2042,2047,2062,2051,1196
908,1710926188167269367,2049,2045,2042,2040,2047,2066,1194
909,1710926188177298297,2057,2043,2056,2040,2044,2053,1198
910,1710926188187270721,2057,2025,2049,2114,2048,2054,1197
911,1710926188197273944,2056,2061,2074,2049,2064,2065,1197
912,1710926188207270343,2054,2042,2053,2054,2032,2053,1195
913,1710926188217271471,2068,2064,2057,2033,2044,2058,1195
914,1710926188227275144,2050,2045,2036,2076,2048,2056,1195
915,1710926188237266754,2067,2065,2059,2084,2053,2047,1194
916,1710926188247267542,2063,2047,2057,2061,2051,2036,1195
917,1710926188257273469,2052,2068,2043,2057,2076,2056,1195
918,1710926188267298212,2051,2046,2061,2060,2045,2053,1197
919,1710926188277213026,2060,2066,2056,2053,2044,2048,1196
920,1710926188287270913,2059,2062,2050,2101,2049,2050,1195
921,1710926188297258525,2047,2051,2005,2052,2044,2041,1193
922,1710926188307264522,2052,2041,2058,2074,2040,2051,1197
923,1710926188317275900,2050,2036,2048,2017,2058,2052,1198
924,1710926188327294982,2064,2073,2065,2091,2061,2052,1195
925,1710926188337274569,2054,2056,2068,2070,2066,2060,1196
926,1710926188347277952,2049,2049,2056,2074,2049,2069,1196
927,1710926188357243102,2052,2051,2043,1984,2041,2064,1197
928,1710926188367269558,2060,2045,2046,2065,2042,2048,1197
929,1710926188377189462,2053,2052,2040,2028,2069,2081,1196
930,1710926188387295059,2060,2058,2076,2062,2046,2068,1196
931,1710926188397272782,2056,2034,2040,2109,2069,2062,1193
932,1710926188407271346,2065,2059,2054,2148,2058,2065,1194
933,1710926188417274207,2055,2044,2041,2104,2064,2064,1195
934,1710926188427270336,2051,2038,2052,2036,2035,2052,1195
935,1710926188437236177,2057,2060,2045,2066,2072,2061,1193
936,1710926188447272743,2056,2043,2059,2066,2047,2042,1192
937,1710926188457241750,2060,2075,2052,2045,2062,2061,1194
938,1710926188467272564,2047,2045,2049,2012,2021,2047,1190
939,1710926188477274023,2047,2089,2058,2029,2064,2050,1194
940,1710926188487288176,2049,2057,2052,2069,2045,2051,1196
941,1710926188497272191,2048,2024,2020,2050,2058,2054,1194
942,1710926188507272939,2052,2044,2047,2052,2040,2048,1192
943,1710926188517273867,2055,2062,2045,1976,2045,2034,1192
944,1710926188527309000,2056,2047,2052,2090,2075,2058,1193
945,1710926188537244784,2050,2032,2049,2048,2057,2047,1192
946,1710926188547275659,2057,2037,2045,2065,2056,2053,1195
947,1710926188557273160,2052,2047,2053,1976,2058,2056,1196
948,1710926188567273466,2056,2044,2062,2098,2052,2059,1194
949,1710926188577275085,2056,2048,2034,2048,2074,2061,1195
950,1710926188587282215,2054,2046,2064,2079,2059,2065,1193
951,1710926188597245642,2058,2027,2038,2052,2060,2048,1194
952,1710926188607280223,2051,2029,2021,2097,2055,2050,1196
953,1710926188617266844,2056,2040,2037,2073,2070,2072,1195
954,1710926188627280075,2057,2058,2064,2049,2045,2017,1192
955,1710926188637225458,2053,2029,2028,2068,2070,2072,1192
956,1710926188647272623,2056,2034,2049,2066,2045,2056,1194
957,1710926188657279021,2060,2054,2075,2026,2049,2057,1195
958,1710926188667280169,2046,2041,2051,2094,2054,2057,1193
959,1710926188677281398,2056,2039,2052,2099,2077,2066,1194
960,1710926188687285231,2048,2027,2053,2040,2045,2042,1194
961,1710926188697260721,2056,2078,2056,2033,2053,2042,1192
962,1710926188707269303,2045,2040,2043,2094,2019,2044,1192
963,1710926188717282104,2053,2042,2030,2066,2070,2050,1194
964,1710926188727262021,2053,2065,2067,2057,2046,2064,1196
965,1710926188737277507,2053,2052,2043,2028,2060,2050,1197
966,1710926188747268215,2072,2084,2084,2091,2073,2067,1196
967,1710926188757268131,2054,2080,2062,1987,2042,2054,1197
968,1710926188767266564,2049,2050,2044,2060,2050,2056,1194
969,1710926188777277771,2052,2047,2045,2056,2057,2050,1193
970,1710926188787266206,2061,2074,2100,2044,2041,2049,1197
971,1710926188797195217,2057,2046,2040,1996,2072,2057,1195
972,1710926188807267069,2058,2056,2074,2048,2044,2054,1195
973,1710926188817277796,2061,2082,2084,2032,2053,2062,1194
974,1710926188827268624,2041,2024,2031,2072,2046,2050,1194
975,1710926188837270665,2051,2046,2053,2062,2046,2037,1189
976,1710926188847262805,2059,2057,2053,2077,2046,2061,1193
977,1710926188857268322,2052,2051,2044,2072,2067,2056,1194
978,1710926188867270583,2053,2042,2052,2009,2049,2050,1193
979,1710926188877267753,2053,2041,2052,2105,2069,2060,1195
980,1710926188887271496,2060,2061,2064,2087,2068,2074,1197
981,1710926188897262605,2053,2080,2061,2074,2072,2075,1195
982,1710926188907269043,2048,2039,2046,2036,2039,2047,1190
983,1710926188917228683,2056,2038,2047,1999,2063,2053,1193
984,1710926188927261441,2057,2081,2096,2077,2044,2053,1195
985,1710926188937291094,2056,2056,2060,2070,2050,2016,1193
986,1710926188947268347,2058,2066,2058,2044,2041,2043,1192
987,1710926188957264746,2057,2060,2056,2076,2084,2061,1196
988,1710926188967265102,2054,2051,2065,2076,2049,2060,1196
989,1710926188977263034,2055,2054,2063,2047,2053,2037,1192
990,1710926188987272639,2057,2055,2061,2102,2056,2061,1196
991,1710926188997259319,2050,2038,2023,2047,2051,2064,1194
992,1710926189007268242,2060,2044,2046,2052,2050,2063,1194
993,1710926189017274130,2045,2005,2016,2090,2064,2056,1196
994,1710926189027268005,2068,2066,2075,2076,2056,2062,1195
995,1710926189037274051,2052,2045,2040,2001,2057,2056,1193
996,1710926189047273246,2057,2064,2055,2108,2038,2051,1195
997,1710926189057267561,2058,2072,2042,2065,2065,2054,1196
998,1710926189067266776,2050,2053,2073,2025,2052,2059,1192
999,1710926189077264958,2056,2078,2060,2092,2067,2054,1193
1000,1710926189087268601,2052,2050,2053,2040,2033,2064,1194
1001,1710926189097193755,2053,2060,2047,2068,2068,2054,1196
1002,1710926189107213729,2048,2045,2041,2021,2036,2043,1192
1003,1710926189117269581,2052,2072,2063,2062,2063,2053,1195
1004,1710926189127271270,2056,2066,2079,2070,2045,2078,1197
1005,1710926189137255556,2056,2064,2070,2093,2074,2052,1196
1006,1710926189147276432,2058,2043,2073,2079,2048,2056,1194
1007,1710926189157273993,2052,2037,2041,2076,2061,2045,1192
1008,1710926189167271033,2056,2028,2046,2072,2049,2057,1196
1009,1710926189177316626,2065,2049,2051,2059,2041,2067,1195
1010,1710926189187258081,2056,2024,2049,1993,2046,2058,1195
1011,1710926189197266012,2061,2056,2052,2041,2060,2049,1194
1012,1710926189207238706,2064,2059,2064,2105,2035,1997,1192
1013,1710926189217267888,2054,2051,2034,2080,2073,2053,1194
1014,1710926189227245451,2056,2052,2060,2069,2049,2052,1194
1015,1710926189237252931,2058,2096,2088,2078,2072,2066,1192
1016,1710926189247269599,2056,2064,2062,2048,2053,2062,1194
1017,1710926189257270055,2052,2033,2036,2028,2059,2049,1193
1018,1710926189267270843,2059,2069,2077,2078,2060,2053,1196
1019,1710926189277242204,2052,2054,2047,2088,2070,2052,1197
1020,1710926189287274171,2043,2038,2064,2070,2042,2061,1194
1021,1710926189297271172,2059,2068,2049,2018,2069,2048,1194
1022,1710926189307268893,2050,2047,2057,2040,2033,2072,1196
1023,1710926189317265032,2058,2064,2051,2028,2051,2057,1197
1024,1710926189327219332,2056,2056,2061,2073,2039,2052,1196
1025,1710926189337268621,2056,2058,2030,1989,2065,2063,1197
1026,1710926189347246575,2054,2061,2077,2084,2027,2087,1196
1027,1710926189357236372,2058,2050,2029,2044,2068,2058,1195
1028,1710926189367272035,2048,2044,2047,2049,2042,2064,1196
1029,1710926189377239429,2057,2058,2056,2056,2056,2057,1195
1030,1710926189387252650,2056,2043,2061,2056,2041,2009,1192
1031,1710926189397245543,2061,2064,2067,2019,2064,2058,1195
1032,1710926189407271338,2048,2038,2038,2059,2064,2052,1194
1033,1710926189417282635,2048,2041,2044,2062,2065,2084,1195
1034,1710926189427222577,2060,2072,2057,2037,2030,1980,1194
1035,1710926189437241610,2054,2055,2051,1992,2054,2041,1191
1036,1710926189447256293,2054,2064,2064,2076,2052,2059,1195
1037,1710926189457271047,2056,2056,2062,2067,2067,2056,1194
1038,1710926189467266034,2050,2059,2090,2058,2046,2057,1195
1039,1710926189477279565,2048,2037,2034,2080,2069,2049,1197
1040,1710926189487274382,2060,2097,2092,2062,2046,2052,1196
1041,1710926189497271863,2047,2024,2037,2055,2056,2050,1196
1042,1710926189507270396,2056,2050,2066,2071,2057,2056,1194
1043,1710926189517269210,2052,2032,2045,2000,2058,2047,1194
1044,1710926189527272412,2059,2048,2063,2056,2052,2073,1196
1045,1710926189537284721,2053,2062,2047,2067,2069,2060,1195
1046,1710926189547269378,2048,2040,2041,2128,2052,2052,1195
1047,1710926189557267290,2054,2051,2049,2103,2077,2049,1195
1048,1710926189567271153,2046,2029,2050,2089,2039,2052,1194
1049,1710926189577273424,2054,2064,2068,2088,2067,2045,1192
1050,1710926189587275563,2045,2021,2044,2053,2031,2043,1194
1051,1710926189597270901,2054,2048,2037,2050,2057,2049,1194
1052,1710926189607272500,2048,2053,2070,2040,2017,2046,1192
1053,1710926189617273367,2056,2050,2045,2104,2076,2042,1193
1054,1710926189627268675,2056,2052,2054,2063,2054,2059,1192
1055,1710926189637280062,2059,2075,2061,2088,2080,2061,1195
1056,1710926189647268176,2056,2031,2037,1922,2034,2056,1196
1057,1710926189657265276,2054,2035,2036,2045,2061,2094,1194
1058,1710926189667265773,2052,2048,2052,2052,2042,2050,1195
1059,1710926189677212127,2049,2056,2056,2072,2058,2064,1194
1060,1710926189687285593,2058,2054,2063,2057,2057,2058,1195
1061,1710926189697263617,2053,2053,2072,2068,2057,2053,1194
1062,1710926189707270436,2047,2082,2048,2041,2025,2062,1194
1063,1710926189717271775,2047,2013,2020,2005,2060,2061,1194
1064,1710926189727240400,2059,2061,2077,2084,2065,2059,1194
1065,1710926189737267588,2058,2052,2035,2041,2060,2049,1195
1066,1710926189747268146,2044,2024,2033,2044,2044,2041,1193
1067,1710926189757267029,2060,2048,2038,2076,2069,2049,1197
1068,1710926189767266104,2060,2054,2064,2052,2040,2053,1196
1069,1710926189777252464,2058,2052,2069,2083,2084,2090,1197
1070,1710926189787275954,2056,2079,2074,2029,2028,2034,1193
1071,1710926189797268346,2065,2063,2063,2051,2073,2069,1195
1072,1710926189807265757,2057,2050,2057,2080,2075,2084,1195
1073,1710926189817266715,2056,2056,2053,2056,2062,2050,1196
1074,1710926189827272722,2056,2038,2051,2084,2038,2047,1191
1075,1710926189837286133,2057,2046,2074,2082,2054,2047,1192
1076,1710926189847271201,2060,2052,2058,2048,2061,2066,1195
1077,1710926189857271768,2058,2045,2029,2066,2072,2070,1196
1078,1710926189867266794,2056,2057,2064,2077,2034,2057,1195
1079,1710926189877265929,2048,2048,2044,2062,2070,2052,1195
1080,1710926189887290642,2061,2085,2082,2096,2054,2101,1195
1081,1710926189897273555,2060,2062,2059,2047,2044,2035,1192
1082,1710926189907260377,2056,2061,2060,2060,2050,2048,1196
1083,1710926189917263919,2057,2047,2029,1971,2045,2047,1193
1084,1710926189927272692,2058,2071,2064,2000,2044,2038,1193
1085,1710926189937271666,2060,2061,2056,2062,2049,2053,1195
1086,1710926189947279116,2056,2050,2066,2100,2059,2024,1194
1087,1710926189957277439,2052,2038,2048,2052,2061,2032,1193
1088,1710926189967268007,2060,2040,2049,2089,2053,2072,1196
1089,1710926189977270537,2052,2037,2040,2104,2068,2051,1195
1090,1710926189987271315,2058,2057,2056,2058,2049,2068,1195
1091,1710926189997275028,2053,2066,2070,2095,2072,2080,1196
1092,1710926190007266528,2051,2050,2060,2066,2054,2062,1194
1093,1710926190017264450,2046,2029,2042,2053,2056,2048,1194
1094,1710926190027262221,2059,2070,2073,2072,2056,2064,1194
1095,1710926190037263851,2049,2056,2057,2042,2043,2049,1194
1096,1710926190047268165,2056,2050,2082,2052,2048,2063,1196
1097,1710926190057269013,2051,2052,2048,2023,2050,2048,1194
1098,1710926190067263959,2051,2053,2061,2062,2047,2053,1196
1099,1710926190077264145,2063,2072,2056,2032,2058,2058,1195
1100,1710926190087265043,2060,2030,2040,2096,2055,2067,1195
1101,1710926190097268465,2059,2045,2043,2072,2068,2048,1197
1102,1710926190107268251,2065,2069,2072,2042,2050,2064,1197
1103,1710926190117268768,2056,2054,2053,2049,2050,2045,1193
1104,1710926190127264786,2049,2054,2063,2093,2049,2057,1196
1105,1710926190137289789,2059,2061,2054,1992,2062,2061,1197
1106,1710926190147270289,2065,2104,2060,2012,2045,2056,1194
1107,1710926190157263912,2047,2045,2036,2051,2056,2047,1195
1108,1710926190167264499,2056,2052,2050,2049,2047,2058,1196
1109,1710926190177272290,2052,2047,2054,2024,2053,2031,1194
1110,1710926190187220828,2054,2046,2042,1971,2033,2005,1194
1111,1710926190197262233,2056,2080,2053,2049,2060,2049,1196
1112,1710926190207264353,2046,2052,2059,2085,2052,2063,1197
1113,1710926190217268366,2060,2068,2061,2065,2060,2050,1196
1114,1710926190227268633,2052,2037,2070,2040,2040,2056,1193
1115,1710926190238243858,2053,2050,2053,2054,2058,2047,1191
1116,1710926190247272822,2054,2046,2056,2106,2060,2045,1191
1117,1710926190257269312,2054,2050,2051,2064,2060,2056,1192
1118,1710926190267269388,2056,2025,2036,2100,2056,2082,1196
1119,1710926190277270035,2052,2064,2048,2050,2037,2030,1192
1120,1710926190287272836,2052,2052,2052,2086,2047,2055,1194
1121,1710926190297268925,2064,2081,2065,2060,2040,2046,1193
1122,1710926190307268299,2056,2056,2064,2080,2047,2041,1193
1123,1710926190317270620,2054,2072,2056,2020,2058,2065,1195
1124,1710926190327271036,2049,2068,2072,2073,2048,2052,1195
1125,1710926190337274339,2053,2050,2056,2013,2049,2045,1194
1126,1710926190347270056,2049,2044,2063,2091,2052,2058,1196
1127,1710926190357271956,2057,2072,2061,2067,2085,2072,1196
1128,1710926190367274667,2052,2050,2058,2002,2036,2058,1194
1129,1710926190377272579,2057,2080,2054,2045,2066,2051,1194
1130,1710926190387315106,2046,2049,2060,2067,2047,2066,1196
1131,1710926190397273222,2057,2050,2063,2084,2072,2033,1195
1132,1710926190407312352,2050,2056,2062,2026,2036,2018,1192
1133,1710926190417310915,2058,2052,2052,2066,2076,2090,1196
1134,1710926190427311332,2051,2046,2054,2046,2049,2033,1194
1135,1710926190437322289,2060,2067,2060,2077,2067,2058,1193
1136,1710926190447317435,2050,2065,2066,2085,2035,2051,1197
1137,1710926190457315758,2054,2048,2050,2057,2068,2070,1194
1138,1710926190467316636,2048,2044,2045,2040,2040,2056,1196
1139,1710926190477316973,2058,2065,2069,2076,2045,2037,1192
1140,1710926190487321777,2057,2068,2065,2112,2053,2058,1195
1141,1710926190497312506,2059,2054,2051,2066,2066,2074,1195
1142,1710926190507312692,2044,2035,2038,2034,2018,2056,1196
1143,1710926190517259798,2053,2023,2024,2050,2063,2054,1196
1144,1710926190527320078,2059,2059,2065,2065,2044,2057,1196
1145,1710926190537319563,2055,2049,2029,2044,2059,2069,1196
1146,1710926190547319048,2051,2048,2065,2107,2058,2053,1195
1147,1710926190557318493,2058,2043,2026,2015,2056,2056,1197
1148,1710926190567318940,2058,2056,2059,2018,2053,2038,1192
1149,1710926190577304919,2048,2087,2060,2057,2051,2038,1192
1150,1710926190587266933,2047,2050,2055,2062,2054,2066,1194
1151,1710926190597240038,2048,2018,2030,2048,2065,2050,1196
1152,1710926190607262877,2056,2060,2064,2027,2041,2052,1195
1153,1710926190617304843,2048,2043,2033,2008,2050,2038,1193
1154,1710926190627300410,2052,2029,2063,2056,2043,2058,1196
1155,1710926190637301849,2061,2038,2037,2055,2064,2058,1193
1156,1710926190647304210,2049,2045,2048,2106,2046,2050,1196
1157,1710926190657311389,2050,2041,2033,2096,2072,2057,1197
1158,1710926190667299793,2054,2059,2067,2025,2024,2051,1195
1159,1710926190677298236,2060,2058,2044,2059,2067,2057,1195
1160,1710926190687300055,2053,2043,2061,2061,2054,2072,1193
1161,1710926190697302776,2054,2048,2045,2069,2065,2045,1193
1162,1710926190707294967,2061,2060,2074,2088,2040,2061,1195
1163,1710926190717291106,2052,2047,2047,2060,2063,2057,1194
1164,1710926190727295981,2062,2049,2056,2089,2050,2057,1194
1165,1710926190737295867,2056,2049,2038,2038,2060,2009,1193
1166,1710926190747287447,2052,2048,2046,2098,2048,2053,1195
1167,1710926190757294566,2057,2041,2035,2068,2069,2052,1196
1168,1710926190767297067,2058,2067,2054,2116,2061,2072,1196
1169,1710926190777303245,2051,2044,2044,2114,2076,2053,1195
1170,1710926190787293792,2054,2048,2048,2068,2045,2055,1197
1171,1710926190797298367,2049,2032,2029,2024,2056,2064,1195
1172,1710926190807289837,2048,2072,2061,2061,2050,2053,1196
1173,1710926190817253734,2057,2060,2047,2064,2057,2065,1196
1174,1710926190827293355,2060,2091,2088,1985,2045,2073,1194
1175,1710926190837294313,2054,2054,2070,2052,2061,2047,1192
1176,1710926190847293087,2064,2068,2083,2039,2047,2049,1194
1177,1710926190857335102,2051,2056,2036,2050,2067,2053,1196
1178,1710926190867297397,2044,2024,2043,2079,2043,2067,1196
1179,1710926190877291592,2064,2068,2085,2090,2065,2068,1195
1180,1710926190887300705,2050,2078,2076,2093,2047,2048,1194
1181,1710926190897302464,2058,2057,2045,2088,2058,2048,1193
1182,1710926190907306969,2052,2040,2058,2070,2036,2041,1192
1183,1710926190917296214,2062,2038,2034,2048,2072,2059,1195
1184,1710926190927286692,2048,2018,2033,2081,2042,2056,1195
1185,1710926190937326523,2057,2064,2064,2069,2074,2060,1197
1186,1710926190947284800,2059,2084,2065,2032,2026,2051,1196
1187,1710926190957282862,2055,2058,2050,2042,2078,2052,1196
1188,1710926190967285273,2065,2057,2065,2068,2069,2068,1195
1189,1710926190977284848,2059,2064,2051,1938,2060,2042,1192
1190,1710926190987281267,2054,2049,2056,2083,2047,2057,1195
1191,1710926190997302033,2056,2076,2058,2064,2060,2043,1192
1192,1710926191007280377,2043,2041,2060,2088,2033,2014,1194
1193,1710926191017282748,2064,2078,2047,2072,2067,2065,1196
1194,1710926191027279317,2057,2058,2071,2082,2056,2046,1193
1195,1710926191037275345,2056,2073,2054,2040,2083,2068,1196
1196,1710926191047277936,2062,2064,2076,2080,2042,2064,1195
1197,1710926191057279966,2053,2063,2053,2052,2060,2047,1194
1198,1710926191067281074,2054,2052,2063,2054,2030,2057,1196
1199,1710926191077280539,2058,2099,2106,2033,2080,2064,1195
1200,1710926191087277970,2047,2022,2052,2058,2044,2056,1194
1201,1710926191097280871,2060,2072,2051,2028,2069,2056,1196
1202,1710926191107279685,2050,2052,2064,2058,2052,2059,1194
1203,1710926191117315669,2051,2052,2047,2017,2053,2049,1196
1204,1710926191127279236,2057,2069,2054,2046,2040,2053,1197
1205,1710926191137278470,2045,2030,2042,2038,2058,2056,1197
1206,1710926191147278947,2056,2043,2066,2080,2059,2060,1196
1207,1710926191157277350,2052,2040,2024,2032,2063,2052,1194
1208,1710926191167278268,2056,2052,2050,2080,2037,2045,1194
1209,1710926191177275208,2050,2064,2041,1959,2057,2068,1197
1210,1710926191187284451,2066,2047,2050,2091,2056,2022,1192
1211,1710926191197289968,2050,2065,2036,2046,2060,2047,1193
1212,1710926191207279834,2052,2065,2068,2069,2040,2050,1196
1213,1710926191217283777,2048,2047,2037,2060,2056,2067,1196
1214,1710926191227281439,2049,2048,2046,2006,2041,2052,1196
1215,1710926191237279080,2056,2056,2054,2037,2068,2050,1193
1216,1710926191247277003,2046,2004,2038,2044,2036,2047,1194
1217,1710926191257279483,2072,2057,2039,2082,2056,2035,1194
1218,1710926191267291802,2049,2038,2043,2064,2041,2019,1192
1219,1710926191277280096,2050,2053,2041,2043,2053,2030,1192
1220,1710926191287277957,2059,2066,2068,2080,2051,2060,1195
1221,1710926191297279907,2053,2060,2041,2032,2066,2067,1196
1222,1710926191307279402,2041,2088,2076,2088,2044,2048,1195
1223,1710926191317278917,2042,2017,2022,2067,2061,2046,1192
1224,1710926191327295714,2046,2033,2020,2040,2046,2046,1192
1225,1710926191337298606,2056,2050,2043,2060,2064,2062,1195
1226,1710926191347280698,2050,2046,2056,2084,2045,2059,1195
1227,1710926191357279060,2052,2052,2047,2055,2064,2053,1196
1228,1710926191367280760,2049,2074,2080,2102,2052,2010,1194
1229,1710926191377299541,2056,2045,2042,2019,2066,2051,1195
1230,1710926191387274820,2048,2040,2048,2083,2052,2048,1196
1231,1710926191397278032,2052,2043,2042,2102,2068,2064,1195
1232,1710926191407276485,2061,2078,2067,2125,2057,2052,1195
1233,1710926191417280308,2050,2014,2029,2057,2077,2066,1195
1234,1710926191427278390,2070,2042,2060,2059,2054,2082,1194
1235,1710926191437280941,2048,2036,2020,2044,2059,2052,1195
1236,1710926191447277511,2056,2049,2064,2013,2045,2057,1194
1237,1710926191457276785,2048,2038,2040,2048,2041,2025,1192
1238,1710926191467285738,2059,2054,2057,2053,2045,2052,1196
1239,1710926191477295472,2057,2050,2064,2062,2060,2028,1192
1240,1710926191487282914,2058,2066,2065,2056,2047,2044,1193
1241,1710926191497277059,2045,2038,2026,2010,2042,2049,1196
1242,1710926191507278037,2056,2052,2064,2040,2046,2072,1194
1243,1710926191517276360,2052,2048,2039,2014,2058,2041,1192
1244,1710926191527283710,2059,2080,2078,2040,2043,2053,1195
1245,1710926191537280669,2056,2049,2041,2057,2054,2088,1194
1246,1710926191547275225,2059,2073,2064,2068,2045,2062,1196
1247,1710926191557275561,2057,2050,2032,2053,2048,2046,1193
1248,1710926191567276019,2056,2072,2057,2053,2037,2054,1193
1249,1710926191577276164,2056,2045,2047,2042,2072,2056,1192
1250,1710926191587285918,2052,2020,2042,2095,2072,2066,1194
1251,1710926191597277338,2064,2030,2036,2052,2065,2066,1193
1252,1710926191607277755,2063,2063,2074,2058,2057,2074,1196
1253,1710926191617278042,2050,2045,2044,2048,2070,2080,1195
1254,1710926191627278368,2056,2072,2070,2086,2056,2063,1194
1255,1710926191637283233,2054,2056,2044,2057,2058,2064,1192
1256,1710926191647274883,2044,2035,2050,2008,2040,2049,1195
1257,1710926191657279167,2054,2077,2067,2047,2062,2074,1196
1258,1710926191667279674,2050,2060,2062,1970,2036,2053,1196
1259,1710926191677279229,2047,2047,2044,2008,2048,2065,1195
1260,1710926191687279946,2056,2051,2066,2085,2047,2062,1194
1261,1710926191697276245,2061,2062,2065,2018,2036,2053,1193
1262,1710926191707279637,2056,2047,2050,2074,2053,2056,1192
1263,1710926191717288059,2049,2020,2032,2077,2048,2041,1192
1264,1710926191727280240,2056,2046,2054,2050,2038,2033,1193
1265,1710926191737281819,2060,2060,2052,2089,2069,1998,1192
1266,1710926191747306692,2049,2045,2048,2047,2025,2042,1193
1267,1710926191757306618,2062,2058,2049,2060,2056,2064,1197
1268,1710926191767307646,2060,2052,2062,2038,2052,2052,1196
1269,1710926191777299216,2050,2040,2042,2080,2039,2038,1192
1270,1710926191787334448,2060,2072,2083,2036,2048,2053,1196
1271,1710926191797306481,2047,2046,2044,1996,2068,2060,1193
1272,1710926191807308912,2064,2059,2061,2053,2043,2060,1197
1273,1710926191817263952,2058,2053,2036,2042,2068,2013,1192
1274,1710926191827292533,2060,2049,2058,1989,2048,2012,1192
1275,1710926191837309530,2048,2014,2025,2056,2068,2061,1193
1276,1710926191847313204,2066,2038,2048,2036,2047,2052,1196
1277,1710926191857313239,2047,2052,2088,2108,2071,2056,1195
1278,1710926191867310941,2054,2077,2084,2110,2064,2042,1192
1279,1710926191877311798,2044,2036,2038,2054,2058,2037,1194
1280,1710926191887310612,2049,2047,2058,2041,2030,2030,1192
1281,1710926191897297603,2053,2022,2018,2109,2061,2013,1193
1282,1710926191907302227,2068,2052,2054,2088,2045,2046,1193
1283,1710926191917301202,2048,2040,2068,2064,2058,2056,1197
1284,1710926191927298382,2057,2060,2062,2033,2016,2032,1193
1285,1710926191937293629,2049,2045,2040,2064,2039,2053,1197
1286,1710926191947293554,2050,2058,2058,2064,2036,2037,1192
1287,1710926191957296736,2053,2064,2067,2112,2072,2046,1194
1288,1710926191967299848,2057,2052,2049,2025,2042,2064,1193
1289,1710926191977308711,2056,2056,2037,2058,2064,2064,1196
1290,1710926191987298167,2055,2059,2055,2056,2038,2062,1196
1291,1710926191997299806,2055,2053,2052,2068,2054,2008,1192
1292,1710926192007294361,2046,2051,2063,2085,2032,2052,1195
1293,1710926192017293706,2045,2078,2052,1956,2073,2064,1196
1294,1710926192027293111,2049,2040,2058,2083,2060,2054,1196
1295,1710926192037295090,2053,2048,2046,2057,2066,2051,1194
1296,1710926192047296168,2056,2049,2061,2056,2053,2053,1196
1297,1710926192057293199,2052,2044,2050,2052,2046,2046,1192
1298,1710926192067293565,2050,2049,2056,2112,2051,2013,1192
1299,1710926192077290565,2052,2048,2049,2084,2061,2054,1196
1300,1710926192087292724,2056,2077,2068,2064,2051,2045,1194
1301,1710926192097429731,2049,2046,2045,2052,2052,2044,1192
1302,1710926192107296924,2057,2054,2080,2056,2035,2046,1192
1303,1710926192117290929,2056,2052,2040,2093,2078,2050,1195
1304,1710926192127289121,2053,2046,2059,2061,2049,2062,1194
1305,1710926192137293856,2049,2041,2044,2072,2064,2064,1195
1306,1710926192147290395,2053,2061,2086,2064,2040,2057,1198
1307,1710926192157288778,2050,2031,2040,2060,2065,2041,1195
1308,1710926192167288584,2054,2054,2067,2091,2052,2052,1197
1309,1710926192177293439,2060,2058,2053,2006,2066,2056,1197
1310,1710926192187285840,2054,2053,2063,2128,2035,2048,1197
1311,1710926192197298500,2058,2079,2047,2069,2067,2050,1196
1312,1710926192207283687,2054,2061,2075,2044,2060,2071,1197
1313,1710926192217286840,2053,2036,2046,2055,2048,2060,1196
1314,1710926192227289119,2056,2042,2069,2112,2065,2061,1196
1315,1710926192237283374,2049,2041,2037,2071,2080,2043,1191
1316,1710926192247294301,2044,2040,2047,2046,2027,2027,1194
1317,1710926192257288876,2052,2032,2056,2061,2067,2056,1196
1318,1710926192267282160,2060,2076,2081,2065,2047,2053,1196
1319,1710926192277279550,2052,2072,2078,2059,2060,2050,1196
1320,1710926192287281570,2052,2050,2057,2069,2052,2065,1196
1321,1710926192297312545,2057,2053,2050,2112,2065,2047,1193
1322,1710926192307273988,2068,2056,2062,2045,2036,2054,1196
1323,1710926192317275456,2060,2068,2054,2021,2039,2048,1194
1324,1710926192327279108,2046,2076,2066,2056,2034,2052,1195
1325,1710926192337284204,2056,2054,2037,2001,2060,2110,1197
1326,1710926192347276395,2057,2061,2102,2056,2054,2108,1195
1327,1710926192357275038,2056,2054,2050,2053,2045,2056,1196
1328,1710926192367273010,2054,2059,2065,2069,2046,2054,1196
1329,1710926192377283596,2064,2077,2073,2102,2065,2047,1195
1330,1710926192387273964,2057,2060,2070,2076,2048,2053,1194
1331,1710926192397297985,2054,2053,2052,2034,2064,2054,1197
1332,1710926192407272322,2058,2086,2079,2058,2027,2021,1192
1333,1710926192417277448,2048,2042,2037,2057,2053,2052,1196
1334,1710926192427275220,2050,2056,2073,2049,2048,2050,1195
1335,1710926192437274474,2056,2065,2053,2054,2052,2050,1194
1336,1710926192447280821,2052,2054,2056,2089,2039,2053,1196
1337,1710926192457276980,2056,2053,2056,2020,2053,2068,1196
1338,1710926192467282526,2060,2057,2076,2098,2049,2062,1193
1339,1710926192477269377,2057,2060,2062,2037,2059,2044,1194
1340,1710926192487271056,2059,2062,2071,2049,2036,2048,1196
1341,1710926192497330515,2049,2066,2052,2021,2068,2057,1198
1342,1710926192507273172,2046,2038,2055,2023,2043,2068,1196
1343,1710926192517271735,2063,2054,2044,2056,2061,2040,1192
1344,1710926192527268956,2051,2041,2046,2067,2029,2040,1194
1345,1710926192537308206,2054,2077,2065,2076,2048,2051,1196
1346,1710926192547267465,2057,2061,2080,2043,2060,2062,1195
1347,1710926192557304781,2058,2074,2048,2049,2052,2044,1194
1348,1710926192567283115,2056,2075,2074,2040,2039,2052,1196
1349,1710926192577285897,2056,2030,2047,2092,2063,2072,1194
1350,1710926192587283718,2054,2067,2072,2042,2034,2044,1193
1351,1710926192597302209,2048,2026,2040,2064,2061,2054,1195
1352,1710926192607306874,2059,2047,2044,2069,2050,2058,1197
1353,1710926192617315085,2052,2043,2033,2051,2067,2049,1195
1354,1710926192627277781,2056,2069,2065,2070,2052,2036,1195
1355,1710926192637281203,2056,2045,2035,2072,2072,2078,1194
1356,1710926192647297360,2053,2057,2066,2049,2050,2056,1195
1357,1710926192657287817,2056,2046,2043,2058,2053,2042,1192
1358,1710926192667276682,2055,2039,2058,2040,2047,2063,1193
1359,1710926192677286216,2052,2050,2033,2052,2046,2044,1193
1360,1710926192687281272,2046,2033,2041,2089,2052,2064,1197
1361,1710926192697290185,2060,2068,2070,2045,2058,2065,1196
1362,1710926192707300971,2053,2052,2060,2080,2045,2048,1196
1363,1710926192717265139,2052,2027,2034,2086,2072,2068,1196
1364,1710926192727294270,2064,2068,2081,2056,2048,2083,1197
1365,1710926192737271072,2060,2072,2045,2100,2081,2060,1197
1366,1710926192747274845,2054,2065,2087,2111,2051,2062,1196
1367,1710926192757270242,2054,2057,2038,2035,2068,2054,1198
1368,1710926192767266741,2048,2038,2052,2113,2054,2055,1195
1369,1710926192777293268,2059,2056,2031,2015,2057,2053,1199
1370,1710926192787275139,2050,2047,2056,2086,2038,2050,1196
1371,1710926192797301394,2052,2056,2068,2118,2072,2047,1195
1372,1710926192807268357,2053,2056,2057,2046,2049,2061,1196
1373,1710926192817266911,2062,2062,2037,2075,2067,2046,1194
1374,1710926192827266646,2053,2062,2069,2068,2051,2060,1195
1375,1710926192837266912,2050,2084,2061,2072,2061,2053,1194
1376,1710926192847285343,2057,2053,2046,2083,2047,2047,1192
1377,1710926192857281812,2056,2056,2040,2115,2058,2046,1193
1378,1710926192867289252,2051,2060,2054,2044,2044,2064,1196
1379,1710926192877272115,2054,2050,2039,2067,2068,2018,1191
1380,1710926192887271831,2061,2066,2072,2094,2040,2035,1193
1381,1710926192897292776,2057,2062,2036,1993,2040,2029,1194
1382,1710926192907271111,2056,2040,2054,2014,2038,2054,1198
1383,1710926192917275725,2058,2063,2043,2058,2062,2053,1195
1384,1710926192927269679,2054,2056,2065,2018,2038,2057,1193
1385,1710926192937279915,2056,2054,2040,2037,2065,2068,1196
1386,1710926192947267898,2053,2058,2068,2062,2042,2042,1195
1387,1710926192957272092,2052,2027,2040,2024,2058,2054,1196
1388,1710926192967264193,2056,2025,2054,2039,2044,2072,1197
1389,1710926192977278025,2061,2040,2029,2128,2060,2012,1193
1390,1710926192987267340,2056,2063,2070,2114,2050,2052,1193
1391,1710926192997279008,2051,2054,2052,2083,2070,2050,1196
1392,1710926193007281008,2064,2049,2065,2073,2057,2064,1195
1393,1710926193017277728,2050,2027,2013,2037,2051,2048,1195
1394,1710926193027277784,2054,2035,2049,2014,2039,2045,1192
1395,1710926193037278120,2060,2044,2039,2067,2063,2053,1194
1396,1710926193047274268,2057,2062,2068,2074,2056,2042,1191
1397,1710926193057290454,2055,2058,2045,2055,2066,2057,1196
1398,1710926193067289929,2067,2065,2070,2032,2050,2056,1196
1399,1710926193077277682,2059,2063,2046,2069,2049,1996,1192
1400,1710926193087269673,2051,2044,2060,2032,2026,2055,1194
1401,1710926193097286350,2053,2076,2050,2056,2071,2065,1197
1402,1710926193107270575,2054,2054,2059,2069,2044,2049,1197
1403,1710926193117292263,2054,2052,2072,2088,2069,2052,1193
1404,1710926193127273713,2047,2059,2067,2053,2033,2056,1195
1405,1710926193137279219,2051,2059,2051,2052,2061,2072,1195
1406,1710926193147279255,2042,2034,2026,2037,2034,2050,1195
1407,1710926193157277327,2065,2044,2024,2084,2064,2047,1195
1408,1710926193167280419,2056,2050,2061,2008,2040,2062,1197
1409,1710926193177278261,2056,2053,2052,2042,2056,2078,1198
1410,1710926193187266423,2061,2078,2062,2021,2049,2050,1194
1411,1710926193197278683,2064,2056,2052,2101,2066,2015,1193
1412,1710926193207266315,2051,2054,2061,2060,2043,2052,1194
1413,1710926193217291729,2048,2056,2062,2074,2072,2053,1195
1414,1710926193227282117,2051,2073,2072,2066,2050,2050,1196
1415,1710926193237262105,2051,2042,2041,2024,2050,2046,1193
1416,1710926193247264856,2056,2078,2074,2061,2047,2056,1195
1417,1710926193257273197,2056,2060,2059,2057,2065,2055,1196
1418,1710926193267264105,2048,2025,2046,2065,2041,2003,1192
1419,1710926193277272166,2055,2049,2045,2076,2066,2042,1193
1420,1710926193287276170,2054,2045,2057,2071,2040,2049,1195
1421,1710926193297267289,2060,2060,2046,2059,2071,2066,1194
1422,1710926193307263538,2046,2034,2049,2026,2040,2052,1192
1423,1710926193317267070,2055,2054,2051,2062,2068,2066,1196
1424,1710926193327265203,2057,2103,2096,2100,2044,2074,1197
1425,1710926193337271280,2052,2045,2037,2045,2052,2049,1193
1426,1710926193347272307,2050,2051,2051,2056,2048,2008,1192
1427,1710926193357264618,2052,2047,2047,1983,2056,2051,1193
1428,1710926193367265215,2057,2061,2070,2048,2042,2047,1193
1429,1710926193377265902,2050,2037,2019,2028,2055,2048,1195
1430,1710926193387272571,2060,2037,2045,2103,2053,2080,1196
1431,1710926193397270853,2060,2039,2049,2072,2073,2064,1194
1432,1710926193407266190,2053,2044,2068,2082,2047,2076,1197
1433,1710926193417267418,2052,2048,2047,2003,2057,2074,1194
1434,1710926193427268716,2061,2085,2084,2026,2034,2048,1195
1435,1710926193437266027,2050,2045,2040,2025,2071,2034,1192
1436,1710926193447263939,2048,2024,2059,2052,2053,2036,1190
1437,1710926193457286227,2058,2064,2043,2036,2062,2049,1195
1438,1710926193467268710,2056,2049,2065,2073,2053,2056,1195
1439,1710926193477268435,2056,2048,2027,2112,2068,2060,1192
1440,1710926193487272057,2052,2054,2066,2086,2036,2080,1194
1441,1710926193497280549,2047,2047,2034,2050,2043,2040,1192
1442,1710926193507271638,2052,2088,2059,2016,2045,2051,1196
1443,1710926193517270041,2051,2054,2050,2056,2057,2048,1196
1444,1710926193527271449,2052,2052,2050,2064,2044,2053,1196
1445,1710926193537266285,2054,2047,2049,2088,2078,2065,1193
1446,1710926193547226366,2053,2057,2072,2076,2050,2069,1194
1447,1710926193557268862,2056,2061,2061,2056,2060,2052,1195
1448,1710926193567269528,2048,2048,2058,2092,2044,2054,1195
1449,1710926193577281096,2054,2038,2045,1996,2064,2054,1193
1450,1710926193587285911,2061,2042,2077,2066,2053,2057,1196
1451,1710926193597249478,2054,2058,2051,2064,2078,2053,1193
1452,1710926193607270764,2056,2052,2067,2012,2054,2066,1193
1453,1710926193617271080,2059,2047,2037,2045,2057,2052,1194
1454,1710926193627271476,2053,2036,2045,1987,2040,2042,1193
1455,1710926193637280340,2052,2075,2069,2046,2047,2064,1193
1456,1710926193647272129,2052,2060,2092,2051,2033,2021,1193
1457,1710926193657272466,2048,2043,2037,2062,2049,2043,1193
1458,1710926193667273644,2052,2047,2056,2066,2045,2047,1193
1459,1710926193677273339,2064,2072,2047,2052,2066,2072,1195
1460,1710926193687277263,2052,2056,2064,1946,2039,2052,1196
1461,1710926193697273040,2057,2058,2031,2052,2069,2055,1195
1462,1710926193707276111,2050,2044,2069,2055,2042,2052,1195
1463,1710926193717275626,2050,2052,2040,2052,2068,2044,1193
1464,1710926193727276734,2053,2052,2071,2064,2051,2040,1193
1465,1710926193737285076,2056,2056,2041,1914,2046,2056,1194
1466,1710926193747280794,2058,2066,2072,2078,2057,2055,1193
1467,1710926193757281411,2052,2065,2065,2048,2073,1997,1194
1468,1710926193767280495,2050,2053,2048,2050,2042,2044,1193
1469,1710926193777434953,2052,2047,2045,2058,2056,2050,1194
1470,1710926193787288261,2052,2051,2053,2047,2044,2050,1194
1471,1710926193797277316,2062,2049,2043,1995,2063,2053,1195
1472,1710926193807278734,2056,2052,2079,2112,2073,2072,1196
1473,1710926193817263882,2054,2096,2067,2050,2065,2067,1195
1474,1710926193827281621,2045,2038,2062,2024,2052,2068,1194
1475,1710926193837280044,2059,2068,2064,2086,2070,2047,1192
1476,1710926193847279740,2054,2068,2060,2141,2056,2057,1194
1477,1710926193857261561,2057,2056,2047,2084,2075,2050,1194
1478,1710926193867263259,2052,2057,2064,2047,2038,2007,1193
1479,1710926193877282492,2053,2029,2027,2044,2054,2060,1195
1480,1710926193887285243,2064,2059,2066,2088,2051,2070,1195
1481,1710926193897283235,2060,2060,2072,2100,2075,2020,1191
1482,1710926193907265227,2061,2066,2065,2085,2053,2058,1193
1483,1710926193917266815,2053,2046,2037,2045,2056,2058,1196
1484,1710926193927266149,2052,2088,2078,2056,2048,2064,1195
1485,1710926193937294218,2051,2060,2065,2075,2040,2038,1193
1486,1710926193947268796,2056,2072,2076,2024,2048,2074,1197
1487,1710926193957266317,2056,2046,2048,2036,2067,2050,1194
1488,1710926193967265592,2060,2073,2065,2095,2051,2062,1194
1489,1710926193977330741,2056,2072,2077,2058,2065,2068,1193
1490,1710926193987263700,2052,2053,2067,2048,2054,2089,1198
1491,1710926193997270178,2056,2059,2043,2056,2071,2053,1194
1492,1710926194007268279,2052,2040,2054,2051,2051,2067,1195
1493,1710926194017267003,2061,2052,2041,2114,2065,2065,1196
1494,1710926194027268251,2057,2056,2082,1999,2042,2025,1192
1495,1710926194037267856,2052,2065,2048,2016,2056,2048,1193
1496,1710926194047276879,2056,2050,2058,2053,2050,2058,1195
1497,1710926194057266224,2050,2058,2040,1996,2058,2066,1194
1498,1710926194067263164,2057,2060,2079,2003,2050,2066,1197
1499,1710926194077264562,2052,2040,2041,2050,2062,2078,1195
1500,1710926194087265500,2058,2061,2068,2062,2038,2061,1195
1501,1710926194097272860,2049,2053,2047,2056,2056,2069,1195
1502,1710926194107288285,2052,2072,2067,2102,2045,2058,1193
1503,1710926194117265898,2051,2065,2050,2066,2060,2031,1191
1504,1710926194127262477,2058,2062,2065,2082,2044,2071,1193
1505,1710926194137507247,2050,2047,2056,2071,2073,2051,1196
1506,1710926194147268721,2058,2042,2068,2033,2036,2066,1196
1507,1710926194157268165,2048,2032,2037,2060,2060,2058,1196
1508,1710926194167267419,2050,2042,2044,2040,2031,2066,1195
1509,1710926194177356704,2056,2062,2063,2100,2076,2059,1195
1510,1710926194187317015,2053,2049,2056,2034,2035,2051,1195
1511,1710926194197274891,2053,2065,2050,2058,2069,2052,1194
1512,1710926194207270248,2058,2056,2061,2043,2044,2052,1195
1513,1710926194217266336,2056,2070,2051,2088,2050,2037,1192
1514,1710926194227262013,2056,2045,2044,2085,2046,2040,1192
1515,1710926194237268882,2045,2047,2038,2026,2037,2054,1191
1516,1710926194247265501,2056,2054,2063,2068,2056,2072,1197
1517,1710926194257278522,2057,2052,2045,2104,2069,2057,1193
1518,1710926194267271955,2060,2087,2066,2091,2045,2052,1196
1519,1710926194277289023,2052,2053,2060,2088,2072,2074,1194
1520,1710926194287324726,2064,2075,2057,2054,2036,2052,1195
1521,1710926194297274126,2058,2047,2057,2073,2072,2062,1194
1522,1710926194307266808,2051,2043,2052,2056,2037,2069,1194
1523,1710926194317267365,2054,2057,2053,2175,2070,2085,1196
1524,1710926194327265516,2053,2058,2068,2065,2046,2048,1195
1525,1710926194337281042,2051,2040,2034,2050,2065,2058,1196
1526,1710926194347267863,2056,2094,2085,2058,2042,2053,1193
1527,1710926194357270153,2054,2059,2047,2069,2064,2052,1196
1528,1710926194367268165,2050,2050,2061,2064,2048,2055,1195
1529,1710926194377287397,2054,2053,2053,2056,2059,2049,1195
1530,1710926194387288625,2050,2048,2053,2046,2043,2056,1195
1531,1710926194397265236,2056,2041,2038,2064,2070,2061,1193
1532,1710926194407268218,2059,2041,2076,2057,2048,2044,1190
1533,1710926194417268123,2056,2034,2036,2000,2057,2046,1192
1534,1710926194427265605,2046,2041,2045,2017,2053,2060,1195
1535,1710926194437294876,2064,2045,2050,2047,2057,2051,1194
1536,1710926194447269473,2050,2056,2052,2085,2045,2054,1195
1537,1710926194457305417,2048,2034,2024,2056,2053,2050,1196
1538,1710926194467265236,2056,2030,2056,2047,2025,2052,1193
1539,1710926194477287965,2058,2045,2028,2041,2067,2070,1194
1540,1710926194487353505,2054,2042,2049,2047,2040,2052,1196
1541,1710926194497270713,2059,2060,2034,2075,2066,2052,1194
1542,1710926194507269307,2052,2046,2061,2059,2060,2065,1193
1543,1710926194517271427,2062,2047,2047,2046,2077,2056,1194
1544,1710926194527266573,2053,2058,2029,2092,2037,2025,1192
1545,1710926194537483610,2059,2093,2072,2057,2062,2052,1197
1546,1710926194547267185,2051,2058,2072,2058,2031,2047,1193
1547,1710926194557268033,2054,2062,2059,2045,2064,2054,1196
1548,1710926194567263871,2052,2047,2057,2050,2030,2081,1195
1549,1710926194577371761,2053,2069,2054,2070,2064,2081,1194
1550,1710926194587286255,2056,2056,2057,2021,2061,2067,1194
1551,1710926194597274508,2044,2017,2018,2086,2069,2059,1197
1552,1710926194607267961,2063,2047,2046,2094,2043,2064,1195
1553,1710926194617266474,2060,2053,2049,2084,2058,2050,1195
1554,1710926194627265618,2054,2041,2044,2053,2066,2063,1196
1555,1710926194637279981,2049,2059,2050,2086,2059,2050,1194
1556,1710926194647265219,2056,2053,2056,1988,2047,2055,1196
1557,1710926194657269443,2046,2041,2039,2052,2062,2022,1193
1558,1710926194667264489,2052,2004,2037,2008,2032,2044,1192
1559,1710926194677286486,2068,2049,2049,2077,2058,2068,1195
1560,1710926194687283456,2052,2027,2041,2080,2056,2057,1196
1561,1710926194697271068,2057,2051,2038,2014,2065,2056,1195
1562,1710926194707269170,2056,2060,2072,2072,2041,2061,1193
1563,1710926194717268745,2060,2072,2061,2048,2049,2058,1196
1564,1710926194727262449,2058,2033,2048,2066,2054,2058,1197
1565,1710926194737270861,2067,2056,2055,2063,2063,2056,1198
1566,1710926194747268302,2052,2065,2062,2061,2038,2038,1192
1567,1710926194757268107,2058,2059,2059,2093,2068,2053,1196
1568,1710926194767270748,2049,2052,2066,2058,2037,2053,1195
1569,1710926194777233513,2057,2059,2028,2056,2064,2046,1192
1570,1710926194787245892,2055,2051,2050,2053,2050,2038,1192
1571,1710926194797264563,2050,2081,2053,2055,2064,2055,1194
1572,1710926194807236727,2053,2031,2050,2049,2048,2064,1195
1573,1710926194817271368,2056,2037,2031,2081,2080,2058,1193
1574,1710926194827269950,2061,2056,2050,2052,2045,2056,1195
1575,1710926194837266329,2051,2039,2030,2044,2056,2049,1193
1576,1710926194847267708,2053,2054,2064,2065,2036,2042,1194
1577,1710926194857273354,2053,2078,2061,2066,2072,2031,1192
1578,1710926194867263461,2041,2026,2044,2120,2052,2046,1191
1579,1710926194877290327,2067,2064,2053,2104,2073,2068,1196
1580,1710926194887270005,2049,2046,2058,2096,2053,2029,1193
1581,1710926194897268277,2051,2059,2045,2080,2060,2050,1196
1582,1710926194907268824,2061,2045,2052,2038,2030,2049,1193
1583,1710926194917268990,2052,2078,2067,2068,2060,2068,1194
1584,1710926194927271390,2045,2040,2053,2099,2052,2058,1195
1585,1710926194937276896,2054,2053,2057,2047,2075,2043,1195
1586,1710926194947270821,2050,2046,2056,2098,2056,2041,1195
1587,1710926194957274854,2056,2056,2033,2068,2079,2064,1195
1588,1710926194967268097,2057,2056,2049,2056,2052,2058,1195
1589,1710926194977276519,2054,2068,2072,2060,2072,2040,1189
1590,1710926194987270142,2056,2082,2074,2076,2045,2021,1194
1591,1710926194997277171,2045,2049,2032,2074,2073,2037,1191
1592,1710926195007271556,2058,2053,2058,2050,2056,2066,1195
1593,1710926195017280559,2047,2043,2040,2047,2049,2047,1193
1594,1710926195027270084,2054,2060,2056,2050,2036,2049,1196
1595,1710926195037270531,2059,2037,2035,2086,2058,2035,1192
1596,1710926195047277420,2056,2061,2057,2069,2042,2052,1194
1597,1710926195057280892,2056,2056,2056,2043,2065,2062,1195
1598,1710926195067274756,2058,2042,2052,2059,2044,2069,1194
1599,1710926195077278609,2059,2045,2043,2056,2053,2042,1191
1600,1710926195087277202,2050,2052,2068,2016,2032,2048,1196
1601,1710926195097281416,2054,2048,2053,2052,2061,2008,1190
1602,1710926195107277203,2052,2037,2053,2056,2039,2060,1192
1603,1710926195117273622,2060,2068,2064,2098,2075,2056,1194
1604,1710926195127273518,2061,2057,2088,2003,2036,2048,1194
1605,1710926195137276078,2060,2049,2044,2078,2067,2061,1195
1606,1710926195147274151,2057,2064,2058,2080,2056,2062,1195
1607,1710926195157258315,2048,2044,2043,2040,2048,2050,1197
1608,1710926195167275955,2058,2050,2064,2104,2052,2051,1196
1609,1710926195177299846,2061,2057,2048,2017,2059,2009,1194
1610,1710926195187281487,2056,2047,2052,2072,2052,2064,1198
1611,1710926195197247298,2051,2048,2041,2054,2065,2047,1192
1612,1710926195207256801,2056,2053,2068,2022,2032,2041,1194
1613,1710926195217281894,2053,2050,2036,1985,2053,2056,1194
1614,1710926195227284986,2047,2020,2046,2065,2049,2056,1194
1615,1710926195237267038,2060,2060,2078,2037,2068,2053,1193
1616,1710926195247282031,2054,2047,2061,2050,2038,2056,1195
1617,1710926195257282628,2053,2059,2034,2072,2070,2045,1192
1618,1710926195267252297,2056,2061,2064,2066,2053,2056,1193
1619,1710926195277280636,2049,2049,2049,2117,2050,2072,1193
1620,1710926195287280812,2054,2046,2045,2009,2025,2073,1195
1621,1710926195297272792,2061,2065,2058,2065,2072,2056,1194
1622,1710926195307235698,2065,2064,2056,2043,2035,2037,1190
1623,1710926195317271050,2053,2048,2044,2071,2062,2066,1196
1624,1710926195327266006,2052,2048,2061,2013,2038,2058,1197
1625,1710926195337285168,2051,2046,2037,2077,2062,2047,1192
1626,1710926195347294822,2048,2048,2052,2058,2036,2052,1195
1627,1710926195357274970,2054,2065,2049,2000,2043,2005,1193
1628,1710926195367271830,2052,2080,2074,2067,2057,2075,1196
1629,1710926195377291433,2048,2056,2041,2038,2055,2064,1196
1630,1710926195387273625,2053,2056,2077,2070,2057,2060,1194
1631,1710926195397287687,2059,2040,2040,2050,2059,2060,1194
1632,1710926195407266853,2051,2034,2064,2072,2042,2054,1196
1633,1710926195417265746,2058,2053,2046,2059,2062,2049,1194
1634,1710926195427266023,2058,2060,2077,2052,2038,2007,1190
1635,1710926195437266269,2055,2065,2054,2034,2063,2058,1193
1636,1710926195447275632,2056,2048,2060,1992,2041,2052,1196
1637,1710926195457284384,2050,2050,2048,2089,2057,2064,1195
1638,1710926195467279902,2053,2081,2068,2029,2034,2050,1193
1639,1710926195477314123,2052,2049,2045,2056,2065,2096,1195
1640,1710926195487274714,2050,2047,2056,2063,2045,2052,1195
1641,1710926195497277093,2051,2041,2043,1976,2037,2013,1192
1642,1710926195507282980,2061,2066,2077,2101,2039,2051,1194
1643,1710926195517279429,2057,2047,2052,2065,2071,2055,1196
1644,1710926195527274736,2055,2060,2070,2027,2035,2043,1194
1645,1710926195537277717,2056,2029,2040,2060,2062,2049,1193
1646,1710926195547275979,2058,2064,2063,2002,2042,2054,1195
1647,1710926195557278720,2066,2068,2050,2050,2050,2044,1194
1648,1710926195567278165,2056,2088,2082,2083,2048,2059,1194
1649,1710926195577300323,2044,2052,2043,2045,2057,2053,1194
1650,1710926195587272365,2053,2047,2054,2040,2040,2048,1196
1651,1710926195597281378,2051,2066,2038,2050,2059,2056,1194
1652,1710926195607255084,2050,2064,2074,2092,2042,2058,1194
1653,1710926195617265349,2050,2043,2036,2039,2056,2060,1196
1654,1710926195627262629,2051,2050,2051,2054,2045,2055,1195
1655,1710926195637263717,2056,2054,2053,2053,2065,2047,1191
1656,1710926195647268332,2054,2048,2045,1999,2015,2051,1194
1657,1710926195657269129,2052,2043,2046,2051,2071,2052,1195
1658,1710926195667264686,2062,2065,2060,2045,2048,2024,1194
1659,1710926195677243040,2056,2049,2051,2090,2061,2057,1195
1660,1710926195687266100,2050,2032,2058,2074,2039,2062,1195
1661,1710926195697270814,2059,2042,2054,2063,2061,2060,1196
1662,1710926195707271130,2054,2051,2056,2104,2049,2060,1195
1663,1710926195717271667,2058,2069,2047,2132,2069,2088,1196
1664,1710926195727266082,2046,2030,2061,2082,2049,2050,1195
1665,1710926195737270576,2061,2063,2064,2028,2077,2059,1194
1666,1710926195747268969,2054,2056,2063,2008,2042,2053,1194
1667,1710926195757268253,2057,2083,2064,2031,2041,2009,1193
1668,1710926195767270283,2047,2053,2056,2058,2033,2057,1195
1669,1710926195777283885,2051,2068,2056,2038,2044,2060,1196
1670,1710926195787277487,2052,2047,2060,2057,2045,2066,1195
1671,1710926195797264499,2048,2049,2032,2088,2074,2047,1193
1672,1710926195807268171,2057,2052,2051,2078,2050,2042,1194
1673,1710926195817273477,2060,2077,2060,2031,2055,2053,1194
1674,1710926195827266439,2044,2045,2045,2029,2045,2049,1195
1675,1710926195837269340,2053,2056,2055,2060,2080,2035,1192
1676,1710926195847277662,2051,2047,2054,2058,2047,2067,1195
1677,1710926195857273750,2058,2068,2040,2029,2067,2065,1198
1678,1710926195867265130,2057,2050,2057,2047,2032,2046,1193
1679,1710926195877304229,2053,2072,2059,2044,2056,2037,1192
1680,1710926195887291110,2052,2068,2070,2069,2047,2052,1196
1681,1710926195897269755,2053,2075,2065,2064,2060,2042,1192
1682,1710926195907266084,2052,2046,2045,2056,2038,2053,1196
1683,1710926195917270047,2062,2063,2053,2020,2043,2054,1194
1684,1710926195927266676,2048,2044,2050,2064,2040,2059,1196
1685,1710926195937276270,2060,2058,2065,2056,2064,2057,1197
1686,1710926195947269313,2063,2048,2056,2044,2044,2058,1196
1687,1710926195957269980,2053,2050,2037,2057,2062,2081,1196
1688,1710926195967269264,2050,2052,2053,1946,2031,2045,1193
1689,1710926195977271664,2058,2056,2058,2061,2064,2054,1196
1690,1710926195987267803,2050,2054,2061,2013,2015,2040,1193
1691,1710926195997275202,2057,2060,2050,2063,2068,2070,1196
1692,1710926196007274526,2060,2059,2060,2041,2041,2056,1196
1693,1710926196017280724,2048,2048,2038,2047,2061,2036,1195
1694,1710926196027274408,2057,2052,2060,2049,2042,2086,1195
1695,1710926196037268913,2052,2057,2054,2067,2061,2040,1189
1696,1710926196047264770,2046,2037,2061,2072,2046,2048,1194
1697,1710926196057265247,2051,2040,2021,2020,2065,2050,1194
1698,1710926196067266044,2066,2080,2085,2112,2049,2056,1194
1699,1710926196077279515,2049,2068,2049,2030,2052,2060,1195
1700,1710926196087266867,2058,2056,2057,2047,2032,2076,1197
1701,1710926196097269437,2060,2068,2067,2013,2057,2053,1195
1702,1710926196107269983,2054,2057,2061,1901,2018,2037,1192
1703,1710926196117269258,2056,2059,2056,2056,2070,2053,1194
1704,1710926196127274123,2052,2087,2068,2073,2032,2018,1193
1705,1710926196137271243,2052,2043,2044,2037,2069,2059,1196
1706,1710926196147269154,2053,2050,2056,1997,2045,2056,1193
1707,1710926196157271915,2053,2047,2041,2077,2064,2052,1196
1708,1710926196167288994,2066,2061,2072,2013,2039,2056,1194
1709,1710926196177272558,2055,2060,2065,2066,2063,2033,1194
1710,1710926196187274016,2054,2064,2067,2088,2050,2047,1192
1711,1710926196197271417,2053,2054,2052,2120,2070,2074,1195
1712,1710926196207272083,2053,2056,2070,2020,2040,2064,1194
1713,1710926196217271578,2052,2042,2040,2038,2055,2060,1194
1714,1710926196227282224,2053,2052,2056,2041,2045,2060,1194
1715,1710926196237263865,2050,2045,2036,2056,2054,2066,1192
1716,1710926196247266565,2057,2075,2061,2086,2056,2065,1196
1717,1710926196257265990,2057,2066,2038,2088,2073,2044,1193
1718,1710926196267278830,2050,2054,2068,2070,2044,2041,1192
1719,1710926196277284677,2050,2043,2044,2061,2062,2056,1195
1720,1710926196287265105,2061,2076,2067,2059,2045,2066,1194
1721,1710926196297264800,2059,2077,2068,2062,2057,2052,1194
1722,1710926196307268533,2048,2027,2050,2056,2056,2053,1195
1723,1710926196317273417,2065,2054,2061,2034,2047,2027,1193
1724,1710926196327251822,2052,2056,2077,2072,2049,2076,1193
1725,1710926196337271165,2056,2068,2064,2064,2057,2043,1194
1726,1710926196347266781,2057,2028,2056,2080,2050,2052,1192
1727,1710926196357267979,2053,2047,2056,2009,2056,2068,1195
1728,1710926196367269829,2052,2031,2036,2058,2045,2066,1196
1729,1710926196377287468,2063,2047,2057,2088,2071,2053,1193
1730,1710926196387265992,2052,2050,2060,2068,2047,2052,1197
1731,1710926196397268613,2062,2057,2045,2060,2072,2058,1196
1732,1710926196407265894,2056,2038,2045,1977,2031,2053,1194
1733,1710926196417285036,2054,2052,2042,2075,2066,2047,1194
1734,1710926196427266656,2056,2052,2053,2045,2041,2051,1195
1735,1710926196437265630,2061,2079,2068,2048,2073,2060,1194
1736,1710926196447264534,2058,2061,2054,2037,2057,2062,1195
1737,1710926196457264639,2055,2047,2035,2020,2057,2057,1196
1738,1710926196467315812,2061,2058,2065,2043,2041,2051,1195
1739,1710926196477275351,2060,2058,2048,2046,2060,2025,1192
1740,1710926196487266299,2048,2059,2078,2030,2024,2043,1190
1741,1710926196497269961,2050,2059,2040,2056,2075,2041,1191
1742,1710926196507265799,2054,2064,2067,2062,2058,2053,1194
1743,1710926196517265474,2052,2072,2059,2022,2059,2054,1193
1744,1710926196527257424,2056,2056,2062,2060,2050,2033,1192
1745,1710926196537266547,2052,2068,2068,2047,2045,2012,1192
1746,1710926196547265592,2057,2036,2048,2055,2050,2068,1196
1747,1710926196557270827,2058,2069,2044,2061,2069,2057,1194
1748,1710926196567269961,2048,2041,2041,2041,2041,2056,1196
1749,1710926196577266490,2050,2047,2049,2054,2057,2057,1193
1750,1710926196587256337,2045,2001,2042,2044,2049,2044,1192
1751,1710926196597266320,2056,2032,2032,2010,2053,2025,1192
1752,1710926196607266376,2050,2033,2052,2068,2034,2050,1194
1753,1710926196617272784,2060,2026,2026,2088,2061,2056,1194
1754,1710926196627269764,2059,2036,2041,2080,2045,2053,1193
1755,1710926196637266944,2056,2050,2055,2090,2049,2041,1192
1756,1710926196647264966,2052,2054,2062,2076,2054,2056,1196
1757,1710926196657268448,2056,2072,2064,2064,2062,2072,1196
1758,1710926196667272311,2056,2075,2085,2084,2047,2052,1194
1759,1710926196677266416,2056,2063,2056,1962,2060,2050,1193
1760,1710926196687276701,2048,2026,2040,2060,2059,2057,1195
1761,1710926196697261447,2059,2050,2064,2044,2047,2064,1195
1762,1710926196707264769,2058,2063,2068,2070,2062,2040,1191
1763,1710926196717265246,2058,2061,2066,2122,2067,2079,1194
1764,1710926196727290379,2050,2075,2080,2100,2056,2071,1194
1765,1710926196737270557,2044,2040,2037,2025,2051,2037,1194
1766,1710926196747267517,2047,2042,2056,2080,2048,2060,1197
1767,1710926196757260449,2059,2064,2042,2044,2045,2056,1197
1768,1710926196767267047,2047,2051,2067,2040,2052,2006,1194
1769,1710926196777267373,2062,2076,2048,2036,2062,2041,1193
1770,1710926196787285463,2046,2029,2044,2108,2045,2027,1194
1771,1710926196797265461,2072,2079,2078,2022,2052,2070,1195
1772,1710926196807265777,2047,2050,2061,2047,2040,1981,1191
1773,1710926196817268087,2052,2070,2047,2043,2057,2052,1196
1774,1710926196827269075,2051,2044,2065,2068,2048,2046,1192
1775,1710926196837297434,2062,2062,2050,2061,2067,2006,1192
1776,1710926196847269486,2047,2064,2076,2040,2042,2048,1194
1777,1710926196857271175,2056,2069,2077,2066,2068,2085,1195
1778,1710926196867271372,2058,2032,2049,2056,2049,2057,1196
1779,1710926196877271166,2057,2044,2057,2054,2058,2048,1195
1780,1710926196887271913,2052,2073,2064,2093,2044,2053,1195
1781,1710926196897272390,2044,2049,2048,2032,2053,2054,1194
1782,1710926196907270912,2052,2056,2049,2065,2046,2068,1196
1783,1710926196917272962,2053,2049,2058,2050,2056,2048,1194
1784,1710926196927273689,2055,2054,2045,2008,2032,2049,1196
1785,1710926196937274095,2056,2071,2059,2021,2055,2049,1196
1786,1710926196947279511,2052,2047,2060,2046,2043,2052,1196
1787,1710926196957272614,2060,2049,2047,2059,2064,2030,1194
1788,1710926196967275726,2058,2067,2088,2082,2053,2013,1192
1789,1710926196977275921,2049,2043,2044,2041,2059,2057,1192
1790,1710926196987275706,2058,2044,2067,2071,2045,2048,1194
1791,1710926196997282926,2057,2037,2045,2037,2068,2042,1189
1792,1710926197007273203,2044,2058,2056,2021,2041,2047,1193
1793,1710926197017276474,2049,2046,2029,2046,2058,2047,1194
1794,1710926197027276641,2050,2048,2047,2049,2042,2045,1194
1795,1710926197037277077,2052,2057,2048,2043,2067,2066,1194
1796,1710926197047278154,2052,2047,2065,2016,2036,2073,1195
1797,1710926197057278421,2060,2082,2070,2037,2060,2040,1193
1798,1710926197067263358,2048,2048,2056,2024,2042,2051,1194
1799,1710926197077293500,2053,2045,2040,2048,2064,2068,1194
1800,1710926197087279810,2047,2041,2030,2046,2037,2036,1192
1801,1710926197097288792,2046,2044,2048,2011,2049,2027,1193
1802,1710926197107281163,2051,2058,2052,2018,2047,2037,1193
1803,1710926197117281129,2060,2097,2083,2065,2066,2056,1195
1804,1710926197127263911,2046,2052,2053,2008,2030,2057,1194
1805,1710926197137265290,2056,2068,2056,2107,2076,2070,1195
1806,1710926197147263893,2046,2032,2025,2065,2037,2073,1194
1807,1710926197157262636,2062,2046,2056,2092,2065,2055,1194
1808,1710926197167282930,2052,2024,2044,2015,2044,2058,1194
1809,1710926197177294628,2059,2040,2045,2070,2064,2073,1193
1810,1710926197187265948,2059,2048,2085,2086,2052,2059,1196
1811,1710926197197266295,2052,2053,2057,2061,2064,2052,1194
1812,1710926197207268555,2045,2025,2044,2028,2046,2068,1192
1813,1710926197217272388,2061,2056,2049,2044,2057,2060,1195
1814,1710926197227270399,2050,2046,2057,2074,2053,2065,1195
1815,1710926197237277649,2060,2026,2022,2035,2053,2048,1193
1816,1710926197247272253,2052,2042,2045,2068,2052,2066,1194
1817,1710926197257268462,2056,2072,2062,2064,2049,2083,1194
1818,1710926197267263669,2052,2040,2049,2042,2043,2046,1192
1819,1710926197277294463,2056,2030,2036,2042,2064,1994,1191
1820,1710926197287267216,2065,2055,2044,1978,2042,2050,1194
1821,1710926197297230733,2047,2059,2056,2029,2061,2052,1195
1822,1710926197307263841,2050,2040,2052,2060,2040,2048,1195
1823,1710926197317264027,2060,2052,2056,2050,2069,2057,1194
1824,1710926197327262169,2057,2062,2068,2037,2036,2052,1193
1825,1710926197337294616,2048,2093,2056,2069,2064,2048,1193
1826,1710926197347259896,2046,2043,2048,2080,2052,2048,1196
1827,1710926197357268959,2056,2088,2064,2046,2058,2068,1196
1828,1710926197367271719,2052,2049,2064,2056,2027,2057,1194
1829,1710926197377308354,2052,2062,2056,2020,2050,2043,1193
1830,1710926197387260349,2060,2065,2075,2056,2052,2059,1195
1831,1710926197397274561,2053,2084,2062,2093,2065,2052,1195
1832,1710926197407266311,2049,2072,2074,2125,2047,2060,1195
1833,1710926197417267870,2050,2046,2043,2066,2061,2047,1192
1834,1710926197427267524,2053,2064,2065,2021,2040,2059,1194
1835,1710926197437267811,2057,2056,2046,2069,2059,2079,1193
1836,1710926197447267796,2057,2042,2056,2065,2044,2065,1195
1837,1710926197457260557,2060,2053,2057,2025,2065,2049,1193
1838,1710926197467298065,2050,2074,2081,2015,2027,2054,1194
1839,1710926197477279425,2058,2056,2052,2064,2062,2052,1195
1840,1710926197487268770,2049,2050,2060,2099,2042,2058,1194
1841,1710926197497267132,2058,2074,2072,2074,2076,2072,1195
1842,1710926197507265666,2052,2072,2074,2072,2047,2072,1195
1843,1710926197517265440,2052,2048,2036,2078,2064,2068,1195
1844,1710926197527266818,2052,2060,2054,2060,2041,2047,1192
1845,1710926197537287193,2057,2052,2056,2048,2053,2024,1193
1846,1710926197547238546,2051,2047,2060,2054,2053,2056,1197
1847,1710926197557261766,2052,2031,2033,2026,2045,2075,1197
1848,1710926197567266971,2054,2043,2033,2042,2048,2065,1196
1849,1710926197577280191,2053,2082,2061,1985,2057,2048,1195
1850,1710926197587272432,2052,2068,2077,2056,2048,2048,1193
1851,1710926197597274532,2050,2058,2056,2060,2051,2058,1196
1852,1710926197607266662,2057,2038,2058,2067,2062,2067,1195
1853,1710926197617266939,2057,2050,2045,2065,2067,2069,1195
1854,1710926197627264049,2052,2048,2053,2096,2041,2026,1193
1855,1710926197637274654,2060,2057,2053,2033,2062,2042,1192
1856,1710926197647263529,2058,2058,2067,2042,2042,2047,1194
1857,1710926197657267101,2054,2040,2028,1996,2061,2061,1194
1858,1710926197667266866,2050,2039,2046,2053,2042,2053,1194
1859,1710926197677290226,2058,2065,2042,2043,2062,2058,1193
1860,1710926197687278971,2054,2046,2061,2051,2053,2058,1196
1861,1710926197697268916,2054,2042,2042,2078,2070,2053,1196
1862,1710926197707269253,2051,2070,2059,2089,2047,2056,1197
1863,1710926197717275169,2060,2052,2067,2088,2065,2044,1193
1864,1710926197727270265,2053,2059,2076,2068,2037,2050,1193
1865,1710926197737266574,2053,2065,2044,2056,2059,2050,1197
1866,1710926197747268694,2049,2050,2050,2054,2052,2061,1195
1867,1710926197757271575,2056,2064,2052,2104,2078,2068,1196
1868,1710926197767269466,2047,2008,2040,2088,2041,2080,1196
1869,1710926197777278810,2070,2052,2030,2056,2059,2081,1195
1870,1710926197787276290,2048,2054,2073,2074,2053,2059,1195
1871,1710926197797266087,2045,2040,2049,2036,2046,2023,1194
1872,1710926197807269870,2052,2041,2056,2067,2036,2056,1195
1873,1710926197817267720,2056,2057,2054,2138,2060,2050,1197
1874,1710926197827265713,2060,2058,2062,2112,2046,2056,1195
1875,1710926197837286668,2050,2077,2047,2042,2056,2060,1194
1876,1710926197847263619,2057,2053,2056,2060,2043,2057,1196
1877,1710926197857269937,2044,2035,2026,2072,2064,2060,1197
1878,1710926197867268200,2051,2052,2051,2056,2048,2041,1192
1879,1710926197877287641,2052,2048,2045,1971,2052,2010,1193
1880,1710926197887315660,2058,2066,2080,2061,2044,2052,1196
1881,1710926197897275400,2054,2038,2032,2024,2060,2050,1197
1882,1710926197907271818,2052,2078,2057,2061,2033,2078,1196
1883,1710926197917281863,2050,2030,2052,2056,2062,2045,1193
1884,1710926197927267551,2045,2040,2037,2069,2047,2061,1194
1885,1710926197937271634,2054,2047,2040,2067,2061,2042,1193
1886,1710926197947269526,2053,2049,2058,2043,2049,1999,1192
1887,1710926197957278829,2056,2056,2054,2067,2069,2021,1195
1888,1710926197967271952,2053,2045,2065,2052,2032,2050,1195
1889,1710926197977283189,2062,2071,2048,2044,2059,2036,1192
1890,1710926197987270820,2056,2055,2087,2045,2059,2068,1196
1891,1710926197997274924,2060,2058,2058,2028,2066,2072,1197
1892,1710926198007267846,2059,2058,2067,2020,2046,2068,1195
1893,1710926198017268002,2050,2045,2038,1991,2048,1998,1192
1894,1710926198027270863,2063,2064,2074,2084,2041,2061,1196
1895,1710926198037268934,2063,2094,2060,2094,2074,2023,1193
1896,1710926198047267687,2046,2043,2052,2111,2045,2052,1197
1897,1710926198057263495,2058,2049,2048,2077,2065,2054,1194
1898,1710926198067276705,2046,2026,2045,2070,2056,2068,1195
1899,1710926198077271762,2057,2066,2060,2092,2066,2069,1194
1900,1710926198087274563,2047,2024,2056,2047,2042,2056,1195
1901,1710926198097293584,2059,2074,2050,2057,2058,2059,1194
1902,1710926198107259375,2052,2048,2058,2062,2052,2054,1196
1903,1710926198117270391,2056,2042,2044,1970,2058,2066,1194
1904,1710926198127271408,2060,2056,2046,2025,2047,2077,1195
1905,1710926198137269931,2056,2054,2050,2064,2074,2063,1195
1906,1710926198147335531,2058,2061,2073,2053,2044,2048,1196
1907,1710926198157269872,2048,2020,2043,2112,2076,2048,1195
1908,1710926198167269688,2053,2034,2048,2058,2050,2034,1193
1909,1710926198177295812,2052,2047,2044,2065,2067,2050,1196
1910,1710926198187270790,2058,2077,2070,2054,2046,2056,1196
1911,1710926198197280234,2052,2049,2040,2034,2051,2062,1195
1912,1710926198207267535,2056,2056,2051,2082,2050,2068,1195
1913,1710926198217267741,2053,2056,2052,2057,2056,2062,1195
1914,1710926198227270431,2057,2048,2043,2058,2049,2045,1193
1915,1710926198237270848,2054,2044,2032,2057,2069,2059,1193
1916,1710926198247293045,2059,2068,2057,2076,2040,2050,1196
1917,1710926198257271159,2056,2050,2042,2068,2067,2057,1196
1918,1710926198267270404,2052,2080,2055,2056,2040,2046,1192
1919,1710926198277288182,2052,2071,2056,2053,2060,2050,1196
1920,1710926198287270605,2053,2067,2075,2059,2050,2058,1195
1921,1710926198297302250,2054,2050,2045,2067,2065,2076,1196
1922,1710926198307268862,2060,2062,2074,2090,2053,2073,1197
1923,1710926198317273507,2057,2056,2047,2082,2066,2058,1194
1924,1710926198327271648,2054,2042,2077,2094,2043,2063,1197
1925,1710926198337272135,2056,2052,2057,2061,2056,2049,1196
1926,1710926198347283913,2057,2066,2061,1982,2038,2056,1195
1927,1710926198357277295,2052,2058,2055,1997,2056,2047,1194
1928,1710926198367276981,2054,2047,2050,2016,2048,2053,1196
1929,1710926198377293087,2057,2057,2053,2024,2044,2000,1194
1930,1710926198387277021,2056,2045,2056,2059,2059,2072,1195
1931,1710926198397297246,2057,2058,2040,2065,2053,2044,1192
1932,1710926198407278094,2055,2053,2066,2037,2041,1976,1192
1933,1710926198417280344,2056,2043,2040,2099,2060,2052,1196
1934,1710926198427281542,2049,2063,2061,1977,2029,2047,1192
1935,1710926198437283341,2051,2080,2069,2076,2059,2043,1192
1936,1710926198447299187,2052,2054,2066,2064,2050,2054,1196
1937,1710926198457277861,2053,2052,2043,2064,2059,2061,1195
1938,1710926198467285592,2052,2069,2056,2056,2047,2056,1195
1939,1710926198477299514,2053,2036,2029,2090,2064,2062,1193
1940,1710926198487279641,2052,2038,2069,2064,2048,2060,1196
1941,1710926198497284075,2056,2043,2039,2029,2056,2052,1194
1942,1710926198507290022,2058,2056,2065,2084,2050,2051,1196
1943,1710926198517281411,2057,2058,2048,1981,2049,2064,1196
1944,1710926198527281387,2058,2058,2062,1973,2040,2039,1194
1945,1710926198537271523,2053,2058,2053,2076,2066,2035,1192
1946,1710926198547291016,2051,2046,2054,2048,2045,2056,1198
1947,1710926198557282475,2056,2062,2053,2005,2049,2021,1193
1948,1710926198567285907,2067,2066,2077,2121,2060,2068,1196
1949,1710926198577304668,2048,2060,2037,2064,2059,2051,1195
1950,1710926198587274867,2053,2045,2047,2039,2030,2020,1193
1951,1710926198597288378,2054,2052,2027,2041,2062,2039,1194
1952,1710926198607281330,2045,2050,2062,2053,2036,2090,1194
1953,1710926198617282608,2052,2066,2073,2050,2064,2061,1195
1954,1710926198627274839,2057,2068,2073,2012,2038,2062,1196
1955,1710926198637291265,2045,2030,2043,2089,2056,2046,1192
1956,1710926198647277144,2053,2042,2048,1981,2042,2053,1196
1957,1710926198657286948,2054,2056,2045,2044,2050,2067,1194
1958,1710926198667270582,2051,2058,2060,2046,2038,2073,1194
1959,1710926198677285316,2061,2072,2064,2040,2063,2049,1196
1960,1710926198687280081,2049,2024,2036,2031,2054,2021,1193
1961,1710926198697274246,2066,2056,2046,2067,2064,2062,1195
1962,1710926198707268822,2048,2042,2051,2053,2032,2049,1195
1963,1710926198717271562,2061,2064,2065,2073,2058,2052,1195
1964,1710926198727269153,2048,2046,2045,2046,2040,2062,1195
1965,1710926198737267085,2056,2058,2054,2049,2052,2042,1192
1966,1710926198747268783,2053,2064,2061,2018,2041,2046,1192
1967,1710926198757278768,2047,2036,2052,1989,2048,2034,1192
1968,1710926198767269345,2052,2048,2047,2006,2020,2048,1196
1969,1710926198777259422,2050,2046,2036,2044,2064,2047,1192
1970,1710926198787270569,2052,2046,2056,2037,2044,2047,1192
1971,1710926198797291333,2058,2053,2050,2072,2066,2056,1196
1972,1710926198807309904,2048,2045,2047,2049,2024,2047,1194
1973,1710926198817273811,2057,2056,2053,2071,2076,2072,1198
1974,1710926198827269789,2050,2044,2051,2049,2037,2037,1192
1975,1710926198837268291,2049,2049,2041,2018,2054,2040,1193
1976,1710926198847271743,2052,2080,2058,2085,2041,2053,1196
1977,1710926198857271579,2052,2042,2052,2040,2061,2079,1197
1978,1710926198867273347,2052,2054,2068,2142,2059,2071,1197
1979,1710926198877294483,2054,2047,2047,2104,2070,2068,1195
1980,1710926198887273750,2052,2052,2058,1978,2044,2072,1196
1981,1710926198897267913,2053,2028,2044,2018,2064,2065,1197
1982,1710926198907269843,2058,2038,2039,2044,2047,2050,1194
1983,1710926198917268145,2056,2036,2024,2068,2064,2043,1192
1984,1710926198927271717,2060,2065,2073,2052,2049,2064,1195
1985,1710926198937226397,2052,2052,2057,2059,2052,2040,1194
1986,1710926198947268021,2056,2062,2056,1998,2044,2056,1195
1987,1710926198957267255,2058,2084,2055,2070,2069,2064,1197
1988,1710926198967272641,2052,2049,2060,2090,2037,2061,1197
1989,1710926198977294788,2056,2056,2059,2072,2073,2071,1196
1990,1710926198987260038,2056,2077,2085,2060,2056,2056,1198
1991,1710926198997267247,2060,2051,2035,1982,2065,2026,1192
1992,1710926199007273765,2056,2056,2059,2080,2052,2065,1197
1993,1710926199017273059,2054,2052,2045,2065,2078,2072,1194
1994,1710926199027261282,2056,2061,2064,2097,2056,2053,1196
1995,1710926199037277509,2063,2044,2043,2049,2068,2049,1194
1996,1710926199047275810,2061,2088,2105,2053,2040,2061,1195
1997,1710926199057270536,2053,2049,2040,2060,2061,2058,1192
1998,1710926199067272625,2053,2051,2056,2084,2048,2069,1195
1999,1710926199077287008,2055,2069,2043,2057,2060,2064,1198
2000,1710926199087273968,2052,2058,2058,2049,2043,2065,1195
2001,1710926199097267973,2058,2058,2066,2031,2050,2050,1196
2002,1710926199107263099,2052,2024,2037,2084,2048,2049,1196
2003,1710926199117259748,2061,2038,2033,2037,2056,2008,1194
2004,1710926199127300872,2052,2047,2060,2092,2041,2056,1197
2005,1710926199137275148,2060,2080,2060,2033,2068,2064,1195
2006,1710926199147267810,2054,2051,2060,2065,2050,2064,1196
2007,1710926199157265179,2060,2056,2052,2004,2064,2054,1196
2008,1710926199167286846,2050,2064,2080,2108,2055,2044,1192
2009,1710926199177268066,2052,2064,2065,2104,2072,2018,1194
2010,1710926199187270125,2046,2062,2054,2072,2045,2050,1196
2011,1710926199197264962,2061,2043,2042,2080,2069,2050,1194
2012,1710926199207270276,2060,2062,2069,2032,2037,2052,1196
2013,1710926199217266014,2056,2052,2047,2058,2057,2056,1195
2014,1710926199227266109,2057,2058,2051,2052,2062,2069,1195
2015,1710926199237268169,2056,2052,2036,2069,2078,2117,1194
2016,1710926199247269246,2052,2052,2067,2068,2061,2063,1194
2017,1710926199257272308,2056,2044,2067,1989,2055,2045,1192
2018,1710926199267265130,2060,2071,2059,2077,2052,2066,1195
2019,1710926199277273040,2053,2053,2050,2101,2060,2053,1194
2020,1710926199287273466,2052,2049,2062,2046,2031,2048,1192
2021,1710926199297261088,2058,2047,2045,2042,2056,2056,1195
2022,1710926199307274639,2056,2053,2056,2058,2046,2052,1196
2023,1710926199317264254,2048,2045,2041,2004,2048,2080,1195
2024,1710926199327263198,2052,2061,2079,2050,2040,2064,1193
2025,1710926199337266250,2054,2060,2061,1976,2052,2034,1193
2026,1710926199347266245,2040,2033,2044,2043,2017,2048,1196
2027,1710926199357269306,2058,2081,2074,2077,2064,2032,1195
2028,1710926199367272057,2042,2041,2060,2045,2043,2047,1194
2029,1710926199377282122,2064,2056,2041,2049,2068,2064,1195
2030,1710926199387279602,2068,2064,2082,2067,2058,2062,1196
2031,1710926199397266733,2056,2061,2070,2119,2074,2010,1192
2032,1710926199407258492,2054,2049,2061,2120,2058,2053,1196
2033,1710926199417265902,2058,2062,2057,1977,2056,2051,1195
2034,1710926199427265678,2058,2054,2047,2078,2060,2065,1197
2035,1710926199437281142,2054,2037,2024,2060,2054,2018,1190
2036,1710926199447275898,2048,2064,2061,2065,2042,2028,1194
2037,1710926199457266585,2060,2035,2030,2036,2061,2074,1197
2038,1710926199467264737,2060,2053,2077,2080,2047,2016,1192
2039,1710926199477268319,2047,2037,2045,2063,2050,2044,1192
2040,1710926199487267473,2057,2046,2052,2078,2054,2056,1195
2041,1710926199497271126,2055,2056,2043,2060,2060,2060,1195
2042,1710926199507275369,2052,2052,2042,2111,2053,2066,1195
2043,1710926199517248193,2063,2060,2051,2072,2058,2046,1194
2044,1710926199527274268,2049,2042,2061,2045,2036,2048,1193
2045,1710926199537276608,2054,2042,2037,2056,2027,1962,1193
2046,1710926199547268277,2050,2068,2064,2104,2028,2073,1195
2047,1710926199557264786,2047,2044,2033,2047,2064,2049,1198
2048,1710926199567269199,2056,2080,2070,2038,2041,2050,1194
2049,1710926199577283482,2056,2060,2062,1981,2066,2057,1195
2050,1710926199587292555,2056,2093,2074,2097,2061,2056,1196
2051,1710926199597269346,2049,2038,2032,2024,2052,2045,1194
2052,1710926199607274081,2047,2056,2060,2051,2038,2048,1195
2053,1710926199617267143,2054,2049,2040,2064,2066,2059,1197
2054,1710926199627269092,2060,2074,2080,1944,2038,2033,1192
2055,1710926199637271892,2052,2050,2051,2054,2066,2057,1195
2056,1710926199647277559,2056,2063,2050,2045,2040,2057,1195
2057,1710926199657274158,2056,2072,2061,2057,2068,2056,1194
2058,1710926199667268623,2050,2043,2047,2014,2046,2053,1194
2059,1710926199677274249,2061,2074,2058,2045,2067,2064,1194
2060,1710926199687283402,2047,2045,2051,2064,2052,2054,1197
2061,1710926199697272186,2051,2037,2036,2094,2075,2068,1196
2062,1710926199707273473,2052,2038,2050,2092,2059,2080,1197
2063,1710926199717268720,2049,2051,2055,2023,2056,2049,1195
2064,1710926199727261261,2052,2047,2052,2081,2050,2050,1196
2065,1710926199737270705,2053,2073,2052,2105,2065,2054,1194
2066,1710926199747274767,2052,2073,2060,2064,2045,2053,1195
2067,1710926199757267159,2053,2059,2060,2062,2044,2045,1194
2068,1710926199767265522,2053,2056,2062,2084,2049,2046,1192
2069,1710926199777267590,2052,2046,2053,2065,2056,2048,1196
2070,1710926199787279078,2053,2041,2053,2062,2047,2070,1197
2071,1710926199797267311,2052,2046,2041,2065,2053,2052,1197
2072,1710926199807261315,2053,2025,2066,2040,2032,2052,1196
2073,1710926199817277090,2073,2042,2044,2033,2072,2058,1197
2074,1710926199827272657,2054,2036,2057,2067,2058,2059,1196
2075,1710926199837281429,2059,2054,2048,1979,2057,2050,1194
2076,1710926199847266807,2052,2034,2046,2077,2032,2048,1196
2077,1710926199857333489,2054,2038,2036,2093,2079,2061,1195
2078,1710926199867281586,2047,2047,2059,2080,2043,2020,1192
2079,1710926199877302682,2049,2064,2052,2051,2054,2060,1196
2080,1710926199887345948,2053,2055,2056,2024,2047,2052,1194
2081,1710926199897266263,2056,2066,2050,2058,2070,2054,1197
2082,1710926199907264154,2056,2060,2071,2106,2058,2060,1195
2083,1710926199917282986,2052,2052,2057,2073,2066,2056,1198
2084,1710926199927271410,2058,2052,2066,2058,2052,2056,1197
2085,1710926199937219987,2057,2073,2056,2051,2072,2059,1197
2086,1710926199947265138,2050,2055,2055,2032,2046,2016,1194
2087,1710926199957279951,2054,2034,2042,2089,2074,2075,1195
2088,1710926199967273184,2058,2056,2067,2051,2062,2061,1196
2089,1710926199977273841,2052,2048,2050,2047,2061,2053,1195
2090,1710926199987272975,2056,2039,2047,2074,2047,2056,1197
2091,1710926199997280094,2052,2068,2057,2046,2068,2049,1196
2092,1710926200007278716,2056,2048,2053,1988,2034,2056,1196
2093,1710926200017266038,2057,2075,2041,2106,2065,2063,1195
2094,1710926200027270141,2054,2048,2055,2024,2051,2062,1196
2095,1710926200037278122,2056,2056,2056,2080,2060,2051,1193
2096,1710926200047269360,2053,2049,2060,2040,2048,2027,1192
2097,1710926200057279605,2049,2047,2038,1949,2035,2065,1197
2098,1710926200067213915,2056,2074,2083,2056,2041,2085,1193
2099,1710926200077241023,2060,2062,2052,2038,2064,2069,1197
2100,1710926200087268029,2052,2045,2052,2053,2041,2056,1197
2101,1710926200097273445,2050,2057,2049,2072,2062,2054,1197
2102,1710926200107286434,2058,2065,2068,1988,2029,2051,1195
2103,1710926200117268647,2056,2056,2045,2053,2057,2056,1196
2104,1710926200127268992,2052,2038,2044,2075,2059,2039,1192
2105,1710926200137271893,2054,2061,2071,2031,2044,2044,1193
2106,1710926200147212776,2050,2035,2053,2008,2032,2052,1195
2107,1710926200157276783,2055,2054,2054,2028,2070,2056,1196
2108,1710926200167275065,2053,2056,2063,2093,2052,2056,1192
2109,1710926200177249132,2056,2040,2048,2072,2062,2080,1197
2110,1710926200187275316,2053,2036,2053,2050,2038,2078,1196
2111,1710926200197214106,2056,2080,2070,2029,2056,2027,1192
2112,1710926200207236413,2050,2052,2059,2085,2044,2052,1195
2113,1710926200217274221,2056,2053,2056,2097,2076,2057,1195
2114,1710926200227274165,2061,2063,2072,2040,2040,2052,1194
2115,1710926200237274211,2053,2058,2048,2035,2053,2058,1194
2116,1710926200247275058,2054,2053,2066,2084,2054,2055,1196
2117,1710926200257274693,2052,2017,2029,2052,2058,2054,1195
2118,1710926200267276030,2068,2079,2057,2052,2044,2040,1193
2119,1710926200277280194,2052,2043,2038,2067,2069,2056,1193
2120,1710926200287238570,2048,2047,2062,2032,2003,2033,1192
2121,1710926200297280666,2052,2054,2041,2064,2067,2010,1190
2122,1710926200307278597,2048,2040,2053,2052,2042,2052,1196
2123,1710926200317278743,2055,2045,2043,2075,2068,2054,1195
2124,1710926200327278437,2052,2047,2052,2068,2022,2056,1196
2125,1710926200337279194,2068,2060,2033,2067,2069,2056,1198
2126,1710926200347330967,2053,2048,2074,2068,2052,2049,1199
2127,1710926200357258596,2060,2068,2058,2084,2060,1996,1192
2128,1710926200367280683,2052,2050,2056,1976,2035,2048,1197
2129,1710926200377285558,2064,2061,2053,2004,2064,2058,1197
2130,1710926200387285313,2054,2094,2088,2034,2037,2050,1194
2131,1710926200397284256,2050,2052,2051,2042,2062,2061,1196
2132,1710926200407263462,2056,2065,2081,2069,2037,2053,1193
2133,1710926200417233360,2060,2056,2048,2032,2053,2058,1195
2134,1710926200427282990,2058,2056,2054,1999,2048,2061,1193
2135,1710926200437282234,2045,2027,2036,2076,2059,2006,1192
2136,1710926200447282841,2053,2047,2075,2076,2049,2042,1193
2137,1710926200457283687,2057,2049,2049,2022,2056,2041,1193
2138,1710926200467260058,2062,2064,2053,2037,2041,2056,1193
2139,1710926200477245545,2056,2070,2079,2069,2068,2061,1195
2140,1710926200487267403,2056,2056,2072,2047,2050,2061,1194
2141,1710926200497287335,2056,2056,2054,2021,2064,2062,1197
2142,1710926200507266412,2050,2061,2056,2052,2038,2033,1192
2143,1710926200517232923,2056,2095,2082,2065,2060,2053,1195
2144,1710926200527253668,2058,2036,2057,2032,2048,2082,1196
2145,1710926200537270314,2056,2045,2050,2054,2068,2051,1196
2146,1710926200547270330,2057,2051,2065,2182,2064,2060,1195
2147,1710926200557269464,2056,2052,2047,2106,2064,2056,1197
2148,1710926200567288415,2059,2049,2062,2034,2040,2006,1194
2149,1710926200577292438,2065,2049,2054,2037,2063,2050,1195
2150,1710926200587267757,2052,2027,2045,2055,2046,2044,1193
2151,1710926200597270647,2058,2035,2040,2068,2056,2049,1194
2152,1710926200607330126,2064,2050,2043,2088,2054,2047,1192
2153,1710926200617272211,2054,2054,2036,2088,2068,2045,1192
2154,1710926200627257830,2057,2072,2069,2052,2047,2055,1195
2155,1710926200637271590,2054,2054,2051,2064,2065,2057,1192
2156,1710926200647268661,2056,2062,2069,2082,2052,2070,1196
2157,1710926200657275228,2052,2057,2062,2021,2056,2051,1196
2158,1710926200667274152,2060,2045,2047,1970,2045,2035,1193
2159,1710926200677239952,2052,2047,2034,2068,2065,2045,1191
2160,1710926200687270856,2060,2118,2085,2047,2048,2051,1196
2161,1710926200697266403,2052,2047,2037,2048,2056,2080,1195
2162,1710926200707271939,2049,2049,2053,2042,2044,2051,1193
2163,1710926200717278055,2052,2035,2046,2046,2067,2050,1195
2164,1710926200727267101,2067,2044,2062,2010,2045,2050,1194
2165,1710926200737269570,2058,2040,2050,2040,2067,2069,1195
2166,1710926200747272471,2048,2055,2066,2018,2029,2048,1196
2167,1710926200757268529,2056,2048,2040,2063,2065,2016,1191
2168,1710926200767277722,2054,2046,2052,2014,2033,2011,1193
2169,1710926200777276375,2058,2062,2052,2088,2057,2046,1193
2170,1710926200787257284,2050,2037,2051,1989,2028,2047,1193
2171,1710926200797264994,2058,2054,2043,2103,2044,2054,1195
2172,1710926200807267324,2043,2042,2057,2020,2042,2064,1196
2173,1710926200817267299,2061,2072,2058,2062,2074,2067,1195
2174,1710926200827270410,2056,2064,2070,2045,2039,2056,1197
2175,1710926200837278131,2055,2056,2048,2076,2060,2060,1192
2176,1710926200847264810,2057,2058,2064,2065,2036,2057,1195
2177,1710926200857268343,2054,2104,2070,2076,2062,2072,1194
2178,1710926200867270632,2045,2053,2060,2056,2043,2053,1193
2179,1710926200877270277,2052,2069,2057,2031,2068,2064,1193
2180,1710926200887277716,2053,2050,2063,2045,2038,2037,1194
2181,1710926200897276389,2054,2068,2077,2013,2039,2060,1196
2182,1710926200907269051,2054,2053,2051,2042,2040,2051,1194
2183,1710926200917271871,2056,2053,2048,2005,2056,2045,1192
2184,1710926200927266146,2059,2062,2082,2056,2052,2021,1193
2185,1710926200937279958,2058,2056,2044,2074,2069,2060,1197
2186,1710926200947272398,2056,2073,2072,2065,2036,2071,1195
2187,1710926200957270661,2052,2069,2058,2008,2065,2076,1195
2188,1710926200967272099,2048,2049,2058,2013,2019,2025,1190
2189,1710926200977270091,2053,2075,2066,2008,2068,2046,1194
2190,1710926200987269394,2052,2044,2044,2057,2037,2049,1195
2191,1710926200997269220,2055,2051,2059,2077,2057,2046,1192
2192,1710926201007264255,2048,2068,2076,2032,2044,2052,1194
2193,1710926201017264562,2062,2052,2047,1980,2055,2046,1194
2194,1710926201027267271,2052,2049,2067,2064,2049,2058,1196
2195,1710926201037261125,2060,2060,2045,2026,2059,2066,1195
2196,1710926201047273985,2050,2036,2056,2083,2051,2077,1196
2197,1710926201057271636,2060,2071,2072,2080,2072,2088,1195
2198,1710926201067270349,2049,2058,2056,1965,2044,2054,1195
2199,1710926201077273620,2053,2026,2044,2062,2076,2056,1194
2200,1710926201087271552,2062,2036,2047,2017,2029,2056,1196
2201,1710926201097259353,2058,2060,2059,2057,2064,2076,1197
2202,1710926201107269218,2056,2057,2065,2061,2060,2069,1196
2203,1710926201117267199,2050,2059,2050,2072,2066,2036,1193
2204,1710926201127266443,2058,2073,2078,2052,2049,2048,1197
2205,1710926201137269845,2053,2066,2052,2039,2062,2047,1194
2206,1710926201147276664,2057,2056,2067,2032,2056,2049,1199
2207,1710926201157275556,2055,2054,2044,2062,2068,2053,1198
2208,1710926201167267908,2053,2059,2063,2061,2052,2068,1196
2209,1710926201177275106,2056,2053,2052,2074,2060,2058,1195
2210,1710926201187273358,2057,2064,2079,2080,2054,2053,1196
2211,1710926201197262613,2054,2053,2051,2035,2052,2040,1193
2212,1710926201207260714,2056,2053,2056,2062,2035,2050,1195
