seq,time,data[0],data[1],data[2],data[3],data[4],data[5],data[6]
201,1711439558630993041,2057,2054,2060,1996,2048,2050,1194
202,1711439558640965802,2053,2053,2054,2090,2061,2058,1195
203,1711439558650968114,2058,2053,2059,2148,2076,2056,1197
204,1711439558660968663,2056,2056,2056,2115,2070,2103,1196
205,1711439558670965366,2053,2050,2057,2042,2042,2030,1195
206,1711439558680964252,2051,2052,2056,2150,2070,2090,1196
207,1711439558690966105,2053,2058,2061,2026,2060,2106,1196
208,1711439558700966584,2052,2055,2047,2037,2023,2046,1193
209,1711439558710967984,2056,2053,2056,2017,2056,2056,1195
210,1711439558720966500,2052,2051,2047,2088,2050,2046,1193
211,1711439558730971377,2056,2052,2044,2073,2056,2041,1192
212,1711439558740968600,2053,2052,2052,2075,2040,2032,1196
213,1711439558750973778,2054,2052,2050,1977,2053,2041,1195
214,1711439558760966715,2057,2050,2053,2019,2049,2078,1196
215,1711439558770966212,2060,2065,2081,2060,2072,2080,1197
216,1711439558780967823,2053,2055,2066,2024,2048,2040,1192
217,1711439558790966279,2056,2053,2053,2054,2056,2064,1197
218,1711439558800963813,2056,2056,2049,2138,2062,2052,1197
219,1711439558810963861,2057,2053,2048,2058,2061,2084,1198
220,1711439558820962297,2064,2069,2072,2119,2054,2069,1196
221,1711439558830963948,2056,2052,2061,2061,2066,2068,1196
222,1711439558840965059,2057,2057,2054,2066,2059,2057,1195
223,1711439558850976998,2059,2056,2064,2073,2066,2073,1195
224,1711439558860976626,2062,2061,2057,2096,2084,2099,1196
225,1711439558870969722,2056,2059,2067,2092,2049,2077,1197
226,1711439558880967326,2054,2055,2056,2036,2030,2048,1195
227,1711439558891020478,2053,2049,2054,2052,2053,2048,1194
228,1711439558900973094,2053,2049,2050,2088,2072,2056,1196
229,1711439558910972411,2050,2053,2064,2019,2056,1989,1193
230,1711439558920967701,2055,2053,2050,2032,2052,2061,1197
231,1711439558930964344,2054,2053,2049,2024,2065,2100,1196
232,1711439558940982794,2056,2056,2060,2089,2082,2073,1195
233,1711439558950966704,2055,2054,2059,2047,2054,2056,1196
234,1711439558961008987,2060,2058,2036,1983,2040,2051,1194
235,1711439558970970819,2054,2053,2053,2089,2078,2064,1196
236,1711439558980966450,2056,2057,2051,2080,2050,2059,1196
237,1711439558990968532,2052,2054,2063,2037,2057,2046,1194
238,1711439559001012327,2056,2050,2044,2005,2044,2077,1198
239,1711439559010981978,2057,2052,2058,2077,2052,2052,1198
240,1711439559020966857,2052,2052,2059,2100,2033,2044,1192
241,1711439559030964177,2050,2049,2053,2063,2056,2058,1198
242,1711439559041002600,2055,2056,2058,2079,2062,2056,1198
243,1711439559050979214,2054,2052,2057,2071,2045,2049,1195
244,1711439559060974641,2056,2056,2059,2145,2046,2000,1193
245,1711439559070975748,2052,2052,2052,2073,2064,2052,1195
246,1711439559080972448,2054,2053,2054,2101,2067,2061,1196
247,1711439559090994492,2056,2046,2054,2107,2062,2053,1195
248,1711439559100977638,2053,2052,2054,2050,2059,2064,1194
249,1711439559110977642,2057,2057,2067,1921,2046,2033,1193
250,1711439559120974613,2054,2056,2056,2089,2052,2056,1195
251,1711439559130974367,2058,2056,2056,2057,2054,2058,1194
252,1711439559141001851,2058,2056,2051,2077,2074,2050,1197
253,1711439559150967816,2056,2051,2057,2039,2066,2066,1196
254,1711439559160965507,2056,2056,2058,2047,2060,2056,1196
255,1711439559170964200,2055,2052,2056,2013,2064,2059,1195
256,1711439559180963424,2059,2056,2052,2044,2055,2052,1194
257,1711439559190962288,2057,2057,2066,2075,2065,2052,1195
258,1711439559200960179,2060,2063,2067,2064,2053,2046,1193
259,1711439559210974810,2056,2055,2061,2056,2051,2047,1194
260,1711439559220964557,2056,2059,2058,2030,2048,2052,1197
261,1711439559230972166,2053,2052,2061,2056,2046,2052,1196
262,1711439559240975657,2056,2052,2050,2058,2050,2058,1197
263,1711439559250971044,2057,2058,2048,2041,2051,2056,1196
264,1711439559260960431,2058,2052,2046,2156,2064,2061,1195
265,1711439559270965655,2052,2053,2052,2068,2058,2055,1200
266,1711439559280963266,2059,2057,2047,2053,2076,2058,1196
267,1711439559290977767,2061,2058,2073,2053,2054,2060,1197
268,1711439559300972994,2050,2048,2042,2062,2050,2041,1192
269,1711439559310972007,2056,2048,2044,1960,2044,2020,1192
270,1711439559320965611,2056,2056,2058,2069,2036,2048,1194
271,1711439559330961770,2052,2049,2060,2125,2063,2045,1193
272,1711439559340985016,2056,2056,2052,1964,2046,2050,1195
273,1711439559350977087,2056,2053,2061,2032,2065,2059,1195
274,1711439559360974528,2056,2054,2051,2048,2049,2050,1197
275,1711439559370970436,2053,2052,2061,2074,2060,2060,1196
276,1711439559380967696,2056,2060,2057,2107,2053,2064,1196
277,1711439559390991223,2058,2056,2056,2008,2051,2056,1195
278,1711439559400972616,2053,2054,2056,2071,2032,1968,1194
279,1711439559410963855,2054,2055,2060,2013,2028,2044,1194
280,1711439559420962358,2056,2059,2068,2088,2060,2056,1197
281,1711439559430966540,2061,2060,2056,2007,2060,2041,1194
282,1711439559440987783,2057,2056,2058,2016,2053,2055,1197
283,1711439559450971870,2049,2052,2056,2036,2052,2049,1195
284,1711439559460965765,2052,2050,2042,2048,2046,2052,1196
285,1711439559470961813,2056,2052,2054,2012,2056,2060,1197
286,1711439559480959364,2059,2054,2052,2043,2054,2054,1197
287,1711439559491011662,2051,2060,2060,2022,2020,2034,1194
288,1711439559500961859,2052,2054,2052,2037,2050,2050,1193
289,1711439559510969868,2053,2052,2048,2058,2050,2048,1196
290,1711439559520969763,2056,2053,2053,2031,2049,2052,1193
291,1711439559530995865,2057,2053,2046,2030,2045,2061,1195
292,1711439559540968081,2056,2052,2047,2046,2032,2044,1193
293,1711439559550961825,2056,2061,2072,2182,2062,2055,1197
294,1711439559560962191,2056,2054,2049,2062,2032,2030,1193
295,1711439559570955304,2057,2059,2052,2037,2044,2009,1194
296,1711439559580960047,2058,2057,2054,2047,2061,2060,1195
297,1711439559590983194,2051,2057,2069,2068,2070,2060,1196
298,1711439559600952434,2056,2057,2056,2034,2060,2046,1193
299,1711439559610963129,2056,2052,2053,2024,2050,2063,1195
300,1711439559620961020,2056,2055,2074,2059,2050,2050,1197
301,1711439559630980129,2060,2058,2059,2043,2056,2050,1198
302,1711439559640973202,2056,2056,2056,2046,2039,2052,1196
303,1711439559650975932,2061,2056,2062,2109,2072,2069,1196
304,1711439559660977290,2051,2050,2056,2105,2064,2074,1196
305,1711439559670975832,2049,2047,2048,2060,2051,2048,1197
306,1711439559680974766,2056,2056,2048,2059,2055,2039,1192
307,1711439559690974250,2052,2055,2057,2066,2033,2049,1197
308,1711439559700988250,2057,2058,2052,2017,2043,2036,1192
309,1711439559710972507,2053,2052,2057,2061,2062,2054,1195
310,1711439559720970920,2054,2057,2060,2040,2048,2016,1192
311,1711439559730984009,2059,2058,2068,2090,2063,2060,1196
312,1711439559740972533,2058,2056,2058,2066,2064,2058,1197
313,1711439559750966568,2056,2052,2056,2017,2041,2053,1196
314,1711439559760965331,2058,2057,2058,2052,2057,2056,1195
315,1711439559770966148,2065,2063,2070,2002,2021,2039,1195
316,1711439559780963608,2056,2056,2058,2041,2049,2056,1196
317,1711439559790963253,2056,2053,2058,2036,2054,2057,1197
318,1711439559800972815,2052,2052,2053,2064,2054,2054,1197
319,1711439559810965878,2053,2053,2053,1965,2040,2047,1194
320,1711439559820991799,2060,2059,2065,2066,2034,2050,1196
321,1711439559830990562,2058,2054,2056,2048,2042,2046,1193
322,1711439559840977113,2057,2054,2051,2087,2057,2060,1195
323,1711439559850981757,2061,2066,2070,2000,2042,2024,1195
324,1711439559860959483,2056,2051,2045,2034,2036,2047,1193
325,1711439559870960420,2049,2052,2064,2079,2064,2051,1196
326,1711439559880959123,2058,2060,2059,2117,2061,2056,1195
327,1711439559890974245,2056,2054,2051,2077,2052,2046,1193
328,1711439559900990569,2053,2054,2052,2026,2047,2053,1195
329,1711439559910979855,2056,2054,2056,2006,2044,2048,1196
330,1711439559920981003,2056,2056,2052,2006,2029,2049,1195
331,1711439559930977442,2056,2053,2060,2073,2064,2058,1196
332,1711439559940969523,2055,2052,2048,2064,2044,2051,1196
333,1711439559950978203,2056,2052,2053,2045,2053,2058,1197
334,1711439559960971798,2053,2056,2058,2108,2059,2064,1198
335,1711439559970965161,2053,2053,2055,1999,2042,2048,1197
336,1711439559980968032,2058,2057,2052,2053,2052,2054,1196
337,1711439559990980979,2054,2047,2052,2052,2057,2056,1196
338,1711439560000971789,2057,2056,2059,2122,2068,2060,1196
339,1711439560010968222,2057,2056,2057,2056,2060,2053,1197
340,1711439560020966651,2055,2058,2055,2025,2062,2064,1197
341,1711439560030975378,2053,2049,2044,2057,2068,2054,1197
342,1711439560040972403,2054,2053,2050,2054,2056,2049,1197
343,1711439560050978345,2058,2060,2068,2063,2060,2056,1198
344,1711439560060970642,2058,2060,2058,2058,2058,2029,1195
345,1711439560070967277,2053,2056,2059,2028,2052,2060,1196
346,1711439560080966527,2056,2048,2044,2033,2042,2047,1194
347,1711439560090997804,2056,2056,2056,2027,2055,2056,1195
348,1711439560100965768,2058,2060,2057,2070,2063,2061,1193
349,1711439560110967653,2060,2059,2068,2016,2067,2059,1198
350,1711439560120965911,2058,2052,2048,2057,2055,2049,1195
351,1711439560130990325,2056,2056,2060,2010,2045,2054,1197
352,1711439560140985378,2061,2060,2059,2079,2060,2062,1198
353,1711439560150964993,2059,2049,2047,2075,2060,2050,1197
354,1711439560160962950,2060,2053,2045,2034,2056,2057,1197
355,1711439560170959846,2054,2054,2051,2035,2047,2049,1197
356,1711439560180959206,2053,2054,2049,2026,2042,2047,1194
357,1711439560190964637,2053,2056,2062,2026,2050,2047,1192
358,1711439560200965078,2051,2052,2050,2004,2057,2064,1198
359,1711439560210968336,2055,2056,2053,2072,2055,2054,1197
360,1711439560220962776,2057,2063,2061,2009,2038,2045,1192
361,1711439560230998972,2056,2053,2057,2045,2030,2047,1193
362,1711439560240972076,2057,2059,2056,2057,2060,2064,1197
363,1711439560250964994,2056,2053,2057,2068,2065,2088,1197
364,1711439560260969824,2050,2057,2057,2030,2065,2057,1197
365,1711439560270965888,2056,2056,2064,2086,2050,2052,1196
366,1711439560280970938,2055,2058,2056,2043,2036,2044,1195
367,1711439560290987859,2056,2052,2052,2029,2047,2049,1197
368,1711439560300967745,2058,2055,2052,2064,2056,2049,1196
369,1711439560310967215,2061,2064,2073,2032,2045,2047,1194
370,1711439560320965232,2052,2051,2052,2063,2042,2044,1193
371,1711439560330984298,2056,2056,2062,2001,2059,2042,1193
372,1711439560340975413,2061,2058,2048,2009,2034,2050,1194
373,1711439560350958354,2056,2057,2054,2032,2045,2094,1198
374,1711439560360966590,2056,2059,2055,1994,2040,2050,1195
375,1711439560370964176,2056,2055,2060,2009,2051,2056,1195
376,1711439560380978263,2053,2053,2053,2033,2053,2061,1197
377,1711439560390966353,2057,2056,2070,2098,2074,2061,1196
378,1711439560400961736,2057,2060,2064,2040,2046,2051,1197
379,1711439560410965383,2058,2053,2057,2041,2059,2058,1196
380,1711439560420966106,2053,2050,2051,2066,2045,2046,1194
381,1711439560430986242,2056,2054,2066,1976,2052,2057,1196
382,1711439560440971197,2056,2059,2064,2057,2068,2064,1197
383,1711439560450975506,2054,2053,2064,2131,2061,2051,1196
384,1711439560460975697,2056,2054,2052,2065,2056,2051,1197
385,1711439560470976560,2058,2053,2056,2056,2057,2053,1195
386,1711439560480974768,2056,2056,2056,2028,2050,2064,1195
387,1711439560490975982,2059,2062,2069,2043,2057,2056,1195
388,1711439560500973969,2052,2049,2046,1998,2058,2056,1195
389,1711439560510973179,2057,2052,2052,2064,2050,2050,1194
390,1711439560520971287,2060,2058,2061,2053,2048,2050,1194
391,1711439560530980183,2057,2056,2060,2078,2063,2055,1197
392,1711439560540974645,2054,2050,2051,2105,2045,2057,1197
393,1711439560550967794,2054,2052,2053,1981,2035,2041,1194
394,1711439560560969077,2056,2054,2052,2056,2047,2010,1193
395,1711439560570966594,2058,2057,2053,2067,2060,2052,1197
396,1711439560580971974,2053,2054,2048,2032,2038,2053,1195
397,1711439560590967658,2057,2052,2049,1970,2042,2049,1196
398,1711439560600964714,2057,2059,2056,2076,2064,2058,1198
399,1711439560610965527,2056,2053,2056,2034,2052,2051,1198
400,1711439560620975546,2056,2052,2054,2080,2045,2048,1197
401,1711439560630981758,2056,2056,2058,2065,2059,2058,1197
402,1711439560640975067,2059,2056,2050,2081,2070,2063,1197
403,1711439560650968717,2056,2052,2048,2035,2061,2054,1196
404,1711439560660966584,2052,2049,2046,2049,2057,2046,1193
405,1711439560670980089,2053,2047,2047,2050,2053,2051,1197
406,1711439560680978227,2057,2054,2056,1987,2046,2057,1195
407,1711439560690962390,2056,2056,2061,2059,2061,2070,1196
408,1711439560700965608,2052,2050,2052,2042,2056,2053,1196
409,1711439560710967161,2057,2058,2061,2005,2056,2057,1196
410,1711439560720976429,2056,2049,2052,2018,2050,2052,1195
411,1711439560730963597,2058,2052,2057,2046,2047,2052,1197
412,1711439560740962797,2053,2049,2048,2080,2058,2053,1198
413,1711439560750971604,2059,2057,2058,2081,2067,2058,1195
414,1711439560760974019,2051,2054,2051,2030,2067,2058,1193
415,1711439560771026203,2055,2056,2064,2092,2064,2055,1194
416,1711439560780961218,2053,2056,2058,2049,2053,2050,1197
417,1711439560790970176,2060,2060,2064,2066,2057,2050,1195
418,1711439560800963384,2056,2053,2053,2052,2053,2052,1197
419,1711439560810964558,2058,2052,2052,2043,2038,2047,1194
420,1711439560820983734,2056,2053,2046,2056,2056,2053,1198
421,1711439560830970721,2053,2048,2056,2076,2054,2041,1193
422,1711439560840972376,2056,2056,2058,2096,2073,2068,1196
423,1711439560850964964,2058,2058,2059,2044,2054,2054,1197
424,1711439560860964213,2056,2056,2058,2036,2066,2061,1195
425,1711439560870989970,2059,2061,2062,2061,2067,2059,1194
426,1711439560880969485,2057,2057,2056,2041,2058,2058,1195
427,1711439560890962994,2056,2053,2056,2012,2044,2047,1193
428,1711439560900965370,2052,2050,2058,2044,2057,2056,1194
429,1711439560910987881,2061,2058,2062,2069,2054,2062,1197
430,1711439560920995625,2053,2048,2046,2020,2053,2030,1192
431,1711439560930964462,2056,2057,2056,2046,2059,2057,1195
432,1711439560940958543,2052,2052,2053,2096,2059,2054,1194
433,1711439560950962500,2058,2056,2058,2086,2066,2054,1196
434,1711439560960963654,2054,2053,2052,2026,2056,2057,1196
435,1711439560970993308,2056,2056,2062,2055,2053,2052,1195
436,1711439560980961212,2056,2054,2056,2094,2057,2052,1193
437,1711439560990965761,2057,2053,2056,2052,2048,2052,1195
438,1711439561000965121,2056,2053,2052,2058,2056,2052,1194
439,1711439561010961911,2056,2055,2056,1993,2043,2052,1194
440,1711439561020983596,2050,2046,2037,2030,2049,2056,1195
441,1711439561030958838,2058,2060,2060,2071,2048,2062,1196
442,1711439561040983117,2056,2053,2056,2060,2053,2053,1197
443,1711439561050961695,2058,2057,2055,2029,2051,2054,1196
444,1711439561060960309,2051,2054,2056,2074,2040,2047,1193
445,1711439561070997341,2053,2048,2045,2026,2045,2052,1196
446,1711439561080977762,2052,2048,2045,2056,2050,2040,1192
447,1711439561090975275,2056,2056,2058,2015,2049,2048,1196
448,1711439561100974479,2056,2056,2053,2045,2045,2045,1192
449,1711439561110973944,2061,2063,2061,1995,2054,2057,1196
450,1711439561121002141,2056,2056,2053,2074,2059,2056,1197
451,1711439561130982872,2055,2056,2056,2084,2053,2055,1195
452,1711439561140971890,2049,2047,2047,2046,2039,2049,1196
453,1711439561150970884,2055,2053,2058,2051,2049,2032,1192
454,1711439561160970028,2056,2056,2053,2025,2054,2056,1195
455,1711439561170970445,2052,2050,2061,2060,2057,2048,1196
456,1711439561180981050,2056,2052,2051,2042,2049,2050,1197
457,1711439561190966370,2055,2056,2060,2045,2045,2056,1196
458,1711439561200964674,2057,2056,2059,2069,2054,2064,1197
459,1711439561210965210,2056,2061,2069,2026,2052,2050,1197
460,1711439561220965177,2052,2053,2052,2046,2049,2055,1196
461,1711439561230977104,2060,2058,2060,2077,2056,2052,1195
462,1711439561240974175,2052,2049,2052,2034,2052,2045,1194
463,1711439561250941754,2059,2056,2061,2090,2056,2059,1196
464,1711439561260963428,2056,2053,2045,2069,2058,2064,1195
465,1711439561271004478,2058,2056,2062,2012,2057,2058,1196
466,1711439561280983306,2056,2052,2046,2049,2045,2050,1195
467,1711439561290961503,2056,2056,2059,1901,2040,2052,1195
468,1711439561300962161,2058,2058,2056,2030,2052,2056,1193
469,1711439561310959011,2060,2060,2066,2082,2060,2064,1194
470,1711439561320960259,2055,2054,2053,2036,2055,2056,1195
471,1711439561330956860,2055,2055,2060,2012,2060,2058,1193
472,1711439561340959130,2054,2056,2056,2058,2045,2051,1194
473,1711439561350962242,2053,2053,2059,2053,2057,2060,1196
474,1711439561360993965,2050,2052,2052,2054,2046,2066,1196
475,1711439561371023814,2058,2057,2060,2081,2048,2054,1196
476,1711439561380963603,2052,2052,2056,2102,2045,2046,1194
477,1711439561390955555,2056,2056,2064,2078,2060,2055,1196
478,1711439561400960049,2057,2056,2056,2045,2058,2057,1196
479,1711439561410962740,2059,2060,2064,2092,2045,2043,1196
480,1711439561420966383,2057,2059,2065,2083,2058,2052,1196
481,1711439561430978391,2055,2053,2062,2156,2073,2060,1196
482,1711439561440960044,2051,2050,2049,2099,2052,2045,1193
483,1711439561450963436,2057,2052,2053,2047,2044,2051,1197
484,1711439561460961629,2052,2055,2053,2083,2051,2050,1196
485,1711439561471033112,2053,2052,2055,2026,2056,2058,1197
486,1711439561480971899,2056,2056,2050,2057,2060,2064,1194
487,1711439561490964673,2056,2054,2053,2084,2059,2057,1197
488,1711439561500962385,2052,2049,2042,2079,2053,2053,1195
489,1711439561510959577,2058,2055,2056,2100,2048,2052,1196
490,1711439561520960134,2050,2041,2040,2064,2064,2051,1196
491,1711439561530963505,2052,2057,2046,2033,2052,2040,1193
492,1711439561540967610,2058,2064,2064,2079,2061,2059,1198
493,1711439561550964109,2063,2061,2065,2113,2075,2058,1196
494,1711439561560962533,2059,2053,2061,2105,2064,2056,1195
495,1711439561570923159,2056,2050,2051,2060,2047,2045,1193
496,1711439561580969607,2053,2050,2047,2002,2049,2052,1195
497,1711439561590963193,2059,2058,2056,2061,2048,2052,1196
498,1711439561600974519,2054,2050,2045,2041,2051,2041,1195
499,1711439561610965799,2053,2050,2053,2044,2052,2056,1196
500,1711439561620961648,2052,2054,2052,2059,2050,2049,1198
501,1711439561630971932,2058,2058,2063,2050,2047,2056,1198
502,1711439561640970787,2056,2054,2046,2052,2052,2064,1197
503,1711439561650966465,2052,2049,2056,2112,2054,2051,1196
504,1711439561660967122,2059,2060,2056,2053,2068,2058,1196
505,1711439561670976987,2060,2060,2065,2037,2063,2005,1194
506,1711439561680966334,2051,2050,2047,2020,2056,2053,1196
507,1711439561690983320,2053,2050,2053,2080,2060,2056,1195
508,1711439561700971485,2057,2054,2056,2065,2065,2058,1195
509,1711439561710968095,2051,2048,2045,2112,2066,2053,1194
510,1711439561720964245,2055,2056,2062,2076,2050,2060,1196
511,1711439561730977394,2053,2052,2052,2037,2051,2056,1197
512,1711439561740962353,2060,2056,2058,2038,2053,2057,1198
513,1711439561750970314,2052,2050,2051,2051,2044,2046,1193
514,1711439561760970180,2060,2058,2061,2066,2061,2062,1195
515,1711439561770969846,2059,2056,2062,2065,2064,2053,1193
516,1711439561780967368,2053,2053,2054,2066,2060,2057,1198
517,1711439561790971581,2062,2061,2053,2112,2064,2060,1196
518,1711439561800965487,2053,2050,2048,2024,2032,2045,1194
519,1711439561810967687,2053,2056,2061,2061,2047,2047,1193
520,1711439561820970337,2058,2055,2052,2030,2045,2053,1197
521,1711439561830956620,2060,2050,2044,2006,2030,2058,1195
522,1711439561840969719,2059,2059,2051,2084,2066,2056,1196
523,1711439561850964185,2061,2060,2055,2044,2051,2053,1195
524,1711439561860966225,2047,2051,2053,2148,2052,2044,1193
525,1711439561870967904,2048,2045,2047,2116,2026,2060,1195
526,1711439561880970806,2047,2048,2046,2034,2047,2044,1196
527,1711439561890965963,2052,2053,2057,2042,2039,2037,1193
528,1711439561900962453,2050,2049,2051,2046,2030,2046,1192
529,1711439561910966967,2060,2061,2064,2062,2061,2046,1195
530,1711439561920964309,2054,2049,2044,1981,2020,2032,1197
531,1711439561930986294,2047,2045,2035,1945,2006,2035,1195
532,1711439561940977845,2055,2056,2052,2067,2042,2049,1196
533,1711439561950963796,2057,2052,2051,2091,2069,2059,1198
534,1711439561960975814,2052,2049,2047,2072,2068,2054,1196
535,1711439561970977243,2058,2056,2056,2088,2060,2053,1198
536,1711439561980982808,2060,2056,2046,2086,2081,2069,1198
537,1711439561990985901,2053,2055,2061,2061,2036,2046,1196
538,1711439562000975247,2043,2041,2028,2034,2045,1996,1193
539,1711439562010998218,2051,2048,2041,2026,2007,2001,1195
540,1711439562020973996,2057,2053,2058,2086,2058,2056,1196
541,1711439562030990275,2055,2056,2041,1929,2013,2046,1194
542,1711439562040971621,2058,2062,2061,2178,2068,2062,1197
543,1711439562050972463,2045,2048,2065,2072,2050,2049,1196
544,1711439562060971402,2062,2065,2068,2036,2076,2061,1196
545,1711439562070970330,2053,2044,2053,2088,2053,2001,1193
546,1711439562080971212,2057,2052,2046,2070,2059,2056,1197
547,1711439562090968778,2054,2053,2069,2050,2072,2043,1193
548,1711439562100960134,2056,2053,2055,2110,2060,2061,1194
549,1711439562110967917,2058,2051,2059,2042,2062,2055,1197
550,1711439562120966285,2065,2071,2094,2044,2068,2085,1196
551,1711439562130967287,2052,2047,2048,2112,2049,2049,1196
552,1711439562140983857,2056,2056,2057,2050,2060,2066,1195
553,1711439562150975713,2066,2065,2068,2050,2047,2022,1193
554,1711439562160971345,2054,2053,2042,2069,2053,2057,1195
555,1711439562170968300,2044,2050,2046,1998,2045,2052,1197
556,1711439562180965265,2052,2046,2047,2078,2052,2039,1192
557,1711439562190984721,2063,2062,2054,2128,2080,2076,1197
558,1711439562200963724,2056,2050,2052,2000,2062,2078,1197
559,1711439562210959135,2053,2049,2048,2042,2057,2072,1195
560,1711439562220962613,2059,2056,2061,2061,2058,2045,1194
561,1711439562231003546,2061,2060,2070,2060,2072,2056,1195
562,1711439562240968934,2058,2054,2052,2112,2072,2056,1196
563,1711439562250958566,2056,2053,2060,2086,2063,2052,1199
564,1711439562260976528,2056,2057,2061,2057,2053,2052,1197
565,1711439562270961712,2056,2058,2060,2053,2055,2061,1197
566,1711439562280964548,2054,2053,2058,1982,2051,2053,1198
567,1711439562290965260,2052,2044,2037,2088,2048,2049,1196
568,1711439562300965070,2055,2054,2053,2018,2050,2050,1193
569,1711439562310967905,2056,2053,2056,2043,2044,2051,1195
570,1711439562320991608,2088,2056,2056,2045,2060,2058,1195
571,1711439562331020940,2053,2052,2057,2032,2054,2057,1196
572,1711439562340965962,2056,2061,2076,2038,2048,2056,1196
573,1711439562350963518,2056,2050,2056,2012,2046,2050,1195
574,1711439562360964911,2048,2044,2037,2022,2018,2036,1193
575,1711439562370964852,2056,2064,2059,2047,2059,2053,1195
576,1711439562380963460,2051,2048,2053,2020,2051,1998,1194
577,1711439562390963721,2056,2053,2060,2056,2061,2062,1197
578,1711439562400958051,2052,2051,2054,2040,2052,2066,1199
579,1711439562411003692,2062,2058,2056,2021,2065,2066,1197
580,1711439562421002922,2052,2048,2047,2046,2050,2043,1195
581,1711439562431003413,2052,2054,2054,1978,2031,2050,1195
582,1711439562440994066,2056,2052,2045,2069,2060,2053,1197
583,1711439562450997062,2055,2053,2053,2028,2030,2033,1195
584,1711439562460993516,2056,2052,2047,2049,2047,2049,1197
585,1711439562470993997,2058,2057,2065,2062,2059,2057,1196
586,1711439562480990672,2056,2054,2057,2076,2048,2050,1197
587,1711439562490995671,2056,2052,2060,2105,2060,2053,1197
588,1711439562500988349,2055,2053,2052,2064,2057,2052,1196
589,1711439562510985524,2058,2056,2054,2088,2053,2053,1196
590,1711439562520983802,2052,2052,2053,2050,2038,2047,1192
591,1711439562530991345,2057,2054,2058,2073,2067,2064,1194
592,1711439562541646904,2057,2056,2059,2059,2057,2056,1196
593,1711439562550978322,2060,2056,2056,2079,2050,2054,1196
594,1711439562560976319,2048,2050,2046,2064,2047,2048,1196
595,1711439562570976239,2056,2053,2064,2072,2057,2048,1196
596,1711439562580977923,2056,2056,2050,2042,2049,2039,1193
597,1711439562590983924,2056,2057,2059,2068,2067,2057,1197
598,1711439562600974528,2058,2056,2069,2120,2053,2050,1196
599,1711439562610981560,2052,2046,2046,2018,2036,2040,1194
600,1711439562620972214,2056,2053,2061,2076,2066,2062,1198
601,1711439562630985749,2057,2057,2064,2057,2069,2072,1197
602,1711439562640983795,2057,2053,2053,2118,2056,2049,1197
603,1711439562650989686,2056,2052,2050,2066,2056,2060,1195
604,1711439562660969851,2058,2060,2056,2039,2058,2063,1196
605,1711439562670977024,2052,2049,2052,2020,2044,2045,1194
606,1711439562680976815,2053,2053,2060,2079,2027,2037,1195
607,1711439562690975994,2059,2056,2049,2088,2065,2061,1197
608,1711439562700988526,2056,2056,2052,2048,2059,2053,1194
609,1711439562710958333,2058,2055,2055,2057,2052,2056,1198
610,1711439562720974271,2047,2044,2037,2062,2046,2045,1195
611,1711439562730983078,2052,2052,2061,2075,2068,2050,1196
612,1711439562740976446,2053,2045,2050,2030,2049,2049,1197
613,1711439562750979171,2054,2053,2056,2072,2064,2058,1193
614,1711439562760965828,2052,2053,2054,2050,2057,2056,1195
615,1711439562770976066,2054,2051,2061,2113,2056,2052,1195
616,1711439562780973372,2055,2056,2061,2101,2070,2064,1197
617,1711439562790973483,2052,2050,2051,2062,2044,2058,1193
618,1711439562801012132,2056,2057,2058,2063,2043,2050,1197
619,1711439562811003437,2052,2047,2049,2064,2047,2052,1196
620,1711439562820973052,2053,2054,2052,2070,2052,2053,1196
621,1711439562831003698,2056,2052,2064,2049,2052,2057,1197
622,1711439562840999541,2059,2056,2052,2051,2059,2054,1197
623,1711439562851013346,2056,2053,2056,2072,2049,2044,1193
624,1711439562860992880,2058,2059,2060,2005,2047,2052,1198
625,1711439562871000163,2052,2054,2047,2082,2053,2037,1193
626,1711439562880995445,2058,2060,2059,2058,2047,2056,1197
627,1711439562890992801,2055,2054,2052,2002,2041,2052,1195
628,1711439562900994565,2057,2062,2058,2068,2054,2052,1196
629,1711439562910987312,2056,2052,2054,2113,2060,2052,1196
630,1711439562920983645,2056,2056,2048,2021,2051,2052,1195
631,1711439562930979990,2056,2057,2061,2018,2058,2058,1195
632,1711439562940984147,2060,2057,2054,2077,2059,2055,1196
633,1711439562950985309,2057,2056,2057,2000,2056,2056,1193
634,1711439562960979199,2059,2054,2056,2063,2048,2047,1193
635,1711439562970978598,2057,2058,2062,2041,2053,2056,1197
636,1711439562980974271,2058,2058,2056,2064,2047,2060,1198
637,1711439562990976305,2061,2058,2065,2101,2056,2055,1194
638,1711439563000973551,2056,2058,2061,2106,2072,2058,1194
639,1711439563010968314,2059,2056,2057,2069,2050,2051,1199
640,1711439563020967206,2056,2052,2044,2063,2053,2052,1197
641,1711439563030970726,2056,2060,2059,2054,2065,2060,1197
642,1711439563041022562,2053,2050,2046,1957,2050,2068,1198
643,1711439563050973148,2059,2057,2062,2082,2066,2064,1197
644,1711439563060959728,2061,2057,2064,2110,2068,2077,1195
645,1711439563071002438,2051,2049,2050,2064,2047,2075,1198
646,1711439563081003192,2059,2057,2060,2124,2061,2047,1192
647,1711439563090966871,2050,2053,2048,2022,2015,2037,1195
648,1711439563101011835,2046,2052,2046,2041,2030,2040,1193
649,1711439563110977067,2057,2056,2066,2080,2066,2054,1195
650,1711439563120994843,2053,2054,2055,2028,2033,2050,1198
651,1711439563130982354,2060,2060,2060,2025,2056,2074,1197
652,1711439563140987176,2056,2052,2045,2026,2044,2050,1196
653,1711439563150980568,2051,2052,2051,2049,2048,2052,1195
654,1711439563160977636,2053,2058,2051,1968,2044,2052,1197
655,1711439563170982208,2056,2056,2052,2032,2043,2051,1194
656,1711439563180979017,2057,2058,2062,2033,2060,2059,1197
657,1711439563190975083,2055,2060,2065,2097,2072,2062,1196
658,1711439563200980436,2052,2056,2051,2078,2050,2049,1195
659,1711439563210974770,2052,2053,2056,2058,2041,2049,1198
660,1711439563220978570,2056,2055,2052,2050,2052,2056,1196
661,1711439563230986438,2062,2059,2056,2000,2066,2062,1198
662,1711439563240970654,2056,2053,2060,2077,2044,2057,1197
663,1711439563250982208,2053,2054,2052,2057,2056,2050,1197
664,1711439563260969990,2052,2048,2048,2084,2056,2048,1195
665,1711439563270970654,2052,2051,2061,2119,2060,2050,1195
666,1711439563280966591,2056,2057,2050,2065,2064,2056,1195
667,1711439563290966525,2052,2049,2045,1996,2034,2049,1195
668,1711439563300981916,2054,2060,2058,2079,2065,2063,1196
669,1711439563310964158,2054,2050,2048,2042,2063,2069,1193
670,1711439563320961196,2057,2055,2048,2030,2049,2050,1194
671,1711439563330975936,2057,2060,2065,2068,2056,2057,1197
672,1711439563340965231,2058,2059,2060,2044,2056,2053,1197
673,1711439563350964593,2056,2049,2052,2029,2056,2047,1194
674,1711439563360963605,2059,2056,2058,2058,2053,2056,1197
675,1711439563370969129,2056,2057,2059,2062,2061,2055,1197
676,1711439563380964665,2060,2060,2058,2043,2056,2052,1197
677,1711439563390972532,2064,2060,2066,2013,2049,2084,1195
678,1711439563401112246,2055,2055,2050,2000,2059,2052,1195
679,1711439563410969203,2058,2052,2060,2057,2059,2056,1196
680,1711439563420973424,2046,2047,2047,2037,2033,2044,1195
681,1711439563431015354,2060,2056,2058,2060,2067,2060,1194
682,1711439563441014546,2057,2057,2064,2027,2052,2056,1196
683,1711439563450976161,2059,2056,2056,2074,2056,2064,1196
684,1711439563460974532,2056,2057,2060,2044,2060,2063,1198
685,1711439563470977060,2058,2058,2060,2043,2047,2049,1197
686,1711439563480977694,2057,2056,2048,2047,2052,2049,1196
687,1711439563490972459,2060,2057,2058,2055,2049,2054,1197
688,1711439563500977983,2053,2051,2052,2032,2042,2050,1195
689,1711439563510980130,2057,2057,2061,2062,2051,2050,1195
690,1711439563520977659,2053,2054,2055,2016,2050,2053,1198
691,1711439563530982452,2060,2060,2061,2021,2026,2056,1194
692,1711439563540977015,2058,2061,2059,2038,2048,2061,1195
693,1711439563550997286,2052,2053,2056,2094,2052,2060,1197
694,1711439563560976613,2058,2057,2056,2093,2060,2060,1197
695,1711439563570978660,2059,2061,2059,2004,2044,2052,1198
696,1711439563580986297,2054,2056,2050,2014,2043,2048,1196
697,1711439563591004613,2056,2052,2053,2054,2066,2060,1194
698,1711439563600992034,2055,2058,2052,2107,2068,2062,1195
699,1711439563610990756,2059,2058,2061,2054,2051,2043,1195
700,1711439563620974662,2055,2056,2058,2041,2052,2060,1194
701,1711439563630989051,2052,2055,2062,2089,2049,2051,1196
702,1711439563640983464,2056,2049,2047,2020,2054,2057,1195
703,1711439563650982777,2060,2056,2056,1980,2070,2066,1195
704,1711439563660988611,2059,2056,2059,2038,2056,2062,1195
705,1711439563670988715,2056,2057,2064,2112,2067,2057,1194
706,1711439563680985062,2053,2056,2048,2078,2056,2055,1196
707,1711439563690984775,2057,2053,2048,2028,2038,2049,1196
708,1711439563700993895,2055,2056,2042,1995,2047,2049,1194
709,1711439563710984221,2056,2052,2052,2067,2064,2057,1196
710,1711439563720984465,2051,2057,2058,2047,2041,2046,1196
711,1711439563730983227,2056,2054,2062,2056,2053,2057,1195
712,1711439563740978423,2054,2054,2057,2106,2068,2053,1194
713,1711439563750970953,2055,2054,2059,2046,2062,2053,1198
714,1711439563760977668,2052,2050,2056,2053,2041,2048,1195
715,1711439563770971301,2056,2053,2056,2053,2061,2061,1194
716,1711439563780968249,2056,2055,2054,2069,2063,2058,1197
717,1711439563790968002,2057,2061,2059,2078,2064,2061,1195
718,1711439563800963639,2058,2052,2051,2084,2061,2057,1195
719,1711439563810968581,2059,2056,2060,2106,2056,2058,1197
720,1711439563820967252,2056,2056,2056,2082,2058,2057,1195
721,1711439563830987482,2059,2058,2061,2076,2064,2061,1197
722,1711439563840999807,2052,2048,2046,2060,2054,2058,1195
723,1711439563850969297,2053,2052,2052,2049,2061,2055,1196
724,1711439563860969672,2058,2058,2056,2028,2051,2053,1194
725,1711439563870970787,2058,2056,2055,2049,2051,2054,1193
726,1711439563880965992,2056,2051,2048,2021,2039,2047,1192
727,1711439563890980622,2055,2056,2052,2042,2048,2056,1196
728,1711439563900968443,2050,2052,2047,2101,2059,2047,1189
729,1711439563910974919,2057,2056,2057,2025,2055,2058,1195
730,1711439563920966107,2060,2059,2057,2072,2058,2056,1195
731,1711439563930992608,2057,2056,2062,2066,2064,2061,1196
732,1711439563940968328,2046,2048,2045,2053,2043,2053,1196
733,1711439563950976987,2059,2057,2057,2062,2068,2083,1196
734,1711439563960963377,2057,2061,2054,2086,2058,2055,1195
735,1711439563970955998,2054,2052,2056,2026,2057,2057,1196
736,1711439563980956092,2052,2050,2052,2059,2051,2048,1193
737,1711439563990957388,2056,2058,2062,2049,2042,2050,1193
738,1711439564000974051,2061,2058,2065,2078,2069,2066,1196
739,1711439564010970931,2056,2056,2056,2020,2058,2056,1196
740,1711439564020967822,2053,2050,2053,2041,2048,2050,1196
741,1711439564030964542,2053,2050,2045,2056,2058,2056,1197
742,1711439564040984594,2056,2054,2050,2038,2054,2056,1194
743,1711439564050969102,2056,2056,2064,2026,2056,2056,1195
744,1711439564060968467,2054,2057,2056,2056,2048,2036,1193
745,1711439564070965979,2060,2061,2065,1969,2044,2057,1197
746,1711439564080961828,2054,2052,2056,2071,2040,2045,1194
747,1711439564091013036,2056,2051,2047,2073,2059,2056,1196
748,1711439564100961520,2057,2056,2057,2040,2046,2053,1194
749,1711439564110962668,2048,2048,2047,2053,2052,2048,1196
750,1711439564120967593,2052,2048,2046,2054,2056,2048,1198
751,1711439564130978168,2058,2056,2056,2097,2057,2052,1193
752,1711439564140961986,2051,2043,2045,2025,2048,2054,1197
753,1711439564151010679,2056,2053,2056,2070,2061,2080,1197
754,1711439564160976253,2053,2049,2048,2084,2055,2053,1197
755,1711439564170968516,2056,2052,2052,2051,2061,2052,1195
756,1711439564180962531,2061,2061,2062,2047,2056,2055,1197
757,1711439564190965583,2058,2053,2059,2097,2059,2056,1196
758,1711439564200992608,2054,2052,2047,2073,2057,2056,1196
759,1711439564210958012,2058,2053,2057,2084,2060,2053,1195
760,1711439564220963398,2056,2056,2052,2045,2048,2074,1197
761,1711439564230993979,2050,2049,2050,1881,2011,2042,1194
762,1711439564241028618,2061,2061,2056,2064,2074,2068,1196
763,1711439564250976459,2060,2059,2068,2087,2067,2059,1196
764,1711439564260994548,2056,2053,2050,2059,2046,2043,1194
765,1711439564270994394,2068,2066,2077,2036,2055,2034,1193
766,1711439564280965789,2057,2052,2056,1974,2058,2064,1195
767,1711439564290962189,2064,2064,2073,2079,2068,2022,1196
768,1711439564300962536,2056,2058,2058,2058,2061,2059,1197
769,1711439564310992776,2058,2057,2053,2093,2078,2069,1194
770,1711439564320964492,2057,2056,2061,2092,2066,2054,1197
771,1711439564330966702,2056,2056,2058,2098,2062,2058,1197
772,1711439564340966928,2056,2058,2059,2047,2061,2081,1197
773,1711439564350968748,2050,2044,2047,2036,2020,2035,1195
774,1711439564360983571,2058,2056,2052,2104,2067,2052,1195
775,1711439564370961147,2056,2053,2052,2122,2064,2057,1194
776,1711439564380956144,2052,2051,2049,2077,2047,2053,1195
777,1711439564390981917,2052,2053,2056,2107,2052,2056,1195
778,1711439564400981141,2060,2059,2062,2107,2051,2053,1197
779,1711439564410979685,2053,2058,2058,2080,2066,2048,1199
780,1711439564420978830,2053,2053,2060,2053,2047,2036,1193
781,1711439564430983805,2056,2056,2051,2032,2056,2053,1196
782,1711439564440978170,2061,2057,2057,2058,2066,2051,1196
783,1711439564450977856,2056,2050,2052,2069,2052,2056,1197
784,1711439564460979887,2060,2060,2056,2052,2066,2064,1197
785,1711439564470973861,2056,2056,2058,2010,2037,2049,1195
786,1711439564480972095,2056,2057,2059,2080,2061,2062,1194
787,1711439564490971480,2056,2058,2065,2053,2062,2057,1195
788,1711439564500971866,2054,2055,2060,2018,2046,2034,1189
789,1711439564510972233,2056,2053,2056,2047,2054,2056,1195
790,1711439564520971819,2056,2056,2053,2036,2057,2056,1195
791,1711439564530980501,2050,2052,2056,2016,2041,2050,1195
792,1711439564540970469,2057,2052,2053,2094,2060,2070,1195
793,1711439564550983939,2052,2052,2050,2060,2047,2052,1197
794,1711439564560983063,2052,2053,2054,2008,2034,2040,1194
795,1711439564570963405,2056,2057,2064,1962,2014,2037,1194
796,1711439564580965114,2056,2052,2054,2058,2060,2056,1195
797,1711439564590972554,2056,2053,2054,2002,2053,2053,1195
798,1711439564600974213,2052,2053,2049,2050,2052,2052,1194
799,1711439564610972416,2056,2059,2062,2060,2061,2060,1196
800,1711439564620969717,2054,2056,2054,2068,2056,2056,1196
801,1711439564630964935,2057,2053,2059,2093,2066,2059,1196
802,1711439564640970471,2058,2058,2053,2061,2052,2056,1196
803,1711439564650967562,2061,2061,2067,2068,2067,2056,1196
804,1711439564660966386,2061,2062,2059,2062,2049,2047,1195
805,1711439564670969077,2054,2052,2054,2069,2056,2047,1196
806,1711439564680968072,2060,2060,2068,2057,2052,2056,1196
807,1711439564690966304,2059,2056,2047,2061,2072,2065,1196
808,1711439564700964638,2051,2054,2052,2120,2075,2074,1194
809,1711439564710977928,2053,2052,2057,2088,2060,2056,1195
810,1711439564720970430,2059,2053,2054,2092,2071,2056,1196
811,1711439564730972550,2061,2056,2053,2098,2067,2065,1196
812,1711439564740969221,2052,2050,2058,2107,2048,2047,1192
813,1711439564750974907,2053,2054,2058,2042,2044,2055,1195
814,1711439564760979662,2054,2052,2051,2074,2044,2062,1195
815,1711439564770969790,2051,2045,2037,1997,2040,2049,1195
816,1711439564780957183,2057,2052,2056,2056,2062,2065,1195
817,1711439564790960366,2053,2056,2062,2011,2035,2057,1198
818,1711439564800957828,2054,2052,2052,2040,2053,2056,1197
819,1711439564810957994,2057,2061,2064,2068,2069,2064,1197
820,1711439564820969240,2064,2056,2068,2041,2067,2058,1197
821,1711439564830973084,2059,2056,2051,2084,2056,2059,1197
822,1711439564840955818,2050,2053,2050,2073,2051,2081,1195
823,1711439564850959631,2056,2056,2053,2007,2053,2053,1194
824,1711439564860976428,2053,2052,2043,2033,2056,2064,1197
825,1711439564870987234,2057,2056,2060,2100,2056,2070,1197
826,1711439564880969638,2052,2052,2046,2020,2052,2059,1195
827,1711439564890970646,2058,2046,2040,2013,2033,2056,1196
828,1711439564900966365,2054,2057,2046,2073,2053,2056,1195
829,1711439564910959398,2056,2058,2056,2052,2056,2045,1194
830,1711439564920970565,2056,2056,2055,2017,2051,2047,1193
831,1711439564930960873,2053,2050,2052,2059,2069,2060,1196
832,1711439564940980885,2053,2050,2053,2105,2066,2058,1195
833,1711439564950967778,2047,2049,2049,2080,2047,2045,1194
834,1711439564960971592,2057,2059,2054,2052,2052,2054,1193
835,1711439564971026186,2051,2051,2056,1933,2019,2046,1192
836,1711439564980971013,2049,2052,2050,2073,2051,2046,1193
837,1711439564990974274,2056,2054,2057,2035,2056,2061,1193
838,1711439565000966577,2052,2046,2043,1928,2052,2066,1195
839,1711439565010962727,2053,2049,2049,2040,2054,2056,1200
840,1711439565020981980,2058,2051,2051,2051,2054,2049,1194
841,1711439565030973973,2059,2056,2060,2030,2058,2060,1197
842,1711439565040960687,2056,2056,2049,2075,2064,2050,1197
843,1711439565050974600,2056,2058,2056,2059,2058,2053,1197
844,1711439565060966944,2054,2052,2051,2057,2044,2049,1195
845,1711439565070964778,2060,2058,2057,2068,2049,2052,1197
846,1711439565080993147,2060,2060,2066,2086,2065,2065,1195
847,1711439565090976545,2061,2056,2057,2044,2043,2049,1197
848,1711439565100961986,2058,2056,2060,2060,2059,2050,1195
849,1711439565110958878,2056,2056,2056,2064,2048,2034,1193
850,1711439565120957443,2057,2056,2052,2061,2054,2056,1195
851,1711439565130956640,2056,2052,2047,2044,2045,2049,1196
852,1711439565140974881,2056,2051,2053,2071,2052,2049,1195
853,1711439565150962166,2054,2051,2052,2061,2060,2056,1195
854,1711439565160968164,2053,2056,2054,2103,2051,2055,1197
855,1711439565170962773,2056,2060,2060,2021,2046,2053,1197
856,1711439565180968531,2053,2049,2050,2101,2064,2056,1196
857,1711439565190977024,2062,2060,2070,2060,2059,2058,1194
858,1711439565200969729,2056,2056,2058,2081,2057,2040,1195
859,1711439565210963536,2056,2056,2047,2085,2044,2043,1195
860,1711439565220967851,2052,2048,2052,2120,2060,2054,1195
861,1711439565230964092,2059,2059,2066,2082,2058,2056,1196
862,1711439565240968999,2056,2053,2048,2013,2029,2044,1193
863,1711439565250968186,2061,2060,2061,2018,2060,2056,1197
864,1711439565260967322,2052,2053,2053,2067,2060,2056,1197
865,1711439565270966939,2056,2053,2053,2030,2061,2061,1196
866,1711439565280973529,2048,2053,2056,2034,2033,2064,1197
867,1711439565290972164,2058,2059,2066,2060,2047,2053,1196
868,1711439565300973675,2050,2050,2046,1996,2041,2045,1190
869,1711439565310971860,2052,2048,2041,2040,2047,2051,1196
870,1711439565320973871,2060,2057,2053,2004,2063,2061,1195
871,1711439565330975612,2056,2056,2056,2058,2053,2040,1196
872,1711439565340976302,2053,2057,2049,2058,2055,2056,1197
873,1711439565350965610,2062,2062,2056,2068,2068,2073,1195
874,1711439565360963755,2053,2052,2059,2058,2059,2050,1197
875,1711439565370964905,2055,2053,2058,2065,2056,2051,1198
876,1711439565381050447,2056,2062,2068,1993,2050,2048,1197
877,1711439565390959981,2060,2056,2054,2028,2046,2054,1195
878,1711439565400970507,2053,2052,2052,1983,2040,2049,1195
879,1711439565410964865,2056,2054,2052,2076,2062,2060,1197
880,1711439565420970303,2059,2058,2060,2056,2072,2024,1194
881,1711439565430969189,2062,2061,2059,2077,2073,2077,1195
882,1711439565440981499,2056,2055,2050,2074,2046,2055,1198
883,1711439565450959407,2059,2054,2056,2058,2058,2057,1197
884,1711439565460972959,2056,2057,2053,2019,2058,2044,1192
885,1711439565470965133,2056,2050,2054,2036,2047,2047,1192
886,1711439565480982182,2056,2054,2067,2118,2067,2057,1193
887,1711439565490969287,2058,2054,2058,2093,2056,2053,1197
888,1711439565500954748,2051,2050,2058,2008,2045,2048,1193
889,1711439565510961979,2060,2056,2054,2058,2055,2066,1196
890,1711439565520960504,2056,2050,2052,2037,2047,2048,1196
891,1711439565531046707,2058,2059,2064,2050,2052,2058,1196
892,1711439565541002306,2054,2052,2056,2126,2047,2050,1194
893,1711439565550965838,2058,2055,2052,2139,2049,2046,1193
894,1711439565560971746,2060,2057,2047,2058,2064,2049,1196
895,1711439565570965263,2052,2049,2052,2105,2052,2056,1198
896,1711439565580965070,2053,2052,2054,2076,2040,2043,1192
897,1711439565590988029,2059,2054,2055,2080,2064,2057,1194
898,1711439565600981566,2056,2053,2050,2035,2058,2055,1195
899,1711439565610973740,2053,2050,2052,2056,2050,2048,1198
900,1711439565620978967,2049,2048,2049,2056,2033,2040,1194
901,1711439565630980467,2056,2058,2059,2100,2072,2058,1199
902,1711439565640992828,2057,2062,2067,2066,2050,2049,1199
903,1711439565650965276,2057,2056,2053,2085,2052,2056,1196
904,1711439565660966206,2056,2054,2046,2026,2056,2052,1195
905,1711439565670973205,2057,2057,2056,2007,2052,2056,1195
906,1711439565680989923,2053,2049,2042,1967,2048,2058,1196
907,1711439565690978711,2058,2058,2050,1997,2035,2054,1197
908,1711439565700974201,2055,2054,2056,2058,2061,2054,1194
909,1711439565710973016,2056,2056,2058,2102,2063,2052,1198
910,1711439565720971301,2058,2057,2060,2066,2059,2056,1197
911,1711439565730993950,2052,2051,2053,2033,2050,2049,1194
912,1711439565740977047,2054,2056,2047,2053,2046,2040,1194
913,1711439565750967017,2059,2058,2053,2054,2053,2059,1196
914,1711439565760971944,2062,2060,2057,2029,2060,2058,1197
915,1711439565770968706,2059,2063,2070,2075,2062,2057,1195
916,1711439565780996925,2056,2058,2063,2107,2065,2058,1195
917,1711439565790961870,2056,2057,2064,2112,2058,2056,1196
918,1711439565800975262,2051,2054,2052,2032,2038,2056,1198
919,1711439565810973777,2058,2061,2068,2066,2061,2056,1198
920,1711439565820969617,2059,2056,2050,2066,2060,2053,1196
921,1711439565831011310,2056,2052,2058,2062,2052,2056,1195
922,1711439565840985131,2056,2053,2050,2021,2052,2056,1198
923,1711439565850982053,2053,2056,2056,2047,2032,2053,1196
924,1711439565860968637,2050,2056,2046,2021,2050,2041,1196
925,1711439565870966211,2056,2056,2053,2053,2041,2047,1192
926,1711439565880994229,2056,2049,2047,2077,2049,2046,1195
927,1711439565890969202,2053,2054,2056,2049,2056,2056,1197
928,1711439565900970021,2053,2048,2041,2014,2043,2003,1192
929,1711439565910963227,2062,2058,2060,2088,2057,2057,1196
930,1711439565920963235,2057,2056,2061,1997,2043,2051,1195
931,1711439565930985964,2058,2058,2054,2057,2038,2057,1197
932,1711439565940982986,2056,2059,2060,2064,2060,2056,1197
933,1711439565950974269,2060,2059,2072,2035,2053,2057,1198
934,1711439565960965730,2054,2050,2049,2067,2046,2046,1193
935,1711439565970961821,2056,2052,2056,2092,2052,2051,1197
936,1711439565980975293,2056,2056,2054,2058,2053,2052,1197
937,1711439565990961326,2058,2059,2058,2052,2064,2056,1198
938,1711439566000967204,2055,2055,2050,2057,2053,2090,1196
939,1711439566010967475,2057,2053,2043,2029,2048,2059,1199
940,1711439566020963586,2057,2056,2052,2089,2052,2056,1197
941,1711439566030990514,2058,2056,2063,2077,2060,2061,1198
942,1711439566040985493,2052,2052,2059,2025,2051,2055,1194
943,1711439566050963132,2060,2056,2054,1984,2047,2054,1198
944,1711439566060969471,2056,2053,2053,2064,2056,2056,1198
945,1711439566070962618,2057,2054,2057,2077,2053,2058,1196
946,1711439566080966083,2054,2049,2044,2059,2048,2057,1197
947,1711439566090993401,2057,2056,2058,2044,2068,2097,1199
948,1711439566100973954,2058,2057,2061,2073,2070,2062,1195
949,1711439566110964276,2056,2058,2068,2125,2070,2056,1194
950,1711439566120965887,2053,2049,2042,2061,2062,2059,1195
951,1711439566130987806,2058,2054,2053,2063,2059,2058,1195
952,1711439566140975211,2052,2052,2052,2017,2046,2045,1192
953,1711439566150965794,2056,2058,2068,2072,2061,2058,1196
954,1711439566160979467,2059,2058,2058,1986,2057,2099,1197
955,1711439566170969638,2054,2049,2056,2074,2061,2052,1195
956,1711439566180966842,2056,2057,2056,2062,2056,2053,1197
957,1711439566190963835,2057,2049,2049,2012,2046,2050,1197
958,1711439566200961851,2056,2057,2054,2053,2058,2050,1198
959,1711439566210968180,2055,2057,2064,2064,2046,2041,1194
960,1711439566220974310,2050,2062,2054,2075,2073,2061,1198
961,1711439566230967516,2052,2049,2051,2005,2040,2050,1196
962,1711439566241002449,2054,2056,2052,2077,2046,2055,1196
963,1711439566251019287,2057,2056,2064,2104,2065,2064,1197
964,1711439566260953428,2058,2058,2056,2040,2044,2025,1192
965,1711439566270963654,2056,2053,2058,2084,2077,2063,1194
966,1711439566280964495,2053,2057,2062,2065,2067,2060,1197
967,1711439566290963001,2057,2057,2070,2052,2046,2050,1195
968,1711439566300994557,2054,2056,2052,2069,2050,2050,1196
969,1711439566310971594,2058,2057,2053,2045,2057,2052,1196
970,1711439566320991188,2061,2056,2053,2056,2056,2054,1198
971,1711439566330966613,2065,2061,2062,2068,2056,2052,1195
972,1711439566340972061,2058,2055,2049,2098,2065,2058,1197
973,1711439566350990653,2054,2054,2062,2104,2066,2057,1197
974,1711439566360982738,2051,2056,2052,2083,2075,2056,1196
975,1711439566370958443,2053,2053,2051,1988,2040,2048,1196
976,1711439566380964913,2056,2056,2052,2057,2068,2058,1196
977,1711439566390964331,2061,2053,2057,2013,2066,2058,1198
978,1711439566400964690,2057,2056,2066,2092,2057,2056,1198
979,1711439566410990075,2058,2056,2054,2028,2046,2059,1197
980,1711439566420981217,2056,2056,2053,2008,2047,2045,1196
981,1711439566430965138,2056,2054,2054,2082,2056,2054,1195
982,1711439566440985763,2052,2052,2056,2097,2056,2053,1195
983,1711439566450987636,2056,2053,2053,2075,2056,2057,1196
984,1711439566460968429,2052,2056,2060,2036,2060,2046,1193
985,1711439566470922756,2059,2060,2059,2080,2055,2059,1195
986,1711439566480980388,2057,2059,2051,2016,2056,2056,1197
987,1711439566490984124,2059,2059,2057,1985,2044,2053,1194
988,1711439566500978723,2056,2060,2065,1994,2044,2054,1194
989,1711439566511003637,2060,2056,2057,2092,2066,2057,1196
990,1711439566520981515,2059,2058,2060,2040,2044,2007,1193
991,1711439566530976736,2059,2056,2061,2035,2060,2060,1195
992,1711439566540977165,2056,2059,2060,2022,2059,2054,1197
993,1711439566550977485,2058,2057,2064,2080,2072,2061,1196
994,1711439566561029367,2056,2057,2052,2025,2039,2047,1193
995,1711439566570971241,2057,2056,2060,2059,2046,2055,1194
996,1711439566580974115,2053,2062,2058,2069,2056,2058,1197
997,1711439566590973733,2057,2050,2043,2008,2042,2075,1197
998,1711439566600973772,2058,2059,2057,2058,2054,2052,1196
999,1711439566610973219,2054,2053,2060,2066,2056,2054,1197
1000,1711439566620988656,2056,2053,2056,2044,2057,2056,1195
1001,1711439566630967166,2058,2050,2044,1981,2034,2056,1196
1002,1711439566640971643,2049,2046,2039,2032,2019,2049,1197
1003,1711439566650974456,2059,2054,2058,2056,2060,2064,1197
1004,1711439566660969567,2060,2057,2056,2101,2061,2060,1196
1005,1711439566670993368,2060,2056,2058,2098,2053,2056,1195
1006,1711439566681021167,2056,2052,2056,2037,2056,2053,1197
1007,1711439566690965685,2061,2058,2056,2063,2062,2048,1197
1008,1711439566700964182,2052,2049,2042,2037,2050,2045,1195
1009,1711439566710969309,2057,2057,2057,2031,2054,2057,1197
1010,1711439566720968838,2052,2046,2044,2061,2058,2055,1196
1011,1711439566730951996,2059,2051,2052,2096,2058,2056,1197
1012,1711439566740976810,2056,2058,2056,2040,2050,2052,1195
1013,1711439566750973312,2055,2051,2056,2069,2059,2054,1196
1014,1711439566760997154,2049,2052,2049,1938,2040,2052,1196
1015,1711439566770961829,2053,2056,2052,2054,2050,2060,1196
1016,1711439566780971745,2058,2053,2056,2127,2065,2061,1197
1017,1711439566790970151,2053,2051,2047,2017,2043,2056,1196
1018,1711439566800962326,2056,2055,2050,2065,2056,2057,1198
1019,1711439566810964920,2056,2056,2051,1972,2046,2056,1197
1020,1711439566820961762,2054,2053,2057,2065,2054,2052,1197
1021,1711439566830988770,2050,2056,2061,2065,2048,2084,1199
1022,1711439566840984330,2058,2050,2050,2024,2054,2050,1197
1023,1711439566850967309,2064,2060,2058,2069,2053,2056,1198
1024,1711439566860963891,2056,2053,2056,2049,2047,2054,1196
1025,1711439566871019010,2055,2051,2050,2036,2052,2050,1196
1026,1711439566880977293,2056,2056,2056,2034,2054,2056,1197
1027,1711439566890965971,2056,2056,2060,2066,2044,2056,1196
1028,1711439566900961562,2051,2053,2053,1944,2044,2064,1196
1029,1711439566910956782,2056,2053,2058,2073,2050,2052,1196
1030,1711439566920979642,2056,2053,2055,2057,2054,2056,1194
1031,1711439566930982406,2056,2050,2054,2046,2052,2052,1195
1032,1711439566940974069,2052,2052,2053,2058,2053,2050,1198
1033,1711439566950962858,2053,2052,2058,2027,2049,2053,1195
1034,1711439566960964710,2050,2048,2046,2096,2052,2047,1192
1035,1711439566970979836,2057,2053,2060,2074,2060,2055,1195
1036,1711439566980967653,2054,2053,2050,2044,2061,2065,1198
1037,1711439566990968764,2056,2056,2060,2073,2060,2060,1197
1038,1711439567000969033,2053,2053,2056,2010,2045,2028,1194
1039,1711439567010966416,2053,2044,2044,2036,2031,2046,1195
1040,1711439567020964992,2060,2060,2056,2048,2054,2055,1199
1041,1711439567030987993,2055,2056,2053,2064,2060,2056,1196
1042,1711439567040961504,2053,2055,2059,2053,2042,2046,1192
1043,1711439567050966542,2059,2056,2054,2009,2050,2057,1197
1044,1711439567060963455,2053,2052,2050,2037,2056,2048,1195
1045,1711439567070965738,2056,2054,2052,2008,2027,2048,1193
1046,1711439567080964305,2055,2056,2050,2061,2061,2052,1196
1047,1711439567090968370,2058,2054,2057,2096,2060,2059,1196
1048,1711439567100969591,2050,2054,2059,2104,2052,2044,1193
1049,1711439567110966535,2057,2057,2062,2059,2056,2028,1192
1050,1711439567120968106,2057,2052,2057,2052,2056,2056,1196
1051,1711439567130972874,2056,2056,2056,2050,2035,2045,1194
1052,1711439567140976740,2054,2059,2060,2009,2047,2045,1194
1053,1711439567150961972,2056,2054,2056,2087,2063,2054,1196
1054,1711439567160973312,2052,2054,2050,2039,2041,2040,1195
1055,1711439567170969293,2056,2052,2061,2076,2051,2045,1193
1056,1711439567180963451,2056,2052,2048,2083,2060,2052,1198
1057,1711439567190956237,2056,2052,2052,2087,2052,2054,1196
1058,1711439567200965813,2056,2054,2048,2062,2041,2047,1193
1059,1711439567210971712,2057,2053,2052,2064,2050,2056,1196
1060,1711439567220967904,2057,2057,2053,2047,2057,2060,1197
1061,1711439567230975567,2056,2053,2050,2032,2053,2059,1195
1062,1711439567240982218,2050,2052,2054,2132,2043,2048,1195
1063,1711439567250971137,2058,2061,2049,2075,2058,2075,1197
1064,1711439567260963511,2056,2052,2052,2058,2055,2050,1196
1065,1711439567270964312,2057,2056,2054,2098,2066,2059,1197
1066,1711439567280968979,2056,2056,2059,2038,2045,2049,1196
1067,1711439567290972334,2059,2053,2056,2045,2070,2065,1197
1068,1711439567300975298,2052,2052,2043,2016,2038,2043,1193
1069,1711439567310963195,2053,2052,2051,1996,2038,2045,1194
1070,1711439567320964948,2058,2057,2063,2083,2054,2054,1196
1071,1711439567330964896,2060,2056,2059,2113,2060,2060,1197
1072,1711439567340960346,2060,2056,2056,2036,2064,2064,1198
1073,1711439567350975303,2057,2057,2062,2009,2047,2019,1195
1074,1711439567360966375,2056,2053,2054,2024,2055,2054,1196
1075,1711439567370969890,2058,2054,2056,2069,2048,2049,1196
1076,1711439567380970871,2057,2056,2056,2018,2056,2045,1194
1077,1711439567390982150,2059,2061,2052,2033,2058,2056,1196
1078,1711439567400967613,2054,2056,2059,2040,2044,2052,1197
1079,1711439567410964786,2064,2060,2065,2102,2056,2057,1197
1080,1711439567420963543,2056,2054,2053,2046,2040,2048,1196
1081,1711439567430979511,2059,2057,2057,2057,2060,2053,1196
1082,1711439567440991561,2051,2052,2047,2036,2046,2048,1197
1083,1711439567450975321,2055,2049,2046,2082,2057,2053,1195
1084,1711439567460974989,2056,2058,2058,1990,2056,2057,1197
1085,1711439567470986208,2058,2052,2052,2053,2050,2050,1197
1086,1711439567481023505,2056,2051,2051,2049,2043,2050,1194
1087,1711439567490988239,2057,2060,2062,2073,2052,2019,1193
1088,1711439567500978310,2051,2052,2052,2077,2048,2046,1194
1089,1711439567510977508,2061,2060,2060,2040,2068,2056,1196
1090,1711439567520979550,2056,2053,2054,2078,2066,2057,1194
1091,1711439567530984768,2056,2053,2056,2060,2047,2052,1195
1092,1711439567540991630,2053,2056,2058,2106,2060,2053,1197
1093,1711439567550963938,2057,2054,2060,2035,2054,2056,1196
1094,1711439567560963437,2054,2056,2056,2027,2051,2052,1196
1095,1711439567570967893,2053,2051,2053,2044,2045,2050,1196
1096,1711439567580965517,2052,2047,2051,2068,2048,2047,1194
1097,1711439567590963333,2056,2054,2053,2053,2053,2054,1194
1098,1711439567600963381,2051,2056,2056,2060,2059,2061,1197
1099,1711439567610965303,2057,2056,2056,2108,2068,2060,1199
1100,1711439567620964892,2052,2050,2052,2072,2055,2061,1195
1101,1711439567630978285,2057,2060,2064,2081,2067,2067,1197
1102,1711439567640958829,2060,2055,2053,2058,2059,2053,1196
1103,1711439567650963706,2057,2060,2065,1972,2056,2056,1196
1104,1711439567660961931,2052,2047,2050,2061,2047,2048,1197
1105,1711439567670959597,2059,2056,2060,2088,2053,2082,1197
1106,1711439567680969583,2051,2052,2057,2060,2047,2052,1199
1107,1711439567690967989,2054,2052,2053,2161,2070,2060,1198
1108,1711439567700965434,2052,2054,2053,2068,2037,2040,1192
1109,1711439567710965131,2056,2052,2048,2078,2059,2057,1197
1110,1711439567720964319,2051,2047,2046,2049,2045,2040,1193
1111,1711439567730975087,2058,2059,2057,2057,2061,2061,1196
1112,1711439567740967201,2055,2056,2052,2046,2060,2055,1196
1113,1711439567750971469,2052,2048,2044,2045,2040,2050,1196
1114,1711439567760966067,2050,2050,2044,1980,2060,2062,1198
1115,1711439567770965254,2057,2053,2057,2079,2056,2046,1195
1116,1711439567780976103,2056,2059,2066,2096,2053,2056,1197
1117,1711439567790966755,2058,2053,2054,2053,2060,2057,1194
1118,1711439567800965802,2059,2056,2050,2060,2061,2056,1195
1119,1711439567810966182,2057,2056,2055,2072,2062,2059,1197
1120,1711439567820965218,2054,2057,2070,2138,2060,2052,1194
1121,1711439567830988590,2056,2060,2063,2060,2053,2054,1194
1122,1711439567840962532,2056,2055,2053,2044,2056,2052,1196
1123,1711439567850987545,2060,2058,2060,2074,2054,2056,1195
1124,1711439567860963611,2056,2056,2058,2088,2056,2056,1195
1125,1711439567870966104,2060,2056,2054,2050,2059,2059,1196
1126,1711439567880985578,2054,2056,2056,2032,2056,2024,1192
1127,1711439567890975149,2061,2056,2056,2029,2056,2053,1196
1128,1711439567900978323,2059,2058,2059,2050,2050,2050,1192
1129,1711439567910962784,2061,2058,2059,2056,2066,2058,1196
1130,1711439567920961570,2053,2052,2052,2072,2053,2054,1196
1131,1711439567930980303,2056,2049,2051,2120,2057,2056,1196
1132,1711439567940977788,2058,2052,2052,2056,2056,2053,1193
1133,1711439567950974059,2056,2058,2053,2012,2047,2052,1193
1134,1711439567960976432,2054,2052,2045,2065,2052,2050,1197
1135,1711439567970975871,2058,2056,2058,2056,2046,2049,1194
1136,1711439567980974516,2053,2055,2058,2042,2055,2056,1193
1137,1711439567990977722,2056,2051,2049,2043,2052,2049,1197
1138,1711439568000974264,2053,2056,2053,2089,2065,2056,1197
1139,1711439568010973329,2054,2053,2046,2081,2060,1999,1194
1140,1711439568020971093,2056,2053,2062,2093,2056,2052,1197
1141,1711439568030988533,2057,2055,2047,2056,2060,2057,1197
1142,1711439568040975807,2055,2056,2052,2065,2049,2047,1193
1143,1711439568050972260,2056,2058,2053,2045,2056,2052,1198
1144,1711439568060971686,2057,2050,2053,2061,2052,2053,1198
1145,1711439568070971845,2057,2056,2054,2065,2053,2055,1196
1146,1711439568080979376,2054,2053,2058,2097,2047,2046,1193
1147,1711439568090980016,2056,2054,2056,2061,2052,2057,1196
1148,1711439568100963063,2057,2051,2050,2076,2056,2046,1192
1149,1711439568110962240,2056,2056,2064,2090,2069,2059,1195
1150,1711439568120969702,2057,2051,2055,2077,2059,2056,1197
1151,1711439568130981020,2061,2057,2053,2016,2044,2053,1196
1152,1711439568140984064,2051,2058,2055,2068,2053,2049,1194
1153,1711439568150981337,2058,2052,2056,2080,2052,2053,1197
1154,1711439568160977138,2057,2053,2049,2058,2054,2058,1198
1155,1711439568170976324,2056,2053,2056,2040,2049,2051,1196
1156,1711439568180975201,2056,2054,2051,2082,2056,2053,1197
1157,1711439568190983794,2058,2056,2061,2106,2069,2058,1196
1158,1711439568200980376,2057,2057,2056,2037,2056,2053,1197
1159,1711439568210981866,2058,2052,2052,2059,2052,2053,1197
1160,1711439568220976475,2054,2058,2053,2088,2065,2057,1197
1161,1711439568230981171,2058,2057,2062,2056,2061,2052,1198
1162,1711439568240973216,2054,2057,2068,2037,2060,2047,1195
1163,1711439568250974215,2057,2053,2055,2015,2051,2038,1194
1164,1711439568260963394,2052,2052,2053,1956,2047,2051,1197
1165,1711439568270965786,2052,2047,2046,2067,2050,2046,1193
1166,1711439568280962699,2053,2060,2053,2072,2063,2050,1195
1167,1711439568290972664,2057,2056,2056,2072,2051,2056,1198
1168,1711439568300979846,2054,2048,2056,2061,2059,2053,1194
1169,1711439568310969255,2056,2056,2067,2115,2068,2057,1196
1170,1711439568320964064,2053,2050,2050,2087,2054,2052,1195
1171,1711439568330973138,2054,2053,2052,2028,2043,2052,1198
1172,1711439568340969269,2052,2053,2057,2037,2056,2056,1196
1173,1711439568350972934,2061,2061,2060,2037,2052,2055,1197
1174,1711439568360965388,2052,2053,2062,2060,2047,2047,1194
1175,1711439568370978871,2053,2059,2058,1981,2034,2016,1192
1176,1711439568380963832,2050,2054,2052,2056,2046,2052,1197
1177,1711439568390964952,2060,2053,2058,2120,2055,2052,1197
1178,1711439568400966222,2060,2059,2057,1992,2043,2060,1196
1179,1711439568410972272,2059,2057,2060,2049,2073,2059,1196
1180,1711439568420965948,2056,2052,2054,2058,2056,2051,1197
1181,1711439568430983348,2056,2053,2048,2098,2048,2055,1195
1182,1711439568440973798,2056,2054,2056,2086,2060,2060,1195
1183,1711439568450962657,2059,2057,2059,2025,2056,2053,1195
1184,1711439568460960821,2062,2053,2058,2050,2042,2013,1193
1185,1711439568470958505,2062,2056,2062,2081,2055,2054,1197
1186,1711439568480973410,2060,2057,2054,2016,2042,2048,1196
1187,1711439568490954384,2056,2050,2047,2060,2052,2053,1197
1188,1711439568500970721,2052,2048,2053,2017,2048,2047,1193
1189,1711439568510961543,2058,2056,2052,2043,2048,2051,1196
1190,1711439568520964777,2050,2047,2048,1985,2041,2048,1194
1191,1711439568530971998,2051,2056,2059,2068,2058,2057,1195
1192,1711439568540974120,2057,2060,2052,2037,2048,2052,1199
1193,1711439568550970923,2056,2052,2056,2064,2058,2056,1195
1194,1711439568560966863,2052,2046,2049,1990,2049,2035,1193
1195,1711439568570968715,2060,2054,2056,1990,2047,2052,1196
1196,1711439568580979111,2055,2051,2045,2044,2052,2052,1197
1197,1711439568590969442,2057,2056,2059,2093,2060,2057,1196
1198,1711439568600961507,2052,2056,2043,1994,2038,2045,1194
1199,1711439568610955664,2056,2056,2060,2056,2049,2056,1197
1200,1711439568620969387,2055,2056,2056,2027,2060,2056,1197
1201,1711439568630988599,2057,2056,2054,2020,2043,2052,1195
1202,1711439568640962942,2055,2057,2056,2056,2060,2058,1194
1203,1711439568650969852,2056,2052,2052,2017,2047,2059,1197
1204,1711439568660955955,2051,2052,2053,2033,2036,2044,1192
1205,1711439568670978153,2062,2057,2066,2047,2060,2054,1195
1206,1711439568680968304,2054,2056,2049,2044,2054,2052,1196
1207,1711439568690977798,2058,2060,2061,2097,2060,2060,1194
1208,1711439568700957961,2056,2058,2066,2104,2069,2053,1192
1209,1711439568710962998,2057,2057,2057,2037,2055,2059,1195
1210,1711439568720958268,2056,2053,2056,2022,2047,2050,1195
1211,1711439568730980576,2060,2054,2057,2082,2065,2058,1196
1212,1711439568740964165,2046,2049,2043,1949,2048,2056,1197
1213,1711439568750970794,2056,2052,2050,2068,2052,2064,1195
1214,1711439568760964892,2056,2053,2050,2030,2047,2080,1196
1215,1711439568770962676,2057,2056,2058,2130,2059,2058,1195
1216,1711439568780980186,2056,2059,2058,2079,2044,2053,1196
1217,1711439568790961259,2056,2056,2065,2088,2054,2052,1195
1218,1711439568800974081,2056,2056,2058,2082,2055,2056,1197
1219,1711439568810965414,2061,2058,2060,2058,2052,2056,1197
1220,1711439568820964520,2052,2052,2056,2065,2053,2051,1198
1221,1711439568830972443,2056,2052,2058,2068,2048,2049,1197
1222,1711439568840971178,2057,2058,2067,2070,2062,2056,1196
1223,1711439568850971757,2060,2052,2053,2066,2052,2055,1196
1224,1711439568861039158,2053,2053,2052,2024,2052,2050,1195
1225,1711439568870968307,2057,2053,2056,2045,2055,2053,1197
1226,1711439568881012375,2053,2051,2052,2074,2057,2053,1196
1227,1711439568890959468,2060,2059,2062,2045,2052,2060,1197
1228,1711439568900969464,2057,2056,2058,2056,2056,2057,1194
1229,1711439568910968080,2057,2052,2056,2075,2059,2056,1196
1230,1711439568921007769,2054,2056,2056,2084,2065,2064,1195
1231,1711439568931004202,2057,2056,2054,2066,2054,2052,1195
1232,1711439568940998308,2059,2053,2061,2056,2056,2054,1197
1233,1711439568951000381,2060,2056,2055,2089,2062,2056,1196
1234,1711439568960998465,2057,2058,2048,2065,2065,2058,1197
1235,1711439568970997862,2057,2059,2058,2082,2057,2057,1196
1236,1711439568981003150,2052,2053,2059,2023,2042,2048,1196
1237,1711439568990996055,2061,2057,2056,2040,2060,2059,1195
1238,1711439569000994871,2053,2050,2051,2025,2049,2053,1194
1239,1711439569010995229,2054,2053,2060,2075,2053,2056,1195
1240,1711439569020992380,2056,2058,2054,2071,2045,2051,1195
1241,1711439569030993939,2056,2053,2050,2059,2051,2050,1195
1242,1711439569040983988,2050,2052,2052,2095,2053,2046,1193
1243,1711439569050990476,2052,2052,2051,2024,2053,2056,1198
1244,1711439569060986917,2051,2053,2052,2074,2064,2057,1195
1245,1711439569070986572,2056,2056,2056,2050,2056,2055,1195
1246,1711439569080985407,2058,2058,2060,2054,2061,2058,1196
1247,1711439569090982308,2056,2056,2057,2067,2053,2054,1194
1248,1711439569100982545,2048,2053,2054,2074,2059,2053,1193
1249,1711439569110979907,2057,2056,2051,2058,2053,2056,1196
1250,1711439569120978381,2054,2050,2056,2056,2054,2053,1195
1251,1711439569130984518,2058,2053,2056,2078,2058,2056,1197
1252,1711439569140978545,2056,2055,2052,2049,2057,2055,1196
1253,1711439569150977539,2060,2056,2056,2006,2061,2059,1196
1254,1711439569160976444,2056,2053,2052,2083,2044,2058,1196
1255,1711439569170976120,2057,2056,2067,2122,2062,2092,1197
1256,1711439569180983520,2054,2049,2048,2040,2059,2055,1196
1257,1711439569190979780,2058,2057,2052,2019,2060,2064,1194
1258,1711439569200974566,2057,2061,2078,2076,2070,2069,1197
1259,1711439569210974934,2054,2050,2052,2069,2066,2034,1196
1260,1711439569220974089,2057,2054,2054,2054,2057,2056,1196
1261,1711439569230987771,2059,2047,2040,2149,2052,2020,1195
1262,1711439569240974383,2057,2058,2053,2034,2044,2050,1197
1263,1711439569250977215,2056,2054,2053,2057,2062,2049,1197
1264,1711439569260975999,2049,2047,2042,2044,2036,2052,1196
1265,1711439569270983570,2055,2056,2060,1975,2036,2061,1196
1266,1711439569280989978,2058,2068,2069,2022,2042,2040,1192
1267,1711439569290974607,2060,2059,2052,1968,2001,2046,1194
1268,1711439569300980183,2062,2068,2073,2064,2069,2047,1190
1269,1711439569310975833,2057,2056,2050,2038,2058,2050,1196
1270,1711439569320978503,2052,2054,2053,2017,2028,2001,1193
1271,1711439569330992376,2062,2061,2057,2006,2066,1938,1192
1272,1711439569340976894,2058,2058,2059,2055,2056,2058,1196
1273,1711439569350982672,2058,2058,2060,2024,2041,2040,1193
1274,1711439569360974353,2052,2057,2059,1977,2045,2056,1197
1275,1711439569370974961,2056,2047,2047,2098,2068,2058,1195
1276,1711439569380978714,2055,2056,2060,2082,2064,2060,1195
1277,1711439569390988428,2062,2061,2056,2083,2075,2068,1195
1278,1711439569400969380,2054,2057,2056,2068,2066,2059,1195
1279,1711439569410969567,2057,2056,2063,2063,2068,2080,1193
1280,1711439569420970656,2061,2060,2060,2032,2057,2057,1197
1281,1711439569430978937,2057,2053,2050,2118,2068,2037,1193
1282,1711439569440976279,2056,2049,2045,2024,2046,2070,1194
1283,1711439569451001582,2053,2055,2063,2016,2050,2052,1196
1284,1711439569460973518,2051,2051,2051,2062,2062,2053,1196
1285,1711439569470998439,2060,2058,2059,2028,2052,2046,1193
1286,1711439569481003956,2053,2051,2044,2051,2070,2105,1196
1287,1711439569491004022,2058,2056,2062,2052,2059,2059,1196
1288,1711439569500997368,2050,2047,2043,1993,2041,2048,1194
1289,1711439569510999628,2056,2052,2051,2079,2057,2054,1196
1290,1711439569520996529,2056,2052,2052,1988,2048,2055,1197
1291,1711439569530998980,2058,2056,2060,2010,2059,2057,1196
1292,1711439569540991744,2052,2052,2057,2053,2041,2010,1194
1293,1711439569550991269,2056,2053,2040,1961,2046,2056,1196
1294,1711439569560988251,2054,2057,2063,2084,2065,2056,1197
1295,1711439569570993076,2058,2055,2061,2101,2060,2057,1197
1296,1711439569580993364,2054,2053,2054,2057,2060,2056,1195
1297,1711439569590989953,2056,2062,2066,2036,2057,2047,1192
1298,1711439569600988037,2053,2048,2050,1941,2044,2056,1196
1299,1711439569610984236,2061,2060,2051,2062,2060,2059,1197
1300,1711439569620983492,2056,2052,2054,2071,2058,2060,1197
1301,1711439569630985171,2054,2052,2056,2078,2055,2065,1197
1302,1711439569640976112,2053,2056,2059,2017,2057,2056,1196
1303,1711439569650981508,2061,2066,2061,2046,2059,2061,1198
1304,1711439569660977968,2057,2050,2049,2015,2048,2052,1198
1305,1711439569670976422,2058,2064,2076,2058,2046,2050,1197
1306,1711439569680989121,2053,2059,2075,2012,2042,2080,1194
1307,1711439569690975023,2053,2052,2055,2098,2069,2057,1196
1308,1711439569700971983,2051,2054,2065,2112,2052,2046,1193
1309,1711439569710972241,2062,2058,2061,2084,2053,2069,1196
1310,1711439569720968400,2056,2048,2049,2028,2065,2064,1196
1311,1711439569730972956,2060,2057,2065,2077,2060,2065,1195
1312,1711439569740955811,2057,2056,2052,2064,2061,2061,1195
1313,1711439569750963081,2057,2051,2052,2078,2065,2064,1195
1314,1711439569760966073,2057,2053,2052,2004,2057,2056,1197
1315,1711439569770968474,2062,2052,2049,2061,2058,2044,1195
1316,1711439569780965395,2056,2053,2051,2125,2066,2057,1194
1317,1711439569791007048,2056,2049,2050,1996,2043,2058,1198
1318,1711439569801001935,2061,2053,2056,2079,2073,2049,1196
1319,1711439569811001932,2052,2053,2053,1984,2047,2054,1198
1320,1711439569820992120,2049,2053,2046,2026,2064,2053,1197
1321,1711439569830975436,2054,2047,2041,1953,2042,2052,1195
1322,1711439569840960446,2056,2054,2057,2045,2058,2049,1196
1323,1711439569850988053,2058,2059,2056,2028,2051,2062,1197
1324,1711439569860991616,2061,2064,2056,2062,2061,2014,1192
1325,1711439569870988026,2060,2057,2053,2024,2012,2041,1194
1326,1711439569880966573,2055,2052,2054,2040,2052,2060,1195
1327,1711439569890979844,2062,2056,2056,2081,2065,2060,1196
1328,1711439569900976946,2054,2056,2056,2049,2057,2052,1194
1329,1711439569910984175,2057,2056,2056,2067,2067,2059,1197
1330,1711439569920981127,2054,2056,2063,2026,2042,2050,1196
1331,1711439569930985661,2059,2056,2053,2106,2066,2058,1194
1332,1711439569940978375,2056,2054,2050,2068,2056,2052,1195
1333,1711439569950980535,2057,2056,2058,2076,2061,2062,1197
1334,1711439569960977276,2052,2056,2057,2046,2033,2044,1193
1335,1711439569970972243,2056,2060,2052,2051,2054,2052,1193
1336,1711439569980975937,2056,2056,2057,2060,2058,2057,1197
1337,1711439569990986362,2059,2053,2059,2001,2043,2091,1196
1338,1711439570000971933,2056,2056,2053,2047,2068,2062,1197
1339,1711439570010971496,2060,2054,2057,2019,2064,2059,1195
1340,1711439570020968735,2053,2054,2053,2049,2065,2056,1195
1341,1711439570030966455,2062,2064,2053,2066,2057,2056,1197
1342,1711439570040961892,2048,2052,2044,2049,2048,2050,1195
1343,1711439570050972525,2056,2052,2056,2096,2072,2064,1195
1344,1711439570060969293,2052,2049,2056,2069,2056,2047,1192
1345,1711439570070966343,2054,2052,2039,2045,2045,2051,1194
1346,1711439570080973380,2049,2050,2045,2030,2040,2044,1194
1347,1711439570090964588,2056,2055,2052,1993,2041,2056,1194
1348,1711439570100959794,2052,2058,2056,2125,2057,2053,1195
1349,1711439570110967833,2055,2045,2064,2096,2063,2060,1195
1350,1711439570120966956,2058,2053,2060,2026,2044,2108,1195
1351,1711439570130997145,2054,2057,2060,2076,2064,2056,1195
1352,1711439570140985238,2052,2052,2056,1991,2046,2047,1193
1353,1711439570150961960,2056,2058,2053,2128,2066,2056,1194
1354,1711439570160963327,2054,2055,2051,2037,2047,2001,1192
1355,1711439570170963952,2057,2054,2055,2053,2058,2049,1196
1356,1711439570180981348,2057,2060,2063,2072,2064,2028,1194
1357,1711439570190965854,2055,2058,2064,2086,2055,2057,1196
1358,1711439570200968133,2052,2053,2053,2054,2050,2050,1196
1359,1711439570210967546,2059,2058,2060,2093,2052,2049,1197
1360,1711439570220966148,2058,2063,2062,2068,2058,2057,1197
1361,1711439570230994855,2058,2053,2053,2078,2037,2052,1197
1362,1711439570240964113,2052,2053,2053,1884,2046,2056,1196
1363,1711439570250967253,2057,2058,2059,2066,2047,2050,1198
1364,1711439570260965825,2052,2053,2057,2052,2058,2056,1197
1365,1711439570270964357,2057,2056,2054,2061,2054,2056,1196
1366,1711439570280964071,2056,2056,2062,1982,2069,2058,1196
1367,1711439570290960358,2065,2057,2056,2078,2040,2049,1197
1368,1711439570300965702,2056,2054,2055,2038,2047,2049,1193
1369,1711439570310963092,2056,2056,2053,2062,2060,2056,1195
1370,1711439570320965361,2057,2056,2053,2027,2053,2056,1195
1371,1711439570331002152,2057,2052,2049,2102,2052,2051,1195
1372,1711439570340974065,2053,2048,2053,2050,2058,2056,1198
1373,1711439570350960976,2060,2057,2060,2024,2042,2052,1195
1374,1711439570360962714,2052,2056,2057,2036,2059,2056,1196
1375,1711439570370962838,2058,2057,2061,2097,2067,2057,1196
1376,1711439570380965437,2061,2059,2059,2057,2072,2060,1195
1377,1711439570390970982,2061,2060,2060,1988,2041,2050,1196
1378,1711439570400969483,2053,2056,2060,2028,2056,2053,1197
1379,1711439570410965681,2058,2052,2057,2016,2045,2048,1197
1380,1711439570420968750,2053,2050,2048,2056,2060,2053,1195
1381,1711439570431008838,2055,2051,2048,2055,2045,2048,1196
1382,1711439570440968730,2054,2056,2061,2009,2056,2049,1196
1383,1711439570450958154,2058,2061,2062,2075,2053,2056,1197
1384,1711439570460965652,2060,2055,2049,2043,2052,2052,1196
1385,1711439570470968402,2052,2054,2059,2070,2050,2051,1195
1386,1711439570480964850,2056,2056,2053,2056,2065,2062,1195
1387,1711439570490963432,2056,2053,2056,1984,2048,2050,1195
1388,1711439570500966842,2054,2053,2055,1987,2039,2049,1194
1389,1711439570510964402,2054,2053,2056,2011,2050,2058,1195
1390,1711439570520965689,2053,2057,2057,2019,2034,2083,1197
1391,1711439570530974861,2057,2056,2063,2036,2058,2053,1196
1392,1711439570540962121,2052,2053,2052,2040,2050,2052,1196
1393,1711439570551015793,2058,2058,2057,1972,2052,2057,1196
1394,1711439570560964104,2062,2062,2066,2029,2041,2038,1192
1395,1711439570570969028,2057,2054,2048,2025,2041,2010,1193
1396,1711439570580971005,2057,2056,2057,2080,2068,2063,1197
1397,1711439570590973504,2059,2054,2057,2088,2059,2057,1195
1398,1711439570600965043,2053,2055,2053,2112,2075,2054,1196
1399,1711439570610965278,2056,2057,2064,1979,2068,2063,1198
1400,1711439570620978205,2056,2059,2058,2063,2060,2053,1198
1401,1711439570630972049,2060,2057,2056,2077,2080,2057,1197
1402,1711439570640963177,2062,2064,2058,2089,2044,2082,1195
1403,1711439570650968622,2057,2056,2050,2040,2034,2093,1198
1404,1711439570660962215,2049,2053,2055,2075,2057,2054,1196
1405,1711439570670961587,2056,2056,2062,2118,2064,2057,1196
1406,1711439570680976098,2046,2046,2040,2051,2039,2029,1193
1407,1711439570690967567,2054,2056,2058,2030,2062,2064,1194
1408,1711439570700963905,2053,2053,2053,2092,2052,2054,1193
1409,1711439570710966163,2057,2058,2056,2032,2063,2056,1197
1410,1711439570720963283,2054,2056,2058,2091,2067,2065,1195
1411,1711439570730968407,2054,2056,2057,2021,2036,2050,1195
1412,1711439570740962050,2051,2049,2050,2057,2053,2053,1195
1413,1711439570750966942,2058,2056,2058,2096,2064,2057,1195
1414,1711439570760965604,2054,2054,2057,2057,2056,2054,1197
1415,1711439570770965509,2062,2059,2064,2085,2060,2053,1195
1416,1711439570780972556,2055,2060,2063,1980,2042,2048,1196
1417,1711439570790959296,2056,2056,2043,2029,2047,2067,1198
1418,1711439570800966874,2052,2054,2056,2030,2052,2065,1194
1419,1711439570810965386,2056,2051,2051,2107,2060,2056,1197
1420,1711439570820961934,2056,2050,2053,2040,2043,2050,1197
1421,1711439570830970244,2058,2056,2052,2005,2054,2059,1195
1422,1711439570840989012,2048,2049,2047,2001,2060,2048,1196
1423,1711439570850975482,2056,2059,2060,2071,2066,2056,1197
1424,1711439570860965539,2056,2054,2058,2060,2056,2056,1198
1425,1711439570870968027,2064,2061,2061,2065,2054,2043,1196
1426,1711439570880984301,2057,2053,2052,2068,2038,2052,1196
1427,1711439570890956735,2056,2060,2061,2088,2061,2045,1195
1428,1711439570900964224,2052,2064,2056,2067,2071,2058,1195
1429,1711439570910965991,2062,2060,2056,2059,2062,2058,1196
1430,1711439570920966115,2056,2060,2066,2059,2047,2050,1195
1431,1711439570930974696,2057,2052,2057,2060,2056,2058,1197
1432,1711439570940954494,2054,2052,2047,2067,2070,2045,1195
1433,1711439570950967511,2060,2060,2068,2006,2062,2066,1197
1434,1711439570960964801,2051,2053,2062,2076,2056,2050,1197
1435,1711439570970980103,2056,2054,2060,2060,2050,2044,1194
1436,1711439570980981651,2052,2053,2056,1953,2037,2068,1197
1437,1711439570991000008,2052,2051,2051,2077,2052,2058,1198
1438,1711439571000979725,2045,2036,2033,2094,2070,2058,1198
1439,1711439571010978766,2062,2072,2068,2104,2063,2060,1197
1440,1711439571020978246,2060,2068,2057,2057,2060,2057,1196
1441,1711439571030992805,2062,2056,2057,2036,2037,2049,1196
1442,1711439571040968371,2056,2059,2064,2140,2068,2060,1195
1443,1711439571050979142,2056,2053,2056,2106,2053,2053,1195
1444,1711439571060977231,2053,2050,2052,2042,2061,2057,1196
1445,1711439571070977071,2058,2051,2042,2072,2060,2060,1197
1446,1711439571080973907,2053,2053,2048,1978,2042,2052,1196
1447,1711439571090986983,2057,2056,2054,2069,2060,2056,1195
1448,1711439571100971295,2055,2056,2056,2051,2046,2045,1192
1449,1711439571110970806,2057,2061,2064,2076,2056,2054,1197
1450,1711439571120970226,2056,2053,2054,2052,2052,2050,1198
1451,1711439571130981007,2059,2058,2059,2043,2053,2054,1194
1452,1711439571140976000,2054,2053,2056,2104,2069,2057,1197
1453,1711439571150967675,2056,2058,2056,2076,2061,2056,1196
1454,1711439571160974940,2060,2056,2053,2042,2057,2051,1196
1455,1711439571170975753,2056,2054,2052,2018,2050,2054,1198
1456,1711439571180973871,2057,2056,2062,2071,2068,2058,1194
1457,1711439571190972770,2060,2050,2045,2074,2037,2050,1196
1458,1711439571200963024,2054,2055,2061,2054,2051,2051,1195
1459,1711439571210967884,2060,2056,2066,2072,2059,2056,1197
1460,1711439571220966904,2056,2056,2051,2056,2061,2055,1195
1461,1711439571230966925,2058,2057,2058,2061,2053,2053,1196
1462,1711439571240982605,2054,2052,2053,2038,2059,2053,1197
1463,1711439571250968281,2056,2049,2052,2004,2051,2052,1196
1464,1711439571260972009,2052,2053,2053,2046,2056,2055,1200
1465,1711439571270971449,2056,2054,2052,2068,2058,2058,1195
1466,1711439571280970700,2053,2054,2054,2059,2056,2056,1197
1467,1711439571290966623,2051,2055,2052,2074,2054,2057,1197
1468,1711439571300961967,2050,2053,2056,2084,2056,2051,1195
1469,1711439571310970904,2058,2056,2061,2072,2054,2057,1195
1470,1711439571320969553,2053,2056,2060,2056,2060,2053,1196
1471,1711439571330966439,2058,2054,2058,2077,2061,2061,1196
1472,1711439571340966490,2056,2052,2060,2054,2066,2061,1195
1473,1711439571350963936,2056,2060,2063,2059,2065,2060,1194
1474,1711439571360968116,2053,2053,2053,2056,2059,2056,1196
1475,1711439571370968057,2059,2056,2057,2050,2053,2054,1196
1476,1711439571380967758,2056,2054,2050,2034,2054,2054,1196
1477,1711439571390976135,2058,2056,2064,2062,2063,2063,1196
1478,1711439571400970456,2056,2056,2052,2009,2056,2060,1197
1479,1711439571410966881,2052,2056,2056,2057,2061,2068,1198
1480,1711439571420966261,2054,2053,2052,2049,2053,2050,1196
1481,1711439571430963707,2056,2057,2063,2099,2051,2056,1199
1482,1711439571440983566,2053,2054,2053,2053,2056,2054,1199
1483,1711439571450958190,2059,2056,2056,2059,2056,2056,1198
1484,1711439571460965926,2056,2052,2055,1975,2044,2049,1195
1485,1711439571470965277,2056,2057,2060,2040,2041,2052,1197
1486,1711439571480964897,2056,2054,2050,2030,2052,2053,1196
1487,1711439571490985246,2056,2056,2054,2116,2060,2053,1195
1488,1711439571500968466,2056,2057,2059,2062,2056,2059,1195
1489,1711439571510967045,2057,2057,2066,2068,2056,2056,1198
1490,1711439571520965795,2052,2056,2058,2055,2047,2050,1195
1491,1711439571530967659,2060,2057,2056,2070,2045,2056,1195
1492,1711439571541605616,2056,2053,2054,2058,2048,2054,1195
1493,1711439571550984854,2056,2056,2056,2063,2057,2065,1198
1494,1711439571560972592,2053,2056,2052,2070,2058,2057,1194
1495,1711439571570971311,2053,2060,2057,2092,2044,2050,1196
1496,1711439571580972485,2052,2058,2062,2057,2044,2049,1198
1497,1711439571590988596,2061,2057,2051,2068,2053,2056,1196
1498,1711439571600997594,2056,2053,2052,2060,2054,2056,1196
1499,1711439571610977218,2056,2052,2048,2088,2056,2054,1199
1500,1711439571620990102,2054,2052,2047,2010,2044,2048,1195
1501,1711439571630969707,2052,2056,2053,2061,2055,2054,1197
1502,1711439571640990266,2052,2050,2056,2040,2058,2053,1196
1503,1711439571650952738,2058,2056,2054,2062,2056,2056,1196
1504,1711439571660967608,2056,2055,2058,2092,2057,2054,1198
1505,1711439571670965685,2056,2056,2056,2125,2056,2052,1196
1506,1711439571680966137,2056,2055,2058,2056,2055,2052,1197
1507,1711439571690968774,2053,2052,2048,2057,2041,2048,1197
1508,1711439571700991356,2054,2056,2058,2029,2058,2058,1196
1509,1711439571710971461,2056,2054,2055,2096,2063,2055,1198
1510,1711439571720967776,2055,2056,2061,2092,2065,2054,1196
1511,1711439571730983336,2057,2054,2056,2097,2058,2059,1199
1512,1711439571740980152,2054,2052,2057,2111,2068,2054,1195
1513,1711439571750953374,2056,2053,2049,2017,2053,2053,1198
1514,1711439571760967160,2052,2055,2053,2060,2056,2051,1197
1515,1711439571770966541,2059,2060,2061,2074,2048,2052,1194
1516,1711439571780966392,2055,2053,2056,2041,2053,2052,1196
1517,1711439571790979387,2056,2052,2050,1980,2053,2054,1195
1518,1711439571800968228,2057,2053,2057,2052,2052,2050,1197
1519,1711439571810973349,2054,2056,2052,2044,2047,2056,1197
1520,1711439571820965897,2056,2054,2058,2080,2059,2055,1198
1521,1711439571830988850,2052,2053,2050,2057,2056,2056,1197
1522,1711439571840968103,2056,2056,2058,2132,2057,2054,1196
1523,1711439571850988342,2059,2057,2059,2048,2052,2056,1196
1524,1711439571860970010,2054,2054,2048,1919,2046,2050,1197
1525,1711439571870964241,2056,2053,2050,2051,2048,2054,1197
1526,1711439571880964323,2055,2056,2055,2032,2056,2052,1196
1527,1711439571890968481,2057,2058,2061,2053,2062,2063,1196
1528,1711439571900967011,2053,2052,2056,2089,2063,2058,1194
1529,1711439571910967022,2058,2058,2060,2041,2058,2056,1194
1530,1711439571920964097,2054,2052,2056,2036,2048,2048,1197
1531,1711439571930993744,2058,2061,2062,2026,2066,2058,1197
1532,1711439571940971334,2056,2053,2058,2057,2052,2052,1195
1533,1711439571950966816,2057,2057,2060,2086,2064,2060,1196
1534,1711439571960967560,2056,2052,2049,1905,2043,2053,1196
1535,1711439571970966669,2056,2051,2050,2061,2050,2052,1196
1536,1711439571980977219,2056,2060,2056,2044,2049,2049,1196
1537,1711439571990972854,2056,2055,2060,2068,2052,2052,1195
1538,1711439572000966874,2056,2051,2056,2038,2054,2052,1197
1539,1711439572011003949,2055,2056,2060,2114,2056,2053,1195
1540,1711439572020969114,2056,2056,2064,2074,2058,2051,1195
1541,1711439572031007932,2061,2057,2055,2094,2064,2058,1194
1542,1711439572040962727,2055,2053,2058,2052,2060,2056,1193
1543,1711439572050955201,2053,2053,2052,2059,2060,2057,1198
1544,1711439572060965628,2052,2052,2053,2072,2056,2053,1196
1545,1711439572070966627,2057,2053,2060,2072,2056,2057,1196
1546,1711439572080962859,2052,2056,2050,2007,2053,2053,1196
1547,1711439572090965311,2056,2056,2057,2092,2060,2057,1197
1548,1711439572100978642,2056,2055,2053,1982,2049,2050,1194
1549,1711439572110960517,2057,2054,2057,2015,2056,2056,1196
1550,1711439572120963090,2056,2061,2060,2076,2053,2053,1195
1551,1711439572130978385,2056,2059,2058,2052,2050,2056,1195
1552,1711439572140963124,2055,2051,2048,2066,2046,2043,1195
1553,1711439572150988179,2054,2061,2055,2030,2048,2059,1197
1554,1711439572160964312,2052,2046,2062,1999,2043,2047,1192
1555,1711439572170974920,2060,2051,2045,2018,2050,2032,1194
1556,1711439572180966863,2057,2064,2067,2060,2063,2056,1194
1557,1711439572190965407,2049,2027,2032,2078,2055,2055,1196
1558,1711439572200963271,2058,2058,2066,2085,2051,2052,1197
1559,1711439572210967186,2057,2053,2057,2096,2049,2055,1196
1560,1711439572220966543,2054,2053,2053,2069,2049,2050,1196
1561,1711439572230962342,2058,2064,2056,2080,2045,2053,1197
1562,1711439572240965496,2053,2054,2051,2021,2060,2052,1198
1563,1711439572250967598,2054,2056,2062,1994,2040,2057,1196
1564,1711439572260967314,2054,2051,2049,2074,2061,2073,1199
1565,1711439572270999742,2052,2056,2052,2046,2044,2042,1194
1566,1711439572280973191,2053,2052,2054,1964,2048,2045,1195
1567,1711439572290971776,2058,2061,2068,2061,2053,2054,1198
1568,1711439572300965413,2056,2048,2048,2027,2049,2051,1197
1569,1711439572310981038,2052,2054,2057,2047,2042,2053,1198
1570,1711439572320979804,2056,2054,2052,2077,2059,2053,1197
1571,1711439572330949386,2056,2057,2052,1993,2040,2054,1197
1572,1711439572340978747,2057,2054,2056,2067,2064,2056,1193
1573,1711439572351009681,2056,2053,2053,1997,2045,2053,1196
1574,1711439572360974635,2051,2051,2051,2038,2056,2047,1193
1575,1711439572370968321,2056,2050,2048,2061,2043,2051,1196
1576,1711439572380967547,2056,2050,2054,2081,2056,2050,1195
1577,1711439572390969699,2053,2047,2047,2047,2050,2052,1195
1578,1711439572400965960,2059,2057,2057,2049,2059,2054,1197
1579,1711439572410974463,2057,2056,2050,2064,2048,2050,1197
1580,1711439572420968309,2055,2052,2059,2041,2058,2052,1195
1581,1711439572430968127,2060,2059,2065,2085,2057,2064,1197
1582,1711439572440966432,2053,2054,2057,2043,2056,2052,1195
1583,1711439572450968503,2054,2056,2058,2046,2047,2054,1199
1584,1711439572460976907,2053,2056,2055,2038,2048,2050,1200
1585,1711439572470962998,2057,2058,2068,2100,2063,2059,1195
1586,1711439572480957836,2055,2050,2058,2014,2037,2048,1198
1587,1711439572490954118,2054,2058,2057,2050,2048,2054,1196
1588,1711439572500953885,2058,2073,2077,2069,2062,2053,1194
1589,1711439572510970152,2056,2042,2049,1954,2048,2056,1195
1590,1711439572520967996,2052,2070,2064,2093,2063,2047,1194
1591,1711439572530965920,2059,2070,2067,2100,2061,2066,1194
1592,1711439572540981005,2056,2051,2058,2054,2058,2050,1193
1593,1711439572550988867,2056,2053,2053,2098,2045,2051,1197
1594,1711439572560965152,2052,2056,2060,2063,2061,2052,1193
1595,1711439572570969577,2054,2056,2059,2064,2045,2054,1197
1596,1711439572580967622,2053,2054,2056,2068,2061,2052,1196
1597,1711439572590974913,2056,2056,2063,2013,2048,2056,1195
1598,1711439572600968238,2053,2049,2052,2116,2070,2058,1194
1599,1711439572610966452,2056,2042,2043,2072,2061,2063,1196
1600,1711439572620966851,2051,2040,2043,2032,2053,2051,1195
1601,1711439572630962390,2056,2049,2063,2025,2058,2054,1196
1602,1711439572640965664,2055,2051,2050,2012,2061,2083,1197
1603,1711439572650965161,2057,2057,2057,2046,2047,2052,1196
1604,1711439572660966882,2051,2052,2056,2072,2057,2052,1196
1605,1711439572670972039,2054,2053,2049,2018,2051,2054,1195
1606,1711439572680963351,2051,2053,2062,2048,2051,2047,1194
1607,1711439572690963829,2061,2060,2060,2060,2053,2064,1197
1608,1711439572700962955,2056,2057,2062,1936,2043,2051,1194
1609,1711439572710989933,2058,2054,2058,2060,2047,2053,1195
1610,1711439572720967288,2053,2056,2052,2026,2056,2053,1194
1611,1711439572730984778,2055,2053,2053,1999,2054,2053,1194
1612,1711439572740981200,2057,2056,2057,2059,2051,2051,1195
1613,1711439572750965478,2061,2056,2062,2049,2064,2063,1196
1614,1711439572760981735,2059,2053,2056,1956,2050,2055,1195
1615,1711439572770970613,2056,2047,2049,2043,2043,2050,1196
1616,1711439572780981841,2053,2058,2045,2074,2056,2050,1194
1617,1711439572790963896,2056,2054,2054,2079,2062,2056,1196
1618,1711439572800965177,2054,2054,2059,2041,2057,2056,1195
1619,1711439572810963491,2057,2055,2056,2034,2050,2053,1195
1620,1711439572820962577,2055,2056,2062,1985,2047,2051,1195
1621,1711439572830980778,2054,2052,2053,2100,2060,2061,1197
1622,1711439572840985234,2056,2060,2064,2038,2063,2053,1197
1623,1711439572850986263,2056,2050,2055,2056,2052,2052,1196
1624,1711439572860962176,2056,2059,2058,1954,2045,2049,1197
1625,1711439572870978004,2052,2071,2066,2057,2054,2052,1195
1626,1711439572880978011,2056,2056,2060,2090,2056,2049,1197
1627,1711439572890959675,2057,2056,2053,2082,2061,2056,1197
1628,1711439572900976755,2060,2077,2060,2034,2062,2064,1193
1629,1711439572910980068,2057,2052,2054,2039,2049,2049,1195
1630,1711439572920991266,2052,2047,2047,2052,2054,2053,1195
1631,1711439572930977639,2056,2051,2051,2090,2056,2058,1195
1632,1711439572940976935,2053,2049,2054,2096,2056,2056,1195
1633,1711439572951381674,2058,2066,2065,2076,2058,2037,1192
1634,1711439572960974867,2056,2072,2064,2101,2060,2056,1197
1635,1711439572970974734,2060,2064,2048,2046,2040,2047,1193
1636,1711439572980973459,2056,2057,2056,2057,2058,2056,1196
1637,1711439572990974048,2057,2050,2041,2024,2046,2054,1195
1638,1711439573000973084,2057,2050,2045,1925,2026,2045,1193
1639,1711439573010974452,2056,2050,2056,2053,2053,2058,1197
1640,1711439573020993089,2056,2066,2056,2032,2048,2053,1196
1641,1711439573030974810,2058,2043,2052,2059,2058,2058,1195
1642,1711439573040974111,2053,2050,2051,2113,2057,2054,1196
1643,1711439573050978232,2059,2056,2052,2028,2043,2052,1193
1644,1711439573060974809,2053,2056,2050,2024,2062,2056,1195
1645,1711439573070971165,2054,2048,2037,2068,2051,2061,1195
1646,1711439573080969475,2057,2040,2054,2031,2059,2056,1196
1647,1711439573090969579,2056,2053,2059,2034,2048,2056,1197
1648,1711439573100973569,2054,2057,2057,1969,2049,2053,1193
1649,1711439573111002877,2057,2052,2052,2087,2050,2058,1198
1650,1711439573120986961,2056,2059,2067,2029,2055,2051,1197
1651,1711439573130971285,2052,2077,2058,2050,2054,2053,1196
1652,1711439573140976899,2059,2070,2071,2034,2053,2052,1197
1653,1711439573150975890,2057,2050,2056,2088,2063,2061,1196
1654,1711439573160971255,2056,2058,2056,2006,2047,2053,1197
1655,1711439573170972320,2063,2058,2052,2085,2056,2056,1196
1656,1711439573180970990,2054,2055,2053,2044,2049,2050,1196
1657,1711439573190971245,2054,2052,2060,2005,2046,2050,1197
1658,1711439573200970908,2057,2045,2056,2064,2058,2059,1197
1659,1711439573210970440,2054,2050,2050,2018,2045,2052,1196
1660,1711439573220971876,2056,2049,2056,2077,2058,2056,1195
1661,1711439573230970576,2056,2058,2060,2096,2058,2052,1196
1662,1711439573240976300,2053,2056,2053,2088,2060,2053,1198
1663,1711439573250967086,2057,2055,2049,2065,2052,2054,1194
1664,1711439573260975555,2053,2052,2052,2062,2052,2052,1197
1665,1711439573270965230,2056,2056,2052,2028,2059,2066,1195
1666,1711439573280964612,2052,2056,2056,2049,2051,2047,1194
1667,1711439573290967561,2057,2059,2056,2062,2058,2057,1196
1668,1711439573300966662,2057,2056,2060,1971,2048,2045,1193
1669,1711439573310966906,2056,2068,2066,2045,2054,2051,1195
1670,1711439573320967780,2052,2052,2049,2052,2048,2050,1197
1671,1711439573330968775,2056,2053,2055,2045,2057,2056,1196
1672,1711439573340972946,2055,2056,2058,2022,2049,2057,1197
1673,1711439573350969293,2057,2058,2060,2068,2054,2057,1196
1674,1711439573360967373,2055,2056,2056,2069,2056,2053,1194
1675,1711439573370968949,2061,2083,2084,2088,2053,2054,1196
1676,1711439573380964123,2058,2059,2054,2071,2057,2052,1199
1677,1711439573390966851,2053,2056,2058,2106,2065,2060,1195
1678,1711439573400966434,2053,2049,2051,2072,2064,2056,1195
1679,1711439573410963331,2057,2061,2052,2039,2057,2058,1197
1680,1711439573420965108,2053,2050,2053,2048,2046,2047,1193
1681,1711439573430966184,2060,2060,2064,2111,2062,2060,1195
1682,1711439573440977838,2052,2053,2055,1948,2049,2052,1198
1683,1711439573450968735,2056,2042,2047,2080,2055,2058,1197
1684,1711439573460967315,2055,2047,2066,2061,2052,2053,1197
1685,1711439573470963642,2056,2050,2061,2072,2058,2056,1195
1686,1711439573480966881,2056,2056,2054,2045,2056,2054,1198
1687,1711439573490962456,2056,2050,2057,2088,2061,2058,1197
1688,1711439573500961687,2054,2055,2057,2063,2054,2050,1194
1689,1711439573510961380,2052,2054,2053,2074,2052,2052,1195
1690,1711439573520965191,2057,2068,2064,2057,2052,2051,1197
1691,1711439573530966206,2061,2065,2051,2060,2052,2057,1195
1692,1711439573540966339,2052,2054,2057,2056,2056,2054,1194
1693,1711439573550963096,2055,2056,2049,1965,2046,2050,1197
1694,1711439573560972016,2058,2066,2063,1969,2046,2052,1195
1695,1711439573570964325,2057,2056,2056,2080,2067,2059,1196
1696,1711439573580958708,2053,2059,2063,2047,2056,2053,1196
1697,1711439573590965584,2058,2052,2052,2061,2049,2052,1198
1698,1711439573600961991,2057,2055,2058,2136,2057,2054,1196
1699,1711439573610969488,2061,2059,2056,2078,2057,2059,1197
1700,1711439573620984128,2056,2041,2052,2059,2056,2052,1196
1701,1711439573630997325,2056,2056,2061,2043,2057,2056,1195
1702,1711439573640964278,2056,2052,2060,1951,2052,2053,1195
1703,1711439573650973287,2056,2052,2056,2093,2061,2056,1194
1704,1711439573660987487,2056,2054,2059,2024,2047,2051,1196
1705,1711439573670959910,2058,2057,2058,2104,2054,2057,1194
1706,1711439573680955966,2056,2052,2056,2064,2061,2048,1196
1707,1711439573690969574,2057,2056,2047,2058,2057,2056,1194
1708,1711439573700964027,2054,2058,2057,1998,2043,2047,1190
1709,1711439573710969220,2057,2054,2045,2068,2057,2058,1197
1710,1711439573720969453,2056,2053,2056,2008,2061,2053,1195
1711,1711439573730959708,2058,2054,2064,2102,2060,2059,1197
1712,1711439573740963889,2056,2054,2049,2128,2064,2056,1195
1713,1711439573750969312,2057,2055,2053,2130,2058,2056,1197
1714,1711439573760990125,2054,2053,2055,2068,2061,2052,1194
1715,1711439573770966735,2058,2057,2056,2093,2052,2052,1195
1716,1711439573780961338,2054,2056,2057,2052,2060,2056,1195
1717,1711439573790966901,2056,2069,2060,2108,2056,2054,1194
1718,1711439573800968728,2058,2067,2044,2012,2041,2047,1193
1719,1711439573810963962,2058,2053,2056,2073,2049,2053,1197
1720,1711439573820979644,2056,2052,2051,2069,2047,2054,1194
1721,1711439573830973346,2058,2056,2057,2102,2060,2058,1198
1722,1711439573840964904,2056,2057,2063,2111,2060,2050,1196
1723,1711439573850966000,2058,2037,2042,2016,2047,2056,1197
1724,1711439573860963408,2053,2041,2052,2037,2055,2053,1193
1725,1711439573870976245,2053,2053,2053,2053,2053,2057,1194
1726,1711439573880960158,2056,2056,2056,2000,2060,2056,1194
1727,1711439573890964249,2057,2053,2066,2072,2053,2053,1195
1728,1711439573900961908,2052,2034,2046,2017,2049,2051,1194
1729,1711439573910962131,2058,2049,2065,2057,2051,2058,1195
1730,1711439573920962015,2054,2052,2060,1968,2053,2053,1196
1731,1711439573930972047,2057,2058,2056,2052,2052,2053,1194
1732,1711439573940978081,2054,2053,2059,2083,2056,2051,1197
1733,1711439573950964810,2057,2054,2058,2088,2062,2056,1196
1734,1711439573960969652,2053,2056,2054,2005,2047,2051,1196
1735,1711439573970964395,2060,2055,2058,2064,2056,2057,1195
1736,1711439573980971692,2057,2052,2057,2041,2056,2053,1196
1737,1711439573990975602,2064,2057,2060,2046,2054,2059,1194
1738,1711439574000967000,2052,2045,2048,2026,2049,2047,1193
1739,1711439574010967250,2056,2045,2049,2030,2056,2058,1198
1740,1711439574021004346,2056,2050,2062,2074,2054,2051,1197
1741,1711439574030975010,2056,2052,2049,2051,2049,2054,1193
1742,1711439574040965812,2052,2051,2051,2084,2053,2052,1196
1743,1711439574050966010,2056,2057,2054,2067,2053,2055,1194
1744,1711439574060968142,2054,2052,2047,2047,2054,2050,1197
1745,1711439574070965985,2054,2054,2056,2095,2051,2056,1196
1746,1711439574080973378,2062,2062,2058,2061,2052,2049,1197
1747,1711439574090965291,2056,2053,2056,2054,2047,2052,1194
1748,1711439574100971209,2053,2056,2061,2074,2062,2056,1193
1749,1711439574110972230,2058,2056,2057,2076,2059,2061,1195
1750,1711439574120972719,2058,2060,2057,2128,2063,2056,1195
1751,1711439574130993665,2058,2057,2056,2044,2049,2056,1194
1752,1711439574141004383,2052,2053,2052,2041,2046,2047,1193
1753,1711439574150977933,2054,2052,2053,2064,2052,2057,1194
1754,1711439574160984403,2053,2052,2056,2071,2060,2056,1197
1755,1711439574170980814,2060,2057,2056,2053,2041,2053,1196
1756,1711439574180980602,2052,2051,2053,2048,2036,2044,1194
1757,1711439574190971463,2055,2053,2052,2044,2050,2053,1196
1758,1711439574200978524,2057,2054,2053,2070,2060,2060,1195
1759,1711439574210978682,2056,2058,2056,2095,2063,2056,1197
1760,1711439574220977088,2056,2051,2052,2104,2056,2054,1197
1761,1711439574230992274,2057,2053,2053,2149,2064,2060,1198
1762,1711439574240996589,2053,2056,2053,2077,2056,2050,1196
1763,1711439574250982432,2052,2055,2059,2081,2064,2062,1197
1764,1711439574260979234,2054,2051,2048,1960,2044,2047,1195
1765,1711439574270974193,2060,2054,2052,2030,2054,2058,1197
1766,1711439574281011149,2057,2056,2057,2060,2057,2056,1197
1767,1711439574290972135,2056,2049,2052,2016,2057,2052,1197
1768,1711439574300972905,2056,2056,2052,2025,2047,2049,1194
1769,1711439574310975407,2056,2050,2044,2064,2062,2058,1198
1770,1711439574320972691,2056,2056,2058,2029,2042,2046,1192
1771,1711439574330973911,2057,2056,2050,2037,2053,2054,1196
1772,1711439574340985209,2057,2057,2054,2059,2058,2058,1196
1773,1711439574350981922,2059,2056,2065,2050,2053,2058,1197
1774,1711439574360977271,2057,2057,2062,2050,2058,2057,1196
1775,1711439574370974955,2059,2057,2056,2050,2064,2058,1196
1776,1711439574381011430,2057,2056,2064,2060,2037,2047,1195
1777,1711439574390989538,2059,2056,2068,2076,2056,2056,1196
1778,1711439574400973887,2058,2057,2056,2060,2043,2048,1197
1779,1711439574410974867,2057,2058,2053,2113,2053,2050,1198
1780,1711439574420976258,2055,2056,2051,2010,2032,2035,1194
1781,1711439574431010068,2061,2056,2051,2065,2070,2087,1196
1782,1711439574440986863,2054,2055,2060,2058,2056,2048,1196
1783,1711439574450988475,2056,2048,2047,2077,2057,2061,1196
1784,1711439574460981500,2057,2056,2059,2008,2048,2047,1194
1785,1711439574470977330,2056,2052,2056,2066,2062,2060,1195
1786,1711439574480986595,2053,2052,2048,2022,2056,2062,1195
1787,1711439574490980974,2056,2053,2058,2074,2058,2066,1197
1788,1711439574500975461,2056,2059,2054,2061,2052,2043,1195
1789,1711439574510976351,2058,2056,2057,2088,2051,2052,1196
1790,1711439574520989683,2058,2057,2058,2066,2053,2056,1198
1791,1711439574530984292,2057,2054,2054,2086,2053,2059,1199
1792,1711439574540984099,2056,2053,2049,2036,2049,2050,1196
1793,1711439574550976623,2057,2052,2056,2092,2038,2050,1197
1794,1711439574560974869,2055,2056,2055,2109,2062,2057,1196
1795,1711439574570976309,2056,2054,2050,2034,2049,2056,1195
1796,1711439574580987338,2056,2052,2057,2052,2057,2051,1194
1797,1711439574590976366,2057,2053,2048,2103,2051,2054,1197
1798,1711439574600975723,2056,2053,2058,2080,2064,2060,1195
1799,1711439574610973366,2062,2056,2059,1960,2051,2056,1198
1800,1711439574620974185,2057,2072,2072,2016,2043,2048,1195
1801,1711439574630986347,2056,2044,2054,2060,2059,2056,1197
1802,1711439574640963603,2054,2044,2052,2056,2062,2057,1198
1803,1711439574650968810,2054,2055,2062,2057,2040,2048,1198
1804,1711439574660965022,2058,2059,2056,2100,2054,2051,1196
1805,1711439574670964849,2056,2052,2054,2078,2048,2053,1195
1806,1711439574680974034,2052,2052,2059,2060,2059,2053,1195
1807,1711439574690984912,2056,2056,2059,2102,2060,2055,1196
1808,1711439574700967559,2056,2051,2052,2073,2059,2050,1192
1809,1711439574710970552,2060,2063,2056,2080,2061,2057,1196
1810,1711439574720986369,2050,2049,2051,1995,2045,2048,1194
1811,1711439574730970819,2061,2058,2059,1981,2044,2054,1195
1812,1711439574740968693,2056,2050,2066,2050,2053,2051,1196
1813,1711439574750963050,2056,2042,2060,2089,2059,2056,1195
1814,1711439574760964892,2054,2052,2053,2077,2061,2057,1196
1815,1711439574770965181,2056,2056,2056,2043,2055,2056,1195
1816,1711439574780966291,2056,2052,2051,2076,2056,2050,1194
1817,1711439574790966689,2058,2059,2064,2029,2057,2054,1196
1818,1711439574800965676,2053,2049,2044,1984,2049,2051,1196
1819,1711439574810965534,2053,2034,2036,2035,2029,2045,1195
1820,1711439574820990307,2056,2042,2056,2084,2065,2055,1196
1821,1711439574830957826,2056,2046,2051,2029,2040,2052,1196
1822,1711439574840990705,2057,2058,2053,2043,2053,2054,1196
1823,1711439574850966027,2057,2057,2061,2044,2046,2053,1194
1824,1711439574860964412,2057,2056,2069,2040,2054,2052,1195
1825,1711439574871004464,2058,2056,2047,2077,2044,2053,1195
1826,1711439574880972764,2056,2052,2056,2076,2060,2055,1196
1827,1711439574890968904,2057,2054,2060,2082,2056,2056,1196
1828,1711439574900968862,2053,2050,2053,2054,2040,2046,1194
1829,1711439574910966657,2056,2056,2056,2050,2054,2052,1196
1830,1711439574920966635,2056,2051,2056,2056,2057,2054,1195
1831,1711439574930963677,2052,2055,2052,2110,2056,2056,1195
1832,1711439574940974225,2060,2060,2060,2040,2056,2054,1195
1833,1711439574950967431,2056,2040,2044,2064,2050,2056,1194
1834,1711439574960967428,2054,2056,2060,2071,2068,2058,1195
1835,1711439574971006809,2058,2057,2053,2045,2052,2056,1196
1836,1711439574980962636,2056,2056,2054,2045,2052,2051,1196
1837,1711439574990965950,2058,2056,2056,2060,2051,2053,1196
1838,1711439575000964966,2054,2055,2058,2067,2068,2058,1196
1839,1711439575010965381,2056,2057,2057,2052,2052,2057,1198
1840,1711439575020961054,2056,2051,2056,2046,2057,2050,1196
1841,1711439575030969602,2057,2055,2058,2059,2058,2058,1195
1842,1711439575040969164,2053,2053,2053,2072,2058,2056,1197
1843,1711439575050964277,2056,2052,2052,2084,2060,2054,1193
1844,1711439575060963428,2056,2054,2059,2058,2066,2054,1196
1845,1711439575070975002,2054,2054,2056,2052,2044,2052,1195
1846,1711439575080959094,2058,2056,2055,2081,2054,2052,1197
1847,1711439575090965027,2058,2054,2054,2016,2056,2056,1197
1848,1711439575100960922,2054,2056,2057,2087,2060,2056,1194
1849,1711439575110965583,2056,2053,2053,2060,2056,2056,1197
1850,1711439575120962109,2053,2053,2063,2033,2060,2053,1194
1851,1711439575130966389,2056,2066,2057,2035,2045,2053,1195
1852,1711439575140965940,2060,2074,2057,2046,2061,2052,1194
1853,1711439575150968387,2059,2064,2052,2088,2053,2056,1199
1854,1711439575160985982,2054,2053,2061,2078,2059,2054,1196
1855,1711439575170971908,2052,2056,2056,2060,2044,2052,1195
1856,1711439575180964737,2056,2057,2057,2028,2050,2049,1196
1857,1711439575190960411,2058,2056,2053,2072,2063,2058,1195
1858,1711439575200966845,2056,2057,2056,2042,2062,2055,1198
1859,1711439575210965044,2059,2057,2055,2068,2057,2058,1197
1860,1711439575220966489,2056,2055,2057,2074,2065,2056,1195
1861,1711439575230992720,2054,2040,2037,2005,2046,2054,1195
1862,1711439575240967035,2054,2052,2057,2048,2052,2051,1197
1863,1711439575250958020,2054,2049,2057,2017,2060,2058,1196
1864,1711439575260970625,2052,2052,2053,2070,2056,2048,1195
1865,1711439575270963905,2057,2053,2054,2039,2053,2057,1196
1866,1711439575280958868,2056,2053,2056,2126,2053,2052,1195
1867,1711439575290980992,2058,2052,2049,2095,2053,2056,1196
1868,1711439575300960907,2058,2056,2056,2029,2057,2056,1195
1869,1711439575310958634,2056,2056,2054,2058,2056,2057,1194
1870,1711439575320962363,2056,2044,2066,2027,2051,2052,1197
1871,1711439575330964800,2056,2042,2056,2060,2053,2054,1196
1872,1711439575340971235,2055,2050,2057,2045,2054,2056,1197
1873,1711439575350956119,2053,2054,2055,2070,2052,2054,1195
1874,1711439575360961031,2056,2058,2062,2061,2051,2052,1195
1875,1711439575370952857,2056,2057,2058,2066,2049,2052,1195
1876,1711439575380983145,2052,2056,2053,2033,2045,2047,1192
1877,1711439575390961357,2051,2037,2059,2018,2056,2057,1193
1878,1711439575400979083,2056,2056,2059,2088,2071,2059,1196
1879,1711439575410965470,2057,2069,2067,2045,2058,2059,1197
1880,1711439575420963579,2052,2049,2056,2085,2058,2053,1196
1881,1711439575430993756,2057,2059,2058,2062,2052,2057,1198
1882,1711439575440965516,2056,2053,2053,2011,2053,2052,1196
1883,1711439575450965859,2056,2056,2055,2077,2057,2055,1195
1884,1711439575460961664,2056,2069,2066,2046,2056,2051,1195
1885,1711439575470960224,2057,2058,2057,2009,2042,2053,1196
1886,1711439575480959895,2052,2050,2048,2026,2046,2050,1195
1887,1711439575490960548,2055,2056,2053,2053,2053,2052,1194
1888,1711439575500962835,2056,2054,2062,2060,2060,2057,1192
1889,1711439575510963098,2057,2047,2056,2079,2050,2052,1194
1890,1711439575520962238,2057,2054,2058,2061,2061,2056,1194
1891,1711439575530991054,2056,2056,2058,2028,2054,2056,1196
1892,1711439575540979425,2057,2054,2052,2072,2061,2056,1195
1893,1711439575550962114,2056,2057,2053,2074,2058,2056,1195
1894,1711439575560968509,2059,2065,2059,2133,2062,2056,1194
1895,1711439575570968902,2057,2057,2049,2047,2052,2057,1194
1896,1711439575580968714,2053,2052,2052,2098,2056,2051,1195
1897,1711439575590965120,2057,2054,2054,2065,2049,2054,1194
1898,1711439575600961285,2052,2068,2064,2059,2056,2053,1196
1899,1711439575610971725,2052,2062,2062,2045,2057,2056,1198
1900,1711439575620984371,2053,2044,2055,2048,2059,2056,1196
1901,1711439575630962483,2058,2057,2052,2058,2058,2059,1194
1902,1711439575640965030,2051,2050,2052,2071,2059,2051,1198
1903,1711439575650952740,2061,2061,2053,2053,2057,2057,1197
1904,1711439575660964864,2056,2059,2059,2019,2048,2051,1195
1905,1711439575670965017,2054,2057,2056,2092,2053,2057,1196
1906,1711439575680963346,2056,2056,2056,2056,2058,2056,1196
1907,1711439575690976072,2056,2052,2052,2072,2053,2052,1196
1908,1711439575700959554,2052,2058,2056,2055,2060,2052,1195
1909,1711439575710959696,2056,2054,2052,2039,2053,2056,1195
1910,1711439575720999331,2056,2059,2061,2084,2066,2060,1194
1911,1711439575730963136,2057,2056,2060,2047,2050,2054,1196
1912,1711439575740959031,2056,2052,2064,2088,2063,2055,1194
1913,1711439575750969914,2056,2068,2064,2088,2050,2053,1194
1914,1711439575760969165,2053,2064,2058,2040,2052,2050,1195
1915,1711439575770965741,2056,2043,2052,2080,2058,2060,1196
1916,1711439575780990508,2054,2049,2051,2058,2054,2056,1196
1917,1711439575790957069,2062,2058,2060,2083,2056,2058,1194
1918,1711439575800966809,2055,2052,2052,2066,2053,2049,1195
1919,1711439575810964547,2059,2055,2054,2040,2052,2057,1197
1920,1711439575820966083,2056,2053,2056,2026,2051,2052,1194
1921,1711439575830967448,2057,2053,2052,2065,2052,2056,1197
1922,1711439575840980753,2054,2053,2047,1961,2045,2050,1195
1923,1711439575850969816,2056,2058,2056,2080,2051,2053,1196
1924,1711439575860969538,2059,2053,2060,2044,2064,2065,1197
1925,1711439575870964491,2057,2042,2050,2070,2056,2054,1196
1926,1711439575880971777,2056,2052,2052,2073,2056,2052,1196
1927,1711439575890952674,2058,2053,2058,2093,2058,2056,1197
1928,1711439575900954278,2058,2055,2053,2040,2052,2053,1193
1929,1711439575910949612,2056,2054,2056,2060,2050,2056,1194
1930,1711439575920965183,2054,2053,2052,2032,2049,2053,1195
1931,1711439575930973591,2057,2054,2052,2059,2045,2052,1196
1932,1711439575940962363,2054,2053,2053,2065,2049,2051,1197
1933,1711439575950958798,2057,2074,2072,2114,2056,2052,1195
1934,1711439575960959010,2056,2055,2050,1997,2050,2047,1195
1935,1711439575970961748,2055,2053,2052,2079,2056,2055,1194
1936,1711439575980975505,2058,2053,2056,2058,2061,2056,1194
1937,1711439575990967844,2052,2053,2046,2044,2049,2053,1196
1938,1711439576000969429,2055,2052,2052,2076,2058,2053,1195
1939,1711439576010967624,2060,2050,2053,2093,2054,2056,1197
1940,1711439576020966818,2057,2064,2060,2067,2054,2052,1197
1941,1711439576030977423,2058,2049,2057,2021,2057,2057,1197
1942,1711439576040953705,2054,2056,2062,2033,2045,2050,1195
1943,1711439576050969610,2056,2049,2054,1977,2048,2056,1197
1944,1711439576060963745,2054,2054,2056,2050,2064,2053,1199
1945,1711439576070997884,2055,2057,2060,2090,2050,2053,1196
1946,1711439576080969738,2056,2054,2058,2036,2057,2053,1196
1947,1711439576090969182,2056,2054,2058,2086,2056,2057,1192
1948,1711439576100963417,2054,2051,2058,2064,2065,2054,1192
1949,1711439576110963092,2054,2054,2056,2089,2052,2052,1197
1950,1711439576120963249,2053,2069,2068,2044,2051,2052,1196
1951,1711439576130969435,2058,2055,2057,1997,2056,2059,1196
1952,1711439576140959192,2056,2049,2047,2058,2048,2050,1196
1953,1711439576150958747,2052,2049,2050,2060,2054,2056,1196
1954,1711439576160970565,2054,2052,2056,2056,2058,2052,1194
1955,1711439576170971382,2059,2056,2056,2029,2052,2062,1197
1956,1711439576180970506,2053,2052,2053,2047,2043,2049,1197
1957,1711439576190970982,2054,2036,2044,2054,2041,2050,1198
1958,1711439576200969536,2057,2042,2052,2063,2050,2052,1195
1959,1711439576210966656,2057,2054,2057,2085,2058,2055,1197
1960,1711439576220964227,2060,2052,2060,2085,2060,2056,1197
1961,1711439576230967489,2052,2049,2049,2064,2050,2049,1196
1962,1711439576240973466,2050,2049,2048,2045,2041,2046,1194
1963,1711439576250967280,2056,2057,2058,2026,2056,2056,1195
1964,1711439576260988414,2053,2056,2052,2040,2059,2056,1195
1965,1711439576270967010,2055,2057,2059,2072,2055,2053,1197
1966,1711439576280963730,2050,2052,2052,2035,2050,2058,1196
1967,1711439576290952315,2053,2052,2053,2088,2056,2063,1196
1968,1711439576300956267,2051,2037,2052,2042,2058,2053,1193
1969,1711439576310969969,2053,2040,2047,2040,2054,2056,1196
1970,1711439576320964965,2053,2047,2051,2026,2050,2056,1194
1971,1711439576330969139,2057,2057,2056,2059,2054,2056,1195
1972,1711439576340953435,2052,2053,2056,2081,2051,2049,1194
1973,1711439576350969210,2058,2056,2055,1978,2051,2056,1196
1974,1711439576360963205,2053,2053,2054,2069,2058,2050,1196
1975,1711439576370964022,2052,2055,2051,2050,2046,2052,1195
1976,1711439576380967373,2056,2064,2058,2056,2058,2053,1196
1977,1711439576390987076,2053,2035,2047,2058,2053,2057,1196
1978,1711439576400967896,2052,2047,2056,2053,2053,2053,1196
1979,1711439576410972560,2054,2053,2068,2064,2056,2056,1197
1980,1711439576420967376,2053,2050,2052,2048,2058,2053,1193
1981,1711439576430984995,2055,2051,2053,2050,2042,2051,1197
1982,1711439576440967699,2054,2050,2053,2026,2064,2056,1195
1983,1711439576450952967,2056,2073,2064,2061,2054,2056,1197
1984,1711439576460969122,2057,2062,2052,2029,2044,2050,1197
1985,1711439576470968798,2058,2049,2048,2017,2046,2050,1196
1986,1711439576480971589,2054,2061,2047,2058,2054,2053,1194
1987,1711439576490963679,2058,2050,2047,2083,2054,2056,1196
1988,1711439576500970578,2057,2057,2053,2027,2058,2055,1195
1989,1711439576510968951,2056,2052,2055,2073,2065,2060,1193
1990,1711439576520971241,2054,2050,2053,2004,2053,2053,1198
1991,1711439576530982136,2057,2054,2049,2064,2060,2060,1196
1992,1711439576540963497,2055,2054,2053,2058,2059,2053,1194
1993,1711439576550990433,2054,2057,2056,2051,2056,2056,1196
1994,1711439576560958119,2054,2056,2061,1927,2044,2048,1196
1995,1711439576570968945,2057,2049,2052,2034,2053,2057,1195
1996,1711439576580968499,2056,2070,2066,2057,2058,2054,1194
1997,1711439576590959769,2056,2058,2052,2032,2060,2055,1197
1998,1711439576600965335,2055,2056,2060,2057,2058,2054,1197
1999,1711439576610969809,2057,2056,2054,2045,2061,2057,1195
2000,1711439576620970025,2056,2054,2052,2028,2053,2053,1197
2001,1711439576630969420,2058,2053,2056,2079,2052,2056,1196
2002,1711439576640953256,2057,2056,2056,2021,2057,2052,1198
2003,1711439576650957629,2056,2053,2054,2052,2057,2056,1194
2004,1711439576660963876,2056,2061,2056,2045,2048,2049,1197
2005,1711439576670961448,2058,2076,2068,2085,2056,2056,1195
2006,1711439576680967104,2060,2062,2056,2061,2049,2051,1196
2007,1711439576690962401,2057,2064,2056,2030,2050,2053,1196
2008,1711439576700963288,2056,2056,2059,2053,2053,2050,1194
2009,1711439576710974304,2056,2056,2054,2085,2056,2053,1197
2010,1711439576720963731,2056,2056,2056,2089,2056,2052,1194
2011,1711439576730961181,2057,2058,2053,2042,2048,2056,1195
2012,1711439576740966176,2058,2077,2067,2085,2061,2056,1194
2013,1711439576750977473,2062,2065,2047,2045,2052,2054,1196
2014,1711439576760969203,2053,2058,2056,2072,2053,2052,1197
2015,1711439576770971343,2052,2053,2052,2056,2054,2052,1195
2016,1711439576780968703,2052,2055,2063,2044,2053,2053,1199
2017,1711439576790971214,2053,2064,2057,2074,2052,2052,1195
2018,1711439576800964618,2056,2043,2054,2060,2063,2057,1197
2019,1711439576810970023,2052,2050,2052,2057,2052,2055,1198
2020,1711439576820966923,2056,2062,2072,2064,2060,2053,1197
2021,1711439576830976997,2056,2050,2049,2075,2053,2056,1194
2022,1711439576840973847,2057,2056,2058,2105,2061,2053,1196
2023,1711439576850964095,2057,2073,2064,2065,2050,2053,1194
2024,1711439576860964441,2058,2063,2060,2056,2047,2049,1195
2025,1711439576870964938,2058,2057,2057,2064,2056,2056,1197
2026,1711439576880972177,2054,2053,2054,2047,2056,2053,1194
2027,1711439576890973585,2056,2053,2056,2089,2057,2056,1195
2028,1711439576900969623,2056,2056,2053,1979,2049,2051,1195
2029,1711439576910961464,2058,2057,2065,2076,2052,2054,1193
2030,1711439576920963724,2057,2036,2049,2056,2061,2053,1195
2031,1711439576930987303,2053,2052,2049,2045,2049,2051,1197
2032,1711439576940961511,2056,2052,2057,2056,2063,2052,1196
2033,1711439576950968750,2055,2052,2054,2064,2053,2056,1196
2034,1711439576960966933,2056,2065,2061,2029,2048,2052,1196
2035,1711439576970969333,2060,2072,2063,2040,2052,2056,1196
2036,1711439576980997460,2056,2058,2052,2053,2059,2049,1195
2037,1711439576990958935,2055,2056,2056,2066,2055,2053,1197
2038,1711439577000966004,2055,2058,2057,2058,2061,2056,1198
2039,1711439577010966855,2057,2057,2058,2067,2052,2054,1197
2040,1711439577020963808,2056,2053,2060,2052,2061,2056,1197
2041,1711439577030985688,2058,2055,2056,2088,2057,2056,1197
2042,1711439577040964486,2060,2057,2062,2024,2053,2054,1199
2043,1711439577050968853,2054,2053,2056,2073,2061,2056,1194
2044,1711439577060968551,2053,2050,2054,2040,2056,2053,1195
2045,1711439577070966436,2053,2053,2056,2056,2053,2054,1195
2046,1711439577080971343,2053,2056,2053,1975,2047,2052,1197
2047,1711439577090968306,2056,2054,2053,2046,2048,2056,1197
2048,1711439577100961031,2056,2053,2052,2050,2056,2052,1194
2049,1711439577110966730,2056,2055,2056,2070,2062,2056,1195
2050,1711439577120965647,2056,2052,2060,2042,2059,2056,1196
2051,1711439577130969912,2054,2052,2050,2073,2040,2051,1195
2052,1711439577140988245,2055,2076,2069,2088,2066,2053,1197
2053,1711439577150961594,2060,2061,2051,2047,2056,2056,1196
2054,1711439577160970569,2056,2056,2053,2040,2053,2052,1196
2055,1711439577170967472,2055,2055,2052,2052,2050,2056,1195
2056,1711439577181012133,2056,2059,2060,2021,2059,2054,1195
2057,1711439577190960076,2058,2053,2052,2064,2059,2056,1196
2058,1711439577200971755,2057,2056,2060,2088,2056,2051,1197
2059,1711439577210965062,2056,2048,2046,2056,2042,2052,1196
2060,1711439577220964739,2057,2045,2052,2069,2062,2060,1196
2061,1711439577230964858,2054,2053,2054,2061,2055,2056,1197
2062,1711439577240968893,2052,2057,2059,2032,2057,2053,1196
2063,1711439577250966468,2056,2056,2052,2057,2047,2053,1196
2064,1711439577260963080,2056,2052,2054,2075,2055,2052,1196
2065,1711439577270965362,2058,2055,2056,2067,2057,2056,1196
2066,1711439577280966804,2054,2055,2055,2109,2062,2056,1194
2067,1711439577291032073,2057,2053,2052,2042,2051,2057,1196
2068,1711439577300959948,2054,2056,2053,2064,2056,2053,1193
2069,1711439577310973171,2064,2052,2051,2070,2056,2056,1196
2070,1711439577320967349,2056,2054,2056,1990,2044,2046,1194
2071,1711439577330971014,2059,2054,2053,2050,2056,2055,1194
2072,1711439577340972255,2057,2074,2069,2057,2054,2054,1196
2073,1711439577350955502,2064,2065,2061,2052,2056,2054,1196
2074,1711439577360966591,2057,2050,2051,1998,2043,2052,1198
2075,1711439577370966570,2055,2051,2056,2058,2056,2054,1197
2076,1711439577380967048,2056,2053,2052,2006,2051,2055,1198
2077,1711439577390960385,2056,2056,2054,2094,2052,2052,1196
2078,1711439577400969840,2054,2067,2068,2065,2055,2053,1197
2079,1711439577410965070,2056,2052,2051,2064,2053,2056,1196
2080,1711439577420964348,2056,2050,2053,2055,2059,2054,1195
2081,1711439577430969976,2056,2049,2046,2064,2054,2051,1195
2082,1711439577440959416,2053,2056,2057,2085,2060,2053,1196
2083,1711439577450956729,2053,2047,2052,2061,2045,2054,1196
2084,1711439577460965554,2056,2066,2057,2038,2056,2052,1197
2085,1711439577470964861,2058,2056,2057,2064,2056,2056,1194
2086,1711439577480967474,2057,2077,2065,2052,2065,2056,1193
2087,1711439577491005253,2056,2060,2049,2036,2046,2052,1194
2088,1711439577501004590,2051,2053,2057,2056,2049,2051,1193
2089,1711439577510964805,2059,2056,2053,2040,2052,2056,1195
2090,1711439577521001451,2052,2054,2054,2004,2055,2053,1194
2091,1711439577531014113,2057,2054,2052,2060,2056,2053,1195
2092,1711439577540961203,2056,2050,2068,2054,2057,2055,1195
2093,1711439577551006616,2056,2054,2058,2053,2052,2052,1194
2094,1711439577560999873,2053,2060,2053,2058,2063,2053,1194
2095,1711439577570997356,2054,2045,2040,2049,2045,2052,1194
2096,1711439577580995151,2057,2053,2056,2041,2056,2052,1195
2097,1711439577590995529,2059,2055,2059,2047,2053,2056,1196
2098,1711439577600963188,2056,2052,2058,2072,2057,2058,1198
2099,1711439577610995215,2055,2077,2064,2082,2048,2053,1198
2100,1711439577620993000,2061,2062,2055,2063,2058,2057,1196
2101,1711439577630995042,2055,2056,2056,2080,2053,2056,1195
2102,1711439577640989911,2055,2052,2052,2083,2060,2056,1194
2103,1711439577650988307,2057,2058,2049,2099,2049,2052,1197
2104,1711439577660990028,2058,2056,2060,2104,2058,2054,1197
2105,1711439577670992892,2057,2076,2061,2118,2050,2052,1195
2106,1711439577680988372,2059,2060,2056,2076,2052,2052,1196
2107,1711439577690989623,2056,2056,2058,2072,2059,2055,1195
2108,1711439577700985423,2056,2058,2057,2062,2058,2056,1193
2109,1711439577710985392,2056,2053,2056,2073,2053,2056,1194
2110,1711439577720984319,2056,2052,2063,2029,2060,2052,1193
2111,1711439577730983305,2053,2045,2052,2070,2056,2056,1196
2112,1711439577740981681,2056,2064,2056,2061,2052,2049,1196
2113,1711439577750975117,2057,2057,2060,2066,2058,2059,1196
2114,1711439577760979754,2053,2056,2053,2049,2057,2053,1197
2115,1711439577770980624,2057,2054,2049,2084,2059,2055,1196
2116,1711439577780977326,2056,2056,2054,2057,2063,2055,1194
2117,1711439577790976633,2057,2058,2064,2080,2061,2054,1198
2118,1711439577800972795,2056,2045,2053,2067,2054,2054,1196
2119,1711439577810976220,2056,2060,2054,2042,2050,2056,1196
2120,1711439577820975016,2053,2052,2055,2035,2051,2049,1197
2121,1711439577830991044,2056,2056,2057,2085,2052,2052,1198
2122,1711439577840978900,2056,2056,2056,2065,2056,2053,1197
2123,1711439577850976915,2056,2056,2056,2073,2042,2052,1197
2124,1711439577860973667,2055,2052,2053,2068,2061,2053,1195
2125,1711439577870976250,2056,2056,2052,2066,2050,2060,1195
2126,1711439577880973624,2057,2054,2056,2049,2057,2053,1196
2127,1711439577890975876,2056,2056,2052,2068,2057,2058,1196
2128,1711439577900975845,2056,2053,2056,2076,2061,2054,1193
2129,1711439577910976545,2056,2078,2080,2074,2057,2056,1195
2130,1711439577920977846,2054,2049,2059,2056,2063,2055,1193
2131,1711439577930977253,2056,2057,2056,2024,2049,2052,1197
2132,1711439577940977232,2054,2057,2058,2058,2058,2050,1194
2133,1711439577950974184,2056,2054,2056,2060,2053,2056,1197
2134,1711439577960973862,2057,2056,2053,2044,2056,2055,1197
2135,1711439577970975664,2056,2054,2053,2064,2055,2056,1197
2136,1711439577980974209,2056,2056,2053,2052,2058,2056,1197
2137,1711439577990976773,2056,2052,2051,2045,2045,2052,1194
2138,1711439578000972683,2056,2050,2053,2068,2052,2048,1198
2139,1711439578010973378,2058,2056,2056,2022,2044,2052,1198
2140,1711439578020974150,2053,2041,2052,2050,2053,2052,1196
2141,1711439578030973500,2056,2053,2056,2101,2063,2056,1198
2142,1711439578040977257,2056,2065,2056,2032,2050,2052,1197
2143,1711439578050967119,2054,2052,2056,2045,2046,2051,1195
2144,1711439578060976527,2054,2041,2050,2056,2055,2053,1193
2145,1711439578070974354,2057,2044,2050,2073,2052,2057,1197
2146,1711439578080975395,2053,2047,2057,2066,2064,2054,1196
2147,1711439578091041128,2056,2053,2056,2062,2046,2052,1197
2148,1711439578101049835,2054,2053,2056,2040,2046,2050,1193
2149,1711439578110974286,2055,2066,2056,2056,2054,2053,1196
2150,1711439578120974907,2053,2056,2060,2047,2063,2056,1195
2151,1711439578130981600,2056,2043,2053,2072,2053,2056,1196
2152,1711439578140978134,2052,2050,2053,2016,2054,2054,1197
2153,1711439578150971383,2056,2052,2056,2025,2043,2050,1196
2154,1711439578160974269,2056,2053,2055,2062,2046,2050,1195
2155,1711439578170974950,2057,2053,2053,2072,2056,2056,1195
2156,1711439578180974860,2054,2052,2056,2044,2056,2052,1196
2157,1711439578190974771,2056,2052,2049,2062,2047,2052,1197
2158,1711439578200974812,2056,2068,2046,2066,2061,2054,1196
2159,1711439578210978008,2056,2058,2054,2056,2052,2052,1196
2160,1711439578221007523,2056,2058,2062,2100,2064,2057,1197
2161,1711439578230974142,2057,2042,2048,2058,2052,2052,1196
2162,1711439578241024206,2056,2046,2049,2038,2064,2057,1197
2163,1711439578251022924,2052,2061,2049,2115,2064,2056,1196
2164,1711439578261005622,2054,2052,2052,2060,2052,2052,1195
2165,1711439578271848530,2057,2052,2052,2044,2049,2054,1196
2166,1711439578281014851,2054,2053,2062,2044,2053,2054,1195
2167,1711439578291013850,2056,2068,2054,2053,2050,2052,1196
2168,1711439578301013179,2057,2056,2052,2074,2056,2052,1194
2169,1711439578311003240,2055,2059,2042,2055,2050,2056,1195
2170,1711439578320998362,2054,2053,2056,2079,2058,2053,1196
2171,1711439578330997621,2057,2058,2056,2088,2057,2057,1197
2172,1711439578340993324,2051,2053,2058,2048,2059,2051,1193
2173,1711439578350996259,2057,2075,2066,2040,2045,2053,1194
2174,1711439578360994006,2058,2062,2054,2011,2052,2050,1195
2175,1711439578370984379,2056,2054,2058,2069,2052,2054,1196
2176,1711439578380987305,2056,2055,2055,2046,2064,2052,1195
2177,1711439578390987426,2058,2056,2056,2047,2056,2056,1194
2178,1711439578400986865,2056,2053,2054,2004,2056,2056,1198
2179,1711439578410989491,2056,2056,2052,2005,2052,2055,1197
2180,1711439578420988940,2056,2053,2052,2118,2056,2054,1195
2181,1711439578430987879,2060,2056,2060,2076,2058,2057,1196
2182,1711439578440985364,2054,2058,2056,2077,2056,2055,1196
2183,1711439578450987719,2053,2052,2050,2072,2050,2053,1194
2184,1711439578460984604,2052,2053,2052,2100,2062,2056,1193
2185,1711439578470982401,2057,2054,2054,2052,2056,2056,1196
2186,1711439578480979406,2055,2057,2052,2045,2056,2051,1196
2187,1711439578490976581,2058,2058,2056,2065,2048,2056,1195
2188,1711439578500973185,2053,2057,2059,2023,2059,2056,1195
2189,1711439578510975220,2056,2056,2057,2046,2060,2057,1196
2190,1711439578520984769,2057,2056,2059,2035,2060,2056,1195
2191,1711439578530980761,2054,2056,2058,2168,2056,2052,1196
2192,1711439578540984268,2058,2058,2064,2080,2064,2057,1197
2193,1711439578550974270,2056,2056,2057,2072,2057,2056,1197
2194,1711439578560968460,2056,2056,2056,2041,2053,2056,1194
2195,1711439578570965245,2053,2051,2048,1942,2050,2054,1197
2196,1711439578580979131,2055,2056,2060,2066,2068,2054,1195
2197,1711439578590962761,2052,2049,2054,2056,2052,2056,1195
2198,1711439578600964385,2053,2052,2051,2048,2052,2050,1196
2199,1711439578610964616,2055,2053,2052,2053,2042,2048,1195
2200,1711439578620967271,2051,2055,2057,2016,2047,2056,1196
2201,1711439578630969917,2056,2056,2057,2052,2047,2060,1196
2202,1711439578640967082,2053,2055,2056,2064,2060,2064,1196
2203,1711439578650968876,2056,2053,2055,2061,2054,2057,1194
2204,1711439578660970460,2057,2056,2057,2064,2052,2052,1196
2205,1711439578671008781,2050,2056,2054,2087,2046,1905,1194
2206,1711439578680967836,2056,2053,2058,2072,2074,2086,1194
2207,1711439578690963088,2045,2044,2050,2057,2051,2100,1196
2208,1711439578700962848,2052,2051,2051,1989,2044,2043,1192
2209,1711439578711004776,2053,2048,2045,2058,2061,2056,1195
2210,1711439578720969461,2054,2056,2056,2057,2044,2064,1194
2211,1711439578730999578,2057,2056,2054,2069,2062,2069,1195
2212,1711439578740968260,2053,2051,2049,2028,2050,2048,1197
