seq,time,data[0],data[1],data[2],data[3],data[4],data[5],data[6]
201,1711439746090249907,2047,2051,2044,2105,2040,2060,1195
202,1711439746100251664,2053,2063,2081,2044,2078,2052,1196
203,1711439746110255226,2052,2068,2061,2057,2028,2053,1199
204,1711439746120247935,2057,2058,2068,2054,2088,2055,1194
205,1711439746130260426,2056,2060,2069,2074,2020,2048,1196
206,1711439746140246360,2054,2050,2065,2037,2079,2053,1197
207,1711439746150249993,2073,2088,2080,2069,2036,2058,1194
208,1711439746160247672,2049,2020,2044,2045,2078,2052,1195
209,1711439746170245101,2068,2064,2055,2113,2040,2060,1198
210,1711439746180247430,2050,2052,2057,2041,2081,2051,1195
211,1711439746190249960,2056,2054,2046,2082,2012,2048,1199
212,1711439746200253592,2060,2047,2065,2027,2089,2055,1198
213,1711439746210255189,2082,2052,2067,2092,2039,2058,1197
214,1711439746220261387,2047,2032,2044,2042,2075,2048,1197
215,1711439746230242903,2064,2069,2064,2056,2033,2059,1197
216,1711439746240244430,2050,2057,2060,2104,2086,2052,1196
217,1711439746250216335,2059,2047,2047,2072,2031,2056,1195
218,1711439746260266605,2054,2058,2063,2064,2083,2052,1198
219,1711439746270244794,2053,2046,2048,2065,2029,2057,1196
220,1711439746280229125,2041,2046,2044,2061,2080,2050,1196
221,1711439746290274254,2044,2053,2044,2079,2046,2061,1198
222,1711439746300262384,2056,2078,2077,1999,2072,2050,1197
223,1711439746310244771,2068,2055,2047,2029,2026,2054,1196
224,1711439746320281593,2056,2051,2067,1950,2066,2049,1198
225,1711439746330250061,2056,2068,2052,2062,2027,2054,1197
226,1711439746340237900,2060,2048,2052,2052,2084,2053,1196
227,1711439746350248716,2052,2051,2052,2072,2028,2056,1194
228,1711439746360293485,2053,2056,2066,2056,2088,2054,1196
229,1711439746370243705,2056,2051,2054,2066,2040,2058,1195
230,1711439746380245513,2058,2048,2044,2048,2077,2052,1196
231,1711439746390248103,2056,2083,2052,2024,2022,2056,1196
232,1711439746400249851,2047,2040,2045,2063,2075,2056,1198
233,1711439746410249054,2056,2053,2048,2073,2037,2060,1197
234,1711439746420255802,2052,2041,2051,2000,2060,2042,1193
235,1711439746430289828,2057,2060,2073,2059,2025,2056,1196
236,1711439746440259138,2040,2047,2052,2067,2076,2051,1196
237,1711439746450296120,2053,2078,2059,2024,2028,2054,1197
238,1711439746460257433,2052,2054,2059,2052,2074,2026,1193
239,1711439746470241083,2056,2066,2053,2059,2022,2033,1194
240,1711439746480262613,2053,2045,2056,2091,2081,2052,1195
241,1711439746490258909,2060,2059,2052,2080,2033,2056,1196
242,1711439746500265016,2058,2075,2082,2096,2083,2051,1199
243,1711439746510272767,2067,2047,2049,2104,2032,2057,1197
244,1711439746520270907,2049,2057,2070,2034,2053,2043,1193
245,1711439746530269198,2056,2072,2058,1998,2020,2049,1196
246,1711439746540260294,2056,2049,2057,2045,2069,2049,1196
247,1711439746550242952,2058,2054,2047,2068,2020,2050,1196
248,1711439746560271846,2053,2048,2048,2042,2064,2045,1193
249,1711439746570275489,2059,2056,2065,2070,2041,2057,1195
250,1711439746580277047,2060,2064,2051,2035,2094,2068,1196
251,1711439746590273683,2057,2056,2054,2090,2045,2056,1196
252,1711439746600280993,2056,2053,2066,2056,2088,2052,1196
253,1711439746610280617,2056,2070,2061,2080,2037,2052,1196
254,1711439746620280411,2064,2048,2080,2056,2084,2047,1194
255,1711439746631154235,2052,2032,2038,2036,2020,2052,1196
256,1711439746640247661,2056,2049,2028,2064,2078,1989,1193
257,1711439746650255452,2057,2061,2068,2047,2046,2060,1198
258,1711439746660256678,2052,2045,2052,1994,2073,2047,1193
259,1711439746670307009,2050,2056,2068,2042,2021,2047,1194
260,1711439746680289126,2061,2056,2053,2057,2090,2047,1195
261,1711439746690248294,2056,2057,2055,2133,2025,2056,1196
262,1711439746700255293,2056,2047,2059,2069,2080,2047,1196
263,1711439746710255918,2063,2056,2056,2104,2033,2061,1197
264,1711439746720256033,2053,2083,2094,2069,2085,2052,1197
265,1711439746730279446,2058,2064,2076,2083,2021,2052,1196
266,1711439746740262555,2053,2040,2042,2078,2079,2050,1197
267,1711439746750254984,2054,2044,2056,2100,2038,2064,1195
268,1711439746760267645,2051,2048,2045,1952,2051,2043,1192
269,1711439746770273591,2062,2077,2089,2105,2009,2096,1196
270,1711439746780254456,2052,2038,2056,2055,2080,2036,1192
271,1711439746790250733,2057,2040,2042,1965,2007,2038,1192
272,1711439746800258404,2052,2053,2053,2004,2082,2041,1193
273,1711439746810256413,2054,2057,2045,2080,2050,2068,1196
274,1711439746820258452,2060,2072,2098,2163,2105,2047,1192
275,1711439746830270001,2048,2057,2037,1866,2011,2037,1193
276,1711439746840257679,2048,2046,2032,2036,2083,2057,1196
277,1711439746850254837,2050,2064,2055,2050,2060,2028,1194
278,1711439746860254862,2072,2060,2068,1959,2047,2054,1198
279,1711439746870253463,2061,2057,2055,2036,2013,2046,1193
280,1711439746880255101,2052,2089,2068,2068,2049,2017,1193
281,1711439746890256889,2054,2044,2051,2159,2042,2088,1196
282,1711439746900255611,2050,2058,2053,2015,2064,2041,1195
283,1711439746910259803,2052,2051,2045,2174,2015,2106,1196
284,1711439746920260059,2059,2055,2043,2105,2078,2025,1195
285,1711439746930264322,2059,2060,2074,2046,2010,2045,1192
286,1711439746940267333,2064,2062,2067,2059,2077,2026,1194
287,1711439746950261054,2057,2060,2058,2075,2033,2041,1190
288,1711439746960263924,2056,2077,2090,2062,2079,2051,1196
289,1711439746970266184,2057,2069,2067,2152,2049,2061,1198
290,1711439746980267119,2058,2046,2050,2102,2075,2058,1197
291,1711439746990267625,2052,2058,2066,2022,2028,2056,1194
292,1711439747000268612,2054,2054,2065,2069,2083,2053,1196
293,1711439747010270913,2050,2044,2050,2028,2014,2044,1194
294,1711439747020282974,2057,2046,2033,2045,2084,2054,1197
295,1711439747030276127,2053,2052,2041,2065,2047,2060,1195
296,1711439747040280885,2059,2061,2042,2126,2088,2044,1193
297,1711439747050281273,2056,2070,2064,2106,2038,2064,1197
298,1711439747060282273,2052,2045,2053,2037,2086,2056,1198
299,1711439747070284425,2056,2044,2041,2040,2044,2056,1197
300,1711439747080284663,2058,2045,2056,1975,2061,2051,1198
301,1711439747090285501,2058,2055,2059,2075,2030,2067,1197
302,1711439747100287532,2049,2021,2051,2110,2073,2052,1196
303,1711439747110288201,2063,2036,2050,2152,2065,2076,1196
304,1711439747120248144,2053,2050,2055,2041,2079,2063,1195
305,1711439747130293628,2061,2057,2056,2061,2049,2080,1196
306,1711439747140244512,2051,2072,2080,2097,2090,2050,1196
307,1711439747150251864,2057,2056,2053,2036,2020,2040,1192
308,1711439747160247251,2057,2060,2061,2052,2076,2051,1198
309,1711439747170251097,2060,2048,2050,2096,2043,2058,1196
310,1711439747180245092,2058,2077,2095,1920,2061,2053,1197
311,1711439747190244778,2053,2056,2064,2082,2037,2034,1195
312,1711439747200247492,2054,2044,2054,2073,2085,2049,1196
313,1711439747210248471,2056,2095,2093,2084,2026,1993,1193
314,1711439747220255693,2045,2045,2052,2041,2072,2026,1195
315,1711439747230257354,2054,2054,2046,2101,2046,2067,1198
316,1711439747240256830,2050,2051,2057,2088,2075,2049,1197
317,1711439747250244251,2072,2061,2059,2121,2043,2068,1197
318,1711439747260246734,2053,2053,2054,2040,2074,2078,1197
319,1711439747270247142,2053,2055,2057,2065,2049,2054,1194
320,1711439747280261228,2055,2076,2102,2051,2074,2056,1196
321,1711439747290258420,2068,2084,2070,2104,2044,2000,1194
322,1711439747300256232,2050,2040,2034,2012,2080,2056,1196
323,1711439747310253254,2053,2058,2077,2049,2030,2048,1197
324,1711439747320254674,2052,2049,2057,2067,2074,2046,1195
325,1711439747330338939,2056,2057,2044,2100,2040,2064,1199
326,1711439747340267987,2056,2091,2074,2052,2075,1996,1196
327,1711439747350249284,2055,2047,2047,1989,2029,2053,1197
328,1711439747360252187,2053,2053,2070,2043,2074,2048,1196
329,1711439747370252766,2053,2053,2046,2050,2024,2052,1197
330,1711439747380253525,2047,2044,2059,1993,2031,2037,1194
331,1711439747390249334,2048,2045,2035,2078,2033,2056,1195
332,1711439747400249201,2059,2049,2033,2047,2077,2055,1197
333,1711439747410246162,2056,2054,2052,2072,2021,2051,1197
334,1711439747420257182,2050,2038,2046,2029,2078,2078,1195
335,1711439747430255065,2063,2062,2060,2068,2044,2061,1196
336,1711439747440250823,2060,2080,2077,2036,2080,2047,1192
337,1711439747450263738,2052,2039,2045,2012,2037,2057,1197
338,1711439747460260448,2066,2052,2046,1937,2060,2046,1194
339,1711439747470280207,2056,2079,2067,2057,2030,2046,1194
340,1711439747480248477,2054,2056,2047,2042,2072,2045,1195
341,1711439747490254036,2061,2045,2044,2043,2031,2052,1194
342,1711439747500251027,2049,2046,2025,2030,2070,2053,1198
343,1711439747510246806,2059,2058,2031,2077,2031,2055,1195
344,1711439747520249298,2066,2068,2066,1979,2077,2064,1197
345,1711439747530243133,2057,2073,2068,2078,2041,2053,1198
346,1711439747540240595,2054,2056,2048,2060,2073,2053,1197
347,1711439747550245271,2056,2084,2061,2005,2049,2068,1195
348,1711439747560242593,2051,2049,2064,2068,2079,2050,1195
349,1711439747570245627,2049,2064,2041,2090,2045,2061,1196
350,1711439747580252639,2050,2044,2041,2064,2078,2047,1194
351,1711439747590244069,2066,2049,2034,2055,2031,2005,1195
352,1711439747600244647,2060,2057,2074,2080,2083,2061,1198
353,1711439747610244142,2046,2074,2072,2112,2040,2066,1198
354,1711439747620243980,2056,2049,2061,2060,2065,2040,1194
355,1711439747630264981,2057,2068,2064,2062,2036,2061,1196
356,1711439747640246670,2056,2060,2067,2042,2072,2049,1196
357,1711439747650252330,2066,2100,2067,2080,2038,2058,1198
358,1711439747660248940,2047,2049,2053,2056,2072,2054,1194
359,1711439747670256984,2049,2051,2041,2068,2009,2030,1193
360,1711439747680274437,2052,2056,2066,2117,2092,2062,1197
361,1711439747690241335,2052,2040,2035,2061,2056,2060,1197
362,1711439747700252035,2050,2053,2057,1977,2069,2052,1197
363,1711439747710250179,2056,2021,2033,1901,1997,2061,1198
364,1711439747720253062,2069,2049,2050,2042,2080,2069,1196
365,1711439747730254463,2054,2070,2062,2146,2025,2045,1193
366,1711439747740256083,2057,2052,2053,2063,2070,2046,1195
367,1711439747750261832,2048,2049,2046,2068,2031,2049,1195
368,1711439747760263042,2050,2036,2071,2031,2066,2045,1195
369,1711439747770248258,2059,2055,2059,2032,2024,2018,1193
370,1711439747780247324,2051,2042,2060,2044,2072,2049,1198
371,1711439747790248403,2054,2040,2057,1991,2027,2054,1197
372,1711439747800245174,2056,2036,2052,1981,2038,2029,1194
373,1711439747810238797,2057,2057,2039,2045,2030,2049,1197
374,1711439747820252253,2031,2038,2042,2037,2069,2060,1195
375,1711439747830245977,2047,2047,2047,2054,2026,2052,1198
376,1711439747840249903,2058,2074,2060,2033,2068,2060,1197
377,1711439747850249519,2056,2056,2051,2068,2036,2058,1198
378,1711439747860249306,2058,2053,2053,2080,2089,2056,1198
379,1711439747870262652,2056,2059,2053,1956,2024,2058,1198
380,1711439747880252707,2049,2064,2080,2088,2082,2052,1198
381,1711439747890246692,2055,2069,2066,2167,2045,2051,1196
382,1711439747900248654,2052,2050,2069,2034,2073,2044,1194
383,1711439747910248481,2061,2077,2076,2056,2026,2056,1195
384,1711439747920271617,2056,2040,2040,2039,2072,2052,1196
385,1711439747930252885,2057,2037,2056,2064,2034,2056,1196
386,1711439747940259045,2058,2092,2089,2058,2075,2050,1196
387,1711439747950258791,2057,2069,2056,2058,2034,2056,1194
388,1711439747960261244,2049,2057,2071,2006,2077,2056,1197
389,1711439747970243444,2059,2042,2040,2071,2047,2062,1195
390,1711439747980235124,2056,2047,2052,1969,2069,2051,1198
391,1711439747990245112,2062,2077,2074,2074,2041,2058,1197
392,1711439748000244689,2050,2048,2059,2077,2089,2056,1195
393,1711439748010242682,2050,2048,2072,2040,2031,2052,1197
394,1711439748020244967,2052,2056,2061,2050,2077,2051,1196
395,1711439748030259368,2058,2061,2074,2091,2028,2052,1197
396,1711439748040246531,2072,2088,2065,2040,2088,2051,1198
397,1711439748050244207,2058,2049,2049,2112,2050,2069,1199
398,1711439748060248857,2050,2029,2040,2047,2060,2044,1194
399,1711439748070245179,2057,2031,2024,2057,2016,2051,1197
400,1711439748080241161,2052,2034,2045,2044,2072,2049,1195
401,1711439748090247755,2062,2081,2089,2089,2040,2059,1197
402,1711439748100249599,2064,2057,2104,2106,2088,2066,1197
403,1711439748110246964,2066,2061,2038,2124,2029,2057,1198
404,1711439748120247195,2052,2052,2049,2051,2088,2056,1196
405,1711439748130247405,2052,2070,2044,1970,2008,2051,1196
406,1711439748140245582,2056,2060,2065,2071,2088,2056,1197
407,1711439748150243728,2062,2062,2083,2113,2037,2056,1192
408,1711439748160265875,2065,2068,2092,2050,2070,2054,1196
409,1711439748170254470,2056,2056,2040,2058,2037,2056,1196
410,1711439748180258228,2058,2085,2085,2040,2081,2057,1196
411,1711439748190238236,2048,2012,2032,1981,2030,2060,1196
412,1711439748200243718,2079,2058,2050,2047,2080,2052,1195
413,1711439748210245873,2051,2035,2047,2106,2043,2061,1194
414,1711439748220250082,2064,2093,2106,2040,2078,2054,1197
415,1711439748230253018,2046,2035,2036,2065,2026,2050,1195
416,1711439748240256747,2056,2069,2071,2052,2081,2053,1197
417,1711439748250240793,2052,2033,2026,2058,2032,2058,1197
418,1711439748260245293,2056,2043,2029,2048,2072,2051,1197
419,1711439748270245935,2066,2074,2067,2100,2035,2073,1196
420,1711439748280240784,2067,2063,2048,2028,2081,2065,1194
421,1711439748290246727,2056,2060,2046,2057,2022,2060,1197
422,1711439748300246607,2056,2048,2043,2016,2084,2055,1195
423,1711439748310245765,2050,2042,2032,2015,2024,2051,1197
424,1711439748320244803,2065,2086,2064,2058,2069,2053,1195
425,1711439748330255025,2056,2072,2072,2075,2043,2052,1197
426,1711439748340238780,2052,2051,2060,2070,2069,2048,1195
427,1711439748350249052,2057,2068,2072,2072,2032,2059,1195
428,1711439748360253161,2060,2056,2056,2076,2073,2044,1193
429,1711439748370247980,2060,2073,2053,2071,2035,2056,1195
430,1711439748380252480,2042,2045,2056,2022,2080,2052,1196
431,1711439748390245465,2058,2041,2042,2088,2036,2058,1195
432,1711439748400241457,2048,2045,2056,2104,2082,2052,1197
433,1711439748410247230,2056,2064,2039,2044,2017,2044,1193
434,1711439748420245737,2052,2039,2050,2046,2083,2056,1195
435,1711439748430230475,2068,2043,2036,2052,2031,2061,1196
436,1711439748440247331,2064,2071,2044,2069,2086,2056,1195
437,1711439748450251590,2057,2046,2040,2154,2039,2055,1197
438,1711439748460237751,2057,2029,2041,2101,2081,2052,1198
439,1711439748470271683,2066,2065,2058,2103,2041,2058,1197
440,1711439748480256260,2053,2068,2100,2061,2080,2044,1193
441,1711439748490244155,2050,2043,2040,2101,2048,2064,1196
442,1711439748500245769,2066,2076,2080,2070,2083,2056,1196
443,1711439748510246169,2047,2085,2047,2046,2031,2057,1199
444,1711439748520248614,2047,2068,2057,2122,2091,2053,1197
445,1711439748530241058,2052,2048,2059,2075,2021,2052,1197
446,1711439748540251120,2054,2047,2074,2072,2105,2059,1197
447,1711439748550272415,2046,2002,2012,2058,2024,2053,1194
448,1711439748560248294,2055,2059,2057,2065,2078,2049,1195
449,1711439748570250449,2077,2074,2089,2070,2037,2060,1194
450,1711439748580263948,2040,2057,2044,2037,2061,2034,1193
451,1711439748590236420,2057,2060,2056,2034,2036,2059,1196
452,1711439748600247664,2052,2058,2056,2041,2066,2047,1192
453,1711439748610247674,2058,2095,2096,2053,2020,2052,1196
454,1711439748620249819,2052,2088,2099,2002,2070,2054,1196
455,1711439748630252224,2051,2056,2045,1949,2017,2054,1196
456,1711439748640244318,2058,2028,2038,2081,2074,2047,1194
457,1711439748650249960,2064,2074,2072,2180,2045,2058,1199
458,1711439748660250251,2054,2064,2080,2077,2089,2063,1198
459,1711439748670255693,2060,2102,2064,1980,2029,2067,1197
460,1711439748680252756,2047,2033,2045,2050,2074,2056,1198
461,1711439748690249369,2047,2018,2012,2152,2036,2058,1196
462,1711439748700248487,2076,2080,2104,2080,2073,2047,1196
463,1711439748710248417,2056,2050,2067,2102,2038,2061,1197
464,1711439748720250211,2057,2047,2049,2030,2057,2044,1195
465,1711439748730254200,2053,2047,2068,2093,2037,2056,1196
466,1711439748740260724,2062,2061,2053,2040,2077,2052,1197
467,1711439748750233717,2059,2053,2052,2033,2029,2054,1196
468,1711439748760237756,2052,2026,2029,2054,2060,2044,1193
469,1711439748770236905,2066,2084,2086,2076,2030,2056,1198
470,1711439748780238478,2063,2031,2034,2068,2092,2056,1196
471,1711439748790239120,2054,2020,2029,2104,2032,2058,1197
472,1711439748800235923,2060,2070,2057,2026,2087,2056,1195
473,1711439748810248360,2062,2086,2082,2060,2024,2054,1196
474,1711439748820246055,2045,2022,2028,2107,2098,2052,1197
475,1711439748830249222,2056,2032,2056,2090,2032,2054,1196
476,1711439748840249082,2060,2056,2053,2037,2095,2052,1194
477,1711439748850252889,2059,2065,2043,2012,2017,2056,1197
478,1711439748860248821,2068,2054,2053,2019,2081,2053,1195
479,1711439748870245855,2055,2049,2034,2024,2024,2057,1197
480,1711439748880259323,2061,2056,2064,2112,2099,2056,1198
481,1711439748890281049,2069,2084,2070,2116,2030,2059,1198
482,1711439748900244633,2065,2047,2066,2081,2092,2053,1195
483,1711439748910244272,2051,2065,2073,2098,2040,2061,1195
484,1711439748920246577,2061,2017,2058,2023,2084,2056,1194
485,1711439748930250636,2067,2082,2100,2068,2034,2059,1193
486,1711439748940257381,2040,2033,2046,2054,2082,2052,1197
487,1711439748950251338,2056,2032,2047,2073,2027,2061,1195
488,1711439748960255477,2062,2029,2088,2043,2090,2057,1196
489,1711439748970244635,2046,1969,2031,2072,2031,2061,1194
490,1711439748980276903,2069,2018,2059,1969,2078,2052,1198
491,1711439748990242501,2042,2019,2013,2030,2026,2053,1197
492,1711439749000250337,2064,2073,2040,2010,2086,2052,1197
493,1711439749010247062,2064,2074,2061,2066,2029,2057,1197
494,1711439749020252697,2059,2082,2069,2100,2080,2051,1196
495,1711439749030252810,2036,2021,2009,2060,2020,2050,1197
496,1711439749040235567,2045,2040,2056,1963,2064,2049,1197
497,1711439749050249339,2058,2060,2034,2025,2014,2051,1196
498,1711439749060247047,2044,2039,2038,2088,2072,2047,1195
499,1711439749070254767,2054,2064,2066,2132,2032,2059,1198
500,1711439749080250110,2056,2062,2054,2053,2083,2056,1198
501,1711439749090240572,2056,2052,2058,2061,2032,2055,1197
502,1711439749100254554,2065,2079,2077,2076,2091,2056,1197
503,1711439749110246180,2051,2038,2020,2066,2036,2057,1197
504,1711439749120248437,2059,2109,2065,2054,2081,2052,1197
505,1711439749130249092,2058,2049,2036,1996,2033,2060,1196
506,1711439749140241429,2050,2054,2062,2025,2076,2051,1194
507,1711439749150241001,2056,2093,2098,2086,2038,2058,1195
508,1711439749160243138,2056,2038,2027,2058,2081,2053,1195
509,1711439749170243051,2056,2074,2072,2074,2032,2056,1196
510,1711439749180248075,2050,2061,2066,2004,2072,2048,1196
511,1711439749190246635,2046,2036,2047,2058,2028,2053,1194
512,1711439749200249023,2060,2112,2118,2050,2076,2049,1194
513,1711439749210248284,2066,2072,2084,2072,2037,2059,1194
514,1711439749220250492,2052,2032,2040,2030,2080,2051,1195
515,1711439749230266940,2050,2030,2018,2066,2031,2056,1195
516,1711439749240262113,2056,2050,2044,2086,2088,2053,1195
517,1711439749250261474,2072,2073,2087,2100,2047,2058,1195
518,1711439749260267059,2054,2054,2056,2062,2084,2053,1196
519,1711439749270268645,2056,2056,2057,2114,2035,2061,1197
520,1711439749280282528,2056,2059,2060,2056,2081,2054,1197
521,1711439749290245753,2062,2070,2057,2090,2028,2058,1196
522,1711439749300252841,2061,2068,2088,2078,2092,2056,1196
523,1711439749310250309,2063,2033,2021,2164,2022,2052,1197
524,1711439749320250843,2070,2056,2030,2082,2072,2049,1197
525,1711439749330249874,2058,2064,2056,2055,2026,2052,1196
526,1711439749340247963,2054,2080,2097,2024,2080,2050,1197
527,1711439749350249339,2061,2051,2047,2076,2021,2052,1195
528,1711439749360245554,2060,2081,2058,2058,2087,2052,1197
529,1711439749370248483,2048,2049,2026,2040,2022,2053,1196
530,1711439749380251092,2056,2037,2045,2060,2076,2047,1192
531,1711439749390246615,2050,2054,2056,1956,2022,2053,1197
532,1711439749400244584,2056,2056,2088,2055,2086,2052,1197
533,1711439749410245108,2069,2081,2066,2072,2038,2060,1199
534,1711439749420243318,2057,2050,2051,2052,2080,2052,1196
535,1711439749430307546,2058,2084,2065,2067,2037,2058,1199
536,1711439749440247222,2068,2045,2008,2016,2045,2029,1193
537,1711439749450257577,2062,2048,2050,2194,2034,2059,1197
538,1711439749460256087,2048,2048,2053,2043,2079,2049,1197
539,1711439749470261351,2064,2067,2067,2060,2029,2058,1197
540,1711439749480264340,2061,2085,2079,2044,2075,2049,1197
541,1711439749490259202,2044,2036,2053,2089,2037,2061,1198
542,1711439749500248433,2045,2042,2044,2021,2067,2047,1193
543,1711439749510252544,2056,2053,2050,2067,2012,2051,1197
544,1711439749520249471,2062,2091,2052,2060,2088,2055,1198
545,1711439749530262431,2066,2036,2033,2057,2036,2060,1195
546,1711439749540243384,2038,2044,2050,2014,2057,2044,1193
547,1711439749550249230,2047,2053,2050,2091,2026,2056,1194
548,1711439749560244082,2056,2059,2068,2062,2084,2056,1195
549,1711439749570251260,2057,2056,2056,2154,2045,2058,1195
550,1711439749580251473,2052,2052,2057,2063,2088,2053,1195
551,1711439749590256427,2063,2042,2045,2077,2031,2055,1195
552,1711439749600246910,2068,2088,2095,2132,2090,2052,1195
553,1711439749610250801,2056,2046,2044,2037,2020,2051,1197
554,1711439749620250153,2051,2031,2024,2067,2079,2049,1195
555,1711439749630264135,2064,2122,2112,2094,2029,2057,1195
556,1711439749640249918,2045,2027,2033,2021,2058,2040,1193
557,1711439749650256766,2049,2042,2029,1994,2013,2049,1197
558,1711439749660252400,2060,2060,2050,2001,2072,2050,1196
559,1711439749670250669,2054,2028,2032,2094,2037,2054,1198
560,1711439749680246794,2060,2067,2024,2028,2087,2055,1196
561,1711439749690238169,2065,2070,2084,2101,2033,2060,1195
562,1711439749700252732,2051,2055,2056,2044,2075,2049,1195
563,1711439749710251323,2067,2062,2040,2099,2041,2058,1195
564,1711439749720254262,2050,2041,2072,2072,2077,2049,1196
565,1711439749731003453,2068,2052,2050,2076,2033,2060,1197
566,1711439749740270352,2057,2051,2060,2042,2083,2053,1196
567,1711439749750257658,2069,2086,2098,2117,2044,2059,1195
568,1711439749760261048,2049,2041,2032,2007,2073,2053,1196
569,1711439749770263005,2056,2054,2057,2078,2025,2058,1196
570,1711439749780317032,2057,2082,2077,2051,2081,2050,1196
571,1711439749790282492,2053,2059,2074,2052,2037,2060,1195
572,1711439749800256581,2046,2010,2024,1992,2086,2056,1197
573,1711439749810259881,2062,2046,2038,2131,2035,2057,1197
574,1711439749820260916,2060,2051,2053,2065,2080,2053,1193
575,1711439749830264366,2041,2052,2062,2051,2020,2047,1193
576,1711439749840268929,2047,2057,2066,2033,2056,2044,1194
577,1711439749850256466,2052,2036,2030,2079,2031,2052,1197
578,1711439749860247901,2062,2092,2061,2042,2079,2052,1198
579,1711439749870245830,2056,2046,2046,2062,2036,2056,1197
580,1711439749880298964,2055,2045,2042,2061,2083,2052,1195
581,1711439749890251578,2058,2071,2068,2063,2027,2058,1198
582,1711439749900258155,2063,2054,2062,1995,2068,2049,1196
583,1711439749910250542,2056,2054,2056,2049,2038,2058,1196
584,1711439749920257810,2053,2051,2054,2112,2089,2054,1197
585,1711439749930265659,2064,2078,2064,2073,2037,2064,1196
586,1711439749940266915,2052,2045,2069,2060,2081,2050,1196
587,1711439749950261336,2060,2058,2072,2068,2031,2057,1196
588,1711439749960275289,2053,2078,2080,2050,2081,2053,1196
589,1711439749970269089,2056,2037,2045,2081,2029,2056,1196
590,1711439749980284514,2051,2060,2052,2044,2069,2050,1196
591,1711439749990273514,2052,2040,2050,2068,2033,2054,1196
592,1711439750000257123,2063,2097,2152,2066,2077,2050,1196
593,1711439750010254082,2043,2033,2026,2073,2022,2057,1198
594,1711439750020259028,2036,2004,2034,2048,2089,2057,1197
595,1711439750030282814,2063,2054,2052,2046,2024,2053,1198
596,1711439750040279232,2054,2070,2075,2084,2071,2045,1195
597,1711439750050255158,2053,2058,2038,2101,2030,2052,1197
598,1711439750060258410,2043,2040,2051,2090,2088,2053,1199
599,1711439750070255490,2082,2067,2036,2046,2036,2062,1197
600,1711439750080275638,2056,2073,2077,2054,2086,2053,1197
601,1711439750090269000,2053,2064,2063,2062,2020,2052,1196
602,1711439750100267904,2037,2036,2056,2040,2076,2047,1194
603,1711439750110267258,2044,2056,2056,2080,2033,2057,1195
604,1711439750120253775,2054,2064,2059,2056,2084,2052,1195
605,1711439750130254733,2057,2054,2038,2087,2030,2055,1196
606,1711439750140275363,2059,2050,2052,2054,2084,2049,1196
607,1711439750150250426,2059,2061,2065,2073,2036,2061,1196
608,1711439750160274953,2060,2052,2047,2029,2083,2057,1194
609,1711439750170257242,2066,2058,2043,2052,2027,2055,1195
610,1711439750180257909,2053,2057,2036,2027,2077,2051,1196
611,1711439750190286615,2051,2078,2062,2060,2028,2055,1195
612,1711439750200281931,2072,2041,2056,2053,2085,2054,1196
613,1711439750210267677,2060,2058,2052,2062,2038,2058,1197
614,1711439750220258343,2034,2077,2047,2046,2075,2051,1197
615,1711439750230257317,2063,2027,2024,2053,2021,2052,1198
616,1711439750240274930,2045,2046,2093,2064,2075,2047,1191
617,1711439750250260074,2042,2041,2028,1991,2032,2057,1196
618,1711439750260266323,2053,2052,2064,2108,2069,2049,1197
619,1711439750270265568,2048,2051,2055,2077,2033,2056,1197
620,1711439750280268810,2043,2052,2093,2049,2080,2056,1195
621,1711439750290277995,2051,2033,2032,2077,2028,2051,1196
622,1711439750300255835,2050,2048,2052,1992,2077,2047,1197
623,1711439750310246741,2062,2066,2074,2086,2024,2054,1198
624,1711439750320258762,2054,2072,2069,2066,2086,2054,1195
625,1711439750330263899,2057,2050,2050,2077,2032,2054,1196
626,1711439750340246989,2047,2068,2060,2045,2079,2052,1196
627,1711439750350251956,2064,2076,2084,2065,2018,2050,1195
628,1711439750360261051,2044,2024,2048,2046,2077,2051,1193
629,1711439750370257118,2062,2040,2031,2048,2028,2059,1196
630,1711439750380258046,2063,2056,2064,2076,2082,2054,1196
631,1711439750390260477,2089,2056,2056,2088,2029,2059,1193
632,1711439750400248517,2053,2033,2052,2036,2080,2053,1196
633,1711439750410251339,2080,2078,2070,2070,2033,2059,1196
634,1711439750420251245,2042,2044,2058,2024,2077,2054,1198
635,1711439750430257935,2054,2035,2046,2063,1994,2041,1192
636,1711439750440280919,2034,2069,2060,2085,2088,2052,1197
637,1711439750450252094,2056,2061,2053,2064,2025,2056,1197
638,1711439750460262622,2056,2060,2058,2029,2072,2053,1196
639,1711439750470266085,2056,2056,2079,2056,2026,2056,1197
640,1711439750480265590,2062,2069,2061,2042,2078,2052,1196
641,1711439750490283754,2061,2068,2054,2074,2033,2056,1198
642,1711439750500266133,2041,2024,2025,2022,2075,2047,1195
643,1711439750510241577,2046,2044,2041,2100,2035,2056,1197
644,1711439750520257005,2069,2072,2089,2059,2079,2052,1196
645,1711439750530279448,2045,2002,2029,2046,2025,2057,1197
646,1711439750540260825,2046,2072,2093,2052,2080,2053,1196
647,1711439750550246220,2053,2022,2029,2037,2021,2051,1196
648,1711439750560260847,2056,2056,2061,2072,2076,2049,1194
649,1711439750570253146,2054,2053,2052,2053,2031,2057,1194
650,1711439750580260698,2052,2072,2036,2042,2077,2052,1195
651,1711439750590262858,2058,2045,2085,2117,2024,2054,1197
652,1711439750600257232,2056,2074,2070,2025,2068,2045,1192
653,1711439750610246846,2041,2034,2032,2083,2030,2058,1196
654,1711439750620256102,2066,2058,2037,2121,2073,2052,1197
655,1711439750630291803,2052,2033,2047,2084,2034,2057,1197
656,1711439750640274322,2054,2050,2050,2084,2080,2046,1194
657,1711439750650259035,2056,2028,2016,2096,2030,2058,1197
658,1711439750660264873,2072,2060,2034,2050,2073,2051,1196
659,1711439750670251210,2054,2037,2035,2066,2032,2058,1196
660,1711439750680278544,2048,2046,2065,2011,2081,2053,1194
661,1711439750690258928,2052,2053,2076,2061,2026,2056,1197
662,1711439750700259806,2056,2049,2067,2002,2059,2044,1192
663,1711439750710254230,2069,2066,2044,2070,2031,2059,1197
664,1711439750720256932,2056,2066,2043,2082,2084,2056,1197
665,1711439750730256967,2056,2053,2066,2096,2021,2051,1196
666,1711439750740280403,2041,2064,2057,2172,2091,2053,1197
667,1711439750750270137,2052,2038,2036,2052,2032,2050,1196
668,1711439750760258117,2054,2054,2062,2063,2080,2053,1196
669,1711439750770261039,2064,2084,2065,2072,2026,2056,1197
670,1711439750780278332,2049,2064,2080,2055,2085,2054,1198
671,1711439750790251260,2086,2077,2069,2066,2031,2057,1195
672,1711439750800247578,2051,2045,2052,2064,2076,2046,1195
673,1711439750810257375,2069,2057,2038,2016,2028,2058,1196
674,1711439750820256769,2050,2047,2042,2090,2088,2056,1199
675,1711439750830256174,2061,2049,2069,2084,2035,2056,1199
676,1711439750840229574,2049,2018,2040,2050,2084,2054,1197
677,1711439750850234580,2068,2054,2068,2060,2041,2061,1197
678,1711439750860254117,2057,2105,2089,2025,2072,2053,1200
679,1711439750870250435,2067,2053,2052,2054,2039,2059,1198
680,1711439750880253207,2045,2032,2047,2069,2097,2057,1198
681,1711439750890269888,2070,2064,2056,2031,2031,2060,1198
682,1711439750900256136,2060,2071,2056,2050,2082,2054,1195
683,1711439750910256713,2050,2020,2034,2049,2029,2056,1198
684,1711439750920257811,2065,2054,2070,2074,2088,2055,1196
685,1711439750930261054,2057,2033,2043,2028,2025,2054,1199
686,1711439750940254566,2056,2053,2059,2030,2081,2052,1198
687,1711439750950252808,2047,2041,2042,2032,2033,2056,1194
688,1711439750960260179,2054,2072,2046,2043,2082,2054,1197
689,1711439750970266539,2054,2047,2055,2045,2031,2053,1195
690,1711439750980266574,2052,2018,2033,2018,2074,2047,1193
691,1711439750990250156,2069,2066,2070,2021,2024,2058,1195
692,1711439751000255092,2065,2077,2070,2109,2090,2054,1197
693,1711439751010260319,2058,2047,2041,2102,2038,2058,1196
694,1711439751020297286,2052,2050,2052,2072,2084,2050,1197
695,1711439751030258122,2061,2051,2048,2082,2041,2059,1197
696,1711439751040252929,2057,2053,2069,2072,2088,2056,1197
697,1711439751050255182,2056,2044,2042,2032,2028,2054,1197
698,1711439751060258287,2060,2085,2076,2011,2112,2061,1199
699,1711439751070257584,2058,2045,2047,2026,2029,2054,1197
700,1711439751080290652,2047,2045,2046,2065,2072,2052,1199
701,1711439751090258994,2062,2072,2064,2073,2029,2060,1196
702,1711439751100263322,2075,2058,2056,1977,2076,2052,1197
703,1711439751110259983,2064,2068,2076,2161,2044,2057,1198
704,1711439751120259381,2048,2026,2031,2054,2076,2049,1198
705,1711439751130283390,2060,2067,2069,2080,2038,2059,1198
706,1711439751140266092,2061,2074,2063,2017,2088,2056,1197
707,1711439751150246389,2056,2075,2065,2088,2030,2056,1196
708,1711439751160259145,2044,2036,2034,2049,2064,2044,1192
709,1711439751170257450,2065,2050,2043,2041,2025,2056,1197
710,1711439751180262750,2067,2093,2085,2051,2086,2054,1196
711,1711439751190280526,2060,2064,2065,2051,2021,2053,1198
712,1711439751200250431,2050,2052,2064,2077,2081,2049,1195
713,1711439751210243956,2056,2060,2039,2080,2024,2054,1195
714,1711439751220246841,2047,2044,2049,2067,2072,2047,1194
715,1711439751230249224,2074,2047,2054,1985,2020,2057,1197
716,1711439751240291662,2064,2099,2092,2056,2084,2051,1196
717,1711439751250252228,2047,2020,2055,2100,2038,2053,1196
718,1711439751260256876,2047,2046,2052,2041,2086,2050,1198
719,1711439751270259230,2046,2045,2052,2076,2018,2051,1198
720,1711439751280242643,2056,2053,2084,2005,2086,2050,1196
721,1711439751290265300,2043,2042,2037,2076,2017,2054,1196
722,1711439751300276402,2050,2061,2073,2093,2097,2056,1199
723,1711439751310243992,2065,2056,2056,2032,2019,2054,1195
724,1711439751320210801,2056,2041,2045,2043,2092,2053,1196
725,1711439751330236363,2064,2072,2066,2077,2029,2058,1195
726,1711439751340251794,2050,2036,2037,1970,2073,2050,1196
727,1711439751350236721,2076,2065,2068,2090,2038,2060,1195
728,1711439751360258035,2050,2053,2052,2008,2073,2052,1197
729,1711439751370246800,2055,2049,2046,1972,2002,2048,1196
730,1711439751380247430,2059,2071,2074,2058,2088,2056,1197
731,1711439751390255966,2065,2076,2055,2077,2031,2056,1196
732,1711439751400245202,2054,2060,2059,2124,2092,2056,1197
733,1711439751410248728,2056,2057,2041,2061,2027,2054,1197
734,1711439751420247184,2052,2049,2088,2064,2089,2054,1197
735,1711439751430246240,2056,2049,2046,2065,2020,2052,1198
736,1711439751440251750,2066,2076,2056,2058,2093,2056,1196
737,1711439751450266550,2078,2102,2076,2050,2032,2060,1197
738,1711439751460244903,2048,2036,2056,2004,2080,2053,1196
739,1711439751470253089,2053,2065,2056,2096,2034,2057,1198
740,1711439751480257577,2057,2059,2063,2076,2093,2056,1197
741,1711439751490255772,2058,2058,2050,2085,2034,2058,1196
742,1711439751500266633,2062,2059,2062,2042,2074,2046,1195
743,1711439751510248444,2062,2077,2061,2056,2016,2053,1199
744,1711439751520243302,2064,2040,2036,2069,2083,2048,1196
745,1711439751530243571,2051,2037,2034,2097,2027,2056,1197
746,1711439751540264011,2056,2058,2044,2044,2078,2048,1196
747,1711439751550250942,2050,2042,2040,2065,2025,2053,1196
748,1711439751560259589,2064,2071,2076,2046,2096,2056,1196
749,1711439751570251571,2056,2088,2084,2022,2005,2051,1195
750,1711439751580247170,2025,2030,2041,2074,2091,2050,1195
751,1711439751590244463,2045,2044,2042,2085,2030,2053,1196
752,1711439751600246115,2054,2058,2079,2060,2082,2050,1195
753,1711439751610255073,2058,2056,2070,2090,2029,2058,1195
754,1711439751620242044,2054,2059,2065,2042,2075,2052,1196
755,1711439751630252164,2057,2057,2053,2034,2028,2057,1194
756,1711439751640271914,2060,2070,2060,2060,2091,2049,1196
757,1711439751650255408,2064,2033,2044,2019,2028,2060,1198
758,1711439751660248211,2041,2064,2053,2059,2075,2049,1198
759,1711439751670248992,2056,2044,2037,2114,2030,2059,1197
760,1711439751680243479,2058,2058,2063,2072,2085,2053,1196
761,1711439751690244359,2056,2041,2024,2037,2024,2059,1198
762,1711439751700252164,2062,2065,2048,2061,2085,2053,1197
763,1711439751710248685,2046,2035,2021,2120,2017,2049,1196
764,1711439751720245598,2057,2047,2053,2037,2088,2056,1197
765,1711439751730248031,2057,2047,2057,2101,2023,2054,1197
766,1711439751740272862,2062,2059,2064,2021,2082,2052,1196
767,1711439751751068698,2054,2072,2070,2064,2018,2053,1195
768,1711439751760198513,2051,2041,2046,1961,2068,2044,1192
769,1711439751770259330,2046,2029,2037,2096,2028,2053,1197
770,1711439751780244337,2055,2057,2062,2085,2080,2049,1197
771,1711439751790247151,2059,2055,2040,2046,2024,2054,1198
772,1711439751800268886,2056,2057,2050,2029,2086,2054,1195
773,1711439751810247529,2046,2047,2054,2069,2017,2050,1197
774,1711439751820249041,2049,2028,2040,2056,2078,2045,1195
775,1711439751830245362,2068,2080,2065,1908,2016,2058,1199
776,1711439751840296779,2050,2063,2067,2056,2079,2051,1198
777,1711439751850263778,2061,2054,2056,2065,2037,2060,1196
778,1711439751860252413,2050,2037,2033,1921,2055,2042,1194
779,1711439751870247381,2053,2047,2053,2085,2023,2054,1198
780,1711439751880243441,2047,2062,2034,2048,2072,2045,1194
781,1711439751890242888,2050,2040,2034,2090,2024,2053,1196
782,1711439751900261697,2051,2066,2086,2069,2086,2051,1195
783,1711439751910288702,2053,2041,2037,2085,2037,2056,1196
784,1711439751920247133,2058,2044,2044,2110,2099,2056,1197
785,1711439751930246571,2058,2054,2061,2072,2031,2058,1195
786,1711439751940251169,2056,2057,2073,2072,2078,2048,1198
787,1711439751950253182,2053,2047,2026,2072,2014,2047,1192
788,1711439751960242778,2066,2070,2045,2010,2074,2050,1197
789,1711439751970252738,2052,2020,2034,2055,2026,2053,1197
790,1711439751980254651,2055,2046,2050,2053,2082,2053,1196
791,1711439751990241010,2051,2044,2043,2040,2020,2050,1197
792,1711439752000250078,2049,2046,2041,2033,2064,2048,1197
793,1711439752010247583,2060,2084,2063,2005,2013,2053,1196
794,1711439752020241961,2059,2055,2040,2032,2073,2053,1197
795,1711439752030241041,2062,2077,2092,2084,2029,2056,1194
796,1711439752040250843,2053,2040,2045,2075,2065,2043,1195
797,1711439752050246465,2060,2052,2057,2066,2017,2044,1195
798,1711439752060250094,2058,2061,2091,2056,2077,2028,1196
799,1711439752070246789,2052,2040,2021,2050,2015,2030,1193
800,1711439752080246810,2064,2061,2050,2062,2072,2002,1192
801,1711439752090252924,2054,2056,2060,2084,2030,2070,1196
802,1711439752100252405,2050,2028,2056,1966,2077,2053,1198
803,1711439752110248057,2056,2047,2048,2070,2026,2054,1197
804,1711439752120252528,2060,2052,2064,2200,2094,2056,1197
805,1711439752130246566,2058,2065,2047,2085,2052,2056,1197
806,1711439752140249994,2053,2048,2044,2038,2072,2045,1194
807,1711439752150311074,2058,2041,2044,2101,2033,2036,1192
808,1711439752160263415,2052,2024,2007,2027,2090,2060,1197
809,1711439752170252353,2059,2044,2036,2132,2043,2082,1196
810,1711439752180272227,2054,2062,2052,2056,2082,2048,1197
811,1711439752190245963,2057,2056,2067,2076,2032,2053,1195
812,1711439752200262840,2052,2053,2049,2024,2062,2043,1197
813,1711439752210253672,2056,2065,2036,2057,2024,2050,1197
814,1711439752220247620,2056,2049,2072,2038,2090,2050,1197
815,1711439752230247331,2061,2077,2066,2078,2037,2074,1197
816,1711439752240248725,2051,2034,2038,1853,2057,2053,1196
817,1711439752250250069,2056,2060,2038,2152,2038,2056,1198
818,1711439752260251463,2052,2052,2056,2132,2086,2053,1197
819,1711439752270257597,2060,2053,2046,2065,2025,2064,1197
820,1711439752280260575,2056,2068,2073,2032,2078,2050,1196
821,1711439752290245535,2053,2016,2028,2018,2024,2056,1198
822,1711439752300242149,2053,2062,2054,1960,2065,2043,1194
823,1711439752310246930,2060,2056,2056,2062,2032,2011,1193
824,1711439752320241781,2053,2049,2051,2030,2096,2056,1196
825,1711439752330241642,2053,2053,2046,2104,2028,2057,1195
826,1711439752340244981,2051,2064,2078,2048,2079,2026,1193
827,1711439752350235502,2056,2058,2064,2013,2026,2024,1193
828,1711439752360251988,2052,2068,2057,2080,2084,2045,1197
829,1711439752370254574,2056,2060,2055,1992,2025,2072,1195
830,1711439752380246027,2054,2050,2056,2079,2089,2047,1196
831,1711439752390245407,2054,2059,2047,2067,2041,2051,1196
832,1711439752400238394,2056,2072,2084,2164,2110,1998,1195
833,1711439752410250030,2054,2096,2075,2351,2056,2056,1197
834,1711439752420246554,2049,2041,2060,2056,2079,2065,1195
835,1711439752430245704,2059,2073,2052,2003,2035,2068,1198
836,1711439752440246827,2046,2042,2042,2230,2113,2059,1196
837,1711439752450265608,2068,2074,2064,2048,2015,1976,1192
838,1711439752460267564,2056,2051,2056,2063,2083,2048,1197
839,1711439752470255380,2054,2058,2050,2093,2029,2052,1197
840,1711439752480260361,2052,2077,2074,2043,2083,2061,1197
841,1711439752490246613,2059,2061,2041,2080,2055,2038,1192
842,1711439752500264241,2045,2042,2047,2119,2069,2014,1193
843,1711439752510242948,2052,2056,2053,2036,2031,2041,1195
844,1711439752520253251,2056,2057,2065,2064,2091,2070,1197
845,1711439752530246588,2064,2070,2063,2039,2041,2009,1195
846,1711439752540255018,2056,2053,2051,2024,2063,2049,1199
847,1711439752550243284,2058,2062,2055,2082,2025,2012,1192
848,1711439752560235539,2058,2070,2072,2021,2071,2064,1197
849,1711439752570245562,2062,2050,2066,2152,2040,2101,1196
850,1711439752580245774,2050,2056,2043,2050,2070,2063,1196
851,1711439752590248431,2061,2057,2049,2028,2022,2061,1196
852,1711439752600267271,2054,2085,2071,2043,2076,2046,1196
853,1711439752610244023,2062,2072,2047,2026,2025,2003,1196
854,1711439752620245488,2052,2040,2053,2074,2089,2048,1199
855,1711439752630242573,2062,2052,2043,1976,2036,2069,1194
856,1711439752640265913,2056,2045,2056,2104,2095,2094,1193
857,1711439752650264352,2057,2041,2052,2096,2047,2065,1195
858,1711439752660252257,2052,2046,2061,2142,2084,2053,1197
859,1711439752670246387,2059,2059,2060,2073,2036,2102,1198
860,1711439752680245967,2049,2052,2054,2099,2108,2033,1194
861,1711439752690250127,2056,2071,2074,2038,2038,2037,1193
862,1711439752700255630,2057,2044,2034,2047,2078,2056,1195
863,1711439752710245881,2056,2043,2038,2053,2029,2053,1196
864,1711439752720245100,2042,2074,2078,2026,2072,2034,1194
865,1711439752730247426,2068,2106,2126,2100,2028,2068,1197
866,1711439752740645977,2050,2043,2042,2084,2076,2047,1192
867,1711439752750281731,2063,2074,2046,2087,2050,2064,1193
868,1711439752760263183,2035,2051,2056,2008,2073,2058,1194
869,1711439752770260609,2044,2064,2035,2110,2033,2059,1195
870,1711439752780264379,2052,2035,2052,2050,2080,2049,1196
871,1711439752790266004,2053,2064,2066,2011,2042,2056,1196
872,1711439752800269462,2030,2044,2050,2065,2074,2048,1195
873,1711439752810290769,2045,2064,2062,2038,2027,2053,1195
874,1711439752820290640,2041,2024,2028,2015,2081,2056,1196
875,1711439752830259896,2051,2052,2018,1981,2019,2053,1198
876,1711439752840239363,2056,2059,2068,2048,2066,2046,1192
877,1711439752850263816,2056,2080,2058,2044,2047,2056,1197
878,1711439752860255791,2050,2073,2078,2060,2077,2080,1197
879,1711439752870257376,2054,2051,2058,2074,2046,2058,1198
880,1711439752880259702,2048,2042,2042,2048,2072,2052,1195
881,1711439752890281690,2055,2064,2061,2080,2040,2056,1197
882,1711439752900267311,2047,2025,2040,2032,2069,2049,1196
883,1711439752910261259,2061,2049,2050,2057,2042,2057,1196
884,1711439752920263576,2052,2072,2076,2032,2075,2054,1197
885,1711439752930265892,2058,2068,2059,2076,2029,2056,1197
886,1711439752940261304,2046,2046,2054,2052,2084,2049,1198
887,1711439752950262577,2074,2096,2100,2078,2032,2060,1192
888,1711439752960268581,2056,2044,2045,2031,2072,2049,1195
889,1711439752970270356,2053,2028,2042,2058,2030,2053,1195
890,1711439752980273243,2056,2027,2048,2050,2077,2052,1193
891,1711439752990278576,2065,2054,2040,2065,2036,2057,1196
892,1711439753000274108,2058,2068,2052,2036,2072,2052,1198
893,1711439753010279141,2045,2053,2044,2064,2037,2056,1195
894,1711439753020280919,2058,2047,2023,2066,2085,2056,1196
895,1711439753030284962,2064,2092,2066,2072,2034,2056,1195
896,1711439753040290848,2052,2040,2051,2040,2085,2052,1197
897,1711439753050282564,2056,2050,2050,1985,2021,2050,1197
898,1711439753060280113,2054,2061,2053,2063,2078,2049,1196
899,1711439753070280097,2052,2053,2049,2062,2026,2058,1196
900,1711439753080280202,2067,2036,2056,2045,2076,2050,1195
901,1711439753090296569,2050,2082,2091,2068,2036,2059,1197
902,1711439753100281121,2051,2056,2056,2049,2080,2052,1196
903,1711439753110276906,2058,2053,2052,2057,2030,2053,1194
904,1711439753120284026,2036,2040,2041,2044,2078,2051,1195
905,1711439753130254157,2044,2055,2060,2046,2034,2061,1197
906,1711439753140260264,2036,2047,2047,2047,2080,2050,1196
907,1711439753150298478,2044,2050,2048,2036,2018,2052,1195
908,1711439753160289393,2054,2041,2036,2002,2079,2049,1192
909,1711439753170253271,2057,2056,2030,2122,2036,2059,1193
910,1711439753180255129,2056,2034,2056,2075,2077,2051,1196
911,1711439753190254722,2057,2074,2045,2083,2031,2056,1195
912,1711439753200253994,2062,2108,2075,2048,2079,2052,1196
913,1711439753210256894,2044,2045,2041,2061,2029,2052,1193
914,1711439753220254433,2044,2043,2036,2049,2076,2052,1195
915,1711439753230252533,2060,2064,2048,2073,2028,2059,1196
916,1711439753240253499,2054,2072,2089,2051,2080,2050,1193
917,1711439753250265959,2058,2061,2050,2061,2030,2056,1196
918,1711439753260261263,2049,2038,2025,2047,2080,2052,1197
919,1711439753270264935,2057,2030,2029,2065,2028,2060,1198
920,1711439753280261201,2053,2042,2042,2031,2080,2052,1196
921,1711439753290268130,2068,2057,2034,2054,2024,2049,1197
922,1711439753300265488,2056,2059,2038,2078,2074,2051,1194
923,1711439753310274481,2020,2060,2064,2068,2029,2056,1196
924,1711439753320278604,2034,2081,2100,2044,2076,2052,1195
925,1711439753330239275,2052,2051,2064,2052,2030,2054,1196
926,1711439753340278351,2056,2049,2052,2064,2083,2052,1195
927,1711439753350264737,2078,2064,2056,2061,2029,2058,1194
928,1711439753360259649,2053,2048,2049,2027,2064,2045,1192
929,1711439753370256116,2058,2061,2040,2066,2029,2057,1194
930,1711439753380283057,2062,2058,2060,2050,2080,2052,1196
931,1711439753390255082,2056,2053,2053,2066,2024,2052,1196
932,1711439753400257922,2055,2056,2056,2042,2077,2050,1195
933,1711439753410258557,2058,2042,2056,2064,2031,2056,1196
934,1711439753420261377,2096,2064,2032,2028,2080,2053,1195
935,1711439753430262724,2055,2052,2051,2024,2026,2054,1196
936,1711439753440265053,2052,2045,2053,2048,2081,2052,1197
937,1711439753450265749,2058,2061,2060,2060,2033,2056,1195
938,1711439753460269059,2056,2060,2079,2028,2073,2053,1197
939,1711439753470268352,2056,2052,2050,1990,2019,2049,1195
940,1711439753480269999,2053,2041,2056,2129,2079,2052,1197
941,1711439753490273070,2050,2050,2052,2056,2028,2056,1197
942,1711439753500275619,2075,2066,2053,2106,2081,2053,1195
943,1711439753510275513,2042,2045,2052,2068,2029,2053,1196
944,1711439753520281429,2048,2081,2068,2040,2078,2053,1195
945,1711439753530235306,2056,2062,2095,2064,2030,2058,1196
946,1711439753540284544,2056,2066,2051,2045,2077,2058,1195
947,1711439753550284939,2052,2046,2013,2064,2026,2050,1194
948,1711439753560282127,2056,2034,2024,2048,2080,2050,1196
949,1711439753570287842,2056,2058,2048,2068,2032,2056,1196
950,1711439753580242080,2062,2069,2058,2047,2080,2052,1196
951,1711439753590288181,2055,2061,2073,2065,2026,2054,1195
952,1711439753600249123,2059,2078,2080,2047,2084,2064,1197
953,1711439753610244508,2064,2051,2054,2064,2025,2037,1193
954,1711439753620296280,2058,2079,2059,2047,2079,2064,1195
955,1711439753630298449,2051,2052,2041,2063,2027,2058,1197
956,1711439753640246513,2057,2061,2077,2050,2080,2049,1196
957,1711439753650244604,2066,2078,2093,2066,2048,2067,1197
958,1711439753660245510,2052,2064,2056,2044,2078,2047,1196
959,1711439753670262550,2053,2036,2054,2064,2029,2053,1198
960,1711439753680244585,2054,2046,2047,2049,2084,2037,1194
961,1711439753690240601,2053,2024,2064,2064,2029,2056,1197
962,1711439753700244974,2062,2056,2075,2049,2076,2052,1198
963,1711439753710241331,2052,2084,2090,2052,2031,2049,1197
964,1711439753720252378,2046,2032,2038,2050,2084,2060,1196
965,1711439753730242090,2035,2061,2069,2057,2022,2056,1195
966,1711439753740246253,2037,2030,2032,2044,2085,2049,1195
967,1711439753750249353,2072,2060,2069,2064,2032,2076,1194
968,1711439753760278719,2074,2123,2106,2047,2096,2056,1196
969,1711439753770258732,2035,2027,2011,2064,2027,2053,1196
970,1711439753780259166,2074,2045,2042,2042,2088,2063,1195
971,1711439753790261845,2056,2049,2040,2067,2021,2047,1191
972,1711439753800246878,2044,2052,2057,2047,2080,2043,1195
973,1711439753810246351,2080,2006,2020,2050,2026,2069,1197
974,1711439753820250163,2060,2064,2074,2042,2080,2040,1192
975,1711439753830247522,2125,2039,2049,1978,2017,2054,1196
976,1711439753840256765,2047,2022,2040,2049,2090,2063,1197
977,1711439753850246708,2039,2112,2082,2101,2017,2033,1193
978,1711439753860258647,2105,2052,2061,2072,2101,2100,1194
979,1711439753870254733,2042,2057,2056,2048,2011,2029,1195
980,1711439753880269628,1974,2080,2102,2048,2080,2041,1193
981,1711439753890242334,2020,2067,2077,2065,2029,2069,1196
982,1711439753900252510,2056,2054,2046,2045,2085,2049,1195
983,1711439753910247634,2072,2046,2044,2056,2018,2054,1198
984,1711439753920244862,2074,2088,2080,2050,2084,2052,1194
985,1711439753930266011,2053,2052,2050,2061,2020,2057,1196
986,1711439753940251994,2061,2086,2092,2053,2076,2046,1193
987,1711439753950248521,2074,2064,2066,2064,2026,2080,1194
988,1711439753960251832,2045,2072,2056,2048,2085,2046,1194
989,1711439753970264042,2050,2062,2060,2058,2019,2047,1194
990,1711439753980262924,2068,2062,2086,2053,2085,2060,1195
991,1711439753990254380,2078,2104,2065,2068,2026,2057,1197
992,1711439754000245725,2059,2050,2049,2046,2082,2052,1195
993,1711439754010246592,2068,2060,2050,2066,2026,2056,1196
994,1711439754020259898,2059,2029,2043,2046,2083,2050,1197
995,1711439754030243238,2065,2044,2065,2064,2028,2061,1196
996,1711439754040252194,2037,2036,2038,2045,2083,2051,1196
997,1711439754050246269,2061,2056,2076,2065,2029,2056,1195
998,1711439754060246074,2038,2049,2084,2047,2084,2050,1194
999,1711439754070245710,2052,2042,2052,2064,2026,2053,1196
1000,1711439754080247040,2075,2092,2069,2046,2079,2049,1196
1001,1711439754090250022,2060,2044,2046,2089,2036,2060,1197
1002,1711439754100248366,2032,2098,2102,2071,2081,2051,1197
1003,1711439754110245587,2013,2049,2043,2080,2031,2053,1195
1004,1711439754120246465,2029,2036,2035,2035,2089,2052,1194
1005,1711439754130257755,2010,2035,2065,2060,2035,2059,1195
1006,1711439754140250186,2040,2096,2085,2097,2102,2061,1199
1007,1711439754150246104,2052,2060,2037,2043,2027,2056,1195
1008,1711439754160246030,2081,2008,2016,2047,2082,2052,1197
1009,1711439754170243703,2026,2035,2049,2072,2029,2059,1194
1010,1711439754180246064,2034,2026,2048,2036,2080,2045,1192
1011,1711439754190257965,2049,2047,2039,2088,2024,2056,1196
1012,1711439754200241748,2075,2074,2096,2073,2084,2030,1193
1013,1711439754210240111,2044,2037,2035,2059,2017,2049,1197
1014,1711439754220241801,2075,2080,2063,2045,2088,2051,1197
1015,1711439754230244724,2056,2052,2050,2078,2010,2050,1196
1016,1711439754240247386,2052,2053,2056,2068,2086,2052,1195
1017,1711439754250245188,2064,2062,2047,2066,2025,2058,1197
1018,1711439754260253372,2062,2065,2080,2048,2084,2053,1197
1019,1711439754270237015,2066,2073,2079,2021,2022,2056,1196
1020,1711439754280258326,2048,2040,2066,2040,2088,2047,1194
1021,1711439754290240164,2039,2042,2047,2064,2022,2057,1197
1022,1711439754300260384,2046,2064,2028,2044,2086,2052,1196
1023,1711439754310240949,2045,2046,2032,2050,2015,2056,1197
1024,1711439754320245025,2043,2047,2051,2122,2082,2047,1193
1025,1711439754330274032,2060,2097,2102,2095,2037,2065,1197
1026,1711439754340291926,2024,2019,2028,2041,2070,2041,1193
1027,1711439754350247189,2030,2045,2047,2089,2017,2056,1196
1028,1711439754360249260,2052,2037,2043,2063,2085,2047,1195
1029,1711439754370243163,2052,2052,2085,2105,2025,2056,1196
1030,1711439754380249854,2052,2058,2041,2056,2095,2056,1197
1031,1711439754390242445,2054,2065,2052,1981,2011,2055,1198
1032,1711439754400243474,2052,2038,2055,2092,2096,2050,1197
1033,1711439754410244182,2053,2024,2026,2116,2027,2053,1196
1034,1711439754420248659,2060,2065,2073,2068,2101,2057,1196
1035,1711439754430251100,2074,2040,2057,1988,2012,2056,1196
1036,1711439754440291231,2045,2033,2040,2052,2085,2050,1198
1037,1711439754450238677,2046,2045,2041,2060,2010,2050,1197
1038,1711439754460254066,2057,2047,2049,2046,2081,2053,1199
1039,1711439754470255867,2056,2049,2030,2062,2025,2053,1198
1040,1711439754480255312,2054,2054,2054,2049,2089,2050,1197
1041,1711439754490262263,2057,2061,2077,2068,2026,2055,1197
1042,1711439754500259143,2050,2024,2038,2042,2091,2053,1196
1043,1711439754510242716,2056,2058,2058,2125,2029,2059,1198
1044,1711439754520242722,2056,2060,2057,2083,2092,2052,1196
1045,1711439754530259764,2013,2068,2064,2072,2018,2056,1197
1046,1711439754540251714,2032,2051,2056,2078,2090,2054,1198
1047,1711439754550258214,2059,2062,2053,1965,2014,2056,1194
1048,1711439754560248090,2070,2062,2095,2056,2086,2052,1195
1049,1711439754570246784,2053,2041,2050,2047,2028,2060,1197
1050,1711439754580246349,2057,2040,2062,2072,2092,2049,1196
1051,1711439754590219199,2050,2067,2073,2040,2016,2053,1198
1052,1711439754600236081,2042,2064,2064,2033,2073,2044,1193
1053,1711439754610231537,2040,2037,2041,2005,2012,2056,1196
1054,1711439754620236996,2066,2049,2043,2046,2089,2054,1196
1055,1711439754630248487,2084,2084,2081,2144,2036,2057,1196
1056,1711439754640241057,2036,2048,2049,2059,2085,2050,1197
1057,1711439754650245373,2058,2060,2040,2072,2032,2057,1197
1058,1711439754660245912,2044,2066,2075,2030,2080,2047,1197
1059,1711439754670243272,2052,2058,2054,2001,2023,2056,1200
1060,1711439754680244682,2056,2046,2074,2076,2095,2049,1197
1061,1711439754690245941,2048,2066,2077,2016,2021,2054,1197
1062,1711439754700238842,2072,2061,2052,2033,2082,2050,1196
1063,1711439754710238749,2052,2050,2051,2041,2012,2053,1197
1064,1711439754720255351,2046,2021,2051,1989,2079,2049,1196
1065,1711439754730256329,2054,2054,2058,2073,2019,2056,1195
1066,1711439754740260615,2053,2020,2034,2064,2092,2053,1196
1067,1711439754750255742,2059,2048,2045,2064,2026,2056,1193
1068,1711439754760257471,2052,2054,2054,2049,2072,2050,1195
1069,1711439754770257268,2051,2025,2030,2056,2015,2054,1196
1070,1711439754780260281,2057,2039,2053,2112,2092,2048,1194
1071,1711439754790245576,2033,2042,2047,2108,2029,2054,1198
1072,1711439754800268281,2042,2041,2069,2016,2082,2051,1194
1073,1711439754810250571,2057,2066,2057,2118,2032,2056,1196
1074,1711439754820249484,2054,2061,2088,2028,2078,2048,1196
1075,1711439754830280727,2056,2055,2054,2096,2038,2057,1200
1076,1711439754840244658,2057,2052,2057,2051,2085,2053,1194
1077,1711439754850248131,2055,2046,2043,2088,2032,2056,1196
1078,1711439754860244631,2057,2061,2041,2042,2083,2059,1197
1079,1711439754870245079,2053,2053,2052,2104,2032,2058,1196
1080,1711439754880254314,2049,2059,2065,2053,2078,2048,1195
1081,1711439754890251104,2054,2072,2064,2077,2018,2053,1198
1082,1711439754900256934,2042,2030,2049,2038,2081,2050,1197
1083,1711439754910243411,2069,2061,2084,1901,2021,2056,1197
1084,1711439754920243248,2068,2101,2082,2021,2079,2056,1195
1085,1711439754930250109,2046,2046,2054,2079,2026,2052,1195
1086,1711439754940257731,2040,2044,2043,2045,2072,2048,1196
1087,1711439754950249230,2054,2053,2044,2072,2037,2058,1195
1088,1711439754960246100,2064,2058,2056,2008,2088,2056,1195
1089,1711439754970248521,2066,2046,2045,2040,2023,2056,1194
1090,1711439754980253519,2045,2093,2061,2058,2075,2051,1195
1091,1711439754990257033,2027,2062,2114,2173,2040,2060,1197
1092,1711439755000246006,2051,2057,2037,2047,2081,2052,1195
1093,1711439755010245794,2066,2048,2049,2104,2020,2052,1196
1094,1711439755020247788,2070,2077,2073,2033,2085,2052,1195
1095,1711439755030257347,2050,2044,2040,2031,2009,2047,1193
1096,1711439755040252226,2052,2052,2060,2063,2091,2054,1196
1097,1711439755050256062,2043,2075,2066,2040,2005,2049,1196
1098,1711439755060250941,2060,2042,2048,2048,2075,2046,1196
1099,1711439755070246400,2066,2046,2014,2078,2042,2064,1198
1100,1711439755080250729,2073,2090,2074,2017,2090,2053,1196
1101,1711439755090246870,2048,2059,2081,2090,2010,2041,1194
1102,1711439755100250357,2062,2045,2056,2072,2087,2050,1196
1103,1711439755110242860,2056,2052,2057,2088,2024,2051,1197
1104,1711439755120245514,2056,2042,2041,2172,2078,2046,1194
1105,1711439755130282792,2082,2075,2078,2133,2034,2056,1196
1106,1711439755140253469,2057,2041,2060,2086,2078,2049,1195
1107,1711439755150246885,2056,2054,2045,2036,2030,2056,1195
1108,1711439755160252155,2068,2066,2060,2089,2068,2048,1196
1109,1711439755170249980,2060,2086,2071,2101,2025,2058,1196
1110,1711439755180254368,2043,2048,2054,2037,2080,2048,1196
1111,1711439755190252183,2052,2061,2050,2072,2026,2050,1195
1112,1711439755200281334,2072,2061,2077,2078,2085,2063,1195
1113,1711439755210249095,2065,2064,2043,1967,2015,2051,1196
1114,1711439755220246739,2053,2050,2037,2085,2093,2054,1195
1115,1711439755230246568,2076,2034,2026,1976,2011,2052,1196
1116,1711439755240244022,2056,2043,2073,2070,2087,2052,1195
1117,1711439755250251697,2061,2069,2128,2132,2045,2061,1197
1118,1711439755260259854,2059,2058,2104,2065,2092,2054,1194
1119,1711439755270256626,2053,2052,2047,2081,2033,2052,1197
1120,1711439755280258649,2058,2074,2075,1997,2088,2060,1195
1121,1711439755290235260,2036,2059,2072,2081,2041,2051,1195
1122,1711439755300264911,2035,2096,2095,2114,2092,2065,1196
1123,1711439755310244698,2052,2026,2025,2091,2031,2056,1195
1124,1711439755320245659,2055,2060,2041,2049,2081,2050,1196
1125,1711439755330299552,2070,2073,2085,2022,2028,2070,1194
1126,1711439755340276112,2059,2080,2059,2043,2084,2050,1197
1127,1711439755350287996,2056,2057,2052,2115,2039,2056,1193
1128,1711439755360251217,2050,2098,2072,1953,2084,2032,1194
1129,1711439755370245605,2051,2057,2072,2066,2038,2056,1195
1130,1711439755380244261,2049,2048,2041,2060,2084,2043,1192
1131,1711439755390259483,2056,2062,2062,2056,2025,2060,1195
1132,1711439755400249220,2038,2050,2020,2132,2081,2052,1198
1133,1711439755410245091,2046,2058,2066,2121,2029,2057,1195
1134,1711439755420245541,2040,2078,2066,1988,2074,2048,1196
1135,1711439755430250120,2050,2058,2060,2130,2044,2047,1194
1136,1711439755440257584,2050,2056,2051,2078,2077,2037,1195
1137,1711439755450241560,2057,2054,2057,2056,2025,2054,1196
1138,1711439755460250087,2052,2069,2057,2071,2069,2068,1197
1139,1711439755470252612,2048,2066,2054,2056,2016,2092,1197
1140,1711439755480252741,2061,2065,2102,1832,2089,2076,1196
1141,1711439755490284859,2054,2017,2024,1978,2004,2044,1191
1142,1711439755500260766,2064,2060,2053,2100,2120,2072,1197
1143,1711439755510249963,2070,2080,2076,2021,2035,2025,1193
1144,1711439755520250183,2057,2057,2048,2014,2082,2047,1198
1145,1711439755530257919,2059,2032,2044,2075,2032,2038,1195
1146,1711439755540265132,2062,2072,2086,2075,2088,1958,1193
1147,1711439755550255201,2046,2040,2043,2026,2017,2037,1192
1148,1711439755560260521,2056,2057,2076,2093,2079,2049,1194
1149,1711439755570256372,2053,2036,2034,2163,2040,2056,1196
1150,1711439755580245708,2063,2068,2040,2008,2074,2049,1194
1151,1711439755590243904,2056,2069,2057,2027,2031,2056,1196
1152,1711439755600237780,2051,2046,2058,2056,2069,2045,1194
1153,1711439755610242450,2056,2062,2077,2043,2034,2062,1195
1154,1711439755620241045,2061,2060,2068,2068,2088,2056,1195
1155,1711439755630254704,2044,2020,2009,2100,2010,2043,1193
1156,1711439755640261467,2064,2068,2076,2049,2083,2052,1194
1157,1711439755650250443,2050,2050,2061,2076,2041,2058,1197
1158,1711439755660254591,2047,2037,2034,1985,2034,2034,1195
1159,1711439755670252346,2056,2068,2044,2004,2020,2052,1196
1160,1711439755680244698,2053,2049,2052,1945,2066,2050,1194
1161,1711439755690244818,2059,2046,2047,2049,2032,2052,1200
1162,1711439755700241871,2060,2088,2078,2062,2085,2053,1196
1163,1711439755710242933,2056,2040,2033,2080,2031,2053,1197
1164,1711439755720243964,2059,2073,2080,2044,2076,2040,1196
1165,1711439755730273155,2058,2029,2028,2099,2053,2061,1197
1166,1711439755740275439,2065,2065,2061,2050,2070,2052,1195
1167,1711439755750254714,2053,2056,2049,2047,2018,2043,1192
1168,1711439755760253421,2053,2037,2052,2081,2080,2046,1194
1169,1711439755770254983,2066,2082,2073,2052,2021,2048,1194
1170,1711439755780239971,2041,2040,2045,2157,2082,2052,1197
1171,1711439755790261846,2053,2045,2026,1985,2011,2039,1196
1172,1711439755800243907,2058,2056,2065,2062,2083,2050,1195
1173,1711439755810253557,2061,2047,2039,2071,2021,2049,1196
1174,1711439755820248085,2049,2044,2066,1858,2061,2061,1197
1175,1711439755830309934,2066,2053,2047,2064,2046,2064,1194
1176,1711439755840257573,2056,2080,2068,2070,2071,2052,1196
1177,1711439755850238683,2052,2042,2040,2047,2041,2062,1196
1178,1711439755860246568,2052,2031,2049,2028,2072,2048,1198
1179,1711439755870244584,2056,2060,2045,2092,2011,2047,1196
1180,1711439755880270627,2058,2058,2090,2021,2085,2057,1195
1181,1711439755890248791,2064,2093,2055,1992,2026,2053,1197
1182,1711439755900243118,2052,2042,2043,2003,2088,2062,1196
1183,1711439755910242115,2058,2051,2062,2069,2034,2061,1196
1184,1711439755920254861,2044,2036,2062,2137,2076,2043,1193
1185,1711439755930255953,2057,2042,2077,2112,2012,2030,1195
1186,1711439755940260812,2064,2044,2049,2073,2071,2042,1195
1187,1711439755950253826,2056,2068,2056,2096,2034,2056,1195
1188,1711439755960251972,2056,2053,2057,2064,2080,2043,1196
1189,1711439755970253183,2050,2045,2047,2090,2032,2056,1198
1190,1711439755980258173,2055,2045,2050,2105,2062,2046,1190
1191,1711439755990248692,2057,2052,2089,2140,2029,2064,1196
1192,1711439756000261409,2061,2040,2064,2029,2076,2058,1195
1193,1711439756010245265,2052,2047,2062,2138,2021,2045,1192
1194,1711439756020247332,2053,2047,2045,2050,2090,2054,1195
1195,1711439756030282587,2052,2041,2037,2059,2023,2043,1192
1196,1711439756040254961,2057,2064,2101,2026,2097,2056,1196
1197,1711439756050249952,2056,2052,2048,2078,1981,2030,1194
1198,1711439756060249303,2056,2059,2054,2084,2090,2050,1196
1199,1711439756070244835,2060,2064,2052,2067,2029,2058,1197
1200,1711439756080247542,2053,2061,2115,2078,2099,2055,1197
1201,1711439756090288681,2050,2045,2047,2163,2032,2047,1193
1202,1711439756100246433,2053,2054,2045,2129,2068,2050,1194
1203,1711439756110255735,2053,2071,2064,2042,2012,2059,1195
1204,1711439756120245775,2052,2037,2052,2050,2082,2050,1197
1205,1711439756130259366,2060,2040,2038,2023,2026,2052,1197
1206,1711439756140226779,2057,2048,2041,2011,2074,2057,1196
1207,1711439756150244588,2056,2049,2072,2134,2035,2076,1194
1208,1711439756160263409,2057,2059,2068,2015,2093,2054,1197
1209,1711439756170254022,2058,2049,2031,2078,2028,2053,1195
1210,1711439756180245094,2059,2078,2079,1954,2084,2056,1197
1211,1711439756190243412,2048,2024,2026,2044,2026,2047,1193
1212,1711439756200245159,2074,2070,2072,2013,2088,2057,1196
1213,1711439756210271546,2054,2044,2044,2102,2044,2062,1197
1214,1711439756220247256,2049,2047,2054,2084,2090,2049,1197
1215,1711439756230243991,2055,2048,2024,2048,2024,2063,1196
1216,1711439756240251820,2057,2056,2064,2131,2081,2046,1195
1217,1711439756250249977,2060,2059,2072,2079,2024,2043,1194
1218,1711439756260265161,2052,2047,2045,2016,2081,2037,1195
1219,1711439756270257126,2057,2046,2042,2085,2034,2052,1195
1220,1711439756280258901,2060,2054,2058,2042,2088,2058,1196
1221,1711439756290261238,2056,2043,2061,2045,2024,2054,1194
1222,1711439756300246478,2051,2034,2043,2146,2092,2049,1197
1223,1711439756310250569,2063,2080,2080,2095,2029,2056,1196
1224,1711439756320276936,2048,2045,2043,1987,2082,2053,1195
1225,1711439756330285115,2052,2056,2056,2077,2015,2046,1193
1226,1711439756340256317,2061,2067,2077,2091,2084,2062,1196
1227,1711439756350289168,2042,1981,2006,2013,2019,2053,1194
1228,1711439756360256670,2073,2102,2072,2085,2092,2073,1195
1229,1711439756370247242,2046,2003,2004,2107,2026,2068,1195
1230,1711439756380249880,2058,2106,2091,2110,2087,2081,1198
1231,1711439756390246905,2060,2056,2052,2061,2018,1998,1194
1232,1711439756400246827,2060,2086,2088,2115,2091,2047,1194
1233,1711439756410213258,2067,2057,2028,2109,2027,2024,1193
1234,1711439756420251450,2062,2068,2086,2033,2068,2033,1193
1235,1711439756430249598,2049,2045,2047,2043,2014,2069,1197
1236,1711439756440253137,2058,2051,2053,2036,2083,2030,1194
1237,1711439756450259342,2067,2072,2097,2140,2026,2020,1192
1238,1711439756460265607,2060,2056,2058,2044,2100,2085,1196
1239,1711439756470255207,2056,2054,2065,2056,2030,2056,1196
1240,1711439756480257032,2050,2049,2057,2102,2083,2051,1195
1241,1711439756490259079,2050,2068,2070,2156,2030,2053,1197
1242,1711439756500246624,2052,2034,2047,2091,2092,2024,1192
1243,1711439756510287522,2056,2041,2056,2101,2035,2061,1197
1244,1711439756520245576,2060,2065,2080,2100,2086,2056,1196
1245,1711439756530272935,2056,2058,2078,2081,2021,2000,1196
1246,1711439756540251812,2054,2041,2048,1935,2077,2053,1196
1247,1711439756550243336,2052,2032,2053,2009,2017,2059,1194
1248,1711439756560293514,2060,2072,2176,2056,2095,2032,1193
1249,1711439756570251577,2072,2105,2060,2084,2027,2076,1199
1250,1711439756580244764,2057,2044,2053,2040,2067,2044,1194
1251,1711439756590244796,2057,2061,2066,2130,2019,2051,1195
1252,1711439756600242283,2047,2010,2014,2107,2073,2048,1195
1253,1711439756610266295,2076,2050,2046,2081,2026,2053,1194
1254,1711439756620271497,2047,2036,2065,2064,2086,2041,1192
1255,1711439756630246076,2053,2091,2044,2137,2032,2058,1195
1256,1711439756640252962,2056,2072,2060,2084,2088,2053,1197
1257,1711439756650244145,2049,2042,2040,2041,2023,2025,1195
1258,1711439756660251923,2047,2021,2038,2092,2064,2021,1195
1259,1711439756670244379,2068,2081,2079,2074,2037,2065,1197
1260,1711439756680252087,2048,2062,2063,2028,2066,2044,1195
1261,1711439756690240825,2054,2047,2050,1978,2024,2065,1197
1262,1711439756700250197,2049,2052,2058,2079,2080,2046,1193
1263,1711439756710271544,2056,2031,2037,2080,2040,2072,1197
1264,1711439756720243636,2053,2030,2033,2016,2077,2066,1195
1265,1711439756730262769,2056,2060,2040,2039,2026,2020,1194
1266,1711439756740245785,2053,2061,2021,2043,2081,2056,1195
1267,1711439756750250677,2064,2070,2045,2032,2031,2063,1195
1268,1711439756760258615,2050,2036,2068,2013,2084,2043,1192
1269,1711439756770258026,2050,2042,2039,2105,2025,2061,1197
1270,1711439756780258509,2058,2065,2096,2057,2093,2065,1197
1271,1711439756790259863,2049,2020,2035,1989,2013,2055,1196
1272,1711439756800263402,2061,2047,2077,2054,2083,2080,1197
1273,1711439756810248773,2060,2065,2071,2050,2018,2065,1195
1274,1711439756820246751,2052,2036,2044,2046,2078,2056,1194
1275,1711439756830254238,2059,2082,2066,2069,2017,2056,1197
1276,1711439756840245211,2053,2047,2064,1952,2072,2048,1194
1277,1711439756850243860,2054,2047,2046,2081,2032,2057,1197
1278,1711439756860245295,2053,2060,2060,2090,2077,2052,1196
1279,1711439756870250527,2056,2044,2075,2028,2023,2053,1196
1280,1711439756880250580,2047,2044,2060,2064,2077,2060,1197
1281,1711439756890247044,2050,2007,2013,2019,2017,2044,1193
1282,1711439756900247005,2053,2036,2034,2123,2084,2069,1196
1283,1711439756910247869,2056,2071,2080,2064,2029,2056,1198
1284,1711439756920243211,2059,2061,2089,1881,2060,1996,1192
1285,1711439756930251019,2066,2069,2066,2065,2036,2064,1196
1286,1711439756940241350,2053,2096,2068,2184,2082,2051,1196
1287,1711439756950248337,2057,2081,2083,2041,2032,2059,1195
1288,1711439756960250473,2049,2046,2068,2098,2068,2044,1192
1289,1711439756970253611,2048,2021,2006,1941,2011,2042,1194
1290,1711439756980249735,2063,2092,2052,2061,2080,2036,1194
1291,1711439756990286464,2052,2035,2040,2059,2026,2046,1192
1292,1711439757000262125,2051,2052,2056,2052,2076,2048,1196
1293,1711439757010250543,2072,2115,2073,2091,2037,2058,1195
1294,1711439757020251510,2062,2060,2053,1828,2069,1999,1193
1295,1711439757030250502,2058,2058,2065,2116,2032,2044,1193
1296,1711439757040245656,2050,2025,2021,2062,2084,2052,1197
1297,1711439757050247754,2059,2088,2043,2081,2037,2052,1195
1298,1711439757060265196,2054,2060,2067,2091,2083,2053,1196
1299,1711439757070241270,2053,2094,2056,2043,2021,2040,1195
1300,1711439757080250313,2050,2045,2053,2004,2077,2049,1197
1301,1711439757090243443,2052,2043,2043,2060,2030,2058,1196
1302,1711439757100248878,2048,2035,2054,2099,2088,2073,1196
1303,1711439757110246708,2056,2047,2044,2096,2032,2033,1196
1304,1711439757120249428,2054,2034,2032,2057,2081,2088,1198
1305,1711439757130254704,2066,2064,2056,2002,2030,2057,1196
1306,1711439757140248816,2049,2033,2050,2085,2084,2051,1197
1307,1711439757150243589,2060,2056,2065,1910,2014,2037,1192
1308,1711439757160248574,2054,2043,2040,2065,2081,2049,1198
1309,1711439757170251173,2059,2070,2054,2058,2037,2047,1193
1310,1711439757180251619,2052,2042,2034,2079,2073,2048,1196
1311,1711439757190258307,2064,2088,2086,2040,2044,2056,1198
1312,1711439757200250976,2047,2042,2052,2114,2089,2056,1196
1313,1711439757210244496,2052,2046,2035,1958,2025,2044,1194
1314,1711439757220247176,2051,2048,2058,1987,2077,2042,1194
1315,1711439757230266992,2056,2058,2042,2162,2024,2056,1195
1316,1711439757240245852,2052,2044,2051,2074,2083,2056,1198
1317,1711439757250250947,2052,2015,2047,2046,2030,2068,1196
1318,1711439757260253496,2065,2046,2053,2034,2081,2053,1197
1319,1711439757270261277,2057,2051,2030,2181,2036,2042,1196
1320,1711439757280258856,2046,2031,2053,2076,2082,2054,1196
1321,1711439757290242416,2061,2053,2114,2093,2044,2064,1195
1322,1711439757300246950,2060,2040,2041,2038,2071,2012,1192
1323,1711439757310247275,2057,2061,2034,2056,2024,2068,1196
1324,1711439757320245685,2058,2050,2053,2031,2064,2056,1195
1325,1711439757330259719,2051,2042,2048,2046,2029,2056,1197
1326,1711439757340234761,2066,2109,2112,2040,2081,2066,1195
1327,1711439757350254336,2056,2047,2023,2068,2044,2076,1196
1328,1711439757360248869,2053,2072,2075,2024,2073,2078,1196
1329,1711439757370245647,2045,2037,2064,1978,2014,2070,1196
1330,1711439757380271495,2058,2052,2071,2041,2094,2061,1195
1331,1711439757390238740,2047,2047,2064,2101,2037,2064,1195
1332,1711439757400245720,2053,2060,2056,2059,2080,2054,1194
1333,1711439757410245634,2056,2082,2053,2064,2033,2059,1196
1334,1711439757420246279,2046,2032,2035,2050,2089,2087,1196
1335,1711439757430260865,2057,2052,2032,2073,2042,2074,1197
1336,1711439757440251849,2057,2059,2056,2013,2081,2046,1194
1337,1711439757450246403,2053,2053,2034,2092,2037,2058,1195
1338,1711439757460245625,2050,2040,2058,2092,2076,2047,1196
1339,1711439757470248456,2052,2023,2031,2024,2030,2058,1196
1340,1711439757480269324,2068,2080,2074,2025,2074,2057,1198
1341,1711439757490262043,2048,2039,2038,2002,2008,2046,1194
1342,1711439757500249741,2056,2066,2056,2096,2080,2050,1199
1343,1711439757510236888,2050,2043,2028,2085,2024,2050,1195
1344,1711439757520250020,2057,2050,2064,2108,2083,2033,1194
1345,1711439757530255516,2084,2124,2077,2072,2038,2042,1193
1346,1711439757540249808,2042,2018,2038,2030,2074,2056,1196
1347,1711439757550255004,2057,2059,2059,2108,2016,2053,1197
1348,1711439757560246009,2056,2067,2065,2104,2089,2075,1197
1349,1711439757570245151,2056,2034,2035,2064,2026,2071,1196
1350,1711439757580255367,2056,2060,2066,2061,2081,2049,1197
1351,1711439757590255542,2054,2079,2090,2190,2043,2062,1194
1352,1711439757600246667,2049,2040,2058,2097,2085,2068,1198
1353,1711439757610245880,2056,2065,2080,2069,2038,2080,1196
1354,1711439757620245563,2053,2076,2066,2040,2080,2052,1196
1355,1711439757630251771,2054,2047,2044,1944,2018,2057,1196
1356,1711439757640245782,2050,2060,2063,2046,2074,2059,1197
1357,1711439757650255417,2064,2076,2079,2077,2029,2058,1197
1358,1711439757660245881,2052,2049,2068,1938,2060,2038,1196
1359,1711439757670244031,2050,2041,2066,2077,2026,2052,1195
1360,1711439757680265391,2052,2052,2044,2044,2080,2051,1196
1361,1711439757690244310,2053,2037,2024,2071,2037,2047,1193
1362,1711439757700246018,2062,2046,2051,2179,2074,2053,1199
1363,1711439757710282269,2057,2059,2064,2068,2020,2044,1193
1364,1711439757720246017,2046,2040,2051,2013,2080,2049,1198
1365,1711439757730255451,2056,2058,2056,2095,2035,2058,1196
1366,1711439757740244182,2048,2065,2064,2069,2084,2052,1196
1367,1711439757750250319,2047,2033,2037,1998,2024,2050,1196
1368,1711439757760252959,2054,2053,2045,2061,2088,2068,1196
1369,1711439757770255218,2056,2063,2067,2061,2029,2064,1196
1370,1711439757780263800,2053,2044,2066,2106,2085,2055,1196
1371,1711439757790261730,2052,2045,2047,2064,2024,2066,1196
1372,1711439757800264169,2056,2068,2085,2056,2088,2049,1196
1373,1711439757810249283,2058,2053,2047,2056,2026,2057,1197
1374,1711439757820249067,2051,2061,2082,2057,2080,2052,1197
1375,1711439757830262058,2050,2036,2034,2073,2032,2058,1197
1376,1711439757840249155,2049,2020,2037,2096,2085,2048,1195
1377,1711439757850251945,2056,2071,2058,2041,2003,2044,1196
1378,1711439757860245917,2056,2065,2084,2072,2072,2050,1199
1379,1711439757870247123,2056,2025,2039,2110,2034,2074,1200
1380,1711439757880253552,2062,2049,2042,2071,2073,2054,1195
1381,1711439757890255901,2065,2056,2032,2067,2027,2056,1197
1382,1711439757900244982,2061,2042,2079,2097,2093,2067,1196
1383,1711439757910245638,2052,2052,2038,2055,2022,2064,1197
1384,1711439757920247836,2053,2052,2052,2124,2080,2047,1193
1385,1711439757930248903,2057,2053,2049,1973,2028,2061,1199
1386,1711439757940247424,2060,2098,2085,2048,2078,2072,1196
1387,1711439757950247518,2049,2063,2057,2097,2037,2053,1196
1388,1711439757960250629,2057,2058,2060,1971,2069,2046,1193
1389,1711439757970252678,2051,2043,2057,2092,2036,2104,1198
1390,1711439757980268445,2050,2042,2033,2043,2084,2051,1196
1391,1711439757990258589,2061,2094,2108,2096,2036,2056,1193
1392,1711439758000263092,2045,2026,2032,1964,2073,2027,1194
1393,1711439758010244309,2058,2072,2085,2148,2035,2037,1194
1394,1711439758020247182,2058,2068,2061,2072,2081,2057,1196
1395,1711439758030244012,2054,2048,2048,2076,2032,2047,1193
1396,1711439758040249440,2053,2056,2057,2054,2089,2048,1197
1397,1711439758050243614,2059,2089,2035,2090,2038,2041,1194
1398,1711439758060237749,2061,2061,2040,1988,2078,2047,1195
1399,1711439758070237375,2052,2050,2053,2024,2027,2056,1194
1400,1711439758080243534,2056,2100,2121,2061,2084,2052,1196
1401,1711439758090244513,2046,2032,2036,2051,2024,2050,1196
1402,1711439758100254010,2069,2073,2094,2120,2078,2041,1195
1403,1711439758110282647,2053,2057,2045,2028,2032,2068,1194
1404,1711439758120246978,2059,2066,2041,2063,2085,2050,1195
1405,1711439758130267148,2056,2044,2045,2072,2027,2056,1197
1406,1711439758140262174,2050,2042,2051,2058,2092,2079,1197
1407,1711439758150237509,2058,2058,2033,2052,2022,2052,1194
1408,1711439758160245522,2061,2084,2107,2074,2090,2050,1198
1409,1711439758170246090,2053,2053,2037,2087,2021,2050,1196
1410,1711439758180252070,2058,2024,2051,2092,2090,2080,1197
1411,1711439758190261957,2073,2056,2056,2053,2022,2050,1197
1412,1711439758200246622,2053,2045,2053,2123,2090,2053,1196
1413,1711439758210244514,2061,2053,2053,2100,2024,2065,1196
1414,1711439758220242346,2052,2063,2056,2019,2072,2077,1196
1415,1711439758230248336,2053,2088,2088,2085,2028,2060,1196
1416,1711439758240246659,2048,2043,2090,1993,2068,2041,1194
1417,1711439758250251245,2052,2036,2045,2061,2030,2056,1197
1418,1711439758260251723,2070,2090,2056,2102,2094,2062,1200
1419,1711439758270256149,2058,2055,2059,2035,2017,2062,1196
1420,1711439758280260846,2060,2061,2065,2044,2080,2050,1196
1421,1711439758290261183,2049,2019,2020,2065,2024,2056,1197
1422,1711439758300246659,2064,2088,2093,2024,2091,2051,1195
1423,1711439758310245754,2061,2057,2096,2000,2019,2072,1196
1424,1711439758320268970,2058,2073,2089,2067,2090,2056,1197
1425,1711439758330248984,2055,2047,2064,2053,2032,2057,1197
1426,1711439758340237848,2060,2060,2064,2050,2085,2040,1193
1427,1711439758350245471,2067,2093,2057,2047,2021,2047,1192
1428,1711439758360242511,2050,2045,2045,2039,2089,2050,1194
1429,1711439758370236395,2056,2036,2034,2081,2027,2045,1192
1430,1711439758380258298,2051,2028,2056,2134,2090,2053,1195
1431,1711439758390240748,2071,2108,2162,2085,2033,2061,1196
1432,1711439758400241145,2057,2082,2076,2013,2082,2046,1193
1433,1711439758410244218,2054,2046,2050,2057,2026,2057,1197
1434,1711439758420244366,2044,2040,2066,2030,2077,2057,1197
1435,1711439758430243821,2065,2072,2076,2066,2029,2044,1195
1436,1711439758440252436,2051,2048,2068,2086,2077,2054,1197
1437,1711439758450245057,2054,2049,2045,2058,2027,2043,1193
1438,1711439758460248361,2059,2053,2064,2044,2080,2052,1199
1439,1711439758470250973,2058,2051,2052,2052,2026,2047,1194
1440,1711439758480269389,2058,2059,2058,2072,2094,2064,1196
1441,1711439758490382334,2049,2027,2040,2040,2024,2061,1196
1442,1711439758500268270,2065,2113,2088,2074,2093,2056,1196
1443,1711439758510253645,2044,2032,2060,2060,2017,2035,1192
1444,1711439758520251798,2058,2073,2048,2005,2075,2045,1195
1445,1711439758530255302,2056,2056,2042,2050,2028,2048,1196
1446,1711439758540252493,2057,2060,2063,2048,2085,2054,1196
1447,1711439758550253532,2068,2115,2106,2047,2029,2057,1194
1448,1711439758560251124,2052,2100,2063,1926,2068,2040,1193
1449,1711439758570250980,2052,2041,2052,2093,2034,2035,1194
1450,1711439758580261208,2052,2045,2054,2066,2081,2054,1195
1451,1711439758590246654,2050,2031,2048,2030,2030,2070,1196
1452,1711439758600251932,2064,2056,2048,2037,2079,2049,1195
1453,1711439758610251378,2063,2069,2060,2058,2030,2062,1195
1454,1711439758620263580,2059,2060,2052,2019,2076,2051,1197
1455,1711439758630250479,2056,2028,2042,2070,2040,2059,1195
1456,1711439758640255868,2060,2021,2040,2146,2071,2058,1196
1457,1711439758650262949,2051,2065,2069,2015,2020,2050,1195
1458,1711439758660257735,2058,2059,2053,2094,2092,2058,1197
1459,1711439758670268725,2057,2051,2036,2081,2022,2050,1196
1460,1711439758680263621,2054,2055,2056,2125,2074,2044,1194
1461,1711439758690260531,2057,2064,2068,2068,2021,2066,1197
1462,1711439758700256339,2057,2069,2098,2060,2079,2015,1192
1463,1711439758710256135,2044,1998,2024,2070,2032,2057,1196
1464,1711439758720284903,2060,2062,2064,2030,2065,2046,1192
1465,1711439758730272824,2057,2072,2054,2113,2034,2065,1197
1466,1711439758740252778,2058,2042,2039,2066,2074,2048,1194
1467,1711439758750255581,2060,2089,2041,1966,2028,2073,1195
1468,1711439758760258725,2053,2070,2105,2080,2090,2061,1196
1469,1711439758770260215,2060,2072,2072,2084,2035,2060,1194
1470,1711439758780262516,2047,2050,2057,2106,2087,2051,1195
1471,1711439758790260679,2046,2018,2035,2045,2028,2048,1197
1472,1711439758800264764,2055,2060,2062,1968,2074,2008,1193
1473,1711439758810247354,2056,2048,2045,2009,2032,2057,1194
1474,1711439758820244565,2066,2074,2060,2085,2086,2061,1197
1475,1711439758830253611,2052,2046,2066,2053,2028,2053,1196
1476,1711439758840250742,2062,2070,2064,2104,2081,2029,1194
1477,1711439758850253013,2053,2037,2034,2045,2020,2057,1196
1478,1711439758860243780,2052,2042,2058,2061,2075,2052,1196
1479,1711439758870238556,2046,2026,2042,2061,2034,2054,1195
1480,1711439758880250098,2048,2025,2042,2070,2083,2043,1193
1481,1711439758890268283,2065,2088,2060,2105,2036,2066,1197
1482,1711439758900243918,2048,2056,2037,2017,2086,2056,1195
1483,1711439758910246340,2047,2032,2026,2062,2024,2072,1196
1484,1711439758920247369,2057,2066,2060,2105,2082,2042,1193
1485,1711439758930266706,2053,2026,2056,2081,2006,2059,1196
1486,1711439758940236078,2058,2041,2056,2101,2080,2061,1196
1487,1711439758950250906,2064,2031,2020,2077,2031,2057,1196
1488,1711439758960250703,2062,2062,2029,2112,2090,2072,1196
1489,1711439758970253075,2054,2059,2076,2127,2048,2060,1196
1490,1711439758980262601,2050,2044,2074,2029,2083,2052,1196
1491,1711439758990253779,2056,2060,2065,2036,2007,2041,1194
1492,1711439759000242883,2054,2050,2048,2096,2077,2052,1195
1493,1711439759010240436,2060,2059,2051,2063,2034,2047,1194
1494,1711439759020243562,2052,2076,2060,2020,2084,2059,1196
1495,1711439759030254274,2053,2029,2034,2058,2035,2060,1196
1496,1711439759040242368,2056,2052,2065,2069,2087,2056,1197
1497,1711439759050250353,2061,2065,2034,2064,2022,2051,1196
1498,1711439759060248660,2052,2064,2055,2032,2088,2052,1197
1499,1711439759070246474,2058,2062,2064,2060,2026,2054,1195
1500,1711439759080281456,2060,2059,2054,2018,2084,2050,1197
1501,1711439759090257976,2060,2056,2048,2043,2020,2058,1197
1502,1711439759100277757,2049,2017,2027,2001,2060,2042,1196
1503,1711439759110258746,2068,2031,2056,2050,2025,2056,1198
1504,1711439759120260469,2047,2046,2046,2019,2077,2054,1197
1505,1711439759130264667,2056,2079,2060,2070,2024,2059,1196
1506,1711439759140248392,2046,2017,2035,2054,2068,2044,1194
1507,1711439759150261870,2067,2061,2044,1954,2010,2051,1195
1508,1711439759160270407,2056,2013,2031,2066,2073,2051,1195
1509,1711439759170246997,2072,2068,2093,2042,2047,2078,1198
1510,1711439759180271849,2050,2046,2040,2065,2072,2040,1191
1511,1711439759190282610,2056,2075,2053,2024,2037,2067,1198
1512,1711439759200287810,2043,2031,2022,1866,2058,2045,1195
1513,1711439759210293231,2049,2050,2050,2057,2025,2044,1192
1514,1711439759220280062,2072,2093,2128,2063,2096,2076,1196
1515,1711439759230275632,2054,2044,2042,2054,2020,2049,1194
1516,1711439759240289931,2053,2058,2054,2056,2088,2061,1197
1517,1711439759250252482,2052,2033,2038,2085,2031,2056,1197
1518,1711439759260253593,2046,2061,2060,2052,2089,2053,1197
1519,1711439759270256008,2056,2062,2081,2076,2032,2072,1198
1520,1711439759280259484,2054,2025,2069,1973,2082,2053,1197
1521,1711439759290263692,2067,2076,2060,2082,2035,2058,1196
1522,1711439759300244160,2050,2025,2049,2054,2077,2046,1194
1523,1711439759310251234,2072,2064,2051,2025,2017,2057,1196
1524,1711439759320251705,2065,2073,2100,2017,2077,2054,1197
1525,1711439759330252695,2057,2041,2052,2006,2027,2057,1193
1526,1711439759340257915,2059,2049,2049,2076,2084,2052,1199
1527,1711439759350252133,2050,2044,2046,2045,2025,2053,1195
1528,1711439759360282496,2052,2065,2128,2088,2078,2066,1194
1529,1711439759370263004,2051,2040,2040,2086,2036,2061,1197
1530,1711439759380265679,2052,2069,2066,2056,2088,2049,1197
1531,1711439759390295611,2052,2042,2041,2113,2025,2058,1197
1532,1711439759400272391,2049,2036,2044,2153,2098,2068,1197
1533,1711439759410292313,2054,2036,2039,2114,2032,2052,1196
1534,1711439759420277290,2053,2091,2126,2064,2090,2053,1196
1535,1711439759430279173,2057,2058,2045,2054,2020,2050,1197
1536,1711439759440303835,2051,2064,2060,2036,2085,2072,1197
1537,1711439759450279121,2047,2033,2038,2099,2017,2060,1197
1538,1711439759460286987,2045,2037,2040,2044,2074,2060,1198
1539,1711439759470292097,2059,2108,2124,2061,2036,2077,1198
1540,1711439759480279890,2054,2038,2086,2068,2090,2054,1198
1541,1711439759490279318,2060,2037,2044,2050,2017,2050,1198
1542,1711439759500281542,2052,2053,2094,2056,2084,2044,1196
1543,1711439759510284888,2058,2055,2048,2054,2012,2040,1196
1544,1711439759520256147,2047,2030,2049,1954,2086,2076,1198
1545,1711439759530254323,2071,2060,2092,2021,2025,2061,1198
1546,1711439759540254222,2049,2073,2072,2080,2107,2056,1198
1547,1711439759550249040,2050,2036,2039,2046,2030,2068,1196
1548,1711439759560260934,2054,2052,2056,2090,2103,2041,1194
1549,1711439759570254400,2054,2041,2029,2081,2024,2058,1197
1550,1711439759580256954,2056,2077,2050,2017,2083,2048,1196
1551,1711439759590254828,2060,2072,2069,2098,2022,2057,1196
1552,1711439759600258415,2052,2063,2073,2053,2082,2045,1193
1553,1711439759610258364,2056,2064,2074,1992,2006,2054,1196
1554,1711439759620257481,2049,2042,2038,2059,2073,2046,1194
1555,1711439759630258643,2063,2064,2060,2085,2032,2049,1197
1556,1711439759640264946,2053,2050,2054,2109,2083,2053,1199
1557,1711439759650248520,2059,2092,2066,2075,2034,2050,1197
1558,1711439759660256977,2053,2031,2048,1982,2067,2047,1197
1559,1711439759670255684,2063,2040,2029,1895,2003,2054,1197
1560,1711439759680257307,2052,2038,2048,2028,2081,2052,1195
1561,1711439759690261284,2053,2068,2045,2059,2025,2041,1196
1562,1711439759700256934,2049,2043,2042,2067,2066,2037,1194
1563,1711439759710254618,2065,2084,2065,2058,2025,2046,1196
1564,1711439759720255670,2050,2062,2060,2128,2092,2056,1198
1565,1711439759730275390,2073,2150,2134,2145,2039,2061,1197
1566,1711439759740284799,2052,2036,2037,1962,2080,2057,1197
1567,1711439759750252601,2057,2050,2042,2071,2025,2058,1197
1568,1711439759760255235,2061,2080,2057,2043,2083,2053,1196
1569,1711439759770258090,2058,2048,2046,2059,2021,2067,1197
1570,1711439759780264032,2053,2050,2052,2085,2077,2042,1195
1571,1711439759790264653,2057,2064,2064,2063,2024,2054,1196
1572,1711439759800256765,2051,2029,2051,2045,2084,2063,1196
1573,1711439759810270063,2061,2043,2056,2000,2024,2056,1194
1574,1711439759820259550,2059,2017,2029,2101,2098,2052,1195
1575,1711439759830275853,2056,2042,2034,2067,2033,2061,1195
1576,1711439759840312259,2055,2050,2038,2054,2083,2041,1193
1577,1711439759850264387,2047,2042,2035,2018,2006,2043,1193
1578,1711439759860272173,2064,2065,2053,1994,2074,2042,1195
1579,1711439759870274717,2053,2058,2044,2067,2032,2059,1197
1580,1711439759880273424,2052,2050,2053,2112,2088,2052,1197
1581,1711439759890279676,2053,2084,2062,2084,2040,2077,1199
1582,1711439759900284385,2050,2041,2044,2089,2068,2053,1199
1583,1711439759910282881,2065,2075,2041,2056,2036,2062,1196
1584,1711439759920280045,2049,2016,2025,2057,2104,2058,1196
1585,1711439759930283922,2061,2047,2050,2037,2029,2068,1196
1586,1711439759940283681,2056,2063,2084,2040,2086,2047,1195
1587,1711439759950278118,2049,2036,2053,1919,2013,2053,1194
1588,1711439759960282226,2053,2045,2055,2070,2077,2045,1194
1589,1711439759970284781,2058,2077,2077,2192,2028,2052,1200
1590,1711439759980284599,2047,2040,2050,2093,2095,2027,1193
1591,1711439759990289829,2064,2064,2065,2056,2030,2055,1197
1592,1711439760000249703,2050,2048,2062,2088,2095,2043,1192
1593,1711439760010245506,2054,2100,2056,2085,2020,2054,1196
1594,1711439760020247753,2050,2048,2066,2049,2090,2060,1195
1595,1711439760030252544,2052,2061,2026,2133,2025,2068,1196
1596,1711439760041159690,2050,2040,2047,2022,2072,2051,1196
1597,1711439760051252707,2061,2060,2048,2135,2026,2065,1197
1598,1711439760060244492,2059,2072,2090,2048,2106,2076,1197
1599,1711439760070245046,2053,2057,2056,2044,2004,2052,1196
1600,1711439760080243423,2056,2042,2048,2100,2097,2066,1197
1601,1711439760090247263,2055,2050,2053,2218,2020,2085,1196
1602,1711439760100308423,2053,2040,2043,2065,2088,2051,1197
1603,1711439760110240031,2066,2059,2055,2057,2012,2054,1196
1604,1711439760120243469,2050,2070,2069,2034,2079,2056,1196
1605,1711439760130269256,2051,2040,2042,1917,2008,2057,1197
1606,1711439760140276813,2057,2038,2050,2136,2092,2061,1196
1607,1711439760150253255,2057,2056,2056,2057,2019,2047,1192
1608,1711439760160238275,2058,2058,2058,2052,2083,2041,1193
1609,1711439760170248858,2052,2052,2072,2132,2022,2050,1196
1610,1711439760180249051,2053,2041,2042,2079,2091,2050,1197
1611,1711439760190245274,2061,2088,2107,2100,2019,2031,1194
1612,1711439760200282835,2050,2040,2045,2064,2094,2054,1196
1613,1711439760210266042,2066,2067,2061,2019,2038,2064,1197
1614,1711439760220257625,2054,2025,2046,2024,2093,2059,1196
1615,1711439760230246093,2072,2089,2090,1926,2001,2050,1197
1616,1711439760240266216,2056,2044,2061,2066,2076,2047,1194
1617,1711439760250253441,2060,2054,2092,2058,2024,2056,1199
1618,1711439760260203587,2054,2040,2045,2085,2102,2064,1199
1619,1711439760270237120,2065,2058,2061,2102,2038,2052,1198
1620,1711439760280261423,2055,2073,2073,2056,2090,2047,1195
1621,1711439760290244979,2064,2082,2089,2106,2037,2104,1198
1622,1711439760300270635,2050,2083,2058,2037,2089,2053,1197
1623,1711439760310250013,2045,2024,2028,1920,2006,2056,1196
1624,1711439760320248812,2060,2065,2066,2052,2088,2058,1196
1625,1711439760330246679,2052,2060,2064,2069,2029,2072,1196
1626,1711439760340252443,2061,2076,2064,2044,2089,2072,1196
1627,1711439760350256764,2053,2041,2028,2032,2024,2060,1192
1628,1711439760360257316,2057,2044,2046,2072,2096,2064,1196
1629,1711439760370251366,2054,2043,2038,1990,2012,2052,1197
1630,1711439760380243620,2052,2067,2073,2057,2080,2062,1197
1631,1711439760390294770,2069,2055,2046,2083,2029,2053,1196
1632,1711439760400254156,2059,2066,2061,2139,2104,2077,1197
1633,1711439760410253947,2058,2057,2045,1997,2004,2051,1196
1634,1711439760420245782,2061,2074,2075,2041,2090,2056,1195
1635,1711439760430261656,2060,2066,2053,2037,2013,2051,1195
1636,1711439760440285268,2056,2052,2086,2009,2078,2057,1197
1637,1711439760450253442,2047,2040,2043,1889,2007,2032,1194
1638,1711439760460252252,2072,2119,2100,2056,2091,2050,1197
1639,1711439760470252984,2049,2036,2068,2044,2018,2042,1196
1640,1711439760480264901,2056,2053,2052,2056,2084,2049,1197
1641,1711439760490251525,2061,2053,2061,2055,2024,2060,1195
1642,1711439760500247838,2064,2041,2047,2068,2088,2053,1196
1643,1711439760510244052,2066,2072,2102,1883,2006,2044,1196
1644,1711439760520244103,2053,2053,2065,2088,2094,2057,1198
1645,1711439760530247042,2062,2082,2118,2022,2025,2066,1198
1646,1711439760540251492,2044,2050,2054,2036,2068,2051,1196
1647,1711439760550214225,2051,2041,2030,2056,2029,2052,1194
1648,1711439760560243509,2056,2068,2074,2068,2093,2061,1194
1649,1711439760570243610,2052,2086,2086,2038,2030,2057,1196
1650,1711439760580247030,2056,2052,2068,2042,2091,2052,1195
1651,1711439760590257212,2056,2062,2056,1952,2001,2046,1194
1652,1711439760600241130,2060,2086,2088,2064,2088,2047,1194
1653,1711439760610245310,2048,2037,2031,2021,2004,2053,1199
1654,1711439760620242486,2056,2050,2070,2081,2085,2049,1197
1655,1711439760630312866,2060,2056,2052,2075,2025,2060,1198
1656,1711439760640258924,2053,2014,2035,2112,2092,2054,1196
1657,1711439760650245678,2060,2046,2053,2059,2032,2088,1199
1658,1711439760660244516,2056,2043,2078,2024,2084,2042,1195
1659,1711439760670244959,2057,2073,2054,2029,2024,2065,1196
1660,1711439760680244270,2047,2049,2061,2021,2074,2041,1193
1661,1711439760690242367,2054,2076,2057,2064,2025,2066,1197
1662,1711439760700250395,2050,2045,2061,2086,2084,2069,1195
1663,1711439760710250948,2050,2046,2041,2003,2001,2037,1192
1664,1711439760720243885,2060,2056,2056,2056,2089,2045,1196
1665,1711439760730290975,2057,2091,2056,2040,2015,2056,1200
1666,1711439760740248458,2051,2035,2051,2060,2084,2047,1195
1667,1711439760750249080,2057,2031,2074,2056,2022,2056,1195
1668,1711439760760255876,2066,2060,2072,2010,2089,2058,1198
1669,1711439760770258514,2061,2076,2038,2061,2027,2056,1197
1670,1711439760780260409,2057,2044,2036,2087,2087,2061,1195
1671,1711439760790262265,2065,2078,2061,2077,2016,2058,1196
1672,1711439760800252575,2051,2046,2041,2063,2093,2042,1193
1673,1711439760810248950,2052,2046,2044,2069,2014,2042,1195
1674,1711439760820249342,2060,2105,2084,2053,2089,2056,1197
1675,1711439760830283145,2049,2021,2010,2032,2003,2050,1197
1676,1711439760840258765,2060,2067,2061,2066,2082,2048,1198
1677,1711439760850247492,2053,2053,2048,2049,2021,2059,1195
1678,1711439760860245260,2045,2027,2039,2039,2081,2058,1198
1679,1711439760870248778,2058,2054,2046,2066,2024,2088,1197
1680,1711439760880247878,2052,2041,2051,2040,2097,2065,1195
1681,1711439760890249463,2057,2070,2067,2076,2024,2022,1195
1682,1711439760900271962,2052,2045,2057,2041,2090,2047,1193
1683,1711439760910252112,2053,2059,2111,2083,2024,2049,1197
1684,1711439760920248355,2056,2041,2060,2046,2088,2057,1196
1685,1711439760930246924,2055,2054,2048,2054,2024,2059,1196
1686,1711439760940262177,2054,2047,2062,2062,2093,2052,1195
1687,1711439760950247058,2050,2021,1986,2069,2005,2048,1194
1688,1711439760960250457,2061,2052,2040,2104,2092,2057,1199
1689,1711439760970253644,2052,2028,2037,2073,2034,2052,1198
1690,1711439760980255881,2073,2072,2057,1999,2085,2043,1192
1691,1711439760990263618,2052,2042,2034,2113,2019,2037,1193
1692,1711439761000252086,2052,2047,2043,2045,2077,2046,1194
1693,1711439761010245255,2056,2061,2062,2056,2028,2056,1196
1694,1711439761020249338,2053,2047,2054,2112,2088,2054,1196
1695,1711439761030284376,2053,2029,2042,2111,2027,2053,1197
1696,1711439761040291225,2065,2045,2052,2024,2082,2052,1199
1697,1711439761050265103,2056,2059,2068,2068,2029,2040,1196
1698,1711439761060252370,2060,2045,2055,2048,2082,2043,1196
1699,1711439761070243415,2061,2057,2066,2107,2020,2052,1197
1700,1711439761080245222,2060,2061,2059,2014,2088,2070,1196
1701,1711439761090274930,2054,2052,2030,2086,2031,2059,1195
1702,1711439761100254871,2054,2057,2065,2021,2080,2054,1195
1703,1711439761110238761,2056,2068,2055,2026,2010,2065,1196
1704,1711439761120236971,2050,2034,2047,1948,2076,2060,1198
1705,1711439761130267208,2075,2082,2058,2080,2025,2064,1196
1706,1711439761140245968,2058,2066,2077,2047,2092,2047,1194
1707,1711439761150268901,2057,2065,2072,2098,2036,2088,1196
1708,1711439761160258302,2057,2045,2050,2067,2086,2047,1195
1709,1711439761170240618,2058,2054,2049,2042,2021,2054,1197
1710,1711439761180248358,2058,2058,2060,2052,2079,2044,1194
1711,1711439761190272704,2059,2060,2045,2069,2037,2070,1196
1712,1711439761200278531,2060,2058,2058,2036,2075,2076,1195
1713,1711439761210253862,2047,2017,2021,2077,2024,2058,1194
1714,1711439761220250148,2059,2050,2050,2069,2094,2058,1197
1715,1711439761230253349,2055,2034,2052,1996,2021,2049,1196
1716,1711439761240262592,2061,2053,2057,2088,2088,2061,1196
1717,1711439761250281036,2060,2061,2056,2059,2023,2052,1196
1718,1711439761260253491,2056,2044,2056,2026,2089,2056,1198
1719,1711439761270256060,2061,2048,2056,1954,2023,2004,1194
1720,1711439761280260363,2050,2073,2077,2104,2088,2036,1196
1721,1711439761290246337,2047,2040,2033,2044,2018,2053,1198
1722,1711439761300247774,2053,2047,2054,2052,2082,2051,1194
1723,1711439761310240283,2057,2054,2071,2029,2010,2028,1197
1724,1711439761320243965,2061,2062,2068,2042,2088,2060,1197
1725,1711439761330266626,2056,2047,2040,2077,2025,2066,1197
1726,1711439761340249063,2049,2028,2045,2076,2089,2056,1196
1727,1711439761350255470,2062,2075,2056,2055,2013,2052,1196
1728,1711439761360258000,2053,2041,2033,2020,2079,2090,1198
1729,1711439761370245538,2054,2055,2044,2057,2026,2057,1196
1730,1711439761380242084,2054,2060,2076,2084,2081,2052,1196
1731,1711439761390236506,2065,2076,2057,2076,2024,2038,1194
1732,1711439761400245459,2063,2115,2093,2037,2076,2056,1198
1733,1711439761410258921,2050,2040,2040,2044,2009,2047,1191
1734,1711439761420261641,2066,2072,2083,2075,2086,2049,1195
1735,1711439761430270464,2056,2067,2067,2062,2026,2053,1199
1736,1711439761440245104,2060,2048,2065,1960,2083,2070,1195
1737,1711439761450287317,2052,2041,2035,2058,2024,2051,1198
1738,1711439761460278662,2063,2056,2044,2030,2076,2050,1198
1739,1711439761470253484,2065,2052,2038,2006,2016,2033,1192
1740,1711439761480254510,2046,2036,2047,1948,2076,2072,1199
1741,1711439761490260316,2062,2053,2078,2065,2036,2067,1195
1742,1711439761500274209,2055,2034,2051,2029,2090,2048,1198
1743,1711439761510248368,2056,2039,2045,2100,2023,2056,1196
1744,1711439761520253564,2056,2046,2050,2046,2078,2051,1194
1745,1711439761530252044,2069,2077,2012,2018,2022,2062,1197
1746,1711439761540250835,2048,2043,2030,2024,2088,2062,1197
1747,1711439761550256481,2053,2054,2063,2058,2029,2057,1195
1748,1711439761560260493,2051,2040,2053,2010,2084,2072,1195
1749,1711439761570245275,2053,2045,2057,2058,2025,2055,1198
1750,1711439761580243696,2046,2053,2108,2087,2087,2052,1196
1751,1711439761590243159,2051,2053,2065,2047,2030,2052,1199
1752,1711439761600245417,2051,2048,2039,2042,2074,2053,1196
1753,1711439761610243597,2056,2046,2040,2063,2021,2057,1196
1754,1711439761620248431,2051,2084,2090,2083,2081,2012,1194
1755,1711439761630254379,2058,2076,2085,2061,2024,2052,1201
1756,1711439761640250745,2052,2036,2046,2077,2094,2060,1198
1757,1711439761650245247,2065,2082,2106,2044,2024,2056,1197
1758,1711439761660273009,2053,2074,2075,2064,2089,2040,1195
1759,1711439761670241025,2056,2048,2057,2099,2025,2057,1199
1760,1711439761680245609,2062,2064,2075,2096,2088,2057,1197
1761,1711439761690243339,2060,2052,2061,2064,2025,2065,1197
1762,1711439761700244004,2052,2039,2055,2070,2074,2057,1198
1763,1711439761710290756,2060,2070,2069,2073,2024,2052,1198
1764,1711439761720249533,2055,2050,2057,2049,2083,2044,1195
1765,1711439761730266362,2060,2044,2043,2073,2024,2042,1194
1766,1711439761740252267,2053,2046,2050,2130,2081,2045,1194
1767,1711439761750255518,2057,2073,2062,2027,2021,2057,1194
1768,1711439761760256975,2056,2056,2067,2019,2080,2053,1194
1769,1711439761770258933,2046,2033,2064,1991,2016,2054,1196
1770,1711439761780262374,2080,2070,2048,2026,2085,2052,1195
1771,1711439761790245432,2052,2054,2048,2053,2031,2060,1197
1772,1711439761800247541,2058,2060,2060,2024,2072,2060,1195
1773,1711439761810252505,2056,2061,2054,2082,2036,2074,1197
1774,1711439761820238229,2060,2059,2062,2105,2090,2084,1196
1775,1711439761830247442,2059,2055,2030,2056,2024,2059,1194
1776,1711439761840255172,2056,2053,2052,2069,2085,2051,1196
1777,1711439761850246208,2052,2051,2049,2066,2035,2064,1197
1778,1711439761860258768,2064,2061,2058,2062,2088,2052,1197
1779,1711439761870250504,2055,2053,2051,2037,2005,2035,1195
1780,1711439761880255960,2057,2067,2065,2012,2088,2045,1194
1781,1711439761890244830,2048,2047,2056,2202,2028,2056,1196
1782,1711439761900245145,2065,2056,2058,2104,2093,2057,1196
1783,1711439761910244047,2061,2056,2045,2032,2010,2045,1195
1784,1711439761920255044,2052,2045,2040,2085,2082,2057,1198
1785,1711439761930248884,2049,2035,2027,2180,2037,2064,1198
1786,1711439761940250552,2069,2073,2069,2062,2072,2057,1196
1787,1711439761950252289,2054,2056,2046,2075,2024,2056,1195
1788,1711439761960254639,2053,2048,2052,2041,2080,2049,1194
1789,1711439761970259052,2057,2068,2064,2020,2027,2056,1196
1790,1711439761980263515,2059,2061,2073,1942,2076,2052,1196
1791,1711439761990246613,2061,2073,2049,2127,2029,2058,1194
1792,1711439762000244192,2062,2066,2045,2095,2088,2054,1196
1793,1711439762010246512,2061,2078,2076,2076,2024,2054,1198
1794,1711439762020286392,2056,2061,2060,2065,2066,2044,1192
1795,1711439762030255584,2052,2047,2045,2033,2013,2053,1196
1796,1711439762040244096,2060,2110,2110,2060,2084,2051,1194
1797,1711439762050243540,2042,2023,2046,2079,2005,2046,1196
1798,1711439762060254089,2067,2079,2098,2051,2082,2054,1197
1799,1711439762070248905,2053,2038,2027,2052,2025,2056,1198
1800,1711439762080261207,2056,2060,2057,2061,2090,2054,1195
1801,1711439762090246041,2056,2077,2077,2049,2021,2054,1197
1802,1711439762100244624,2065,2112,2123,2056,2088,2056,1196
1803,1711439762110243949,2050,2057,2068,2020,2025,2074,1196
1804,1711439762120262655,2057,2058,2044,1980,2088,2054,1196
1805,1711439762130246617,2059,2073,2092,2057,2014,2052,1196
1806,1711439762140249319,2049,2043,2046,2046,2082,2050,1197
1807,1711439762150241248,2063,2075,2066,2077,2026,2068,1195
1808,1711439762160238479,2058,2062,2061,2052,2088,2064,1195
1809,1711439762170266775,2056,2060,2052,1960,2004,2054,1194
1810,1711439762180264897,2059,2080,2085,2110,2086,2048,1194
1811,1711439762190249250,2044,2018,2044,2148,2022,2047,1194
1812,1711439762200246351,2061,2050,2057,2020,2081,2047,1192
1813,1711439762210251187,2061,2068,2066,2085,2034,2072,1197
1814,1711439762220248216,2056,2072,2069,2050,2073,2045,1193
1815,1711439762230270510,2053,2035,2060,2063,2020,2054,1197
1816,1711439762240247067,2064,2049,2046,2088,2095,2052,1195
1817,1711439762250255331,2053,2046,2035,2096,2034,2061,1197
1818,1711439762260257832,2057,2056,2059,2007,2093,2068,1196
1819,1711439762270243748,2053,2045,2058,1965,2017,2050,1196
1820,1711439762280264729,2060,2053,2059,2051,2092,2058,1195
1821,1711439762290243311,2044,2025,2032,2048,2020,2032,1194
1822,1711439762300244790,2064,2056,2060,1994,2079,2053,1196
1823,1711439762310240396,2055,2082,2094,2072,2037,2074,1195
1824,1711439762320246305,2057,2059,2075,2144,2092,2019,1194
1825,1711439762330249609,2050,2048,2063,2059,2024,2054,1197
1826,1711439762340279729,2060,2112,2087,2005,2081,2051,1198
1827,1711439762350250472,2054,2049,2045,2061,2025,2066,1194
1828,1711439762360247753,2058,2078,2089,2171,2081,2072,1195
1829,1711439762370245325,2051,2028,2037,1964,2016,2047,1195
1830,1711439762380262738,2067,2098,2085,2057,2085,2056,1195
1831,1711439762390244805,2052,2052,2050,2133,2018,2053,1199
1832,1711439762400247868,2056,2058,2075,2070,2101,2086,1197
1833,1711439762410245831,2052,2058,2060,2061,2020,2081,1195
1834,1711439762420244835,2058,2092,2101,2045,2097,2066,1195
1835,1711439762430245131,2053,2044,2035,2070,2013,2044,1196
1836,1711439762440242913,2056,2049,2042,2056,2089,2052,1197
1837,1711439762450234592,2052,2056,2024,2081,2022,2052,1197
1838,1711439762460251765,2056,2048,2060,2076,2093,2038,1197
1839,1711439762470254477,2044,2029,2042,2066,2004,2052,1199
1840,1711439762480280056,2060,2061,2060,2060,2096,2057,1199
1841,1711439762490244548,2061,2046,2041,2147,2031,2056,1198
1842,1711439762500254104,2064,2073,2056,2013,2082,2066,1194
1843,1711439762510245202,2056,2070,2064,2079,2034,2071,1197
1844,1711439762520252804,2054,2065,2053,2089,2087,2058,1196
1845,1711439762530273063,2045,2048,2073,2044,2021,2064,1195
1846,1711439762540251664,2053,2059,2069,2077,2092,2057,1198
1847,1711439762550248023,2047,2026,2034,2168,2032,2058,1193
1848,1711439762560247066,2060,2047,2054,2030,2080,2032,1192
1849,1711439762570246923,2057,2064,2048,2052,2022,2052,1197
1850,1711439762580263474,2056,2048,2057,2052,2083,2052,1196
1851,1711439762590248399,2064,2064,2037,2100,2031,2057,1195
1852,1711439762600244987,2058,2049,2094,2043,2085,2047,1195
1853,1711439762610247819,2047,2020,2024,2034,2005,2046,1195
1854,1711439762620250492,2064,2100,2093,1999,2084,2076,1197
1855,1711439762630253565,2052,2045,2041,1918,2006,2050,1194
1856,1711439762640251106,2054,2041,2041,2129,2092,2053,1197
1857,1711439762650251021,2053,2032,2031,2070,2030,2062,1198
1858,1711439762660245997,2073,2080,2054,2069,2092,2057,1196
1859,1711439762670245402,2049,2073,2092,1989,2006,2026,1195
1860,1711439762680259639,2058,2056,2078,2045,2089,2049,1198
1861,1711439762690241787,2057,2048,2028,2094,2030,2064,1196
1862,1711439762700245731,2057,2048,2047,2033,2084,2053,1194
1863,1711439762710244936,2049,2036,2046,2062,2024,2052,1196
1864,1711439762720247218,2074,2092,2066,2074,2093,2056,1197
1865,1711439762730257094,2050,2051,2040,1980,2010,2057,1197
1866,1711439762740250577,2058,2033,2042,1966,2077,2064,1198
1867,1711439762750255784,2056,2037,2077,2040,2017,2045,1192
1868,1711439762760242362,2052,2023,2043,2000,2091,2025,1193
1869,1711439762770243039,2047,2040,2040,2006,2012,2101,1195
1870,1711439762780268820,2061,2053,2062,2079,2092,2076,1196
1871,1711439762790246429,2054,2062,2070,2040,2029,2056,1194
1872,1711439762800245374,2061,2098,2108,2049,2088,2057,1195
1873,1711439762810245199,2050,2057,2021,2054,2021,2040,1194
1874,1711439762820248672,2050,2040,2076,2156,2083,2041,1192
1875,1711439762830250753,2058,2054,2042,1961,2019,2063,1195
1876,1711439762840242983,2056,2037,2047,2063,2096,2052,1197
1877,1711439762850245535,2053,2040,2046,2057,2013,2045,1193
1878,1711439762860245290,2062,2031,2037,2047,2098,2052,1198
1879,1711439762870245327,2051,2032,2025,2141,2028,2063,1196
1880,1711439762880263742,2057,2043,2052,2081,2092,2041,1194
1881,1711439762890247514,2053,2053,2039,2076,2031,2062,1196
1882,1711439762900243151,2064,2036,2038,2047,2090,2057,1197
1883,1711439762910246133,2061,2066,2040,2173,2026,2056,1196
1884,1711439762920249216,2056,2060,2066,2076,2092,2037,1192
1885,1711439762930252259,2066,2054,2056,2066,2031,2061,1197
1886,1711439762940251413,2060,2041,2056,2002,2083,2052,1198
1887,1711439762950254416,2056,2076,2075,1995,2015,2064,1197
1888,1711439762960255314,2057,2054,2056,1996,2081,2048,1196
1889,1711439762970257034,2049,2055,2025,2045,2033,2058,1197
1890,1711439762980260888,2064,2076,2066,2058,2081,2008,1193
1891,1711439762990266075,2049,2036,2042,2093,2026,2064,1197
1892,1711439763000244867,2052,2017,2044,2064,2081,2056,1196
1893,1711439763010251981,2064,2047,2035,1970,2018,2056,1198
1894,1711439763020250617,2058,2050,2046,2056,2092,2057,1197
1895,1711439763030267290,2045,2024,2024,2071,2021,2051,1197
1896,1711439763040265555,2063,2048,2076,2093,2088,2051,1195
1897,1711439763050245201,2052,2038,2025,2016,2021,2050,1196
1898,1711439763060243245,2061,2047,2050,2039,2096,2059,1199
1899,1711439763070244687,2051,2065,2060,2060,2011,2042,1193
1900,1711439763080257112,2056,2052,2054,2030,2073,2048,1196
1901,1711439763090245956,2048,2053,2045,2064,2015,2049,1196
1902,1711439763100249943,2081,2053,2044,1946,2076,2060,1197
1903,1711439763110248419,2050,2042,2050,2058,2024,2041,1194
1904,1711439763120247605,2058,2048,2050,2082,2084,2050,1197
1905,1711439763130251732,2053,2047,2061,2031,2017,2051,1196
1906,1711439763140263797,2058,2054,2053,2002,2088,2053,1197
1907,1711439763150248012,2051,2060,2029,2035,2015,2049,1196
1908,1711439763160253391,2064,2086,2069,2036,2075,2052,1196
1909,1711439763170245133,2050,2045,2053,2044,2027,2048,1197
1910,1711439763180247907,2067,2096,2050,2079,2090,2038,1193
1911,1711439763190261614,2051,2076,2057,2041,2013,2060,1197
1912,1711439763200259659,2056,2050,2053,2049,2080,2039,1194
1913,1711439763210249346,2049,2027,2029,2074,2021,2055,1197
1914,1711439763220249615,2069,2088,2062,2121,2079,2045,1194
1915,1711439763230254835,2048,2038,2028,2100,2030,2054,1195
1916,1711439763240266999,2059,2065,2054,2084,2092,2057,1194
1917,1711439763250254831,2053,2066,2054,2053,2024,2054,1195
1918,1711439763260256584,2054,2045,2045,2085,2083,2057,1200
1919,1711439763270243896,2048,2043,2046,2025,2026,2056,1197
1920,1711439763280246580,2065,2083,2076,2004,2068,2047,1192
1921,1711439763290279187,2050,2053,2040,2056,2023,2044,1194
1922,1711439763300267040,2057,2042,2040,2064,2088,2046,1194
1923,1711439763310246796,2052,2065,2061,2021,2018,2064,1197
1924,1711439763320249319,2058,2053,2058,2048,2082,2050,1195
1925,1711439763330246633,2049,2060,2043,2026,2008,2031,1194
1926,1711439763340269550,2056,2066,2088,2053,2082,2022,1194
1927,1711439763350247501,2046,2074,2036,2046,2020,2058,1193
1928,1711439763360247379,2052,2064,2056,2045,2081,2040,1191
1929,1711439763370228849,2056,2086,2097,2088,2014,2037,1192
1930,1711439763380247697,2060,2044,2056,2065,2076,2061,1195
1931,1711439763390232424,2054,2056,2069,2046,2018,2051,1196
1932,1711439763400247765,2058,2020,2002,2057,2072,2048,1199
1933,1711439763410253706,2057,2050,2038,2035,2028,2058,1194
1934,1711439763420247501,2058,2052,2056,2087,2084,2047,1193
1935,1711439763430249995,2056,2053,2036,2043,2020,2044,1193
1936,1711439763440273122,2072,2072,2069,2133,2089,2058,1196
1937,1711439763450249952,2047,2017,2028,1993,2008,2052,1197
1938,1711439763460252366,2062,2037,2074,2060,2068,2029,1194
1939,1711439763470259249,2047,2036,2027,2069,2025,2052,1196
1940,1711439763480266091,2061,2068,2072,2044,2072,2050,1196
1941,1711439763490264136,2052,2062,2061,2021,2020,2053,1198
1942,1711439763500241527,2060,2048,2040,2084,2081,2052,1196
1943,1711439763510237026,2058,2066,2046,2050,2025,2056,1196
1944,1711439763520238658,2056,2058,2044,2077,2072,2060,1195
1945,1711439763530242224,2049,2063,2060,2095,2030,2083,1198
1946,1711439763540247173,2064,2049,2040,2040,2079,2047,1193
1947,1711439763550248164,2052,2058,2041,2040,2027,2069,1193
1948,1711439763560251219,2052,2042,2053,2027,2076,2061,1195
1949,1711439763570250786,2056,2069,2072,1963,2028,2061,1195
1950,1711439763580257489,2060,2057,2062,2060,2082,2055,1196
1951,1711439763590263039,2061,2047,2034,2013,2017,2050,1196
1952,1711439763600250060,2056,2064,2079,2082,2079,2053,1196
1953,1711439763610246020,2052,2056,2045,2050,2032,2072,1197
1954,1711439763620246159,2056,2041,2044,2056,2087,2101,1196
1955,1711439763630274397,2056,2070,2045,2092,2015,2052,1194
1956,1711439763640263983,2054,2092,2086,2112,2086,2053,1196
1957,1711439763650249121,2058,2092,2054,2084,2021,2051,1197
1958,1711439763660249420,2053,2059,2079,2024,2072,2048,1197
1959,1711439763670244187,2045,2053,2076,2036,2026,2037,1193
1960,1711439763680252122,2053,2041,2066,2065,2084,2060,1197
1961,1711439763690261090,2061,2072,2068,2007,2015,2052,1196
1962,1711439763700242189,2056,2037,2030,2042,2076,2054,1196
1963,1711439763710244211,2057,2069,2056,2033,2023,2053,1195
1964,1711439763720246946,2061,2116,2156,1989,2072,2055,1196
1965,1711439763730231642,2065,2080,2057,1940,2015,2056,1198
1966,1711439763740260872,2056,2064,2063,2054,2080,2066,1196
1967,1711439763750262274,2050,2056,2044,2064,2028,2055,1194
1968,1711439763760259086,2057,2060,2069,1990,2068,2034,1194
1969,1711439763770244563,2046,2050,2030,2028,2035,2056,1196
1970,1711439763780248601,2057,2080,2081,2076,2088,2057,1196
1971,1711439763790248589,2043,2056,2054,2142,2025,2052,1197
1972,1711439763800252556,2051,2049,2053,2008,2064,2050,1197
1973,1711439763810242554,2054,2042,2033,1957,2028,2054,1194
1974,1711439763820242232,2056,2029,2047,2141,2080,2030,1192
1975,1711439763830258654,2056,2028,2016,2068,2019,2047,1192
1976,1711439763840260477,2058,2094,2062,2072,2081,2052,1197
1977,1711439763850219499,2047,2050,2060,2083,2032,2037,1194
1978,1711439763860244951,2057,2045,2062,2045,2073,2053,1197
1979,1711439763870247224,2052,2031,2024,2019,2026,2039,1194
1980,1711439763880250110,2051,2041,2042,2056,2073,2056,1197
1981,1711439763890259908,2051,2047,2049,2053,2035,2048,1198
1982,1711439763900240827,2049,2047,2081,2070,2082,2069,1196
1983,1711439763910252951,2056,2024,2069,2093,2038,2057,1201
1984,1711439763920246295,2063,2048,2051,2068,2082,2070,1197
1985,1711439763930279624,2050,2056,2040,2045,2027,2056,1196
1986,1711439763940252636,2062,2076,2093,2105,2080,2057,1196
1987,1711439763950245309,2047,2050,2037,2097,2028,2026,1192
1988,1711439763960271162,2069,2057,2079,1949,2068,2063,1195
1989,1711439763970273826,2058,2066,2064,2068,2027,2053,1195
1990,1711439763980256628,2058,2057,2064,2125,2073,2067,1197
1991,1711439763990252428,2051,2061,2070,2030,2034,2066,1197
1992,1711439764000278742,2054,2088,2059,2064,2067,2044,1192
1993,1711439764010252678,2050,2036,2040,2109,2036,2057,1196
1994,1711439764020253350,2058,2085,2093,2136,2077,2067,1197
1995,1711439764030277101,2049,2027,2036,2054,2034,2052,1197
1996,1711439764040246096,2053,2047,2060,2069,2083,2065,1196
1997,1711439764050261420,2048,2046,2033,2104,2032,2048,1198
1998,1711439764060243322,2056,2053,2049,2127,2080,2062,1197
1999,1711439764070251170,2057,2052,2030,1972,2028,2088,1196
2000,1711439764080251230,2053,2061,2038,2104,2091,2064,1196
2001,1711439764090255710,2048,2035,2048,2077,2040,2047,1194
2002,1711439764100248306,2061,2057,2051,1997,2073,2048,1196
2003,1711439764110246182,2048,2057,2057,2064,2020,2049,1195
2004,1711439764120246233,2055,2043,2058,2072,2081,2037,1193
2005,1711439764130246745,2047,2042,2037,2034,2031,2060,1194
2006,1711439764140253440,2062,2055,2070,2091,2082,2057,1197
2007,1711439764150254062,2047,2061,2062,2160,2027,2044,1193
2008,1711439764160247649,2057,2044,2058,2108,2082,2056,1196
2009,1711439764170266139,2058,2073,2057,2040,2036,2054,1196
2010,1711439764180248973,2058,2054,2055,2056,2080,2057,1197
2011,1711439764190243603,2043,2034,2037,2040,2038,2052,1196
2012,1711439764200267835,2060,2090,2098,2105,2079,2053,1197
2013,1711439764210248905,2037,2020,1988,2028,2024,2054,1198
2014,1711439764220251953,2056,2045,2053,2056,2072,2065,1196
2015,1711439764230252815,2055,2048,2036,2019,2038,2059,1195
2016,1711439764240261935,2060,2056,2054,2051,2068,2054,1198
2017,1711439764250272038,2050,2051,2047,2044,2036,2050,1195
2018,1711439764260258039,2057,2081,2072,2061,2068,2041,1195
2019,1711439764270246315,2044,2014,2014,2072,2037,2058,1196
2020,1711439764280243059,2061,2072,2066,2081,2072,2029,1195
2021,1711439764290233740,2051,2041,2046,2042,2029,2052,1195
2022,1711439764300264465,2058,2064,2072,1867,2081,2058,1197
2023,1711439764310256198,2044,2017,2029,2058,2039,2048,1197
2024,1711439764320251409,2063,2038,2047,2082,2086,2046,1194
2025,1711439764330211306,2056,2089,2085,2064,2034,2057,1198
2026,1711439764340259408,2056,2030,2044,2068,2070,2057,1196
2027,1711439764350248326,2048,2054,2052,2081,2051,2060,1195
2028,1711439764360242144,2061,2052,2061,2112,2085,2063,1195
2029,1711439764370247596,2049,2063,2044,1963,2022,2075,1193
2030,1711439764380244871,2056,2037,2056,2073,2085,2093,1196
2031,1711439764390241144,2052,2034,2024,2124,2038,2052,1196
2032,1711439764400259924,2056,2079,2064,2078,2065,2028,1194
2033,1711439764410236736,2036,2052,2041,2053,2021,2044,1193
2034,1711439764420253272,2049,2026,2039,1928,2061,2044,1194
2035,1711439764430251669,2047,2042,2045,2027,2037,2053,1198
2036,1711439764440255197,2060,2058,2069,2076,2080,2057,1195
2037,1711439764450273226,2050,2037,2028,2109,2030,2075,1197
2038,1711439764460258195,2065,2052,2064,2104,2075,2068,1197
2039,1711439764470244527,2050,2057,2045,2102,2031,2050,1195
2040,1711439764480244628,2060,2093,2127,1996,2072,2057,1195
2041,1711439764490245761,2053,2047,2047,1988,2025,2046,1194
2042,1711439764500257577,2060,2056,2061,2080,2084,2064,1197
2043,1711439764510255414,2049,2079,2082,2096,2037,2047,1195
2044,1711439764520248870,2052,2041,2050,2096,2084,2054,1196
2045,1711439764530248580,2048,2056,2065,2054,2038,2052,1198
2046,1711439764540248561,2066,2049,2069,2056,2067,2062,1196
2047,1711439764550244313,2041,2036,2029,2050,2032,2050,1194
2048,1711439764560254204,2056,2067,2079,2062,2088,2056,1196
2049,1711439764570244304,2053,2066,2072,2012,2024,2050,1194
2050,1711439764580243794,2058,2056,2061,2065,2077,2053,1196
2051,1711439764590247342,2046,2058,2044,2059,2034,2055,1196
2052,1711439764600245610,2064,2084,2093,2075,2080,2064,1196
2053,1711439764610246482,2042,2044,2040,1996,2022,2043,1192
2054,1711439764620271686,2060,2078,2056,1992,2062,2047,1194
2055,1711439764630252446,2046,2036,2040,2024,2032,2052,1198
2056,1711439764640250563,2065,2052,2053,2072,2080,2064,1196
2057,1711439764650246666,2046,2042,2058,2059,2033,2058,1197
2058,1711439764660245093,2058,2065,2070,2094,2076,2058,1197
2059,1711439764670237388,2050,2070,2066,2068,2040,2058,1196
2060,1711439764680249895,2052,2034,2047,2060,2068,2044,1194
2061,1711439764690245075,2048,2060,2051,2069,2028,2053,1197
2062,1711439764700251951,2067,2064,2062,2156,2080,2059,1198
2063,1711439764710264308,2046,2056,2042,2081,2029,2052,1197
2064,1711439764720247303,2050,2027,2056,2081,2078,2057,1196
2065,1711439764730254278,2051,2045,2061,2002,2028,2059,1197
2066,1711439764740255421,2064,2066,2057,2072,2080,2047,1193
2067,1711439764750215808,2048,2045,2037,2036,2035,2048,1197
2068,1711439764760265604,2057,2043,2057,2090,2080,2057,1196
2069,1711439764770266938,2056,2074,2087,2038,2035,2050,1197
2070,1711439764780236715,2061,2064,2085,2047,2071,2050,1195
2071,1711439764790246777,2051,1997,2022,2036,2028,2050,1198
2072,1711439764800245635,2059,2074,2047,2062,2074,2064,1196
2073,1711439764810258152,2046,2049,2052,2013,2034,2065,1196
2074,1711439764820251319,2057,2070,2076,2124,2086,2067,1198
2075,1711439764830259788,2049,2050,2047,2112,2024,2042,1194
2076,1711439764840250890,2057,2056,2050,2108,2079,2072,1194
2077,1711439764850245078,2044,2034,2012,1983,2026,2040,1193
2078,1711439764860261634,2065,2064,2098,2079,2077,2056,1198
2079,1711439764870258488,2045,2043,2038,2025,2026,2021,1193
2080,1711439764880251093,2056,2058,2082,2046,2068,2051,1196
2081,1711439764890241403,2048,2034,2037,2036,2022,2063,1198
2082,1711439764900241856,2056,2054,2060,2080,2090,2068,1197
2083,1711439764910244201,2046,2045,2056,2027,2033,2050,1196
2084,1711439764920249613,2064,2036,2060,2108,2070,2052,1198
2085,1711439764930243721,2040,2031,2016,1985,2026,2039,1192
2086,1711439764940256419,2059,2051,2052,2127,2080,2064,1196
2087,1711439764950258344,2044,2042,2035,2070,2040,2054,1196
2088,1711439764960263005,2056,2070,2090,2057,2066,2056,1197
2089,1711439764970256883,2050,2069,2055,2011,2019,2050,1198
2090,1711439764980258767,2054,2056,2054,2075,2078,2055,1198
2091,1711439764990247374,2056,2088,2059,1948,2030,2053,1194
2092,1711439765000245741,2052,2034,2046,2086,2074,2072,1197
2093,1711439765010248850,2053,2067,2059,2126,2049,2051,1196
2094,1711439765020255317,2056,2050,2053,2032,2072,2052,1197
2095,1711439765030249438,2048,2061,2057,2072,2031,2058,1196
2096,1711439765040255021,2055,2035,2052,2081,2076,2044,1192
2097,1711439765050250796,2050,2047,2052,2044,2041,2061,1196
2098,1711439765060252933,2058,2053,2061,2088,2065,2052,1197
2099,1711439765070257697,2056,2053,2050,1996,2038,2050,1195
2100,1711439765080242618,2060,2056,2045,2056,2062,2067,1196
2101,1711439765090242109,2052,2066,2042,2044,2044,2054,1198
2102,1711439765100246542,2059,2063,2064,2138,2072,2049,1197
2103,1711439765110244200,2045,2037,2033,2048,2034,2046,1193
2104,1711439765120245847,2057,2076,2076,2090,2068,2068,1197
2105,1711439765130274981,2044,2057,2053,2098,2031,2056,1197
2106,1711439765140268521,2059,2049,2057,2104,2073,2041,1192
2107,1711439765150240654,2048,2037,2017,2015,2027,2046,1190
2108,1711439765160250408,2058,2021,2036,1951,2049,2052,1193
2109,1711439765170256233,2057,2034,2038,2072,2045,2051,1196
2110,1711439765180263522,2061,2062,2064,2073,2070,2058,1195
2111,1711439765190246779,2052,2056,2032,2034,2032,2049,1195
2112,1711439765200250630,2061,2065,2065,2034,2061,2056,1196
2113,1711439765210250092,2056,2097,2097,2027,2032,2065,1196
2114,1711439765220253703,2052,2049,2094,2090,2068,2044,1194
2115,1711439765230259509,2043,2024,2031,1988,2032,2060,1197
2116,1711439765240265003,2057,2024,2046,2013,2068,2060,1198
2117,1711439765250260647,2050,2043,2042,2062,2046,2056,1198
2118,1711439765260245728,2058,2058,2056,2042,2066,2052,1198
2119,1711439765270238566,2053,2083,2076,1993,2025,2036,1195
2120,1711439765280237968,2067,2060,2090,2074,2077,2079,1198
2121,1711439765290249596,2062,2058,2041,2037,2042,2050,1196
2122,1711439765300243075,2060,2042,2063,2078,2072,2052,1197
2123,1711439765310238378,2059,2063,2070,2037,2040,2038,1194
2124,1711439765320248362,2057,2045,2047,2101,2064,2066,1197
2125,1711439765330256632,2050,2084,2099,2032,2035,2041,1193
2126,1711439765340248298,2060,2051,2055,2072,2063,2059,1197
2127,1711439765350237117,2050,2055,2044,2008,2026,2004,1192
2128,1711439765360244215,2054,2047,2044,2100,2077,2047,1192
2129,1711439765370246733,2053,2072,2057,2020,2050,2049,1193
2130,1711439765380254793,2062,2053,2053,2081,2070,2066,1195
2131,1711439765390254155,2049,2034,2037,2069,2047,2044,1193
2132,1711439765400253166,2064,2076,2058,2092,2060,2052,1195
2133,1711439765410256566,2049,2073,2104,2024,2035,2050,1195
2134,1711439765420247840,2052,2043,2068,2078,2053,2037,1193
2135,1711439765430293981,2049,2074,2056,1949,2031,2029,1192
2136,1711439765440250953,2060,2065,2069,2107,2073,2060,1197
2137,1711439765450256809,2039,2040,2048,2059,2043,2048,1196
2138,1711439765460244546,2058,2053,2058,2097,2072,2061,1197
2139,1711439765470264050,2047,2056,2056,2068,2040,2060,1197
2140,1711439765480248109,2063,2076,2109,2095,2072,2060,1198
2141,1711439765490246308,2041,2020,2038,1887,2035,2037,1195
2142,1711439765500264590,2059,2010,2017,2148,2081,2060,1198
2143,1711439765510263350,2050,2032,2020,2054,2042,2056,1198
2144,1711439765520266429,2052,2052,2068,2130,2069,2054,1195
2145,1711439765530276103,2050,2043,2045,2025,2035,2049,1198
2146,1711439765540247937,2058,2053,2068,2120,2059,2042,1195
2147,1711439765550277512,2048,2057,2049,2052,2046,2048,1196
2148,1711439765560247392,2054,2056,2069,2094,2063,2051,1195
2149,1711439765570279893,2048,2045,2059,2041,2045,2044,1193
2150,1711439765580253089,2059,2042,2032,2102,2066,2058,1196
2151,1711439765590245547,2048,2037,2038,2078,2032,2047,1193
2152,1711439765600246622,2067,2064,2077,2061,2056,2053,1195
2153,1711439765610250644,2046,2046,2045,2034,2034,2049,1196
2154,1711439765620256910,2061,2087,2066,2029,2058,2050,1195
2155,1711439765630289201,2051,2068,2077,2059,2052,2049,1196
2156,1711439765640282109,2059,2055,2036,2120,2064,2016,1194
2157,1711439765650243220,2034,2037,2021,2072,2040,2037,1196
2158,1711439765660252833,2053,2052,2065,2018,2040,2032,1196
2159,1711439765670252756,2046,2036,2044,2042,2040,2049,1198
2160,1711439765680256045,2061,2063,2056,2114,2061,2060,1195
2161,1711439765690255758,2045,2048,2049,2007,2040,2049,1197
2162,1711439765700258066,2064,2065,2076,2094,2072,2058,1197
2163,1711439765710258150,2053,2062,2063,1992,2052,2057,1196
2164,1711439765720260918,2060,2045,2057,2043,2071,2060,1194
2165,1711439765730301266,2052,2047,2031,2092,2045,2052,1195
2166,1711439765740260232,2068,2073,2053,2039,2060,2047,1195
2167,1711439765750272441,2056,2088,2067,2056,2049,2076,1195
2168,1711439765760228863,2061,2064,2093,2085,2066,2036,1192
2169,1711439765770268640,2046,2041,2026,2051,2039,2040,1197
2170,1711439765780227807,2060,2061,2062,2001,2061,2056,1197
2171,1711439765790273666,2053,2064,2072,2042,2050,2053,1196
2172,1711439765800275382,2059,2052,2057,2117,2063,2056,1196
2173,1711439765810279835,2051,2058,2060,2069,2029,2056,1196
2174,1711439765820278866,2060,2046,2052,2105,2069,2064,1197
2175,1711439765830278338,2062,2067,2059,2032,2050,2036,1195
2176,1711439765840284423,2052,2048,2062,2042,2062,2043,1196
2177,1711439765850286832,2046,2042,2036,2033,2033,2026,1195
2178,1711439765860253304,2062,2053,2057,2077,2064,2065,1197
2179,1711439765870252686,2052,2072,2070,2005,2052,2060,1197
2180,1711439765880254583,2064,2103,2089,2070,2062,2062,1195
2181,1711439765890259356,2045,2017,2023,2079,2042,2054,1197
2182,1711439765900978516,2064,2042,2044,2105,2064,2062,1195
2183,1711439765910255644,2048,2047,2060,2046,2047,2025,1200
2184,1711439765920258022,2064,2067,2056,2108,2068,2078,1196
2185,1711439765930282517,2046,2035,2031,2072,2044,2043,1196
2186,1711439765940269342,2058,2084,2079,2086,2070,2047,1194
2187,1711439765950261638,2046,2030,2028,2011,2044,2052,1193
2188,1711439765960269538,2064,2056,2073,2078,2064,2057,1196
2189,1711439765970255391,2049,2058,2035,2108,2048,2051,1197
2190,1711439765980278363,2061,2060,2064,2112,2067,2080,1196
2191,1711439765990258945,2042,2037,2052,2002,2050,2035,1194
2192,1711439766000252464,2057,2052,2055,2077,2058,2053,1196
2193,1711439766010257489,2047,2060,2043,2045,2051,2042,1195
2194,1711439766020255961,2080,2089,2093,2096,2062,2060,1194
2195,1711439766030341758,2049,2042,2017,2030,2047,2070,1197
2196,1711439766040260221,2056,2034,2040,2064,2052,2056,1196
2197,1711439766050259835,2056,2051,2042,2038,2042,2047,1193
2198,1711439766060256673,2059,2060,2061,2154,2047,2048,1197
2199,1711439766070256438,2052,2051,2064,2040,2052,2036,1195
2200,1711439766080260432,2066,2085,2072,2092,2065,2058,1198
2201,1711439766090270788,2041,2034,2041,2022,2041,2043,1194
2202,1711439766100264330,2056,2056,2083,2073,2064,2064,1197
2203,1711439766110267623,2051,2077,2087,1986,2056,2024,1194
2204,1711439766120270494,2058,2066,2064,2108,2063,2054,1195
2205,1711439766130266730,2045,2035,2044,2043,2041,2040,1195
2206,1711439766140267267,2067,2098,2063,2051,2060,2061,1197
2207,1711439766150268124,2049,2059,2057,2088,2062,2053,1195
2208,1711439766160260363,2063,2065,2060,2080,2069,2066,1195
2209,1711439766170261300,2050,2047,2069,2079,2059,2049,1196
2210,1711439766180264081,2059,2074,2061,2058,2056,2061,1196
2211,1711439766190264106,2045,2041,2064,2060,2052,2042,1192
2212,1711439766200274263,2061,2088,2109,1972,2035,2051,1196
