seq,time,data[0],data[1],data[2],data[3],data[4],data[5],data[6]
201,1710925972871206832,2047,2052,2056,2002,2044,2045,1193
202,1710925972881210821,2058,2060,2076,2082,2053,2054,1197
203,1710925972891213047,2057,2062,2062,2058,2074,2061,1198
204,1710925972901224340,2042,2037,2035,2001,2051,2041,1196
205,1710925972911210355,2053,2051,2044,2096,2104,2068,1194
206,1710925972921211509,2057,2053,2065,2056,2061,2024,1194
207,1710925972931210047,2046,2045,2036,2037,2044,2063,1197
208,1710925972941210169,2060,2058,2072,2075,2037,2051,1196
209,1710925972951210962,2063,2053,2037,1916,2042,1986,1192
210,1710925972961234919,2051,2050,2049,2035,2033,2044,1194
211,1710925972971208942,2054,2049,2029,2041,2077,2052,1195
212,1710925972981210596,2056,2055,2071,2044,2041,2058,1198
213,1710925972991212211,2058,2061,2056,2104,2069,2045,1193
214,1710925973001211361,2057,2065,2077,2105,2024,2065,1193
215,1710925973011207535,2056,2048,2043,2101,2100,2068,1197
216,1710925973021206964,2056,2053,2064,2052,2057,2084,1195
217,1710925973031207357,2058,2059,2057,2052,2084,2036,1192
218,1710925973041207418,2056,2057,2059,2072,2059,2056,1195
219,1710925973051208963,2046,2043,2039,2050,2061,2062,1195
220,1710925973061206209,2049,2048,2070,2084,2039,2047,1193
221,1710925973071204868,2061,2062,2056,2083,2056,2060,1197
222,1710925973081209569,2045,2046,2060,2076,2016,1980,1194
223,1710925973091204891,2033,2033,2036,2083,2056,2027,1193
224,1710925973101205293,2065,2065,2071,2076,2044,2078,1195
225,1710925973111205726,2056,2056,2049,1985,2056,2073,1195
226,1710925973121207029,2056,2056,2065,2116,2044,2053,1196
227,1710925973131212190,2050,2049,2042,2040,2031,2033,1194
228,1710925973141208745,2052,2057,2080,2065,2014,2046,1193
229,1710925973151211281,2051,2045,2033,2078,2082,2064,1196
230,1710925973161240088,2064,2068,2082,2044,2025,2045,1193
231,1710925973171206475,2056,2061,2062,2025,2050,2064,1196
232,1710925973181211436,2044,2033,2046,2120,2084,2043,1191
233,1710925973191205797,2054,2059,2053,2092,2072,2047,1192
234,1710925973201254852,2044,2038,2041,2027,2002,2055,1194
235,1710925973211210959,2038,2036,2033,2086,2037,1988,1191
236,1710925973221208826,2046,2050,2045,2044,2056,2024,1193
237,1710925973231206684,2057,2063,2056,1976,2044,2044,1193
238,1710925973241207517,2053,2045,2049,2006,2011,2050,1197
239,1710925973251212308,2056,2060,2052,2038,2050,2077,1196
240,1710925973261215425,2056,2053,2066,2050,2060,2053,1197
241,1710925973271218082,2046,2041,2022,2049,2050,1979,1194
242,1710925973281215098,2057,2052,2046,2053,2093,2080,1195
243,1710925973291229526,2045,2036,2033,2112,2082,2053,1196
244,1710925973301219217,2052,2046,2040,2059,2068,2061,1196
245,1710925973311234448,2056,2055,2054,2074,2069,2046,1193
246,1710925973321241994,2042,2031,2033,2076,2053,2018,1195
247,1710925973331210596,2050,2054,2053,2079,2084,2054,1195
248,1710925973341240514,2052,2051,2056,2020,2029,2068,1197
249,1710925973351243762,2052,2060,2056,2096,2082,2057,1196
250,1710925973361239225,2048,2043,2054,2061,2032,2046,1192
251,1710925973371242322,2052,2043,2038,2002,2051,2063,1197
252,1710925973381242404,2050,2050,2057,2076,2042,2057,1194
253,1710925973391237635,2063,2065,2068,2090,2085,2081,1195
254,1710925973401253216,2060,2059,2061,2053,2057,2089,1195
255,1710925973411237728,2047,2053,2052,2058,2078,2062,1197
256,1710925973421233191,2048,2040,2026,2016,2010,2046,1192
257,1710925973431234315,2049,2053,2052,1955,2020,2047,1193
258,1710925973441247862,2050,2045,2048,2089,2046,2031,1194
259,1710925973451238476,2057,2058,2044,2068,2064,2057,1198
260,1710925973461245451,2052,2044,2042,2000,2053,2041,1192
261,1710925973471239511,2057,2054,2051,2038,2050,2019,1194
262,1710925973481233039,2050,2049,2061,2039,2023,2044,1193
263,1710925973491242468,2052,2056,2050,2072,2059,2060,1196
264,1710925973501233303,2059,2060,2061,2109,2066,2064,1197
265,1710925973511228966,2056,2059,2058,2049,2080,2064,1197
266,1710925973521230961,2052,2059,2072,2080,2037,2056,1196
267,1710925973531229770,2051,2047,2038,2058,2052,2042,1196
268,1710925973541231495,2053,2054,2062,2060,2015,2034,1193
269,1710925973551227589,2062,2061,2060,2091,2079,2045,1192
270,1710925973561229865,2054,2056,2070,2068,2021,2013,1194
271,1710925973571232692,2055,2053,2052,2109,2067,2072,1196
272,1710925973581230038,2060,2064,2094,2066,2049,2060,1197
273,1710925973591233646,2053,2044,2029,2001,2043,2047,1194
274,1710925973601232185,2057,2052,2065,2098,2054,2068,1195
275,1710925973611229271,2047,2046,2044,2057,2085,2048,1197
276,1710925973621224734,2060,2072,2102,2045,2010,2046,1193
277,1710925973631222311,2052,2051,2044,2104,2116,2068,1197
278,1710925973641223364,2049,2052,2060,2046,2042,2088,1197
279,1710925973651222384,2050,2057,2060,2089,2088,2065,1195
280,1710925973661222506,2053,2055,2062,2009,2008,2042,1192
281,1710925973671222135,2047,2048,2041,1992,2008,2043,1192
282,1710925973681221876,2089,2110,2102,1966,2029,2058,1193
283,1710925973691223621,2058,2079,2076,1922,2002,2031,1194
284,1710925973701217541,2061,2066,2096,2104,1993,2035,1193
285,1710925973711218625,2047,2035,2019,2044,2076,2068,1195
286,1710925973721219258,2058,2056,2059,2100,2088,2079,1198
287,1710925973731219710,2052,2044,2029,2061,2045,2054,1196
288,1710925973741214602,2057,2047,2041,2060,2030,2054,1195
289,1710925973751224883,2053,2048,2040,2032,2070,2053,1195
290,1710925973761206298,2051,2051,2062,1948,2031,2047,1192
291,1710925973771214034,2046,2050,2042,1956,1992,2033,1194
292,1710925973781217973,2059,2061,2074,2068,2034,2049,1195
293,1710925973791256518,2049,2040,2024,2057,2082,2056,1195
294,1710925973801205232,2053,2051,2066,2057,2025,2033,1191
295,1710925973811214491,2049,2042,2037,2108,2096,2087,1196
296,1710925973821212769,2055,2047,2049,2056,2019,2043,1192
297,1710925973831211428,2067,2067,2063,2077,2054,2096,1196
298,1710925973841210087,2052,2053,2045,2052,2044,2064,1195
299,1710925973851204088,2059,2050,2030,2084,2080,2056,1196
300,1710925973861210210,2064,2068,2073,2061,2058,2059,1196
301,1710925973871210722,2057,2054,2064,2024,2080,2064,1193
302,1710925973881222376,2050,2048,2053,2073,2036,2061,1196
303,1710925973891214172,2052,2050,2041,2020,2056,2048,1194
304,1710925973901243559,2055,2052,2062,2025,2061,2060,1196
305,1710925973911209486,2060,2060,2051,2088,2069,2066,1197
306,1710925973921232110,2064,2068,2072,2065,2062,2085,1197
307,1710925973931222183,2052,2053,2049,2008,2042,2044,1194
308,1710925973941176939,2050,2048,2062,2030,2064,2077,1197
309,1710925973951216013,2059,2052,2044,2037,2066,2052,1197
310,1710925973961177442,2057,2057,2064,2021,2047,2061,1195
311,1710925973971214924,2059,2061,2057,2092,2079,2060,1197
312,1710925973981229053,2050,2047,2050,2026,2003,2006,1193
313,1710925973991195861,2052,2051,2047,2057,2046,2048,1195
314,1710925974001197606,2061,2064,2065,2071,2041,2054,1193
315,1710925974011214129,2046,2037,2025,2036,2062,2047,1192
316,1710925974021198230,2049,2045,2048,2060,2045,2056,1196
317,1710925974031197900,2056,2054,2045,2072,2079,2050,1195
318,1710925974041220104,2048,2041,2050,2045,2030,2033,1193
319,1710925974051216038,2064,2055,2042,2030,2043,2015,1195
320,1710925974061198155,2054,2056,2066,2009,2054,2058,1196
321,1710925974071199670,2056,2061,2056,2056,2068,2061,1197
322,1710925974081225049,2050,2048,2060,2021,2040,1984,1191
323,1710925974091200944,2053,2054,2050,2045,2055,2047,1195
324,1710925974101201537,2057,2060,2076,2053,2071,2065,1197
325,1710925974111199535,2054,2056,2051,2034,2044,2047,1194
326,1710925974121200618,2052,2052,2057,2068,2051,2065,1196
327,1710925974131222150,2053,2048,2030,2019,2044,2047,1194
328,1710925974141203005,2057,2059,2061,2060,2072,2067,1197
329,1710925974151202435,2056,2050,2046,2024,2049,2029,1194
330,1710925974161201054,2054,2049,2062,2103,2040,2056,1195
331,1710925974171202218,2059,2056,2054,2137,2100,2024,1195
332,1710925974181241834,2056,2056,2072,2162,2066,2063,1196
333,1710925974191221637,2060,2060,2058,2125,2117,2069,1197
334,1710925974201232779,2058,2060,2070,2072,2042,2043,1190
335,1710925974211170763,2058,2060,2060,2066,2059,2008,1192
336,1710925974221203847,2060,2054,2056,2040,2050,2059,1196
337,1710925974231199831,2053,2056,2054,2013,2026,2038,1193
338,1710925974241207417,2055,2060,2076,2064,2046,2088,1195
339,1710925974251225692,2054,2049,2049,2077,2052,2049,1195
340,1710925974261202460,2058,2061,2070,2104,2042,2048,1197
341,1710925974271231116,2052,2056,2058,2077,2056,2068,1195
342,1710925974281206190,2056,2052,2062,2092,2045,2070,1196
343,1710925974291203837,2056,2056,2049,2061,2062,2061,1196
344,1710925974301207955,2047,2045,2053,2044,2034,2067,1195
345,1710925974311229327,2054,2052,2042,2056,2060,2050,1194
346,1710925974321206966,2053,2056,2073,2139,2060,2056,1195
347,1710925974331202610,2053,2052,2052,2084,2087,2057,1196
348,1710925974341208953,2056,2056,2066,1996,2018,2044,1193
349,1710925974351196881,2058,2051,2047,2023,2036,2058,1197
350,1710925974361204116,2053,2047,2041,2064,2030,2056,1196
351,1710925974371204729,2052,2053,2050,2008,2064,2051,1195
352,1710925974381206113,2064,2068,2081,2096,2055,2011,1194
353,1710925974391209451,2054,2046,2042,2039,2061,2047,1193
354,1710925974401233748,2056,2052,2058,1957,2021,2049,1194
355,1710925974411223940,2052,2047,2037,2053,2080,2056,1195
356,1710925974421201920,2051,2045,2046,2053,2021,2044,1193
357,1710925974431204286,2048,2044,2035,1976,2025,2037,1192
358,1710925974441226941,2062,2062,2064,2045,2040,2047,1194
359,1710925974451215280,2053,2050,2036,1970,2056,2062,1196
360,1710925974461194000,2054,2051,2056,2065,2059,2060,1194
361,1710925974471193120,2057,2047,2038,2011,2077,2058,1195
362,1710925974481206948,2058,2056,2070,2130,2069,2062,1195
363,1710925974491218201,2053,2049,2039,2047,2056,2046,1194
364,1710925974501208694,2057,2053,2061,2096,2060,2059,1195
365,1710925974511203605,2050,2054,2050,2081,2044,2076,1197
366,1710925974521204147,2056,2053,2056,2050,2026,2068,1197
367,1710925974531206834,2061,2060,2061,2063,2052,2009,1191
368,1710925974541205473,2056,2053,2060,2036,2029,2052,1195
369,1710925974551205114,2052,2051,2049,2050,2031,2010,1193
370,1710925974561207520,2049,2050,2060,2062,2016,2059,1196
371,1710925974571200227,2056,2058,2050,2053,2062,2045,1192
372,1710925974581204506,2058,2057,2064,2038,2062,2033,1194
373,1710925974591215990,2047,2045,2029,1989,2047,1955,1194
374,1710925974601211432,2051,2052,2062,1986,1988,2036,1192
375,1710925974611202237,2057,2056,2067,2073,2069,2064,1198
376,1710925974621202908,2052,2055,2065,2064,2052,2056,1195
377,1710925974631206767,2053,2053,2045,2074,2064,2054,1196
378,1710925974641214774,2052,2052,2056,2060,2051,2056,1194
379,1710925974651206109,2047,2048,2039,2027,2066,2057,1193
380,1710925974661204988,2045,2052,2075,2036,2032,2085,1197
381,1710925974671203706,2045,2059,2048,2056,2057,2059,1197
382,1710925974681213687,2052,2053,2066,2056,2041,2059,1196
383,1710925974691212777,2033,2052,2044,2064,2067,2046,1192
384,1710925974701210193,2058,2051,2070,2064,2049,2047,1194
385,1710925974711208862,2052,2056,2057,2006,2070,2037,1193
386,1710925974721209004,2052,2050,2061,2044,2038,2044,1195
387,1710925974731187494,2052,2047,2032,2008,2049,2080,1197
388,1710925974741212974,2047,2047,2045,2074,2050,2098,1196
389,1710925974751219207,2049,2039,2021,2001,2049,2044,1192
390,1710925974761201695,2047,2046,2051,2056,2032,2028,1192
391,1710925974771195044,2050,2050,2034,2088,2072,2056,1197
392,1710925974781211486,2056,2062,2075,2017,2028,2004,1194
393,1710925974791203011,2056,2054,2042,2033,2080,2041,1193
394,1710925974801216428,2054,2054,2060,2124,2072,2072,1193
395,1710925974811200479,2067,2069,2056,2024,2028,2065,1195
396,1710925974821205661,2057,2056,2057,2000,2006,2056,1196
397,1710925974831202046,2056,2052,2043,2044,2045,2040,1193
398,1710925974841216874,2048,2046,2054,2012,2033,2049,1195
399,1710925974851224731,2053,2052,2042,2072,2077,2056,1195
400,1710925974861200797,2057,2056,2071,1997,2038,2036,1193
401,1710925974871210537,2056,2051,2043,2062,2080,2068,1197
402,1710925974881208184,2057,2048,2054,2061,2060,2052,1197
403,1710925974891221309,2054,2054,2054,2064,2072,2037,1193
404,1710925974901209257,2050,2049,2052,2084,2042,2053,1196
405,1710925974911226080,2056,2058,2055,2053,2050,2049,1197
406,1710925974921199822,2069,2061,2062,1997,2024,2049,1197
407,1710925974931215263,2060,2059,2052,2072,2057,2054,1197
408,1710925974941210726,2056,2058,2068,2065,2042,2052,1195
409,1710925974951201699,2056,2057,2057,2059,2061,2051,1196
410,1710925974961206339,2053,2050,2066,2080,2039,2013,1192
411,1710925974971202503,2054,2050,2038,2052,2060,2053,1196
412,1710925974981214207,2058,2056,2064,2067,2034,2062,1196
413,1710925974991217124,2053,2047,2033,2080,2086,2057,1197
414,1710925975001210743,2050,2046,2052,2073,2033,2008,1193
415,1710925975011207157,2055,2051,2040,2045,2045,2046,1194
416,1710925975021138088,2053,2050,2057,2041,2033,2056,1194
417,1710925975031204085,2059,2054,2049,2034,2041,2038,1192
418,1710925975041216198,2052,2050,2064,2059,2018,2064,1195
419,1710925975051210328,2056,2051,2039,2049,2047,2046,1193
420,1710925975061206883,2053,2048,2066,2016,2031,2056,1196
421,1710925975071196776,2052,2043,2037,2061,2072,2057,1198
422,1710925975081228496,2053,2052,2060,2068,2026,2042,1192
423,1710925975091232225,2057,2056,2048,2086,2073,2046,1194
424,1710925975101198222,2058,2057,2061,2096,2070,2059,1199
425,1710925975111215857,2055,2050,2043,2053,2061,2056,1197
426,1710925975121206359,2056,2056,2067,2052,2040,2088,1197
427,1710925975131206080,2053,2054,2050,2082,2080,2064,1195
428,1710925975141247961,2053,2049,2058,2049,2034,2059,1196
429,1710925975151205703,2046,2048,2044,2046,2069,2056,1196
430,1710925975161127154,2055,2055,2064,2068,2044,2068,1195
431,1710925975171217838,2052,2056,2059,2042,2058,2050,1195
432,1710925975181210505,2052,2050,2062,2083,2034,2056,1195
433,1710925975191197641,2062,2056,2041,2038,2073,1998,1196
434,1710925975201222500,2055,2053,2058,2054,2040,2045,1191
435,1710925975211214687,2056,2054,2046,2085,2069,2053,1196
436,1710925975221215019,2053,2050,2054,2066,2038,2045,1194
437,1710925975231223556,2050,2044,2038,2067,2029,2054,1193
438,1710925975241250669,2049,2056,2068,2112,2054,2059,1195
439,1710925975251205364,2059,2059,2057,2045,2058,2050,1196
440,1710925975261213100,2052,2053,2060,2072,2024,2056,1197
441,1710925975271214132,2058,2055,2044,2052,2072,2060,1194
442,1710925975281196339,2050,2052,2056,2033,2021,2032,1193
443,1710925975291228572,2050,2045,2032,1987,2034,2041,1194
444,1710925975301215329,2051,2046,2062,2081,2036,2025,1194
445,1710925975311215810,2051,2050,2044,2064,2072,2046,1193
446,1710925975321207906,2057,2052,2061,1997,2034,2051,1194
447,1710925975331198841,2056,2057,2052,2020,2072,2082,1194
448,1710925975341208440,2057,2056,2066,2059,2045,2072,1195
449,1710925975351217759,2058,2056,2043,2062,2068,2061,1196
450,1710925975361210266,2064,2058,2067,2004,2040,2029,1194
451,1710925975371218223,2057,2060,2056,2096,2085,2057,1196
452,1710925975381217292,2053,2055,2060,2040,2010,2047,1194
453,1710925975391221881,2061,2056,2053,2074,2069,2057,1197
454,1710925975401221392,2062,2061,2069,2067,2046,2063,1196
455,1710925975411205043,2052,2045,2042,2060,2064,2057,1193
456,1710925975421205233,2060,2059,2066,2029,2033,2018,1192
457,1710925975431193773,2057,2058,2053,2020,2056,2062,1196
458,1710925975441153228,2058,2054,2068,2082,2052,2074,1196
459,1710925975451201581,2059,2060,2056,2022,2042,2046,1192
460,1710925975461162788,2053,2053,2061,2036,2040,2050,1197
461,1710925975471183579,2054,2056,2057,2064,2070,2054,1197
462,1710925975481198479,2056,2051,2060,2063,2049,2062,1195
463,1710925975491205914,2058,2052,2037,2057,2068,2052,1193
464,1710925975501208189,2056,2052,2056,2076,2051,2056,1196
465,1710925975511208141,2047,2042,2032,2054,2066,2054,1194
466,1710925975521161544,2052,2053,2066,2038,2039,2057,1195
467,1710925975531204856,2052,2049,2039,2028,2056,2056,1196
468,1710925975541204156,2053,2057,2070,2074,2058,2090,1193
469,1710925975551199619,2057,2052,2041,2020,2073,2108,1194
470,1710925975561170265,2052,2043,2052,2016,2030,2049,1195
471,1710925975571208448,2049,2046,2036,1997,2052,2049,1196
472,1710925975581204001,2049,2044,2046,1993,2031,2055,1196
473,1710925975591187792,2053,2050,2036,2054,2048,2038,1194
474,1710925975601206509,2052,2052,2058,2053,2050,2062,1194
475,1710925975611219023,2056,2060,2052,2064,2076,2032,1194
476,1710925975621194839,2051,2052,2062,2083,2056,2056,1196
477,1710925975631201774,2054,2056,2061,2052,2074,2061,1196
478,1710925975641202857,2050,2048,2052,2052,2043,2048,1196
479,1710925975651203248,2054,2052,2053,2073,2058,2046,1193
480,1710925975661199523,2053,2052,2064,2073,2038,2056,1199
481,1710925975671217058,2053,2053,2043,2050,2072,2048,1193
482,1710925975681193594,2055,2057,2068,2082,2053,2052,1197
483,1710925975691226317,2053,2053,2042,2021,2074,2051,1196
484,1710925975701192985,2054,2056,2056,2089,2041,2037,1195
485,1710925975711200932,2053,2050,2042,2068,2075,2036,1192
486,1710925975721960745,2053,2049,2053,2060,2039,2046,1194
487,1710925975731201936,2049,2045,2043,2075,2076,2064,1196
488,1710925975741189233,2058,2064,2078,2065,2045,2063,1196
489,1710925975751159498,2050,2047,2042,2054,2061,2050,1195
490,1710925975761200477,2051,2056,2062,2070,2044,2068,1196
491,1710925975771190780,2052,2051,2034,2052,2078,2073,1195
492,1710925975781201862,2050,2052,2057,2080,2044,2064,1197
493,1710925975791202595,2056,2049,2039,2057,2062,2054,1196
494,1710925975801198839,2055,2053,2058,2056,2045,2056,1194
495,1710925975811167571,2058,2053,2045,2061,2057,2014,1193
496,1710925975821188803,2056,2051,2052,2048,2047,2062,1195
497,1710925975831190137,2053,2062,2047,2110,2074,2046,1192
498,1710925975841216868,2051,2051,2056,2046,2036,2068,1196
499,1710925975851191401,2052,2053,2042,2044,2059,2047,1194
500,1710925975861168669,2057,2060,2072,2040,2040,2060,1195
501,1710925975871208697,2077,2061,2049,2066,2052,2044,1193
502,1710925975881201424,2051,2052,2064,2092,2040,2018,1195
503,1710925975891196105,2082,2053,2054,2039,2058,2063,1195
504,1710925975901200916,2043,2051,2060,2041,2047,2050,1197
505,1710925975911212338,2054,2049,2048,2028,2061,2069,1196
506,1710925975921205216,2049,2052,2056,2018,2038,2050,1195
507,1710925975931203043,2050,2056,2050,2020,2052,2074,1194
508,1710925975941195070,2045,2041,2051,1963,2025,2043,1194
509,1710925975951206712,2049,2046,2042,2056,2060,2060,1196
510,1710925975961187207,2037,2049,2059,2052,2036,2096,1194
511,1710925975971193741,2044,2054,2050,2064,2078,2058,1197
512,1710925975981207488,2056,2064,2061,2080,2045,2056,1197
513,1710925975991215534,2056,2050,2032,2056,2061,2052,1195
514,1710925976001216547,2053,2048,2065,2057,2047,2060,1199
515,1710925976011188926,2060,2056,2049,2021,2072,2009,1193
516,1710925976021222381,2047,2052,2064,2074,2043,2062,1195
517,1710925976031229295,2052,2052,2041,2020,2060,2012,1196
518,1710925976041211763,2049,2052,2070,2034,2039,2048,1195
519,1710925976051199691,2056,2049,2042,2077,2069,2051,1196
520,1710925976061212056,2060,2072,2058,2144,2059,2066,1195
521,1710925976071194133,2060,2053,2046,2079,2065,2048,1196
522,1710925976081198232,2047,2046,2042,2043,2044,2042,1194
523,1710925976091202501,2058,2058,2052,2092,2064,2024,1194
524,1710925976101199297,2056,2054,2064,2093,2040,2032,1195
525,1710925976111231568,2057,2049,2044,2065,2057,2045,1192
526,1710925976121213305,2054,2052,2054,2070,2043,2070,1195
527,1710925976131208458,2052,2054,2057,2045,2065,2030,1193
528,1710925976141237854,2053,2044,2046,2098,2011,2033,1194
529,1710925976151203540,2054,2049,2036,2093,2075,2056,1196
530,1710925976161200095,2069,2050,2060,2132,2040,2066,1197
531,1710925976171177813,2072,2061,2048,2057,2072,2066,1194
532,1710925976181181963,2056,2054,2061,1969,2045,2068,1196
533,1710925976191208575,2052,2049,2040,1984,2062,2044,1194
534,1710925976201171365,2056,2056,2066,2069,2033,2018,1190
535,1710925976211208096,2058,2054,2040,1984,2051,2044,1192
536,1710925976221139818,2054,2050,2059,2043,2047,2058,1195
537,1710925976231208829,2063,2056,2046,2070,2069,2045,1193
538,1710925976241204733,2056,2055,2064,2010,2034,2031,1192
539,1710925976251196008,2052,2052,2052,2072,2075,2042,1192
540,1710925976261121868,2062,2061,2080,2056,2045,2061,1196
541,1710925976271189988,2052,2050,2036,2034,2062,2066,1197
542,1710925976281211670,2051,2054,2064,2083,2052,2030,1195
543,1710925976291183258,2061,2066,2091,2058,2064,2061,1196
544,1710925976301184301,2047,2034,2056,2035,2026,2054,1197
545,1710925976311191586,2054,2058,2030,2090,2054,2038,1193
546,1710925976321202508,2049,2049,2056,2088,2055,2052,1197
547,1710925976331219021,2052,2072,2060,2100,2072,2050,1197
548,1710925976341223199,2051,2068,2069,2064,2032,2056,1196
549,1710925976351193043,2059,2043,2021,2048,2056,2045,1193
550,1710925976361188877,2056,2057,2073,2048,2040,2048,1194
551,1710925976371200008,2048,2036,2048,2054,2068,2040,1193
552,1710925976381218164,2056,2058,2062,2076,2052,2043,1192
553,1710925976391203488,2057,2090,2080,2084,2066,2042,1192
554,1710925976401192057,2060,2052,2094,2088,2054,2059,1192
555,1710925976411192399,2048,2044,2041,2065,2068,2053,1196
556,1710925976421175288,2050,2046,2052,2040,2046,2052,1192
557,1710925976431106668,2052,2053,2049,2069,2066,2046,1193
558,1710925976441203544,2052,2052,2064,2036,2057,2065,1194
559,1710925976451207513,2056,2056,2053,2082,2070,1976,1194
560,1710925976461208575,2055,2051,2064,2065,2032,2032,1195
561,1710925976471212113,2056,2052,2049,2094,2064,2051,1196
562,1710925976481198719,2061,2078,2083,2101,2046,2059,1194
563,1710925976491201756,2057,2045,2044,2065,2063,2079,1197
564,1710925976501203981,2048,2057,2072,2053,2038,2036,1192
565,1710925976511190137,2058,2057,2045,2058,2065,2042,1194
566,1710925976521203192,2056,2044,2064,2116,2054,2057,1197
567,1710925976531192714,2051,2052,2045,2025,2076,2056,1196
568,1710925976541202904,2049,2063,2070,2048,2036,2051,1195
569,1710925976551198887,2067,2046,2047,2052,2070,2053,1196
570,1710925976561201013,2050,2050,2065,1972,2030,2061,1195
571,1710925976571195253,2034,2064,2052,2027,2053,2013,1194
572,1710925976581189904,2020,2048,2068,2065,2054,2083,1195
573,1710925976591217097,2047,2070,2068,2068,2071,2051,1195
574,1710925976601205186,2049,2048,2054,2074,2033,2049,1194
575,1710925976611201930,2070,2047,2045,2092,2071,2060,1195
576,1710925976621207973,2065,2069,2064,2008,2036,2054,1198
577,1710925976631210379,2067,2073,2060,2041,2056,2040,1194
578,1710925976641193207,2044,2048,2052,2030,2046,2062,1195
579,1710925976651218056,2061,2083,2062,2002,2059,2061,1195
580,1710925976661207306,2056,2049,2072,2043,2045,2060,1195
581,1710925976671216124,2051,2060,2072,2017,2048,2063,1196
582,1710925976681191499,2070,2044,2054,2048,2041,2052,1194
583,1710925976691196289,2058,2061,2060,2113,2077,2059,1196
584,1710925976701201961,2056,2074,2076,2061,2047,2086,1195
585,1710925976712078175,2059,2031,2036,2001,2059,2086,1194
586,1710925976721208155,2085,2092,2080,2120,2052,2064,1195
587,1710925976731193338,2053,2047,2030,2196,2076,2047,1194
588,1710925976741195634,2058,2056,2060,2080,2052,2058,1196
589,1710925976751195434,2060,2058,2051,2040,2062,2049,1195
590,1710925976761206095,2041,2010,2030,2037,2007,2035,1192
591,1710925976771196439,2069,2045,2028,2056,2067,2048,1196
592,1710925976781207250,2078,2030,2047,2074,2049,2073,1195
593,1710925976791204556,2048,2044,2038,2076,2072,2065,1196
594,1710925976801201081,2063,2052,2061,2088,2037,2038,1192
595,1710925976811198767,2056,2056,2050,2029,2064,2048,1198
596,1710925976821206213,2051,2047,2045,2066,2052,2061,1196
597,1710925976831167000,2058,2056,2045,2054,2061,2050,1194
598,1710925976841202618,2056,2066,2080,2040,2034,2056,1197
599,1710925976851203932,2055,2051,2043,2058,2070,2041,1193
600,1710925976861205306,2060,2052,2060,2033,2038,2049,1197
601,1710925976871210216,2056,2062,2048,2046,2066,2046,1196
602,1710925976881202503,2036,2051,2068,2060,2041,2050,1197
603,1710925976891216601,2074,2060,2043,2047,2060,2011,1194
604,1710925976901208275,2054,2029,2046,2018,2045,2022,1195
605,1710925976911203117,2065,2060,2046,2005,2068,2056,1196
606,1710925976921205113,2052,2052,2072,2139,2049,2061,1197
607,1710925976931208650,2059,2068,2056,2033,2068,2073,1193
608,1710925976941205205,2054,2056,2060,2050,2039,2050,1195
609,1710925976951207861,2052,2043,2041,2060,2058,2067,1197
610,1710925976961208813,2059,2070,2064,2067,2027,2056,1197
611,1710925976971207893,2026,2050,2052,2044,2066,2069,1198
612,1710925976981210991,2066,2054,2063,2092,2035,2015,1195
613,1710925976991216391,2054,2062,2047,2043,2065,2066,1199
614,1710925977001210632,2060,2064,2081,2055,2041,2048,1196
615,1710925977011210403,2064,2056,2044,2011,2055,2043,1193
616,1710925977021210083,2106,2078,2076,2060,2053,2072,1198
617,1710925977031226686,2068,2056,2049,2077,2060,2050,1197
618,1710925977041215796,2040,2049,2064,2050,2036,2056,1194
619,1710925977051208944,2033,2044,2038,1976,2040,2052,1195
620,1710925977061213444,2053,2041,2058,2084,2052,2034,1192
621,1710925977071214106,2020,2025,2034,2054,2064,2007,1193
622,1710925977081212725,2077,2052,2058,2047,2045,2050,1196
623,1710925977091214439,2085,2094,2052,2074,2054,1957,1192
624,1710925977101210533,2056,2036,2069,2056,2043,2068,1194
625,1710925977111194783,2048,2040,2038,2052,2052,2033,1194
626,1710925977121212889,2056,2054,2061,2064,2043,2064,1196
627,1710925977131213422,2057,2053,2043,2052,2067,2056,1194
628,1710925977141214975,2064,2065,2084,2075,2062,2064,1196
629,1710925977151220126,2058,2059,2046,2026,2064,2054,1194
630,1710925977161195330,2060,2057,2072,2069,2046,2053,1196
631,1710925977171195502,2054,2046,2034,2045,2074,2072,1196
632,1710925977181216622,2057,2056,2065,2000,2043,2057,1195
633,1710925977191215101,2066,2062,2052,2080,2043,2061,1196
634,1710925977201193370,2028,2051,2061,2100,2043,2061,1195
635,1710925977211218680,2052,2031,2023,2036,2064,2051,1194
636,1710925977221219232,2050,2052,2060,2099,2044,2053,1195
637,1710925977231200507,2093,2068,2042,2081,2090,2070,1194
638,1710925977241230906,2052,2052,2056,2074,2046,2058,1196
639,1710925977251188747,2059,2065,2053,2088,2078,2058,1195
640,1710925977261196884,2060,2047,2053,2044,2028,2010,1194
641,1710925977271197146,2045,2031,2028,2100,2043,2021,1194
642,1710925977281224568,2069,2077,2073,2091,2032,2065,1196
643,1710925977291199522,2049,2048,2049,1981,2059,2033,1194
644,1710925977301205644,2050,2058,2074,2080,2041,2053,1198
645,1710925977311202921,2048,2029,2040,2058,2065,2024,1194
646,1710925977321199685,2052,2048,2056,2057,2028,2054,1198
647,1710925977331199917,2052,2050,2038,1999,2048,2056,1196
648,1710925977341141708,2050,2100,2110,2057,2040,2084,1196
649,1710925977351160133,2049,2042,2043,2038,2056,2079,1196
650,1710925977361206954,2053,2056,2061,2008,2032,2030,1193
651,1710925977371201223,2048,2048,2045,2001,2052,2106,1195
652,1710925977381202687,2058,2064,2063,2070,2045,2065,1196
653,1710925977391238387,2051,2050,2042,2068,2077,2008,1194
654,1710925977401188122,2051,2050,2059,2010,2033,2021,1192
655,1710925977411202140,2052,2054,2054,2041,2073,2064,1195
656,1710925977421199115,2052,2062,2072,2075,2027,2047,1195
657,1710925977431200409,2052,2046,2042,2083,2088,2057,1197
658,1710925977441226439,2053,2049,2053,2077,2043,2052,1193
659,1710925977451216892,2058,2080,2056,2078,2070,2079,1196
660,1710925977461206253,2068,2061,2064,2068,2028,2092,1194
661,1710925977471198860,2056,2052,2047,2076,2076,2065,1196
662,1710925977481214471,2058,2051,2080,2071,2032,2042,1193
663,1710925977491210714,2056,2047,2047,2089,2089,2057,1196
664,1710925977501189375,2046,2088,2076,2051,2049,2080,1198
665,1710925977511197803,2045,2051,2050,2058,2049,2052,1196
666,1710925977521199697,2044,2056,2066,2093,2046,1992,1193
667,1710925977531197414,2052,2051,2049,2057,2070,2053,1195
668,1710925977541203245,2044,2032,2037,2083,2046,2045,1194
669,1710925977551160005,2076,2092,2068,2094,2056,2012,1191
670,1710925977561199931,2051,2004,2025,2052,2039,2072,1197
671,1710925977571199241,2061,2048,2032,2026,2041,2038,1195
672,1710925977581214852,2049,2050,2060,2081,2046,2052,1194
673,1710925977591214352,2049,2062,2054,2070,2052,2044,1192
674,1710925977601184326,2062,2036,2051,1994,2040,2080,1194
675,1710925977611210617,2062,2054,2036,2021,2064,2069,1197
676,1710925977621206290,2053,2069,2069,2098,2048,2056,1198
677,1710925977631203916,2054,2076,2063,2064,2064,2053,1195
678,1710925977641197686,2049,2041,2041,2040,2028,2050,1197
679,1710925977651206774,2062,2053,2040,2047,2075,2027,1193
680,1710925977661200152,2049,2049,2056,2101,2043,2024,1192
681,1710925977671197960,2048,2043,2043,2072,2030,2046,1192
682,1710925977681195385,2056,2066,2070,2064,2040,2077,1194
683,1710925977691212229,2053,2062,2044,2040,2061,2043,1192
684,1710925977701220525,2057,2047,2060,2025,2043,2063,1195
685,1710925977711184729,2047,2037,2030,2074,2067,2046,1192
686,1710925977721194469,2065,2045,2067,2063,2034,2014,1193
687,1710925977731197615,2050,2044,2044,2050,2066,2065,1196
688,1710925977741195693,2052,2028,2043,2024,2031,2066,1194
689,1710925977751207626,2066,2054,2050,2069,2078,2053,1195
690,1710925977761204912,2064,2074,2095,2076,2044,2060,1195
691,1710925977771200145,2055,2054,2030,2054,2056,2025,1193
692,1710925977781203452,2050,2048,2065,2088,2048,2084,1194
693,1710925977791200447,2056,2057,2064,1999,2072,2041,1192
694,1710925977801215436,2066,2071,2062,2093,2040,2060,1193
695,1710925977811190901,2054,2031,2042,2012,2060,2069,1195
696,1710925977821197174,2059,2051,2074,2050,2018,2060,1194
697,1710925977831196884,2054,2047,2026,2050,2072,2024,1190
698,1710925977841194391,2059,2052,2066,2034,2037,2062,1195
699,1710925977851208699,2056,2062,2064,2050,2072,2003,1192
700,1710925977861200815,2053,2044,2053,2042,2046,2063,1194
701,1710925977871199203,2070,2050,2056,2073,2053,2085,1194
702,1710925977881199014,2052,2071,2056,2093,2051,2056,1196
703,1710925977891218252,2051,2053,2049,2077,2064,2051,1194
704,1710925977901220266,2049,2042,2049,2077,2057,2065,1196
705,1710925977911215759,2064,2051,2046,2046,2064,2060,1194
706,1710925977921193397,2058,2046,2056,2084,2031,2027,1194
707,1710925977931195252,2056,2057,2050,1992,2065,2060,1197
708,1710925977941191276,2058,2072,2088,2064,2044,2066,1197
709,1710925977951191437,2057,2048,2040,2021,2057,2050,1195
710,1710925977961203401,2054,2086,2061,2076,2051,2044,1191
711,1710925977971204253,2058,2090,2061,1986,2061,1993,1191
712,1710925977981216438,2052,2064,2098,2056,2038,2070,1198
713,1710925977991212802,2056,2053,2043,2075,2062,2060,1195
714,1710925978001225557,2053,2055,2066,2060,2033,2051,1194
715,1710925978011211793,2054,2053,2050,2067,2077,2052,1193
716,1710925978021522383,2061,2052,2066,1949,2004,2020,1193
717,1710925978031215351,2053,2051,2053,2076,2058,2037,1193
718,1710925978041198640,2053,2041,2072,2069,2049,2047,1193
719,1710925978051205254,2064,2044,2029,2048,2068,2089,1197
720,1710925978061207719,2048,2043,2067,2010,2038,2090,1195
721,1710925978071205707,2053,2039,2039,2046,2060,2060,1196
722,1710925978081207130,2052,2056,2060,2072,2044,2058,1197
723,1710925978091168919,2053,2041,2031,2051,2059,2092,1195
724,1710925978101210228,2056,2037,2045,2040,2044,2056,1197
725,1710925978111264763,2051,2059,2056,2079,2067,2065,1195
726,1710925978121244846,2056,2072,2065,2104,2049,2070,1195
727,1710925978131185725,2050,2041,2037,2039,2070,2046,1196
728,1710925978141207256,2053,2049,2073,2077,2018,2060,1197
729,1710925978151213830,2056,2051,2037,2056,2068,2042,1193
730,1710925978161209563,2057,2044,2060,2030,2060,2062,1197
731,1710925978171216026,2057,2046,2032,2091,2084,2064,1196
732,1710925978181209484,2058,2078,2075,2106,2042,2081,1197
733,1710925978191231247,2060,2057,2052,2100,2100,2076,1195
734,1710925978201166415,2051,2053,2061,2082,2076,2111,1193
735,1710925978211227622,2057,2041,2025,2042,2054,2130,1196
736,1710925978221160425,2069,2017,2029,1976,2033,2058,1197
737,1710925978231201024,2060,2040,2045,2082,2089,2058,1193
738,1710925978241208579,2056,2058,2071,2008,2035,2044,1193
739,1710925978251208871,2054,2064,2074,2070,2065,2088,1194
740,1710925978261210224,2057,2076,2088,2053,2053,2039,1192
741,1710925978271221096,2056,2055,2060,1958,2042,2116,1196
742,1710925978281224453,2050,2040,2047,2043,2053,2065,1194
743,1710925978291255683,2062,2046,2044,2094,2084,2080,1195
744,1710925978301214175,2052,2034,2049,2072,2050,2083,1195
745,1710925978311234295,2064,2060,2048,2059,2089,2092,1196
746,1710925978321237782,2056,2055,2056,2020,2036,2091,1197
747,1710925978331205893,2054,2033,2038,2066,2084,2038,1192
748,1710925978341215261,2061,2036,2041,2059,2053,2065,1196
749,1710925978351212557,2052,2074,2088,2096,2036,1954,1192
750,1710925978361214732,2053,2045,2042,2120,2045,2050,1196
751,1710925978371216687,2050,2061,2035,2016,2062,2052,1194
752,1710925978381212159,2064,2063,2066,2116,2054,2082,1194
753,1710925978391241015,2062,2056,2043,2064,2065,2084,1196
754,1710925978401214075,2044,2024,2037,2003,1984,2024,1191
755,1710925978411224466,2062,2041,2022,2046,2078,2057,1197
756,1710925978421286454,2054,2072,2056,2069,2052,2026,1193
757,1710925978431214769,2052,2056,2040,2027,2049,2096,1196
758,1710925978441207556,2051,2042,2046,2078,2051,2070,1195
759,1710925978451253505,2060,2055,2056,1970,2076,2024,1195
760,1710925978461217557,2059,2071,2075,2065,2039,2054,1197
761,1710925978471249329,2053,2051,2040,2036,2056,2063,1196
762,1710925978481205616,2051,2072,2069,2061,2042,2030,1193
763,1710925978491219695,2055,2070,2056,2021,2047,2084,1196
764,1710925978501218884,2049,2033,2051,2087,2052,2082,1196
765,1710925978511215609,2059,2046,2050,2063,2058,2029,1192
766,1710925978521214728,2056,2058,2042,2097,2068,2074,1196
767,1710925978531430268,2053,2059,2057,2049,2060,2065,1196
768,1710925978541218517,2055,2053,2068,2057,2030,2031,1194
769,1710925978551221063,2056,2071,2056,2024,2078,1999,1193
770,1710925978561222156,2042,2060,2073,2102,2040,1986,1194
771,1710925978571221766,2065,2060,2049,2091,2077,2082,1194
772,1710925978581243418,2053,2051,2055,2062,2061,2074,1197
773,1710925978591222099,2064,2053,2029,2033,2066,2056,1195
774,1710925978601212401,2058,2058,2069,2090,2032,1972,1191
775,1710925978611276374,2051,2068,2046,2048,2076,2045,1193
776,1710925978621231790,2056,2061,2075,2061,2057,2053,1195
777,1710925978631201734,2061,2056,2052,2114,2057,2059,1195
778,1710925978641212485,2057,2089,2076,2081,2040,2047,1194
779,1710925978651223467,2046,2037,2020,2022,2066,2063,1197
780,1710925978661207788,2047,2072,2062,2089,2044,2053,1195
781,1710925978671206958,2049,2066,2058,2056,2051,2031,1193
782,1710925978681210375,2052,2054,2059,2070,2031,2048,1194
783,1710925978691180840,2052,2044,2043,2071,2061,2088,1195
784,1710925978701242147,2052,2056,2064,2064,2031,2064,1195
785,1710925978711176955,2056,2058,2061,2079,2073,2045,1192
786,1710925978721204618,2053,2036,2048,2040,2050,2052,1195
787,1710925978731208677,2059,2044,2040,2023,2054,2060,1194
788,1710925978741239757,2050,2045,2058,2113,2072,2072,1199
789,1710925978751229619,2056,2045,2053,2066,2054,2073,1196
790,1710925978761219019,2050,2045,2060,2094,2038,2060,1195
791,1710925978771222487,2058,2052,2057,2100,2062,2040,1192
792,1710925978781207109,2046,2009,2049,2006,2049,2099,1196
793,1710925978791206309,2058,2033,2040,2076,2061,2068,1194
794,1710925978801208684,2047,2047,2058,2076,2043,2060,1192
795,1710925978811200379,2054,2052,2044,2035,2069,2024,1192
796,1710925978821199799,2052,2056,2060,2118,2042,2049,1196
797,1710925978831201203,2060,2069,2047,2089,2068,2088,1196
798,1710925978841212495,2052,2040,2058,2041,2049,2076,1195
799,1710925978851246771,2053,2058,2054,2037,2068,2051,1196
800,1710925978861202388,2071,2057,2063,2128,2062,2042,1194
801,1710925978871205275,2064,2057,2049,2107,2081,2056,1194
802,1710925978881209814,2054,2058,2074,2082,2046,2064,1197
803,1710925978891202541,2059,2044,2034,2043,2069,2047,1193
804,1710925978901197382,2061,2064,2054,2036,2058,2046,1194
805,1710925978911205910,2059,2088,2077,2027,2085,2076,1194
806,1710925978921199638,2047,2044,2056,1930,2024,2033,1194
807,1710925978931202666,2048,2046,2042,2041,2048,2040,1194
808,1710925978941223395,2056,2049,2042,2062,2052,2063,1197
809,1710925978951213127,2056,2053,2062,2036,2033,2072,1195
810,1710925978961210192,2059,2058,2070,2077,2047,1964,1193
811,1710925978971163956,2049,2032,2036,2008,2068,2074,1198
812,1710925978981201327,2060,2068,2072,2061,2052,2058,1196
813,1710925978991202681,2049,2044,2037,2043,2060,2056,1197
814,1710925979001203984,2053,2056,2070,2076,2071,2065,1193
815,1710925979011203254,2056,2083,2060,2020,2081,2104,1195
816,1710925979021195400,2053,2046,2047,2141,2056,2074,1195
817,1710925979031196463,2049,2047,2041,2066,2069,2054,1197
818,1710925979041196644,2045,2056,2071,2065,2045,2058,1195
819,1710925979051203117,2053,2038,2062,2046,2069,2049,1196
820,1710925979061211665,2064,2061,2066,2056,2051,2076,1197
821,1710925979071212186,2059,2057,2060,2040,2081,2075,1197
822,1710925979081199644,2059,2056,2056,2086,2055,2058,1196
823,1710925979091204143,2057,2034,2037,2083,2080,2078,1196
824,1710925979101193684,2074,2060,2058,2068,2029,2066,1196
825,1710925979111196921,2047,2046,2056,1923,2026,1978,1193
826,1710925979121204937,2056,2046,2052,2053,2052,2083,1197
827,1710925979131205570,2058,2042,2040,2061,2074,2064,1196
828,1710925979141226900,2064,2062,2060,2065,2046,2072,1195
829,1710925979151199279,2053,2049,2052,2086,2074,2059,1197
830,1710925979161227984,2050,2029,2061,2117,2050,2084,1196
831,1710925979171208719,2071,2068,2064,2059,2043,2036,1194
832,1710925979181225802,2054,2063,2058,2019,2027,2076,1196
833,1710925979191162483,2054,2034,2032,2042,2064,2041,1193
834,1710925979201195196,2056,2045,2059,2018,2041,2066,1194
835,1710925979211196108,2052,2053,2048,2018,2069,2051,1197
836,1710925979221200097,2047,2056,2039,1996,2026,2036,1193
837,1710925979231203785,2048,2037,2030,2060,2055,2054,1195
838,1710925979241207433,2053,2046,2040,2031,2044,2042,1192
839,1710925979251196393,2053,2055,2037,2104,2078,2067,1195
840,1710925979262358669,2056,2056,2051,2068,2042,2044,1194
841,1710925979271203558,2059,2069,2066,2076,2080,2063,1196
842,1710925979281210492,2055,2066,2060,2075,2038,2053,1194
843,1710925979291221815,2053,2067,2056,2053,2051,1983,1193
844,1710925979301198912,2052,2035,2049,2092,2024,2056,1197
845,1710925979311215343,2063,2058,2027,2047,2062,2069,1198
846,1710925979321217419,2052,2045,2053,2033,2050,2054,1195
847,1710925979331224874,2049,2064,2045,2079,2061,2011,1193
848,1710925979341205568,2058,2068,2084,2064,2044,2060,1195
849,1710925979351202253,2060,2072,2054,2051,2065,2049,1195
850,1710925979361200180,2054,2049,2061,2056,2040,2053,1195
851,1710925979371207725,2054,2054,2059,1992,2061,2064,1197
852,1710925979381219719,2066,2065,2064,2072,2058,2051,1194
853,1710925979391197497,2042,2062,2049,2056,2049,2036,1193
854,1710925979401206194,2049,2044,2047,2029,2040,2059,1195
855,1710925979411221345,2056,2059,2052,2064,2075,2061,1193
856,1710925979421204042,2060,2056,2064,2059,2036,2019,1193
857,1710925979431211408,2048,2040,2037,2055,2066,2026,1194
858,1710925979441202111,2048,2056,2066,1992,2024,2049,1194
859,1710925979451239151,2049,2040,2030,2040,2039,2000,1194
860,1710925979461220688,2062,2074,2059,2088,2050,2059,1198
861,1710925979471219426,2050,2047,2040,2054,2072,2046,1195
862,1710925979481211222,2052,2047,2044,2027,2042,2057,1196
863,1710925979491196504,2054,2064,2051,2033,2064,2050,1196
864,1710925979501200503,2048,2039,2056,2012,2044,2084,1197
865,1710925979511205303,2053,2041,2039,2028,2071,2060,1195
866,1710925979521207938,2057,2069,2080,2048,2046,2066,1196
867,1710925979531208862,2050,2033,2036,2054,2068,2027,1192
868,1710925979541211417,2060,2052,2058,2095,2056,2013,1194
869,1710925979551223401,2055,2050,2041,2058,2067,2056,1194
870,1710925979561209165,2047,2058,2072,2035,2048,2052,1194
871,1710925979571212632,2056,2041,2053,2104,2070,2081,1194
872,1710925979581222963,2054,2058,2047,2058,2054,2081,1196
873,1710925979591212203,2047,2047,2041,2068,2065,2072,1195
874,1710925979601219238,2055,2054,2058,2112,2057,2056,1191
875,1710925979611214780,2061,2072,2076,2101,2058,2048,1194
876,1710925979621215432,2058,2041,2034,2053,2038,2058,1195
877,1710925979631207187,2052,2048,2042,2070,2062,2054,1193
878,1710925979641203200,2056,2065,2056,2122,2070,2056,1194
879,1710925979651212279,2051,2047,2044,2058,2078,2028,1192
880,1710925979661196950,2050,2049,2060,2012,2040,2059,1196
881,1710925979671205959,2057,2041,2046,2054,2069,2096,1195
882,1710925979681223212,2057,2046,2062,2074,2033,2061,1194
883,1710925979691238422,2052,2039,2044,2070,2064,2054,1194
884,1710925979701188598,2052,2049,2056,2053,2034,2021,1192
885,1710925979711195161,2054,2057,2056,2033,2063,2071,1196
886,1710925979721216764,2053,2052,2056,2001,2028,2042,1194
887,1710925979731207196,2061,2058,2043,2032,2072,2059,1194
888,1710925979741209041,2050,2045,2050,1980,2028,2050,1195
889,1710925979751218820,2045,2050,2072,2014,2057,2048,1196
890,1710925979761210525,2073,2044,2064,2060,2047,2049,1196
891,1710925979771207550,2052,2070,2057,2052,2052,1994,1194
892,1710925979781205818,2046,2028,2036,2041,2024,1981,1193
893,1710925979791210839,2052,2034,2015,2053,2052,2037,1193
894,1710925979801224164,2049,2052,2063,2037,2028,2056,1194
895,1710925979811204629,2054,2036,2043,2080,2078,2039,1193
896,1710925979821201083,2064,2088,2109,1944,2036,2056,1195
897,1710925979831203819,2051,2051,2052,2101,2046,2064,1194
898,1710925979841206505,2054,2050,2057,2094,2043,2022,1192
899,1710925979851213008,2062,2072,2049,2076,2079,2061,1196
900,1710925979861208390,2050,2048,2076,2024,2029,2057,1194
901,1710925979871220404,2052,2044,2037,2048,2080,2061,1194
902,1710925979881223691,2052,2077,2089,2043,2047,1966,1193
903,1710925979891211699,2054,2054,2044,2126,2102,2123,1194
904,1710925979901219775,2058,2080,2065,2141,2064,2067,1197
905,1710925979911207543,2048,2032,2029,2062,2072,2069,1194
906,1710925979921205590,2056,2055,2050,2073,2038,2058,1196
907,1710925979931200091,2053,2046,2045,2125,2063,2025,1192
908,1710925979941201103,2043,2037,2061,2029,2038,2037,1192
909,1710925979951201566,2047,2046,2056,2111,2068,2058,1196
910,1710925979961203530,2058,2051,2056,2059,2056,2002,1192
911,1710925979971202568,2056,2041,2044,2064,2060,2054,1194
912,1710925979981203472,2058,2047,2052,2016,2038,2004,1193
913,1710925979991205346,2058,2046,2050,2016,2069,2061,1193
914,1710925980001208413,2056,2056,2058,1988,2026,2050,1194
915,1710925980011230445,2054,2044,2027,2071,2059,2088,1197
916,1710925980021206651,2064,2043,2064,2064,2057,2056,1195
917,1710925980031203787,2056,2063,2050,2043,2060,2065,1195
918,1710925980041240958,2052,2051,2060,2004,2040,2095,1194
919,1710925980051203929,2050,2045,2033,2040,2060,2043,1192
920,1710925980061204821,2053,2054,2065,2081,2034,2063,1196
921,1710925980071215431,2060,2058,2046,2054,2069,2050,1196
922,1710925980081206265,2056,2054,2056,1959,1999,2036,1194
923,1710925980091206947,2056,2053,2057,2098,2071,2081,1195
924,1710925980101206457,2056,2051,2066,2077,2044,2052,1196
925,1710925980111208703,2064,2047,2045,2062,2074,2042,1193
926,1710925980121209685,2052,2028,2043,2074,2040,2070,1196
927,1710925980131204946,2053,2047,2032,2052,2052,2040,1193
928,1710925980141208054,2060,2051,2060,2052,2032,2060,1196
929,1710925980151178859,2056,2052,2056,2045,2053,2094,1195
930,1710925980161177056,2056,2046,2069,2023,2026,1997,1192
931,1710925980171214909,2054,2057,2041,2050,2066,2080,1196
932,1710925980181217865,2052,2038,2060,2004,2033,2078,1194
933,1710925980191212646,2056,2039,2030,2088,2069,2053,1195
934,1710925980201212657,2054,2052,2056,2059,2047,2053,1192
935,1710925980211214621,2054,2051,2043,2039,2068,2091,1195
936,1710925980221199944,2050,2078,2069,2073,2035,2070,1195
937,1710925980231212930,2056,2044,2033,2063,2072,2064,1195
938,1710925980241213732,2053,2052,2049,2038,2041,2064,1195
939,1710925980251214985,2053,2050,2061,2099,2078,2053,1193
940,1710925980261222952,2058,2036,2036,2093,2051,2080,1194
941,1710925980271214626,2056,2052,2038,2092,2064,2055,1195
942,1710925980281157779,2045,2044,2050,2080,2047,2052,1194
943,1710925980291214348,2059,2068,2056,2089,2071,2068,1196
944,1710925980301135178,2056,2061,2097,2090,2045,2065,1196
945,1710925980311169915,2062,2059,2047,2059,2069,2085,1194
946,1710925980321226343,2052,2062,2077,2006,2046,2069,1195
947,1710925980331190996,2064,2090,2067,2076,2057,2008,1191
948,1710925980341199693,2047,2019,2043,2065,2036,2051,1197
949,1710925980351197340,2068,2052,2045,2068,2084,2071,1195
950,1710925980361199445,2056,2069,2080,2097,2055,2032,1193
951,1710925980371201099,2060,2066,2042,2029,2057,2059,1197
952,1710925980381202643,2047,2055,2056,2120,2059,2057,1195
953,1710925980391199587,2056,2042,2037,2045,2064,2033,1192
954,1710925980401202304,2060,2059,2070,2108,2061,2066,1193
955,1710925980411200000,2052,2046,2036,2037,2059,2048,1195
956,1710925980421220830,2047,2053,2070,2068,2028,2028,1193
957,1710925980431201054,2058,2040,2044,2048,2075,2040,1195
958,1710925980441200603,2056,2052,2076,2040,2055,2061,1195
959,1710925980451199872,2053,2073,2064,2074,2066,2058,1196
960,1710925980461200375,2053,2047,2054,2057,2043,2050,1196
961,1710925980471207228,2054,2052,2046,2054,2054,2035,1192
962,1710925980481149850,2052,2052,2060,2041,2029,2056,1195
963,1710925980491108082,2056,2058,2042,2030,2065,2068,1195
964,1710925980501138340,2050,2042,2054,2013,2039,2058,1198
965,1710925980511201080,2053,2047,2037,2060,2064,2060,1195
966,1710925980521205199,2052,2070,2080,2070,2053,2049,1197
967,1710925980531207343,2054,2053,2056,2069,2074,2088,1196
968,1710925980541200141,2060,2061,2060,2019,2052,2058,1196
969,1710925980551198769,2058,2054,2056,2078,2065,2064,1197
970,1710925980561227183,2057,2066,2072,2045,2044,2064,1195
971,1710925980571199522,2053,2050,2042,2029,2068,2077,1194
972,1710925980581192990,2048,2043,2053,2088,2051,2060,1195
973,1710925980591201447,2060,2064,2094,2080,2065,2033,1193
974,1710925980601195356,2049,2076,2069,2091,2051,2052,1193
975,1710925980611201369,2052,2052,2057,2079,2078,2056,1196
976,1710925980621200097,2058,2056,2060,2053,2049,2054,1195
977,1710925980631202042,2059,2078,2083,2100,2073,2069,1197
978,1710925980641202173,2052,2062,2061,2025,2036,2099,1195
979,1710925980651208114,2052,2092,2073,2004,2062,2056,1195
980,1710925980661200501,2044,2038,2048,2040,2036,2084,1197
981,1710925980671221542,2052,2053,2047,2054,2061,2050,1196
982,1710925980681199992,2054,2051,2056,2072,2036,2049,1197
983,1710925980691219620,2054,2062,2044,1985,2070,2052,1196
984,1710925980701203590,2057,2053,2080,2056,2038,2055,1197
985,1710925980711202498,2057,2046,2047,2052,2057,2093,1197
986,1710925980721224382,2051,2066,2060,2037,2042,2053,1196
987,1710925980731205486,2061,2084,2067,2097,2084,2075,1193
988,1710925980741221517,2047,2025,2041,2042,2037,2060,1195
989,1710925980751214034,2053,2038,2040,2044,2071,2059,1195
990,1710925980761207462,2050,2052,2056,2045,2019,2047,1192
991,1710925980771216641,2056,2042,2054,2045,2056,2067,1195
992,1710925980781219727,2052,2012,2038,1997,2047,2100,1196
993,1710925980791190823,2078,2064,2035,2058,2076,2065,1195
994,1710925980801208167,2056,2049,2062,2080,2033,2050,1193
995,1710925980811194602,2056,2049,2038,2065,2078,2062,1195
996,1710925980821205303,2052,2061,2077,1997,2040,2087,1195
997,1710925980831202409,2056,2056,2049,2042,2046,2037,1193
998,1710925980841208030,2056,2049,2060,2073,2058,2063,1196
999,1710925980851204864,2058,2057,2054,2066,2084,2081,1194
1000,1710925980861201679,2061,2059,2068,2036,2056,2073,1194
1001,1710925980871202342,2062,2060,2058,2086,2073,2052,1196
1002,1710925980881223352,2054,2049,2047,2032,2028,2048,1195
1003,1710925980891197655,2059,2056,2056,2064,2079,2057,1196
1004,1710925980901215048,2057,2060,2065,2072,2029,2044,1194
1005,1710925980911215800,2054,2053,2048,2062,2048,2030,1193
1006,1710925980921205131,2056,2053,2060,2063,2045,2059,1196
1007,1710925980931201104,2052,2018,2041,2080,2062,2054,1194
1008,1710925980941206094,2056,2069,2073,2075,2047,2068,1197
1009,1710925980951207107,2050,2033,2021,2020,2059,2060,1195
1010,1710925980961209703,2052,2038,2041,2076,2045,2041,1192
1011,1710925980971159808,2054,2075,2086,2050,2062,2025,1193
1012,1710925980981204475,2048,2045,2047,2069,2042,2046,1192
1013,1710925980991203423,2050,2048,2046,1960,2050,2024,1193
1014,1710925981001208524,2060,2053,2062,2090,2052,2043,1190
1015,1710925981011198857,2052,2061,2057,2088,2065,2027,1193
1016,1710925981021196933,2052,2045,2057,2033,2043,2073,1196
1017,1710925981031203857,2056,2061,2042,2040,2068,2073,1196
1018,1710925981041199279,2051,2047,2081,2056,2049,2031,1195
1019,1710925981051195743,2062,2060,2054,2038,2058,2052,1196
1020,1710925981061205031,2052,2048,2054,2060,2052,2052,1196
1021,1710925981071202627,2056,2058,2045,1972,2070,2061,1196
1022,1710925981081205424,2056,2058,2074,2081,2047,2066,1195
1023,1710925981091209122,2056,2049,2050,2097,2078,2032,1194
1024,1710925981101207389,2060,2059,2069,2041,2035,2067,1197
1025,1710925981111208092,2053,2072,2064,2025,2044,2017,1193
1026,1710925981121204475,2050,2043,2033,2069,2040,2052,1197
1027,1710925981131200027,2052,2071,2054,2042,2058,2033,1194
1028,1710925981141204827,2049,2047,2054,1980,2035,2086,1193
1029,1710925981151221430,2056,2069,2057,2064,2056,2052,1194
1030,1710925981161212704,2063,2041,2056,2052,2042,2060,1194
1031,1710925981171200671,2048,2048,2037,2041,2044,2002,1192
1032,1710925981181200582,2056,2053,2068,2112,2028,1979,1193
1033,1710925981191211594,2050,2058,2058,2069,2072,2088,1196
1034,1710925981201186517,2068,2065,2088,2008,2056,2068,1195
1035,1710925981211198119,2056,2041,2033,2052,2065,2060,1194
1036,1710925981221194934,2050,2067,2059,2064,2020,2029,1194
1037,1710925981231199484,2056,2075,2065,2050,2059,2054,1195
1038,1710925981241200286,2050,2042,2061,2034,2046,2061,1195
1039,1710925981251207600,2061,2061,2049,2065,2062,2050,1195
1040,1710925981261216147,2056,2033,2048,2076,2056,2074,1194
1041,1710925981271203143,2060,2054,2049,2016,2058,2062,1197
1042,1710925981281202913,2056,2061,2062,2017,2046,2056,1197
1043,1710925981291254271,2052,2036,2025,2039,2072,2050,1196
1044,1710925981301194319,2067,2061,2073,2056,2044,2061,1198
1045,1710925981311203978,2045,2046,2039,2058,2084,2064,1196
1046,1710925981321217464,2056,2072,2071,2057,2035,2042,1192
1047,1710925981331237893,2044,2019,2025,2047,2072,2065,1193
1048,1710925981341245389,2058,2043,2052,2056,2044,2076,1195
1049,1710925981351210062,2060,2052,2047,2081,2057,1992,1194
1050,1710925981361216655,2056,2064,2076,2100,2040,2089,1196
1051,1710925981371219702,2057,2057,2054,2061,2063,2033,1191
1052,1710925981381221727,2052,2042,2051,1987,2042,2053,1195
1053,1710925981391256353,2064,2056,2046,2072,2071,2050,1195
1054,1710925981401201860,2055,2110,2114,2047,2054,2065,1194
1055,1710925981411198124,2047,2044,2038,2038,2057,2072,1196
1056,1710925981421210989,2057,2069,2084,2082,2056,2028,1192
1057,1710925981431210449,2045,2040,2033,2042,2071,2049,1196
1058,1710925981441209007,2052,2050,2054,2035,2054,2064,1197
1059,1710925981451202946,2051,2039,2046,2101,2069,2009,1195
1060,1710925981461210541,2058,2093,2081,2072,2026,2006,1197
1061,1710925981471227133,2045,2044,2056,2089,2057,2049,1194
1062,1710925981481209350,2053,2053,2065,2052,2040,2052,1196
1063,1710925981491213038,2054,2054,2050,1999,2054,2032,1193
1064,1710925981501204322,2054,2066,2068,2053,2046,2095,1195
1065,1710925981511210955,2059,2054,2046,1944,2050,2040,1193
1066,1710925981521201228,2054,2059,2056,2055,2046,2057,1196
1067,1710925981531198914,2056,2065,2043,2013,2055,2051,1196
1068,1710925981541210396,2056,2038,2080,2093,2059,2076,1196
1069,1710925981551216148,2058,2043,2041,2072,2075,2054,1197
1070,1710925981561211450,2049,2025,2034,2048,2052,2053,1196
1071,1710925981571216661,2063,2057,2052,2033,2047,2018,1192
1072,1710925981581221741,2044,2043,2046,2037,2037,1992,1192
1073,1710925981591202695,2052,2037,2036,2029,2065,2064,1196
1074,1710925981601222895,2059,2069,2052,2113,2058,2077,1196
1075,1710925981611189482,2052,2056,2051,2049,2054,2084,1196
1076,1710925981621203178,2050,2066,2060,2045,2052,2069,1196
1077,1710925981631201126,2051,2047,2041,2065,2059,2073,1196
1078,1710925981641202038,2050,2059,2061,2058,2037,2021,1193
1079,1710925981651201798,2061,2069,2066,2067,2072,1986,1194
1080,1710925981661221215,2060,2077,2064,2024,2043,2056,1195
1081,1710925981671200007,2053,2024,2028,2062,2072,2057,1197
1082,1710925981681199817,2052,2034,2028,2024,2036,2064,1194
1083,1710925981691218783,2056,2056,2053,2045,2056,2064,1196
1084,1710925981701209056,2054,2049,2053,2026,2032,2028,1193
1085,1710925981711209016,2061,2058,2038,2089,2072,2048,1197
1086,1710925981721203977,2061,2080,2092,2076,2056,2062,1196
1087,1710925981731201132,2056,2038,2046,2042,2068,2082,1195
1088,1710925981741199711,2062,2052,2060,2045,2033,2055,1194
1089,1710925981751220160,2043,2040,2024,2035,2050,1994,1193
1090,1710925981761202668,2056,2052,2047,2040,2038,2112,1195
1091,1710925981771199993,2049,2062,2057,2009,2062,2040,1193
1092,1710925981781203280,2060,2079,2073,2036,2050,2064,1196
1093,1710925981791206107,2051,2032,2035,1995,2066,2045,1192
1094,1710925981801226396,2064,2062,2080,2069,2044,2068,1194
1095,1710925981811210155,2057,2047,2036,2024,2048,2012,1194
1096,1710925981821199186,2052,2050,2056,1985,2017,2044,1194
1097,1710925981831200088,2058,2057,2040,2037,2062,2000,1192
1098,1710925981841200569,2061,2038,2051,2053,2037,2080,1196
1099,1710925981851225347,2059,2057,2053,2093,2059,2036,1193
1100,1710925981861201884,2056,2044,2064,2038,2023,2036,1194
1101,1710925981871196053,2053,2054,2046,2073,2053,2059,1196
1102,1710925981881225359,2059,2053,2046,2068,2034,2031,1193
1103,1710925981891217486,2050,2051,2041,2045,2074,2064,1194
1104,1710925981901201496,2048,2049,2050,2036,2037,2049,1196
1105,1710925981911203821,2059,2056,2047,2062,2072,2020,1195
1106,1710925981921189154,2054,2054,2057,2106,2052,2017,1195
1107,1710925981931198743,2056,2052,2041,2065,2080,2068,1196
1108,1710925981941196639,2052,2053,2071,2149,2041,2058,1196
1109,1710925981951235714,2059,2061,2053,2094,2072,2038,1194
1110,1710925981961210457,2053,2063,2075,2058,2042,2060,1196
1111,1710925981971201080,2055,2034,2041,2036,2043,2043,1193
1112,1710925981981205018,2069,2068,2058,2054,2050,2074,1197
1113,1710925981991208195,2049,2047,2049,2079,2042,2033,1193
1114,1710925982001202174,2057,2060,2064,2123,2065,2068,1196
1115,1710925982011208998,2052,2037,2032,2076,2066,2069,1196
1116,1710925982021215551,2057,2056,2064,2128,2048,2078,1196
1117,1710925982031198900,2056,2040,2030,2085,2069,2080,1196
1118,1710925982041197057,2069,2072,2089,2024,2020,2054,1198
1119,1710925982051197048,2057,2071,2051,2052,2053,2034,1192
1120,1710925982061208280,2058,2063,2075,2067,2065,2065,1197
1121,1710925982071198522,2054,2068,2038,1958,2044,2009,1193
1122,1710925982081206417,2051,2043,2059,2117,2052,2058,1196
1123,1710925982091197240,2052,2049,2042,2088,2088,2049,1194
1124,1710925982101197662,2040,2049,2068,2044,1992,2096,1196
1125,1710925982111199957,2044,2040,2036,2040,2052,2068,1196
1126,1710925982121202563,2054,2062,2052,2083,2002,2049,1195
1127,1710925982131202814,2045,2031,2029,2181,2088,2073,1197
1128,1710925982141200530,2074,2072,2100,2101,2060,2067,1196
1129,1710925982151200951,2054,2044,2072,2084,2088,2008,1193
1130,1710925982161204229,2056,2065,2057,2062,2068,2056,1195
1131,1710925982171215210,2053,2057,2056,2095,2053,2050,1196
1132,1710925982181190964,2052,2046,2042,2090,2075,1989,1193
1133,1710925982191196285,2059,2060,2060,1965,2088,2072,1196
1134,1710925982201208509,2052,2053,2036,2061,2053,2062,1194
1135,1710925982211208249,2056,2056,2050,2035,2069,2068,1197
1136,1710925982221199073,2049,2071,2080,1988,2029,2026,1193
1137,1710925982231201979,2048,2063,2071,2151,2083,2020,1194
1138,1710925982241200707,2060,2045,2052,2088,2036,2064,1197
1139,1710925982251196719,2053,2065,2057,2070,2065,2072,1197
1140,1710925982261220736,2052,2044,2068,2121,2072,2074,1196
1141,1710925982271210006,2057,2051,2045,2088,2077,2059,1195
1142,1710925982281213614,2052,2062,2061,2040,2044,2056,1195
1143,1710925982291200279,2053,2042,2052,2008,2067,2064,1196
1144,1710925982301198707,2058,2056,2066,2044,2039,2067,1198
1145,1710925982311235668,2049,2041,2035,2065,2067,2072,1193
1146,1710925982321210982,2050,2053,2064,2096,2050,2026,1194
1147,1710925982331203257,2056,2045,2050,2121,2061,2049,1193
1148,1710925982341196545,2049,2060,2063,2065,2033,2047,1194
1149,1710925982351203859,2059,2062,2052,1990,2056,2047,1193
1150,1710925982361205303,2050,2050,2052,2037,2054,2024,1195
1151,1710925982371206186,2066,2066,2062,2003,2068,1979,1194
1152,1710925982381187972,2052,2050,2048,2049,2056,2065,1196
1153,1710925982391206818,2050,2071,2043,2059,2053,2029,1194
1154,1710925982401203843,2054,2073,2078,1949,2052,2064,1194
1155,1710925982411210085,2043,2042,2047,2046,2044,2044,1191
1156,1710925982421213082,2056,2054,2060,2066,2022,2040,1194
1157,1710925982431205137,2059,2064,2058,2064,2061,2041,1192
1158,1710925982441198455,2064,2069,2075,2088,2066,2052,1195
1159,1710925982451198365,2057,2078,2068,2108,2076,2052,1194
1160,1710925982461215759,2043,2030,2041,2068,2037,1962,1193
1161,1710925982471213997,2059,2050,2033,2081,2077,2066,1196
1162,1710925982481211162,2054,2051,2058,2080,2014,2033,1193
1163,1710925982491212415,2064,2065,2059,2062,2076,2059,1195
1164,1710925982501202486,2050,2053,2047,2093,2025,2065,1198
1165,1710925982511200513,2058,2056,2041,2047,2050,2091,1197
1166,1710925982521209531,2056,2068,2094,2058,2049,2047,1194
1167,1710925982531201767,2052,2049,2042,2153,2087,2051,1195
1168,1710925982541199824,2058,2066,2078,2050,2037,2050,1196
1169,1710925982551199865,2050,2084,2088,2047,2064,2053,1196
1170,1710925982561213481,2049,2049,2063,2024,2062,1976,1193
1171,1710925982571214224,2044,2054,2035,2042,2034,2028,1194
1172,1710925982581209305,2064,2062,2074,2046,2046,2057,1196
1173,1710925982591199457,2057,2060,2056,2028,2060,2049,1196
1174,1710925982601217371,2072,2072,2088,2099,2083,2058,1193
1175,1710925982611200069,2054,2050,2056,2113,2078,2056,1197
1176,1710925982621206983,2052,2067,2078,2103,2041,2053,1196
1177,1710925982631201453,2057,2050,2042,2045,2080,2069,1196
1178,1710925982641199500,2062,2057,2061,2128,2065,2025,1194
1179,1710925982651200172,2056,2052,2037,2042,2066,2079,1197
1180,1710925982661200503,2059,2075,2085,2157,2053,2072,1196
1181,1710925982671220962,2051,2045,2038,2066,2060,2052,1195
1182,1710925982681190025,2050,2055,2058,2125,2038,2076,1196
1183,1710925982691198321,2054,2045,2047,2070,2030,2039,1192
1184,1710925982701201047,2053,2041,2038,2066,2032,2049,1197
1185,1710925982711198693,2052,2024,2044,2065,2063,2061,1194
1186,1710925982721223871,2066,2062,2070,2018,2054,2061,1195
1187,1710925982731208102,2046,2042,2038,2062,2054,2049,1197
1188,1710925982741203344,2056,2056,2084,2108,2049,2058,1195
1189,1710925982751195429,2062,2058,2044,2049,2064,2040,1192
1190,1710925982761197534,2060,2062,2064,2078,2069,2076,1195
1191,1710925982771201762,2060,2056,2049,2064,2068,2087,1196
1192,1710925982781207153,2057,2068,2076,2057,2059,2065,1193
1193,1710925982791199660,2054,2042,2040,2065,2076,2054,1194
1194,1710925982801196104,2064,2069,2056,2058,2037,2065,1195
1195,1710925982811206634,2047,2029,2033,2036,2055,2013,1195
1196,1710925982821200834,2068,2068,2073,2040,2049,2068,1196
1197,1710925982831213409,2052,2054,2045,1849,2049,2051,1196
1198,1710925982841207839,2048,2062,2041,2053,2040,2054,1196
1199,1710925982851223078,2054,2102,2106,2058,2073,2053,1196
1200,1710925982861211116,2045,2056,2061,2040,2033,2077,1194
1201,1710925982871200847,2054,2049,2040,2065,2062,2044,1194
1202,1710925982881208152,2045,2043,2051,2026,2032,2032,1192
1203,1710925982891215256,2046,2043,2042,2051,2058,2056,1197
1204,1710925982901200478,2053,2057,2059,2104,2045,2058,1197
1205,1710925982911206831,2051,2047,2034,2078,2085,2026,1192
1206,1710925982921205569,2044,2036,2047,2040,2050,2069,1199
1207,1710925982931206291,2061,2080,2089,2082,2069,2053,1195
1208,1710925982941207825,2056,2053,2066,2097,2052,2053,1193
1209,1710925982951201744,2062,2062,2066,2082,2090,2064,1196
1210,1710925982961227503,2049,2052,2064,2061,2052,2069,1198
1211,1710925982971205252,2052,2047,2045,2077,2064,2056,1194
1212,1710925982981207557,2059,2064,2073,2039,2051,2062,1197
1213,1710925982991216415,2053,2052,2045,2121,2079,2061,1197
1214,1710925983001214872,2061,2077,2084,2101,2058,2052,1195
1215,1710925983011210044,2056,2034,2033,1993,2060,2040,1194
1216,1710925983021206317,2056,2056,2061,2077,2045,2049,1196
1217,1710925983031207359,2048,2048,2048,2077,2056,2047,1194
1218,1710925983041215926,2056,2057,2064,2070,2047,2050,1197
1219,1710925983051197281,2048,2048,2037,1978,2056,2018,1194
1220,1710925983061198184,2059,2045,2056,2020,2040,2030,1191
1221,1710925983071201892,2065,2088,2080,2075,2060,2053,1197
1222,1710925983081226258,2057,2053,2054,2056,2056,2116,1196
1223,1710925983091167307,2053,2051,2058,2045,2066,2050,1193
1224,1710925983101212503,2062,2078,2080,2065,2042,2070,1199
1225,1710925983111201573,2053,2050,2048,2066,2052,2051,1195
1226,1710925983121217964,2049,2055,2060,2076,2044,2055,1195
1227,1710925983131211893,2052,2070,2072,2030,2052,2072,1195
1228,1710925983141205672,2049,2033,2039,2082,2042,2017,1194
1229,1710925983151208459,2056,2038,2017,2059,2062,2066,1197
1230,1710925983161219821,2047,2057,2066,2047,2026,2033,1193
1231,1710925983171204442,2054,2051,2050,2010,2056,2044,1191
1232,1710925983181227716,2051,2046,2058,2060,2044,2068,1196
1233,1710925983191219040,2056,2052,2056,2081,2077,2084,1196
1234,1710925983201224411,2058,2057,2060,2001,2025,2059,1194
1235,1710925983211207590,2046,2045,2044,2046,2062,2070,1195
1236,1710925983221207180,2056,2080,2083,2099,2046,2068,1194
1237,1710925983231209174,2053,2056,2038,2078,2084,2060,1195
1238,1710925983241209425,2064,2056,2061,2082,2031,2048,1195
1239,1710925983251215096,2057,2053,2059,2087,2065,2056,1195
1240,1710925983261207853,2064,2056,2065,2050,2048,2056,1194
1241,1710925983271216430,2057,2042,2044,2059,2076,2047,1193
1242,1710925983281232270,2054,2060,2083,2020,2047,2059,1194
1243,1710925983291214738,2057,2057,2061,2009,2052,2002,1192
1244,1710925983301208587,2056,2054,2057,1968,2033,2042,1194
1245,1710925983311211081,2050,2060,2042,2000,2068,2066,1194
1246,1710925983321164895,2056,2037,2050,1992,2041,2052,1196
1247,1710925983331211564,2068,2052,2039,1980,2056,2028,1193
1248,1710925983341210312,2057,2058,2060,2088,2050,2056,1196
1249,1710925983351213449,2059,2082,2056,2046,2065,2058,1196
1250,1710925983361217377,2053,2056,2063,2064,2046,2062,1196
1251,1710925983371212848,2045,2044,2037,2066,2066,2043,1192
1252,1710925983381223239,2056,2046,2056,2092,2031,2056,1197
1253,1710925983391181660,2052,2052,2040,2069,2072,2084,1195
1254,1710925983401209404,2064,2044,2065,2104,2067,2020,1192
1255,1710925983411215747,2058,2040,2028,1982,2049,2024,1192
1256,1710925983421214685,2060,2068,2057,2040,2044,2038,1193
1257,1710925983431216850,2056,2052,2051,1951,2045,2045,1192
1258,1710925983441216359,2051,2054,2051,2046,2043,2052,1196
1259,1710925983451218684,2047,2030,2046,1993,2052,2044,1192
1260,1710925983461213915,2062,2053,2068,2017,2048,2080,1196
1261,1710925983471199418,2056,2074,2058,2062,2071,2064,1196
1262,1710925983481200942,2052,2053,2051,1960,2029,2051,1195
1263,1710925983491188309,2047,2060,2045,2037,2057,2054,1194
1264,1710925983501201465,2062,2063,2076,2020,2018,2041,1194
1265,1710925983511216003,2052,2052,2045,2051,2069,2079,1196
1266,1710925983521219810,2056,2056,2072,2031,2049,2066,1197
1267,1710925983531202708,2052,2020,2017,2046,2065,2059,1196
1268,1710925983541202839,2070,2068,2060,2073,2034,2053,1195
1269,1710925983551220833,2052,2065,2051,2048,2065,2054,1194
1270,1710925983561243608,2054,2056,2064,2072,2052,2028,1193
1271,1710925983571191539,2056,2055,2057,2009,2064,2058,1195
1272,1710925983581224192,2052,2036,2049,2077,2037,2013,1193
1273,1710925983591239301,2051,2047,2040,2049,2064,2108,1196
1274,1710925983601225976,2051,2052,2057,2058,2025,2034,1192
1275,1710925983611195108,2047,2083,2060,2011,2054,2011,1193
1276,1710925983621180160,2057,2049,2064,2062,2038,2067,1196
1277,1710925983631161225,2054,2052,2049,2125,2075,2053,1194
1278,1710925983641200911,2060,2059,2069,2120,2044,2047,1192
1279,1710925983651235737,2060,2056,2072,2104,2066,2062,1195
1280,1710925983661200792,2065,2059,2067,1973,2065,2098,1194
1281,1710925983671195483,2056,2056,2041,2059,2073,2058,1194
1282,1710925983681196876,2056,2050,2048,2120,2038,2041,1193
1283,1710925983691204380,2053,2068,2053,2088,2068,2043,1193
1284,1710925983701203199,2061,2050,2059,2056,2033,1904,1194
1285,1710925983711211555,2049,2072,2080,2043,2058,2043,1194
1286,1710925983721199733,2054,2049,2060,2049,2010,2050,1195
1287,1710925983731200785,2055,2053,2046,2074,2084,2069,1197
1288,1710925983741209282,2046,2051,2066,2059,2041,2048,1195
1289,1710925983751262264,2053,2041,2052,2020,2065,2041,1193
1290,1710925983761140313,2068,2058,2070,2072,2046,2072,1197
1291,1710925983771158628,2052,2050,2042,2068,2065,2046,1192
1292,1710925983781205928,2049,2047,2058,2088,2052,2063,1195
1293,1710925983791206109,2062,2080,2102,2078,2066,2057,1195
1294,1710925983801207562,2053,2032,2048,2042,2056,2061,1196
1295,1710925983811194187,2050,2058,2054,2007,2052,2051,1195
1296,1710925983821200430,2045,2050,2053,2059,2041,2089,1197
1297,1710925983831207413,2053,2043,2040,2038,2063,2056,1195
1298,1710925983841206522,2069,2062,2072,2032,2037,2054,1198
1299,1710925983851201834,2061,2033,2045,2047,2056,2061,1195
1300,1710925983861202206,2054,2048,2029,2044,2026,2077,1194
1301,1710925983871204430,2064,2056,2051,2054,2070,2068,1195
1302,1710925983881205633,2061,2092,2080,2109,2065,2043,1194
1303,1710925983891205313,2056,2065,2059,1985,2059,2029,1192
1304,1710925983901200835,2058,2075,2075,2082,2044,2049,1195
1305,1710925983911201126,2051,2049,2041,2084,2072,2081,1194
1306,1710925983921197510,2052,2043,2056,2056,2046,2116,1196
1307,1710925983931199384,2058,2050,2056,2082,2056,2051,1196
1308,1710925983941253538,2058,2089,2082,2010,2037,2066,1196
1309,1710925983951203984,2048,2048,2050,2073,2080,2061,1195
1310,1710925983961190509,2056,2069,2076,2073,2043,2046,1193
1311,1710925983971206800,2054,2056,2022,2030,2049,2032,1192
1312,1710925983981201791,2052,2047,2049,2040,2034,2054,1196
1313,1710925983991167246,2048,2037,2027,2126,2064,2078,1197
1314,1710925984001203916,2053,2037,2057,2085,2045,2060,1194
1315,1710925984011203657,2053,2060,2060,2069,2074,2101,1196
1316,1710925984021196022,2049,2054,2076,2042,2042,2060,1196
1317,1710925984031198438,2047,2040,2037,2017,2065,2066,1196
1318,1710925984041191805,2058,2062,2067,2040,2050,2055,1196
1319,1710925984051211604,2054,2043,2061,2056,2067,2050,1197
1320,1710925984061197067,2061,2068,2096,2072,2045,1933,1193
1321,1710925984071199091,2056,2046,2044,2064,2061,2048,1197
1322,1710925984081203329,2056,2040,2052,2136,2059,2060,1196
1323,1710925984091206566,2056,2062,2050,2104,2068,2017,1194
1324,1710925984101211596,2049,2058,2075,2058,2042,2060,1194
1325,1710925984111197069,2053,2069,2067,2047,2063,2048,1197
1326,1710925984121205675,2056,2074,2080,2036,2050,2052,1196
1327,1710925984131203261,2046,2074,2051,2082,2056,2074,1196
1328,1710925984141208662,2047,2041,2052,1972,2042,2056,1194
1329,1710925984151205637,2060,2043,2043,2070,2061,2062,1196
1330,1710925984161200788,2061,2062,2072,2078,2052,2064,1196
1331,1710925984171199275,2057,2040,2042,2109,2073,2083,1198
1332,1710925984181205548,2054,2047,2040,2009,2042,2089,1195
1333,1710925984191204596,2051,2043,2041,1980,2061,2053,1197
1334,1710925984201208534,2049,2056,2052,2063,2048,2056,1193
1335,1710925984211199077,2054,2064,2056,2060,2064,2033,1192
1336,1710925984221201673,2058,2056,2063,2100,2056,2054,1196
1337,1710925984231202674,2050,2052,2056,2062,2071,2047,1193
1338,1710925984241203066,2052,2042,2053,2064,2042,2060,1194
1339,1710925984251199810,2064,2061,2036,1980,2058,2072,1195
1340,1710925984261199771,2059,2045,2070,2008,2013,2072,1196
1341,1710925984271205623,2061,2058,2042,2059,2076,2060,1193
1342,1710925984281200984,2056,2056,2070,2050,2041,2113,1196
1343,1710925984291205083,2052,2050,2036,1942,2061,2036,1192
1344,1710925984301207888,2051,2066,2076,2024,2025,1980,1193
1345,1710925984311196667,2055,2057,2032,2018,2058,2004,1194
1346,1710925984321201898,2058,2099,2077,2012,2042,2050,1196
1347,1710925984331200806,2044,2032,2038,2005,2064,2068,1198
1348,1710925984341214432,2053,2045,2060,1976,2030,2065,1196
1349,1710925984351203312,2053,2061,2061,2090,2070,2056,1194
1350,1710925984361209704,2053,2046,2052,2036,2039,2065,1197
1351,1710925984371202371,2061,2046,2045,2049,2064,2037,1193
1352,1710925984381205768,2046,2057,2060,2064,2047,2057,1197
1353,1710925984391203424,2048,2050,2049,1946,2032,2049,1196
1354,1710925984401229954,2053,2049,2057,2136,2056,2060,1194
1355,1710925984411203054,2053,2057,2052,2064,2075,2074,1196
1356,1710925984421202674,2052,2041,2056,2066,2040,2069,1195
1357,1710925984431202834,2061,2048,2045,2060,2070,2053,1196
1358,1710925984441211691,2057,2085,2098,2092,2040,2050,1196
1359,1710925984451200501,2055,2054,2037,2065,2070,2076,1196
1360,1710925984461203988,2057,2068,2076,2051,2052,2089,1194
1361,1710925984471204008,2053,2040,2046,2088,2073,2052,1196
1362,1710925984481205512,2054,2056,2065,2056,2047,2058,1196
1363,1710925984491204480,2056,2056,2043,2082,2059,2052,1193
1364,1710925984501210362,2058,2051,2066,2141,2056,2012,1192
1365,1710925984511204942,2057,2040,2030,2056,2060,2054,1195
1366,1710925984521204742,2059,2054,2059,2108,2037,2045,1193
1367,1710925984531224100,2060,2036,2048,2056,2054,2015,1193
1368,1710925984541218940,2058,2058,2068,2076,2059,2046,1195
1369,1710925984551202760,2057,2056,2049,2044,2061,2066,1194
1370,1710925984561213500,2053,2057,2065,2008,2054,2051,1196
1371,1710925984571207901,2057,2050,2038,2013,2071,2028,1193
1372,1710925984581209234,2065,2074,2074,2080,2046,2021,1192
1373,1710925984591212911,2060,2072,2076,2062,2062,2057,1194
1374,1710925984601219364,2048,2064,2062,2063,2047,2008,1190
1375,1710925984611215507,2046,2040,2036,2037,2058,2056,1196
1376,1710925984621223633,2049,2087,2080,2073,2046,2049,1195
1377,1710925984631210659,2047,2044,2052,2066,2066,2050,1193
1378,1710925984641205559,2059,2069,2093,2116,2031,2039,1192
1379,1710925984651210980,2049,2057,2033,2069,2054,2043,1193
1380,1710925984661211802,2054,2064,2071,1981,2040,2053,1196
1381,1710925984671212845,2054,2061,2055,1988,2058,2071,1194
1382,1710925984681205481,2061,2061,2067,2037,2046,2110,1193
1383,1710925984691216522,2058,2037,2028,2010,2056,2058,1194
1384,1710925984701187077,2058,2042,2058,2000,2043,1949,1193
1385,1710925984711192217,2058,2082,2074,2076,2073,2038,1192
1386,1710925984721210081,2054,2056,2067,2024,2040,2069,1194
1387,1710925984731165838,2052,2045,2064,2069,2063,2046,1193
1388,1710925984741224300,2052,2056,2064,2081,2050,2052,1194
1389,1710925984751211806,2053,2043,2041,2060,2056,2062,1195
1390,1710925984761220854,2062,2068,2062,2085,2047,2057,1195
1391,1710925984771192951,2055,2050,2049,2017,2064,2070,1195
1392,1710925984781221726,2052,2050,2049,2068,2034,2057,1196
1393,1710925984791173075,2056,2049,2044,2022,2060,2035,1193
1394,1710925984801129673,2049,2064,2062,2039,2041,2072,1192
1395,1710925984811163207,2064,2058,2043,2034,2060,2056,1195
1396,1710925984821197913,2051,2077,2060,1942,2036,2070,1197
1397,1710925984831197263,2057,2053,2045,2088,2072,2060,1195
1398,1710925984841227270,2045,2047,2060,2055,2040,2040,1194
1399,1710925984851212843,2055,2056,2051,2010,2054,2056,1196
1400,1710925984861221149,2053,2045,2056,2076,2061,2056,1194
1401,1710925984871197084,2062,2047,2052,2057,2066,2065,1194
1402,1710925984881233113,2058,2025,2041,2052,2053,2072,1197
1403,1710925984891227012,2069,2074,2058,2099,2061,2065,1196
1404,1710925984901201694,2049,2083,2102,1948,2033,2066,1197
1405,1710925984911216553,2055,2026,2032,2047,2046,2068,1197
1406,1710925984921233836,2054,2038,2047,2052,2041,2073,1199
1407,1710925984931205583,2052,2049,2041,2058,2068,2049,1196
1408,1710925984941207146,2053,2044,2057,2076,2048,2079,1196
1409,1710925984951205123,2065,2066,2041,2099,2057,2024,1193
1410,1710925984961252112,2057,2054,2068,2050,2037,1978,1193
1411,1710925984971210554,2053,2070,2061,2056,2057,2054,1195
1412,1710925984981206046,2056,2051,2056,2040,2040,2056,1194
1413,1710925984991219712,2053,2057,2040,2072,2071,2001,1193
1414,1710925985001239601,2058,2052,2051,2008,2028,2064,1195
1415,1710925985011194415,2052,2052,2050,1996,2056,2058,1195
1416,1710925985021218151,2045,2070,2072,2081,2045,2053,1194
1417,1710925985031202651,2053,2044,2047,2074,2068,2037,1192
1418,1710925985041260672,2062,2045,2042,2012,2024,2059,1194
1419,1710925985051206971,2049,2040,2040,2040,2073,2061,1195
1420,1710925985061201761,2069,2062,2053,2080,2058,2062,1196
1421,1710925985071198676,2050,2024,2044,2043,2062,2048,1194
1422,1710925985081204237,2064,2052,2071,2096,2060,2044,1193
1423,1710925985091198025,2056,2079,2088,2134,2080,2052,1196
1424,1710925985101214447,2060,2053,2068,2020,2008,2027,1194
1425,1710925985111189951,2059,2061,2063,1992,2075,2066,1197
1426,1710925985121206372,2053,2053,2058,2051,2042,2052,1197
1427,1710925985131204409,2054,2054,2049,2018,2048,1955,1193
1428,1710925985141203287,2048,2054,2047,2056,2052,2064,1196
1429,1710925985151212395,2055,2039,2034,2085,2077,2080,1195
1430,1710925985161230780,2045,2046,2083,2062,2048,2092,1195
1431,1710925985171197608,2046,2038,2028,2109,2079,2066,1195
1432,1710925985181208178,2064,2089,2099,2081,2070,2090,1195
1433,1710925985191206325,2051,2036,2039,2022,2052,2062,1196
1434,1710925985201214020,2044,2052,2043,2034,2004,2045,1193
1435,1710925985211197108,2056,2054,2061,2128,2072,2016,1192
1436,1710925985221200565,2056,2059,2073,2057,2021,2056,1194
1437,1710925985231205135,2050,2045,2034,2006,2008,2046,1192
1438,1710925985241202590,2061,2057,2064,2045,2072,2074,1197
1439,1710925985251202800,2057,2044,2029,2035,2069,2063,1196
1440,1710925985261203823,2039,2030,2029,2040,2018,2050,1197
1441,1710925985271221847,2052,2049,2056,1997,2047,2040,1193
1442,1710925985281253368,2050,2059,2076,2069,2021,2042,1193
1443,1710925985291204705,2061,2063,2067,2090,2100,2062,1195
1444,1710925985301216899,2061,2077,2086,2013,2081,2105,1198
1445,1710925985311204606,2062,2073,2046,2100,2112,2072,1196
1446,1710925985321211239,2066,2056,2057,2043,2042,2064,1197
1447,1710925985331204777,2062,2080,2067,2024,2031,2049,1195
1448,1710925985341276113,2052,2050,2060,2045,2033,2044,1195
1449,1710925985351191382,2048,2049,2050,2064,2061,1967,1193
1450,1710925985361209377,2045,2045,2054,2039,2038,2037,1191
1451,1710925985371203146,2072,2076,2069,2034,2079,2061,1194
1452,1710925985381230408,2053,2056,2080,2035,2036,2018,1193
1453,1710925985391201654,2062,2088,2037,2036,2079,2027,1193
1454,1710925985401214358,2045,2053,2069,2061,2056,1997,1191
1455,1710925985411207415,2060,2061,2053,2074,2051,2047,1193
1456,1710925985421200944,2056,2054,2060,2088,2048,2065,1194
1457,1710925985431198159,2057,2045,2044,2050,2069,2097,1195
1458,1710925985441198480,2060,2051,2054,2081,2018,2053,1196
1459,1710925985451201065,2047,2043,2040,2061,2032,2037,1192
1460,1710925985461203750,2050,2053,2075,2026,2048,2052,1196
1461,1710925985471196858,2058,2020,2045,2009,2083,2063,1196
1462,1710925985481202949,2072,2041,2037,2049,2047,2006,1195
1463,1710925985491197770,2058,2053,2028,2076,2093,2110,1197
1464,1710925985501224080,2064,2060,2077,2058,2058,2052,1193
1465,1710925985511200757,2056,2072,2084,2046,2018,2018,1195
1466,1710925985521198082,2052,2044,2049,2000,2044,2061,1195
1467,1710925985531194755,2056,2052,2042,2048,2051,2052,1197
1468,1710925985541198193,2041,2024,2029,2056,2040,2010,1193
1469,1710925985551196139,2059,2054,2062,2056,2054,2054,1197
1470,1710925985561208834,2055,2060,2074,2073,2047,2069,1194
1471,1710925985571200247,2053,2057,2052,1960,2044,2048,1194
1472,1710925985581198845,2057,2059,2065,2044,2052,2073,1193
1473,1710925985591217511,2051,2029,2045,2083,2074,2061,1194
1474,1710925985601212412,2068,2064,2065,2069,2053,2038,1190
1475,1710925985611204177,2059,2056,2052,1998,2064,2065,1196
1476,1710925985621205459,2057,2052,2060,2091,2042,2034,1192
1477,1710925985631202063,2052,2053,2037,2068,2068,2049,1194
1478,1710925985641205130,2048,2072,2069,2046,2035,2068,1194
1479,1710925985651200461,2047,2046,2056,2061,2074,2057,1194
1480,1710925985661201764,2053,2041,2070,2099,2062,2056,1194
1481,1710925985671210060,2056,2050,2056,2090,2046,2054,1196
1482,1710925985681206243,2052,2056,2064,2005,2050,2074,1195
1483,1710925985691199751,2056,2047,2043,2053,2060,2056,1195
1484,1710925985701205723,2045,2045,2060,2025,2026,2006,1194
1485,1710925985711203600,2052,2020,2022,2029,2076,2041,1193
1486,1710925985721209360,2070,2061,2054,2070,2062,2061,1197
1487,1710925985731202148,2048,2016,2027,2044,2064,2054,1196
1488,1710925985741200254,2056,2068,2080,2109,2085,2088,1197
1489,1710925985751200115,2050,2050,2044,2129,2068,2027,1193
1490,1710925985761203210,2062,2061,2059,2112,2040,2088,1193
1491,1710925985771211126,2043,2040,2038,2068,2047,2046,1193
1492,1710925985781207550,2048,2069,2074,2073,2042,2050,1196
1493,1710925985791203592,2037,2030,2044,2040,2076,2027,1193
1494,1710925985801196069,2049,2054,2076,2038,2032,2056,1193
1495,1710925985811205897,2055,2053,2044,2047,2076,2066,1198
1496,1710925985821184487,2053,2060,2074,2062,2048,2052,1194
1497,1710925985831192733,2056,2052,2062,2096,2073,2068,1197
1498,1710925985841192223,2051,2050,2048,2069,2031,2053,1197
1499,1710925985851194908,2061,2060,2054,2042,2073,2064,1196
1500,1710925985861197654,2057,2053,2062,2026,2039,2004,1192
1501,1710925985871235165,2053,2050,2045,2026,2057,2077,1197
1502,1710925985881239334,2059,2082,2067,2032,2037,2052,1197
1503,1710925985891218014,2040,2028,2018,2059,2044,2068,1195
1504,1710925985901232081,2056,2048,2072,2070,2045,2076,1197
1505,1710925985911228544,2062,2047,2034,2051,2065,2056,1195
1506,1710925985921224207,2052,2053,2059,2043,2032,2052,1198
1507,1710925985931219889,2050,2048,2045,2052,2064,2064,1196
1508,1710925985941206243,2056,2056,2064,2049,2033,2078,1196
1509,1710925985951202126,2052,2052,2055,2052,2057,2081,1196
1510,1710925985961220952,2053,2069,2062,2060,2044,2052,1194
1511,1710925985971222375,2047,2074,2067,2017,2072,2064,1195
1512,1710925985981216404,2045,2015,2044,2018,2012,2053,1194
1513,1710925985991219020,2067,2054,2062,2055,2076,2057,1196
1514,1710925986002036451,2052,2056,2064,2034,2041,2062,1194
1515,1710925986011197870,2055,2051,2045,2034,2044,2112,1195
1516,1710925986021190105,2046,2051,2072,2075,2058,2056,1195
1517,1710925986031217387,2050,2037,2031,2072,2054,2057,1195
1518,1710925986041206387,2062,2057,2079,2088,2048,2056,1195
1519,1710925986051210144,2053,2048,2049,1988,2062,2066,1197
1520,1710925986061202620,2052,2049,2065,2021,2056,2088,1195
1521,1710925986071205767,2057,2052,2042,2104,2067,2063,1197
1522,1710925986081222910,2056,2052,2038,2119,2057,2058,1196
1523,1710925986091206469,2047,2032,2036,1996,2025,2045,1193
1524,1710925986101199465,2060,2061,2088,1986,2027,2059,1194
1525,1710925986111201609,2055,2050,2048,2079,2060,2057,1195
1526,1710925986121211920,2060,2056,2056,2065,2055,2056,1195
1527,1710925986131204646,2044,2038,2035,2096,2049,2072,1195
1528,1710925986141198936,2046,2041,2038,2036,2032,2049,1194
1529,1710925986151203946,2056,2049,2042,2009,2046,2015,1192
1530,1710925986161217071,2049,2032,2043,2075,2064,2062,1196
1531,1710925986171201211,2070,2057,2040,2074,2080,2076,1195
1532,1710925986181213655,2044,2024,2038,2045,2026,2040,1192
1533,1710925986191208816,2062,2056,2041,2037,2072,2024,1192
1534,1710925986201209007,2057,2062,2064,2100,2048,2058,1192
1535,1710925986211201883,2068,2066,2071,2105,2087,2060,1195
1536,1710925986221206763,2056,2047,2032,2100,2054,2064,1195
1537,1710925986231209839,2054,2051,2050,2096,2072,2064,1194
1538,1710925986241216492,2052,2052,2050,2067,2061,2059,1194
1539,1710925986251204329,2050,2047,2054,2067,2054,2056,1195
1540,1710925986261204230,2058,2055,2066,2138,2071,2026,1192
1541,1710925986271205082,2055,2046,2051,2120,2077,2064,1196
1542,1710925986281223657,2061,2037,2047,2112,2056,2072,1195
1543,1710925986291208408,2050,2060,2052,1965,2045,2052,1194
1544,1710925986301200794,2051,2076,2077,2080,2043,2068,1194
1545,1710925986311207026,2049,2048,2046,2058,2068,2049,1196
1546,1710925986321216464,2053,2056,2096,2108,2007,2044,1191
1547,1710925986331217356,2056,2065,2056,2057,2056,2073,1198
1548,1710925986341190436,2056,2073,2070,2033,2056,2095,1196
1549,1710925986351207799,2056,2067,2057,2042,2049,2053,1194
1550,1710925986361222547,2060,2047,2044,2036,2026,2022,1192
1551,1710925986371208671,2061,2064,2062,2053,2069,2086,1194
1552,1710925986381217869,2049,2047,2064,2061,2022,2039,1193
1553,1710925986391209944,2056,2043,2056,1951,2046,2052,1194
1554,1710925986401221406,2054,2052,2068,1977,2029,2045,1189
1555,1710925986411210836,2051,2048,2050,2096,2044,2036,1192
1556,1710925986421210516,2047,2041,2048,2070,2056,2010,1192
1557,1710925986431226577,2060,2069,2056,2026,2055,2024,1192
1558,1710925986441220856,2052,2052,2057,2078,2066,2052,1194
1559,1710925986451223692,2046,2064,2045,2072,2059,2049,1195
1560,1710925986461211419,2044,2040,2049,2035,2032,2050,1194
1561,1710925986471212932,2063,2070,2041,2060,2052,2049,1195
1562,1710925986481224604,2054,2064,2056,2070,2073,2065,1194
1563,1710925986491213323,2058,2059,2068,1992,2069,2058,1195
1564,1710925986501188306,2068,2060,2052,2061,2060,2060,1195
1565,1710925986511212823,2053,2047,2050,2090,2056,2016,1192
1566,1710925986521190601,2052,2028,2036,2050,2052,2058,1197
1567,1710925986531213515,2057,2053,2056,2100,2062,2041,1192
1568,1710925986541153722,2066,2059,2067,2024,2050,2036,1194
1569,1710925986551216521,2050,2037,2026,2066,2066,2059,1196
1570,1710925986561215860,2060,2056,2057,2064,2052,2055,1195
1571,1710925986571196163,2053,2054,2056,2045,2035,2035,1193
1572,1710925986581179903,2053,2052,2064,2073,2056,2052,1196
1573,1710925986591220239,2060,2054,2075,2086,2073,2056,1195
1574,1710925986601189742,2062,2044,2057,2121,2049,2055,1193
1575,1710925986611190534,2058,2040,2064,2084,2072,2058,1196
1576,1710925986621201104,2052,2044,2060,2060,2048,2060,1196
1577,1710925986631199831,2054,2033,2017,2060,2072,2081,1193
1578,1710925986641201175,2056,2046,2055,2026,2044,2024,1193
1579,1710925986651169855,2055,2054,2057,1976,2046,2049,1196
1580,1710925986661200173,2051,2074,2086,2068,2057,2048,1195
1581,1710925986671198711,2059,2052,2038,2054,2082,2076,1195
1582,1710925986681199363,2053,2041,2040,2068,2046,2062,1193
1583,1710925986691205004,2067,2046,2037,2129,2061,2065,1195
1584,1710925986702678019,2055,2053,2061,2114,2059,2017,1192
1585,1710925986711192210,2061,2073,2062,2050,2072,2061,1195
1586,1710925986721199975,2052,2062,2064,2072,2056,2053,1195
1587,1710925986731204844,2053,2096,2074,2082,2061,2037,1193
1588,1710925986741204414,2049,2044,2045,2090,2064,2048,1198
1589,1710925986751201949,2058,2052,2058,2034,2064,2048,1195
1590,1710925986761204845,2064,2056,2060,2073,2061,2060,1193
1591,1710925986771199936,2056,2058,2053,2065,2065,2051,1195
1592,1710925986781205447,2049,2040,2043,2074,2034,2055,1196
1593,1710925986791231106,2060,2073,2054,2052,2064,2052,1193
1594,1710925986801238951,2056,2040,2047,2074,2056,2074,1191
1595,1710925986811235935,2054,2048,2032,2107,2052,2028,1192
1596,1710925986821205238,2050,2052,2052,2060,2044,2056,1197
1597,1710925986831231067,2062,2050,2038,2039,2056,2048,1196
1598,1710925986841240034,2049,2044,2045,2115,2002,2050,1196
1599,1710925986851199668,2058,2073,2060,2079,2056,2052,1196
1600,1710925986861244153,2057,2048,2048,2073,2049,2044,1191
1601,1710925986871228243,2057,2053,2051,2057,2065,2047,1194
1602,1710925986881198076,2054,2052,2060,2056,2055,2065,1196
1603,1710925986891221541,2054,2066,2054,2044,2065,2065,1196
1604,1710925986901232652,2061,2061,2083,2124,2052,2064,1196
1605,1710925986911212544,2053,2045,2047,2077,2060,2050,1197
1606,1710925986921246940,2056,2069,2060,2069,2047,2050,1195
1607,1710925986931200552,2061,2052,2047,2068,2049,2055,1194
1608,1710925986941196675,2042,2044,2038,2024,2017,2041,1194
1609,1710925986951206063,2066,2062,2059,2062,2066,2053,1194
1610,1710925986961201795,2056,2046,2054,2067,2052,2053,1198
1611,1710925986971206325,2055,2047,2039,2101,2092,2073,1194
1612,1710925986981213127,2050,2036,2066,2040,2027,2026,1192
1613,1710925986991202447,2059,2036,2028,2050,2065,2068,1194
1614,1710925987001240039,2064,2060,2056,2054,2043,2052,1194
1615,1710925987011214701,2047,2041,2045,2056,2058,2072,1196
1616,1710925987021249027,2048,2048,2064,2026,2041,2060,1196
1617,1710925987031217537,2055,2058,2046,2066,2041,2052,1194
1618,1710925987041243847,2060,2061,2066,2080,2052,2057,1196
1619,1710925987051195595,2053,2068,2056,2057,2064,2054,1194
1620,1710925987061213229,2059,2049,2052,2083,2060,2037,1196
1621,1710925987071206036,2055,2043,2048,2058,2064,2073,1193
1622,1710925987081254639,2053,2047,2044,2112,2046,2071,1195
1623,1710925987091204233,2052,2029,2052,2025,2037,2038,1194
1624,1710925987101194234,2064,2049,2062,2056,2050,2050,1196
1625,1710925987111201608,2058,2071,2074,2052,2066,2052,1197
1626,1710925987121263636,2050,2062,2072,2064,2042,2053,1195
1627,1710925987131195077,2044,2036,2033,2033,2043,2037,1192
1628,1710925987141211017,2057,2056,2068,2060,2060,2085,1197
1629,1710925987151193293,2056,2077,2093,2066,2047,2045,1194
1630,1710925987161163206,2064,2041,2049,2130,2035,2074,1197
1631,1710925987171212070,2056,2061,2056,2050,2043,2034,1193
1632,1710925987181201640,2056,2085,2095,2073,2050,2051,1199
1633,1710925987191206339,2051,2041,2040,2058,2069,2046,1193
1634,1710925987201200799,2057,2055,2060,2089,2056,2059,1195
1635,1710925987211215847,2056,2050,2049,2089,2065,2056,1195
1636,1710925987221202753,2056,2094,2064,1962,2034,2052,1194
1637,1710925987231197573,2048,2032,2020,2068,2064,2054,1195
1638,1710925987241255243,2045,2020,2051,2061,2025,2005,1192
1639,1710925987251224075,2068,2050,2046,2044,2060,2041,1194
1640,1710925987261195029,2062,2061,2067,2053,2058,2061,1197
1641,1710925987271220027,2053,2052,2048,2092,2066,2052,1196
1642,1710925987281260825,2058,2072,2082,2083,2053,2044,1193
1643,1710925987291203917,2056,2038,2021,2029,2065,2053,1194
1644,1710925987301211070,2056,2070,2060,2085,2035,2057,1197
1645,1710925987311222772,2052,2072,2051,2061,2064,2060,1196
1646,1710925987321207804,2053,2054,2058,2061,2046,2059,1196
1647,1710925987331217634,2057,2060,2065,2080,2057,2064,1194
1648,1710925987341214899,2058,2083,2064,2115,2059,2049,1196
1649,1710925987351192897,2057,2058,2052,2095,2074,2060,1195
1650,1710925987361203577,2049,2031,2047,2050,2032,2055,1193
1651,1710925987371203357,2065,2065,2040,2081,2080,2081,1195
1652,1710925987381223075,2051,2054,2074,2034,2022,2061,1194
1653,1710925987391205722,2052,2048,2049,1978,2056,2057,1195
1654,1710925987401206854,2053,2052,2065,2028,2052,2054,1193
1655,1710925987411208417,2051,2070,2060,2072,2052,2008,1194
1656,1710925987421203058,2053,2055,2066,2059,2044,2076,1196
1657,1710925987431207486,2052,2052,2056,2011,2038,2054,1195
1658,1710925987441194773,2058,2065,2090,2085,2046,2056,1194
1659,1710925987451216664,2050,2060,2060,2080,2086,2066,1195
1660,1710925987461210352,2056,2076,2058,2039,2047,2069,1195
1661,1710925987471202367,2047,2041,2029,2011,2076,2072,1194
1662,1710925987481210834,2056,2047,2058,2047,2048,2052,1193
1663,1710925987491206365,2046,2037,2032,2025,2060,2042,1192
1664,1710925987501204563,2068,2085,2097,2092,2046,2040,1195
1665,1710925987511186208,2056,2048,2046,2081,2080,2051,1196
1666,1710925987521204422,2053,2047,2045,2070,2056,2066,1195
1667,1710925987531256271,2066,2081,2069,2055,2069,2064,1194
1668,1710925987541238628,2052,2050,2072,1978,2038,2060,1194
1669,1710925987551210805,2060,2066,2048,2060,2073,2056,1197
1670,1710925987561208421,2056,2035,2064,2035,2053,2061,1197
1671,1710925987571201988,2068,2072,2043,2055,2079,2062,1197
1672,1710925987581204714,2059,2050,2052,2074,2046,2049,1195
1673,1710925987591217459,2049,2066,2051,2040,2039,2035,1193
1674,1710925987601221096,2046,2046,2048,2060,2040,2065,1196
1675,1710925987611213983,2066,2068,2056,2078,2065,2053,1195
1676,1710925987621216678,2040,2048,2072,2088,2040,2054,1197
1677,1710925987631152245,2059,2056,2057,2002,2059,2060,1195
1678,1710925987641151164,2053,2053,2070,2027,2040,2050,1196
1679,1710925987651193364,2053,2051,2036,2103,2070,2052,1195
1680,1710925987661208222,2050,2041,2050,2081,2049,2056,1196
1681,1710925987671221919,2053,2036,2047,2058,2064,2061,1196
1682,1710925987681215307,2056,2044,2056,2063,2037,2028,1194
1683,1710925987691238070,2063,2079,2064,2068,2071,2068,1195
1684,1710925987701206190,2060,2052,2031,2132,2054,2052,1197
1685,1710925987711210538,2052,2047,2024,2084,2061,2064,1195
1686,1710925987721207382,2056,2040,2050,2117,2046,2032,1193
1687,1710925987731213764,2058,2072,2074,2078,2068,2052,1196
1688,1710925987741211200,2057,2064,2063,2053,2066,2057,1193
1689,1710925987751202013,2059,2085,2069,2044,2076,2056,1195
1690,1710925987761217783,2047,2051,2057,2056,2041,2055,1193
1691,1710925987771216240,2056,2062,2068,2059,2056,2056,1194
1692,1710925987781212904,2050,2051,2053,2089,2038,2054,1196
1693,1710925987791220228,2057,2047,2050,2116,2072,2058,1196
1694,1710925987801215700,2050,2058,2058,2088,2060,2056,1193
1695,1710925987811213185,2054,2046,2043,2044,2060,2054,1196
1696,1710925987821161156,2052,2040,2050,2027,2029,2072,1197
1697,1710925987831219537,2067,2058,2056,1988,2031,2040,1192
1698,1710925987841226411,2053,2052,2049,2044,2050,2064,1197
1699,1710925987851219047,2059,2069,2045,2034,2062,2047,1196
1700,1710925987861243273,2053,2051,2052,2047,2056,2062,1198
1701,1710925987871213627,2056,2050,2056,2064,2061,2058,1196
1702,1710925987881217495,2058,2036,2047,2047,2048,2046,1194
1703,1710925987891217986,2057,2040,2044,2022,2066,2032,1193
1704,1710925987901208949,2049,2049,2064,2075,2031,2046,1194
1705,1710925987911220180,2056,2057,2052,2052,2056,2056,1195
1706,1710925987921194782,2058,2064,2067,2076,2047,2053,1198
1707,1710925987931217496,2056,2056,2064,2046,2073,2061,1197
1708,1710925987941228828,2053,2057,2045,2073,2042,2051,1195
1709,1710925987951228226,2057,2076,2075,2069,2061,2056,1196
1710,1710925987961213449,2059,2050,2059,2061,2036,2091,1198
1711,1710925987971224109,2060,2068,2051,2040,2053,1998,1193
1712,1710925987981219801,2054,2049,2066,2090,2042,2053,1195
1713,1710925987991203670,2055,2049,2033,1960,2037,2045,1193
1714,1710925988001203150,2064,2061,2051,2044,2044,2052,1193
1715,1710925988011232937,2053,2048,2040,2017,2058,2056,1195
1716,1710925988021206396,2052,2046,2062,2112,2051,2059,1194
1717,1710925988031204883,2061,2056,2062,2065,2052,2053,1195
1718,1710925988041206827,2056,2057,2064,2038,2044,2064,1196
1719,1710925988051204523,2053,2056,2082,2073,2067,2035,1193
1720,1710925988061206076,2061,2060,2067,2076,2052,2054,1195
1721,1710925988071208180,2047,2056,2046,2084,2060,2040,1193
1722,1710925988081203952,2049,2025,2037,2072,2050,2058,1194
1723,1710925988091206177,2057,2036,2043,2047,2047,2037,1192
1724,1710925988101205355,2060,2032,2047,2083,2043,2053,1195
1725,1710925988111204203,2053,2060,2056,2081,2065,2058,1194
1726,1710925988121207259,2056,2060,2060,2049,2047,2050,1196
1727,1710925988131205677,2052,2057,2028,2009,2044,2009,1192
1728,1710925988141207710,2049,2042,2046,2053,2056,2053,1194
1729,1710925988151210476,2056,2041,2051,2072,2062,2053,1196
1730,1710925988161204465,2068,2060,2061,2036,2036,2071,1196
1731,1710925988171204425,2049,2072,2066,2028,2059,2068,1196
1732,1710925988181223411,2050,2052,2061,2116,2044,2053,1196
1733,1710925988191211047,2059,2054,2051,2085,2069,2053,1196
1734,1710925988201241736,2053,2056,2058,2033,2038,2036,1192
1735,1710925988211217891,2060,2075,2084,2058,2073,2052,1195
1736,1710925988221201279,2051,2035,2053,2073,2053,2020,1192
1737,1710925988231205798,2059,2074,2081,2052,2068,2072,1195
1738,1710925988241204055,2051,2052,2056,2041,2050,2051,1195
1739,1710925988251216970,2050,2044,2040,2032,2050,2047,1193
1740,1710925988261209395,2053,2056,2054,2014,2041,2060,1193
1741,1710925988271212732,2056,2060,2062,2066,2067,2074,1197
1742,1710925988281210588,2057,2056,2072,2064,2056,2058,1195
1743,1710925988291209186,2051,2042,2044,2058,2064,2058,1193
1744,1710925988301209055,2062,2065,2053,2054,2032,2022,1194
1745,1710925988311211870,2054,2053,2053,1976,2049,2042,1192
1746,1710925988321202583,2053,2031,2043,2074,2058,2064,1196
1747,1710925988331198615,2056,2053,2029,2041,2062,2036,1192
1748,1710925988341196411,2057,2059,2072,2052,2029,2053,1197
1749,1710925988351196802,2052,2053,2046,1992,2056,2056,1197
1750,1710925988361205890,2060,2054,2062,2072,2050,2064,1194
1751,1710925988371202954,2054,2054,2044,2081,2073,2051,1196
1752,1710925988381203856,2058,2072,2060,2072,2066,2056,1196
1753,1710925988391202213,2061,2057,2064,2112,2051,2053,1195
1754,1710925988401202393,2053,2055,2056,2028,2038,2051,1195
1755,1710925988411220588,2053,2069,2057,2043,2061,2061,1194
1756,1710925988421167217,2052,2052,2059,2036,2049,2056,1197
1757,1710925988431206672,2064,2059,2060,2084,2048,2049,1196
1758,1710925988441205169,2054,2067,2059,2116,2057,2054,1196
1759,1710925988451197555,2056,2056,2064,2069,2057,2025,1193
1760,1710925988461206101,2059,2033,2056,2047,2049,2074,1195
1761,1710925988471211061,2051,2044,2047,2066,2053,2050,1194
1762,1710925988481208977,2053,2052,2052,2046,2052,2058,1197
1763,1710925988491205621,2060,2074,2068,2098,2068,2058,1194
1764,1710925988501205451,2050,2052,2064,2020,2036,2045,1194
1765,1710925988511206784,2070,2080,2075,2044,2064,2058,1196
1766,1710925988521213466,2054,2062,2069,2089,2065,2052,1195
1767,1710925988531203437,2046,2043,2045,2081,2033,2036,1194
1768,1710925988541205341,2055,2050,2046,2065,2050,2056,1195
1769,1710925988551195793,2068,2050,2050,2061,2072,2072,1197
1770,1710925988561201574,2058,2053,2042,2064,2042,2049,1196
1771,1710925988571204019,2053,2050,2049,2107,2040,2036,1193
1772,1710925988581200963,2053,2033,2059,2042,2049,2053,1195
1773,1710925988591199170,2056,2063,2053,2058,2061,2062,1196
1774,1710925988601201043,2044,2012,2032,2053,2030,1986,1189
1775,1710925988611225049,2060,2036,2037,2040,2047,2030,1194
1776,1710925988621207686,2056,2054,2061,2090,2056,2055,1198
1777,1710925988631202977,2056,2074,2081,2040,2064,2060,1196
1778,1710925988641195664,2062,2061,2065,2057,2036,2070,1196
1779,1710925988651218708,2062,2067,2049,2080,2065,2062,1193
1780,1710925988661197036,2046,2052,2080,1980,2024,2061,1195
1781,1710925988671220591,2063,2052,2053,2013,2059,2060,1197
1782,1710925988681198249,2048,2040,2047,2026,2037,2044,1192
1783,1710925988691202447,2056,2046,2046,2010,2050,2029,1192
1784,1710925988701201556,2058,2056,2064,2027,2040,2059,1195
1785,1710925988711200263,2054,2045,2026,2073,2053,2048,1196
1786,1710925988721216043,2056,2042,2049,2066,2059,2062,1197
1787,1710925988731208630,2047,2024,2030,2100,2063,2061,1196
1788,1710925988741216745,2052,2043,2046,2046,2044,2053,1196
1789,1710925988751221734,2056,2066,2069,2044,2064,2024,1193
1790,1710925988761199783,2053,2045,2049,2081,2053,2056,1195
1791,1710925988771202539,2043,2042,2033,2077,2056,2046,1194
1792,1710925988781198391,2053,2066,2079,2078,2053,2084,1199
1793,1710925988791203390,2061,2083,2048,2057,2066,2072,1199
1794,1710925988801200094,2054,2050,2052,2061,2051,2059,1194
1795,1710925988811211647,2050,2040,2038,2024,2048,2037,1193
1796,1710925988821209573,2062,2073,2075,2101,2057,2047,1192
1797,1710925988831206707,2049,2028,2048,2045,2041,2036,1195
1798,1710925988841217558,2052,2048,2086,2010,2045,2056,1196
1799,1710925988851199404,2054,2068,2067,2062,2062,2039,1192
1800,1710925988861202820,2046,2043,2054,2113,2060,2057,1195
1801,1710925988871203341,2056,2069,2056,2067,2035,2051,1195
1802,1710925988881215735,2048,2040,2045,2049,2052,2024,1193
1803,1710925988891217528,2051,2049,2055,2053,2054,2044,1192
1804,1710925988901229030,2057,2068,2051,2049,2053,2056,1196
1805,1710925988911209363,2049,2035,2052,2062,2050,2050,1197
1806,1710925988921204384,2065,2065,2084,2065,2040,2013,1193
1807,1710925988931206718,2050,2047,2043,2005,2038,2036,1193
1808,1710925988941220394,2052,2068,2068,2068,2054,2054,1196
1809,1710925988951200367,2060,2058,2059,2062,2061,2042,1193
1810,1710925988961202781,2057,2038,2056,2065,2040,2060,1198
1811,1710925988971205356,2056,2057,2042,2023,2061,2064,1196
1812,1710925988981201770,2049,2050,2052,2096,2057,2056,1196
1813,1710925988991215957,2055,2064,2054,2064,2057,2056,1194
1814,1710925989001193203,2056,2047,2061,2148,2068,2056,1192
1815,1710925989011204655,2056,2052,2051,2058,2061,2056,1195
1816,1710925989021197963,2056,2057,2061,2104,2058,2056,1196
1817,1710925989031194276,2054,2067,2066,2082,2068,2051,1197
1818,1710925989041215146,2054,2052,2049,2068,2064,2050,1194
1819,1710925989051202612,2049,2052,2069,2003,2032,1970,1193
1820,1710925989061201690,2049,2052,2058,2041,2061,2057,1196
1821,1710925989071200718,2056,2064,2068,2075,2069,2085,1196
1822,1710925989081200628,2047,2045,2054,2050,2049,2062,1195
1823,1710925989091214104,2052,2046,2046,2083,2077,2059,1195
1824,1710925989101204906,2057,2050,2065,2084,2055,2072,1195
1825,1710925989111201540,2059,2066,2056,1928,2056,2037,1193
1826,1710925989121195068,2061,2060,2072,2060,2054,2000,1194
1827,1710925989131205908,2047,2062,2056,2049,2061,2073,1194
1828,1710925989141224995,2056,2050,2048,2022,2019,2054,1195
1829,1710925989151161874,2061,2048,2051,2048,2061,2060,1196
1830,1710925989161218723,2051,2049,2058,2056,2042,2060,1194
1831,1710925989171203744,2054,2045,2040,1996,2036,2029,1193
1832,1710925989181212130,2053,2052,2056,2054,2056,2056,1196
1833,1710925989191213904,2055,2043,2060,2040,2040,2046,1191
1834,1710925989201210186,2058,2050,2036,2074,2052,2068,1193
1835,1710925989211224654,2053,2052,2054,2048,2065,2037,1193
1836,1710925989221208213,2051,2064,2052,2041,2032,2053,1195
1837,1710925989231202923,2058,2051,2050,2064,2049,2046,1191
1838,1710925989241212832,2056,2061,2058,2077,2050,2073,1194
1839,1710925989251203484,2046,2036,2045,2036,2058,2032,1193
1840,1710925989261197092,2057,2050,2052,2072,2057,2054,1196
1841,1710925989271212471,2061,2060,2049,2047,2063,2064,1196
1842,1710925989281202072,2056,2046,2037,2072,2052,2046,1192
1843,1710925989291209536,2058,2056,2046,2076,2072,2054,1195
1844,1710925989301215798,2056,2056,2056,2056,2042,2056,1197
1845,1710925989311198124,2048,2036,2045,2046,2056,2066,1194
1846,1710925989321200188,2060,2049,2051,2026,2054,2070,1195
1847,1710925989331216649,2059,2066,2062,2036,2046,2055,1195
1848,1710925989341210698,2047,2035,2056,2045,2049,2044,1195
1849,1710925989351200700,2063,2071,2056,2061,2058,2047,1192
1850,1710925989361203104,2052,2042,2054,2048,2049,2060,1193
1851,1710925989371206140,2056,2053,2056,2064,2048,2052,1196
1852,1710925989381205709,2055,2053,2060,2064,2053,2052,1196
1853,1710925989391210388,2051,2068,2045,2042,2054,2057,1195
1854,1710925989401201351,2053,2065,2041,2049,2037,2020,1192
1855,1710925989411201111,2057,2053,2072,2088,2062,2068,1194
1856,1710925989421201801,2053,2048,2068,2102,2042,2053,1195
1857,1710925989431203024,2054,2052,2047,2023,2057,2068,1196
1858,1710925989441203605,2049,2038,2065,1985,2046,2086,1196
1859,1710925989451204717,2064,2083,2051,2036,2065,2085,1194
1860,1710925989461203535,2050,2045,2056,2050,2044,2041,1190
1861,1710925989471204156,2052,2048,2036,2014,2041,2050,1194
1862,1710925989481206641,2056,2047,2047,2052,2049,2056,1197
1863,1710925989491219876,2058,2052,2036,2045,2064,2061,1196
1864,1710925989501202092,2068,2067,2064,2093,2053,2085,1196
1865,1710925989511208184,2065,2050,2037,2032,2072,2062,1195
1866,1710925989521207182,2064,2074,2086,2085,2056,2058,1195
1867,1710925989531207633,2049,2044,2041,2113,2058,2062,1196
1868,1710925989541207583,2056,2058,2057,2058,2067,2068,1196
1869,1710925989551217632,2053,2052,2052,2024,2064,2052,1194
1870,1710925989561222101,2046,2089,2113,2042,2042,2040,1193
1871,1710925989571213154,2049,2019,2047,2057,2047,2077,1195
1872,1710925989581224355,2066,2053,2052,2030,2043,2047,1194
1873,1710925989591205369,2056,2047,2045,2075,2068,2063,1195
1874,1710925989601217602,2056,2059,2074,2066,2047,2064,1193
1875,1710925989611210990,2056,2060,2063,2056,2058,2069,1195
1876,1710925989621212152,2048,2050,2054,1885,2013,2040,1190
1877,1710925989631211120,2052,2069,2049,2024,2070,2047,1193
1878,1710925989641213575,2046,2044,2042,2056,2042,2052,1194
1879,1710925989651211921,2049,2045,2050,2028,2053,2012,1191
1880,1710925989661213214,2052,2065,2091,2065,2056,2050,1197
1881,1710925989671253281,2052,2046,2039,2052,2042,2024,1194
1882,1710925989681215278,2066,2068,2069,2056,2056,2037,1193
1883,1710925989691220628,2048,2064,2053,2060,2058,2064,1195
1884,1710925989701212593,2048,2047,2064,2034,2056,2070,1197
1885,1710925989711226479,2053,2061,2052,2058,2063,2067,1196
1886,1710925989721197885,2060,2056,2062,2072,2064,2026,1194
1887,1710925989731198858,2052,2052,2051,2040,2064,2062,1194
1888,1710925989741221710,2052,2064,2060,2104,2046,2064,1194
1889,1710925989751220138,2052,2062,2048,2016,2068,2058,1196
1890,1710925989761236970,2056,2069,2080,2040,2037,2044,1192
1891,1710925989771220659,2047,2038,2040,2124,2046,2036,1193
1892,1710925989781212383,2065,2062,2049,1988,2036,2053,1196
1893,1710925989791215509,2058,2056,2045,2074,2053,2064,1195
1894,1710925989801214768,2057,2075,2061,2080,2045,2073,1192
1895,1710925989811220879,2055,2049,2046,2014,2056,2033,1193
1896,1710925989821195892,2052,2072,2065,2088,2058,2065,1195
1897,1710925989831227863,2053,2056,2072,2089,2057,2037,1193
1898,1710925989841190471,2048,2052,2054,2011,2030,2042,1192
1899,1710925989851221921,2061,2077,2081,2068,2068,2039,1192
1900,1710925989861199749,2050,2066,2065,2040,2035,2050,1196
1901,1710925989871201072,2052,2048,2043,2084,2056,2066,1196
1902,1710925989881208346,2048,2076,2076,2104,2062,2076,1194
1903,1710925989891200200,2058,2072,2080,2049,2063,2060,1196
1904,1710925989901201783,2056,2050,2040,2060,2041,2026,1195
1905,1710925989911199519,2051,2061,2072,2112,2061,2051,1197
1906,1710925989921190863,2058,2052,2061,2072,2058,2069,1197
1907,1710925989931193198,2054,2093,2081,2101,2064,2049,1197
1908,1710925989941191915,2053,2057,2073,2072,2041,2089,1195
1909,1710925989951197976,2053,2059,2057,2031,2057,2090,1196
1910,1710925989961207063,2047,2060,2040,2056,2030,2065,1196
1911,1710925989971201914,2053,2053,2040,1987,2048,2049,1193
1912,1710925989981199349,2048,2040,2047,2026,2045,2080,1196
1913,1710925989991204910,2060,2085,2083,2030,2056,2080,1197
1914,1710925990001201554,2045,2043,2047,2045,2040,2055,1192
1915,1710925990011202155,2053,2047,2036,2029,2051,2048,1195
1916,1710925990021202014,2052,2044,2053,2060,2040,2050,1196
1917,1710925990031199990,2053,2068,2045,2071,2062,2009,1193
1918,1710925990041199249,2047,2036,2047,2045,2025,2025,1193
1919,1710925990051200261,2061,2088,2061,2065,2056,2042,1193
1920,1710925990061204399,2051,2045,2060,2058,2041,2040,1192
1921,1710925990071216090,2053,2056,2047,2047,2077,2065,1197
1922,1710925990081207404,2052,2043,2046,1976,2046,2030,1193
1923,1710925990091201002,2053,2040,2044,2049,2055,2046,1192
1924,1710925990101209408,2052,2065,2068,2003,2045,2080,1197
1925,1710925990111202705,2060,2049,2068,2048,2064,2058,1196
1926,1710925990121195231,2061,2035,2032,1985,2043,2065,1196
1927,1710925990131206522,2047,2044,2048,2028,2056,2051,1196
1928,1710925990141204027,2053,2061,2072,2061,2044,2061,1196
1929,1710925990151198337,2059,2058,2052,2008,2048,2008,1193
1930,1710925990161201152,2050,2059,2058,2037,2046,2051,1194
1931,1710925990171198386,2053,2064,2061,2014,2040,2046,1192
1932,1710925990181198888,2052,2043,2041,2112,2065,2062,1197
1933,1710925990191207263,2062,2054,2041,2047,2072,2057,1196
1934,1710925990201203106,2057,2063,2050,2064,2058,2056,1194
1935,1710925990211204308,2048,2042,2041,2004,2040,2058,1196
1936,1710925990221193367,2047,2061,2062,2066,2035,2060,1196
1937,1710925990231201022,2055,2057,2047,2092,2056,2054,1196
1938,1710925990241196212,2051,2068,2090,2075,2053,2056,1195
1939,1710925990251202264,2056,2054,2043,2064,2059,2069,1194
1940,1710925990261201462,2052,2056,2078,2105,2049,2061,1193
1941,1710925990271200049,2054,2041,2046,2082,2053,2056,1195
1942,1710925990281200360,2058,2077,2088,2070,2050,2064,1197
1943,1710925990291201782,2061,2047,2033,2095,2056,2049,1196
1944,1710925990301186493,2052,2038,2058,2056,2057,2049,1197
1945,1710925990311208595,2050,2028,2026,2084,2068,2045,1194
1946,1710925990321198957,2052,2057,2050,2009,2047,2033,1193
1947,1710925990331194889,2058,2072,2060,2088,2070,2033,1193
1948,1710925990341186493,2056,2044,2032,2023,2039,2024,1194
1949,1710925990351209287,2050,2066,2032,2001,2057,2058,1195
1950,1710925990361206451,2054,2040,2064,2061,2045,2049,1195
1951,1710925990371199237,2064,2047,2045,2063,2064,2064,1197
1952,1710925990381194388,2053,2049,2054,2029,2037,2064,1193
1953,1710925990391198466,2053,2039,2040,2065,2056,2057,1194
1954,1710925990401203044,2057,2048,2062,2082,2048,2050,1192
1955,1710925990411201802,2053,2072,2049,2040,2052,2014,1194
1956,1710925990421200058,2043,2058,2080,2024,2035,2049,1197
1957,1710925990431205829,2053,2044,2040,2058,2078,2059,1196
1958,1710925990441202584,2059,2059,2052,2020,2062,2057,1194
1959,1710925990451200218,2056,2051,2056,2068,2072,2067,1194
1960,1710925990461247058,2053,2052,2056,2049,2043,2037,1191
1961,1710925990471199448,2055,2033,2035,2018,2052,2044,1190
1962,1710925990481201771,2053,2011,2030,2052,2050,2058,1195
1963,1710925990491200018,2058,2045,2052,2031,2063,2069,1196
1964,1710925990501172626,2053,2082,2069,2081,2044,2056,1194
1965,1710925990511243681,2046,2040,2039,1989,2042,2041,1192
1966,1710925990521192023,2050,2049,2062,2038,2043,2064,1197
1967,1710925990531199918,2058,2053,2057,2090,2072,2082,1196
1968,1710925990541211500,2050,2042,2045,2024,2051,2069,1195
1969,1710925990551244252,2067,2071,2030,2049,2060,2068,1197
1970,1710925990561240685,2048,2047,2053,2074,2045,2090,1194
1971,1710925990571239402,2056,2055,2057,1973,2056,2055,1196
1972,1710925990581243731,2052,2056,2056,2066,2059,2064,1197
1973,1710925990591238982,2065,2072,2077,2032,2056,2057,1196
1974,1710925990601241466,2054,2053,2057,2048,2046,2056,1194
1975,1710925990611241517,2068,2092,2075,2065,2063,2056,1194
1976,1710925990621191462,2052,2018,2056,2114,2056,2056,1196
1977,1710925990631238611,2058,2046,2044,2033,2056,2059,1197
1978,1710925990641233221,2060,2054,2063,2061,2043,2020,1192
1979,1710925990651235665,2058,2053,2052,2077,2066,2053,1195
1980,1710925990661231317,2061,2076,2067,2044,2047,2070,1197
1981,1710925990671233771,2046,2056,2075,2025,2030,2041,1195
1982,1710925990681138010,2064,2060,2105,2006,2056,2069,1195
1983,1710925990691233340,2048,2041,2037,2078,2063,2059,1195
1984,1710925990701232599,2054,2056,2053,2026,2042,2043,1195
1985,1710925990711228802,2054,2049,2049,2036,2054,2042,1194
1986,1710925990721234152,2057,2054,2063,2007,2067,2078,1197
1987,1710925990731234783,2053,2052,2045,2061,2053,2063,1196
1988,1710925990741243951,2048,2029,2049,2061,2042,2041,1193
1989,1710925990751232188,2056,2059,2022,2037,2050,2047,1193
1990,1710925990761232469,2060,2064,2068,2086,2056,2052,1195
1991,1710925990771230845,2054,2049,2048,2020,2053,2047,1193
1992,1710925990781231707,2052,2052,2060,2104,2044,2056,1196
1993,1710925990791232939,2056,2056,2047,2044,2053,2052,1195
1994,1710925990801230695,2052,2050,2056,2080,2046,2053,1193
1995,1710925990811232308,2056,2104,2070,2039,2042,2053,1195
1996,1710925990821228811,2048,2066,2072,2000,2027,2047,1194
1997,1710925990831223722,2054,2036,2041,2047,2057,2068,1194
1998,1710925990841226146,2060,2058,2064,2100,2059,2021,1194
1999,1710925990851226367,2058,2061,2050,2052,2056,2055,1195
2000,1710925990861224303,2041,2035,2035,2056,2031,2037,1194
2001,1710925990871223872,2060,2045,2032,2076,2069,2033,1193
2002,1710925990881230925,2060,2049,2049,2041,2045,2015,1192
2003,1710925990891224763,2046,2048,2035,2039,2040,2064,1197
2004,1710925990901219363,2057,2056,2048,2061,2041,2068,1195
2005,1710925990911225605,2056,2064,2053,1985,2059,2065,1196
2006,1710925990921220775,2049,2042,2052,2078,2034,2059,1197
2007,1710925990931230854,2057,2062,2047,2061,2088,2094,1194
2008,1710925990941224373,2049,2048,2042,2028,2044,2048,1195
2009,1710925990951220034,2041,2050,2046,2004,2037,2012,1192
2010,1710925990961220415,2051,2054,2072,2089,2081,2060,1196
2011,1710925990971218011,2052,2077,2088,2034,2062,2055,1196
2012,1710925990981225284,2046,2048,2064,2120,2084,2056,1193
2013,1710925990991220735,2052,2049,2047,2054,2045,1997,1192
2014,1710925991001222559,2053,2063,2052,2060,2072,2072,1194
2015,1710925991011222529,2054,2053,2051,2022,2062,2096,1195
2016,1710925991021249219,2050,2042,2034,2040,2058,2072,1196
2017,1710925991031223771,2056,2053,2046,2066,2062,2100,1195
2018,1710925991041215094,2056,2056,2064,2097,2039,2044,1192
2019,1710925991051213080,2057,2057,2053,2045,2066,2047,1192
2020,1710925991061213110,2058,2048,2060,2108,2066,2061,1194
2021,1710925991071212278,2055,2053,2046,2077,2071,2080,1193
2022,1710925991081216436,2049,2047,2061,2076,2038,2060,1194
2023,1710925991091212458,2045,2045,2052,2056,2048,2072,1193
2024,1710925991101209773,2052,2046,2042,1972,2054,2076,1193
2025,1710925991111210615,2058,2045,2048,2069,2052,2049,1197
2026,1710925991121238006,2053,2053,2029,2021,2037,2021,1194
2027,1710925991131231614,2051,2056,2065,2051,2047,2016,1192
2028,1710925991141246432,2062,2061,2074,2058,2087,2077,1196
2029,1710925991151219922,2039,2030,2035,2071,2040,2029,1194
2030,1710925991161232025,2057,2046,2041,2042,2064,2060,1198
2031,1710925991171212397,2053,2080,2077,2143,2067,2060,1196
2032,1710925991181212237,2050,2037,2038,2110,2081,2084,1193
2033,1710925991191207948,2061,2044,2032,2049,2056,2061,1196
2034,1710925991201207818,2050,2037,2042,2043,2030,2045,1191
2035,1710925991211207257,2049,2038,2037,2029,2048,2058,1196
2036,1710925991221215112,2052,2056,2029,2010,2039,2072,1195
2037,1710925991231207818,2056,2049,2055,2015,2073,2082,1194
2038,1710925991241207868,2053,2064,2059,2063,2024,2013,1193
2039,1710925991251210112,2058,2105,2081,2064,2064,2056,1195
2040,1710925991261220632,2050,2052,2062,2074,2076,2068,1194
2041,1710925991271208819,2059,2049,2037,2041,2061,2056,1197
2042,1710925991281209390,2068,2066,2076,2109,2053,2073,1195
2043,1710925991291217004,2052,2036,2032,2081,2068,2047,1194
2044,1710925991301209370,2058,2058,2036,2060,2087,2082,1195
2045,1710925991311209470,2067,2070,2056,2078,2061,2056,1195
2046,1710925991321210211,2065,2060,2058,2074,2087,2064,1196
2047,1710925991331207937,2052,2041,2040,2024,2019,2042,1190
2048,1710925991341211303,2052,2043,2053,2035,2069,2098,1193
2049,1710925991351211223,2064,2055,2044,2097,2074,2086,1195
2050,1710925991361217294,2055,2051,2059,2102,2061,2052,1195
2051,1710925991371210922,2065,2072,2045,2014,2043,2054,1196
2052,1710925991381213607,2045,2039,2069,2089,2041,2001,1193
2053,1710925991391214538,2073,2064,2060,2129,2060,2096,1197
2054,1710925991401210450,2051,2047,2050,2053,2054,2056,1194
2055,1710925991411208577,2050,2048,2041,2051,2061,2060,1197
2056,1710925991421212153,2046,2032,2042,2094,2036,2034,1194
2057,1710925991431212223,2077,2072,2069,2038,2064,2061,1194
2058,1710925991441209458,2056,2053,2043,2025,2035,2058,1194
2059,1710925991451217533,2058,2051,2052,2064,2056,2058,1194
2060,1710925991461218515,2049,2048,2058,2046,2042,2014,1192
2061,1710925991471210600,2066,2062,2058,2060,2065,2044,1194
2062,1710925991481209327,2057,2054,2058,2063,2050,2054,1194
2063,1710925991491210099,2064,2064,2056,2080,2070,2076,1197
2064,1710925991501210890,2057,2063,2067,2084,2059,1989,1193
2065,1710925991511208916,2062,2045,2068,2056,2074,2057,1195
2066,1710925991521211180,2053,2028,2076,2053,2045,2040,1193
2067,1710925991531211380,2068,2060,2058,2116,2064,2089,1193
2068,1710925991541209406,2058,2065,2081,2076,2039,2062,1195
2069,1710925991551212081,2056,2056,2045,2061,2064,2054,1196
2070,1710925991561217782,2059,2041,2045,2040,2032,2089,1198
2071,1710925991571213093,2056,2052,2052,2077,2069,2058,1195
2072,1710925991581211249,2050,2059,2066,2077,2035,2016,1194
2073,1710925991591209927,2059,2078,2066,2049,2056,2066,1195
2074,1710925991601211980,2045,2042,2053,2006,2038,2074,1193
2075,1710925991611210788,2052,2040,2040,2090,2068,2085,1195
2076,1710925991621219444,2056,2053,2053,2042,2036,2066,1196
2077,1710925991631208213,2049,2024,2031,2064,2048,2049,1193
2078,1710925991641210627,2060,2050,2076,2096,2060,2074,1194
2079,1710925991651211639,2056,2048,2043,2057,2041,1964,1192
2080,1710925991661223762,2053,2049,2059,2074,2056,2061,1196
2081,1710925991671219905,2052,2060,2072,2073,2066,1966,1193
2082,1710925991681211058,2060,2058,2047,2135,2061,2089,1196
2083,1710925991691228300,2056,2089,2099,2071,2048,2049,1192
2084,1710925991701184257,2052,2053,2080,2167,2040,2010,1194
2085,1710925991711212250,2060,2067,2050,2136,2088,2072,1194
2086,1710925991721214003,2060,2061,2044,2041,2031,2060,1197
2087,1710925991731213792,2061,2060,2068,2017,2060,2078,1196
2088,1710925991741217740,2058,2052,2060,2105,2075,2060,1196
2089,1710925991751211658,2050,2047,2053,2070,2036,2038,1193
2090,1710925991761211839,2048,2053,2073,2029,2063,2061,1195
2091,1710925991771209494,2058,2062,2070,2068,2060,2052,1196
2092,1710925991781209183,2057,2059,2047,2022,2022,2046,1190
2093,1710925991791208461,2049,2033,2036,1954,2054,2042,1193
2094,1710925991801212730,2064,2052,2057,2076,2051,2031,1193
2095,1710925991811210675,2049,2040,2023,2010,2064,2117,1193
2096,1710925991821213100,2068,2067,2057,2074,2076,2094,1196
2097,1710925991831211847,2051,2052,2049,2070,2057,2072,1195
2098,1710925991841217799,2060,2045,2066,2038,2054,2060,1197
2099,1710925991851210214,2072,2064,2052,1951,2034,2045,1193
2100,1710925991861210435,2053,2054,2077,2033,2023,2052,1193
2101,1710925991871212127,2040,2037,2036,2062,2041,2045,1192
2102,1710925991881210895,2057,2052,2049,2067,2045,2078,1194
2103,1710925991891257253,2050,2055,2054,2045,2037,2090,1194
2104,1710925991901237666,2058,2070,2077,2058,2066,2088,1194
2105,1710925991911234549,2047,2016,2018,2092,2061,2051,1195
2106,1710925991921237064,2053,2046,2078,2139,2069,2075,1196
2107,1710925991931235020,2062,2064,2041,2081,2077,2068,1194
2108,1710925991941236403,2041,2035,2027,2087,2034,2042,1192
2109,1710925991951236863,2064,2053,2046,2091,2077,2078,1193
2110,1710925991961240440,2058,2056,2060,2051,2067,2025,1193
2111,1710925991971235360,2053,2052,2042,2002,2050,2060,1194
2112,1710925991981237174,2056,2038,2058,2070,2048,2037,1194
2113,1710925991991231552,2056,2027,2068,1963,2057,2056,1193
2114,1710925992001231873,2068,2059,2082,2080,2058,2061,1193
2115,1710925992011232344,2057,2070,2060,2032,2064,2056,1194
2116,1710925992021254586,2052,2053,2055,2060,2051,2078,1196
2117,1710925992031235399,2056,2047,2040,2080,2058,2061,1194
2118,1710925992041233345,2059,2055,2060,2084,2042,2032,1192
2119,1710925992051232203,2050,2045,2026,2030,2052,2043,1191
2120,1710925992061235910,2053,2032,2049,2076,2059,2072,1195
2121,1710925992071230098,2066,2060,2080,2058,2053,2065,1197
2122,1710925992081230990,2057,2059,2063,2088,2044,2069,1196
2123,1710925992091230589,2050,2044,2052,2054,2033,2050,1196
2124,1710925992101225830,2057,2065,2077,1988,2056,2059,1195
2125,1710925992111225730,2048,2045,2064,2046,2056,2068,1195
2126,1710925992121223505,2056,2052,2060,2059,2047,2058,1195
2127,1710925992131224507,2053,2041,2036,2050,2062,2060,1194
2128,1710925992141225198,2052,2058,2043,2073,2046,2064,1197
2129,1710925992151234845,2056,2056,2053,2089,2081,2074,1195
2130,1710925992161232371,2054,2053,2051,2066,2047,2058,1194
2131,1710925992171223634,2056,2063,2025,2040,2062,2057,1194
2132,1710925992181225016,2052,2046,2050,2028,2054,2057,1195
2133,1710925992191222642,2051,2027,2023,2052,2041,2066,1196
2134,1710925992201220197,2060,2045,2030,2018,2057,2101,1193
2135,1710925992211222341,2063,2064,2062,1964,2056,2066,1195
2136,1710925992221221108,2051,2069,2049,1978,2033,2060,1195
2137,1710925992231227320,2052,2043,2041,2047,2057,2056,1196
2138,1710925992241221078,2053,2041,2064,2042,2033,2049,1195
2139,1710925992251222801,2047,2045,2062,2008,2025,2088,1193
2140,1710925992261230084,2054,2040,2064,2028,2032,2044,1191
2141,1710925992271227189,2052,2037,2049,2077,2072,2059,1196
2142,1710925992281217991,2056,2057,2074,2058,2057,2050,1196
2143,1710925992291221898,2058,2053,2052,2009,2045,1958,1191
2144,1710925992301241786,2051,2046,2053,2084,2039,2051,1195
2145,1710925992311224002,2057,2066,2057,2041,2072,2074,1196
2146,1710925992321216928,2054,2065,2043,2049,2062,2068,1196
2147,1710925992331212660,2053,2053,2059,2088,2052,2050,1194
2148,1710925992341213040,2053,2048,2067,2038,2031,2006,1193
2149,1710925992351234511,2053,2047,2044,2053,2057,2048,1195
2150,1710925992361205806,2050,2061,2063,2004,2033,2054,1195
2151,1710925992371214713,2055,2046,2048,2056,2056,2049,1195
2152,1710925992381213390,2051,2048,2052,2081,2045,2046,1194
2153,1710925992391218169,2063,2072,2032,2056,2062,2096,1196
2154,1710925992401208080,2052,2040,2049,2072,2054,2038,1190
2155,1710925992411214522,2052,2041,2040,2062,2053,2052,1195
2156,1710925992421209803,2054,2041,2049,2005,2046,2053,1195
2157,1710925992431212908,2064,2049,2043,2008,2033,2055,1192
2158,1710925992441211225,2056,2057,2065,2036,2046,2068,1196
2159,1710925992451211134,2060,2081,2059,2076,2058,2054,1195
2160,1710925992461233116,2050,2047,2065,2066,2047,2079,1194
2161,1710925992471218588,2055,2054,2073,2066,2073,2062,1194
2162,1710925992481245268,2046,2044,2056,2088,2008,2043,1192
2163,1710925992491213278,2059,2046,2056,2016,2053,2072,1193
2164,1710925992501211885,2056,2052,2056,2031,2045,2052,1194
2165,1710925992511205242,2047,2090,2073,2050,2060,2053,1193
2166,1710925992521199631,2053,2053,2052,1988,2043,2054,1194
2167,1710925992531206043,2053,2051,2050,2017,2056,2076,1195
2168,1710925992541203087,2051,2047,2053,2041,2038,2017,1193
2169,1710925992551204209,2045,2028,2040,2052,2069,2055,1193
2170,1710925992561208116,2061,2066,2056,2063,2040,2067,1195
2171,1710925992571164763,2052,2078,2052,2061,2042,2064,1195
2172,1710925992581201443,2056,2077,2092,2043,2051,2040,1193
2173,1710925992591161076,2058,2044,2049,2072,2064,2056,1198
2174,1710925992601215559,2056,2056,2051,2034,2053,2058,1196
2175,1710925992611204067,2052,2053,2046,2036,2054,2053,1194
2176,1710925992621204668,2060,2059,2089,2045,2054,2061,1196
2177,1710925992631208956,2050,2052,2052,2110,2084,2083,1194
2178,1710925992641205409,2047,2039,2033,2053,2038,2056,1194
2179,1710925992651205289,2057,2066,2060,2072,2056,2058,1195
2180,1710925992661159823,2051,2053,2054,2044,2045,2042,1192
2181,1710925992671207924,2048,2045,2047,2070,2051,2050,1195
2182,1710925992681138712,2046,2041,2058,2104,2044,2052,1196
2183,1710925992691162147,2056,2083,2077,2098,2061,2049,1195
2184,1710925992701232720,2050,2041,2048,2064,2045,2058,1194
2185,1710925992711235444,2042,2053,2053,2097,2045,2076,1193
2186,1710925992721231437,2061,2063,2049,2080,2042,2053,1195
2187,1710925992731217831,2050,2045,2050,2045,2049,2048,1194
2188,1710925992741234422,2050,2047,2047,2056,2040,1993,1192
2189,1710925992751263938,2056,2035,2048,2056,2061,2038,1194
2190,1710925992761239301,2052,2040,2039,2073,2042,2052,1196
2191,1710925992771240142,2059,2028,2013,2088,2063,2060,1197
2192,1710925992781237628,2060,2064,2070,2008,2052,2060,1196
2193,1710925992791229191,2056,2052,2051,2009,2052,1987,1192
2194,1710925992801235904,2041,2015,2032,2069,2051,2046,1192
2195,1710925992811208442,2056,2037,2046,2064,2042,2053,1196
2196,1710925992821226686,2047,2058,2061,1999,2054,2049,1195
2197,1710925992831197340,2058,2055,2059,2025,2051,2057,1194
2198,1710925992841211787,2053,2034,2040,2056,2052,2056,1197
2199,1710925992851214031,2061,2047,2050,2060,2045,2058,1196
2200,1710925992861226926,2056,2056,2062,2121,2078,2081,1195
2201,1710925992871241322,2057,2064,2072,2127,2064,2072,1197
2202,1710925992881213990,2050,2058,2046,2021,2058,2053,1195
2203,1710925992891239679,2053,2054,2060,2027,2064,2050,1194
2204,1710925992901199482,2056,2038,2029,1964,2052,2052,1196
2205,1710925992911205373,2052,2043,2034,2099,2056,2024,1194
2206,1710925992921230832,2054,2072,2056,2066,2052,2050,1196
2207,1710925992931236432,2054,2061,2056,2030,2036,2023,1193
2208,1710925992941219510,2048,2031,2037,2072,2050,2036,1194
2209,1710925992951200554,2062,2053,2041,2073,2050,2050,1194
2210,1710925992961201105,2059,2059,2061,1983,2044,2074,1196
2211,1710925992971199281,2058,2050,2052,2061,2056,2056,1195
2212,1710925992981222815,2052,2028,2038,2072,2050,2049,1197
