seq,time,data[0],data[1],data[2],data[3],data[4],data[5],data[6]
201,1710925214769205867,2056,2056,2047,2040,2062,2049,1194
202,1710925214779205705,2056,2050,2053,2040,2029,2050,1194
203,1710925214789206444,2056,2062,2044,2025,2072,2057,1194
204,1710925214799206221,2054,2037,2045,2056,2044,2064,1195
205,1710925214809204245,2053,2052,2044,2054,2076,2054,1196
206,1710925214819201488,2051,2051,2059,2059,2038,2053,1194
207,1710925214829203890,2052,2049,2044,2051,2067,2049,1197
208,1710925214839202705,2053,2056,2066,2063,2034,2077,1195
209,1710925214849207341,2055,2049,2047,2060,2069,2050,1196
210,1710925214859202059,2060,2064,2066,2085,2040,2054,1197
211,1710925214869203189,2053,2044,2043,2032,2068,2050,1196
212,1710925214879202966,2056,2049,2068,2063,2040,2053,1195
213,1710925214889203715,2052,2034,2039,1980,2076,2057,1197
214,1710925214899200547,2058,2046,2060,2052,2047,2034,1193
215,1710925214909203811,2053,2050,2044,2060,2064,2053,1193
216,1710925214919201413,2054,2059,2061,2083,2012,2051,1196
217,1710925214929205008,2056,2054,2054,2077,2097,2054,1195
218,1710925214939202111,2055,2058,2060,2077,2051,2062,1196
219,1710925214949203170,2056,2059,2060,2072,2062,2049,1198
220,1710925214959200723,2056,2050,2061,2073,2043,2053,1196
221,1710925214969203486,2060,2067,2057,2058,2080,2072,1193
222,1710925214979207581,2057,2058,2052,2027,2050,2074,1193
223,1710925214989204022,2056,2052,2042,2083,2085,2050,1196
224,1710925214999204701,2056,2042,2060,2015,2019,2045,1192
225,1710925215009204608,2052,2047,2043,2057,2078,2047,1194
226,1710925215019201060,2056,2057,2065,2066,2045,2051,1194
227,1710925215029202830,2053,2050,2045,2038,2066,2048,1197
228,1710925215039208228,2056,2051,2054,2080,2032,2057,1193
229,1710925215049237542,2051,2044,2032,1988,2033,2031,1193
230,1710925215059202122,2058,2064,2080,2040,2014,2070,1195
231,1710925215069201067,2048,2066,2066,2019,2049,2041,1193
232,1710925215079244447,2059,2063,2072,2106,2034,2050,1195
233,1710925215089234316,2053,2052,2047,2098,2092,2077,1195
234,1710925215099234093,2058,2065,2075,2061,2016,2047,1190
235,1710925215109231185,2056,2060,2044,2021,2047,2041,1192
236,1710925215119231915,2058,2057,2066,2045,2043,2088,1194
237,1710925215129230810,2056,2077,2074,2078,2083,2073,1197
238,1710925215139233763,2056,2057,2057,2025,2047,2056,1195
239,1710925215149231496,2049,2045,2040,2077,2076,2056,1196
240,1710925215159221696,2062,2058,2066,2022,2044,2032,1193
241,1710925215169225941,2057,2064,2056,2021,2071,2061,1195
242,1710925215179230417,2057,2072,2082,2067,2024,2052,1195
243,1710925215189226507,2058,2064,2058,2040,2077,2047,1194
244,1710925215199230383,2049,2040,2049,2056,2021,2017,1194
245,1710925215209224609,2051,2032,2034,2005,2060,2050,1197
246,1710925215219231470,2056,2052,2068,2088,2029,2047,1192
247,1710925215229226358,2063,2057,2052,2001,2067,2050,1197
248,1710925215239225374,2056,2053,2056,2090,2043,2053,1196
249,1710925215249223077,2048,2045,2042,2002,2050,2041,1194
250,1710925215259221762,2058,2054,2072,2060,2055,2072,1197
251,1710925215269219556,2052,2052,2037,2048,2068,2067,1196
252,1710925215279224533,2052,2049,2057,2101,2042,2053,1195
253,1710925215289221184,2057,2070,2058,2088,2068,2064,1195
254,1710925215299225680,2060,2060,2072,2124,2024,2044,1193
255,1710925215309223434,2056,2060,2061,2131,2093,2097,1194
256,1710925215319221017,2056,2064,2065,2074,2044,2108,1197
257,1710925215329220724,2048,2047,2045,1992,2072,2046,1193
258,1710925215339224509,2060,2056,2061,2066,2058,2085,1196
259,1710925215349230237,2054,2046,2042,2082,2075,2076,1198
260,1710925215359215116,2056,2064,2062,2057,2051,2071,1194
261,1710925215369210094,2056,2052,2050,2044,2053,2068,1197
262,1710925215379215623,2060,2061,2079,2076,2032,2054,1194
263,1710925215389217424,2061,2058,2053,2033,2083,2056,1199
264,1710925215399213123,2056,2052,2063,2088,2058,2066,1194
265,1710925215409215285,2052,2051,2048,2032,2092,2041,1194
266,1710925215419215393,2058,2056,2063,2012,2022,2047,1192
267,1710925215429216733,2052,2080,2068,2088,2085,2056,1197
268,1710925215439214797,2060,2068,2072,2016,2045,2064,1197
269,1710925215449227780,2056,2049,2041,2058,2070,2052,1195
270,1710925215459203311,2057,2057,2067,2050,2045,2054,1195
271,1710925215469212996,2052,2053,2047,2100,2092,2052,1195
272,1710925215479220518,2056,2045,2056,2052,2057,2085,1196
273,1710925215489216559,2057,2068,2052,2051,2068,2093,1196
274,1710925215499207058,2047,2047,2062,2042,2034,2083,1195
275,1710925215509211083,2057,2056,2041,2008,2056,2066,1195
276,1710925215519208958,2055,2053,2072,2100,2052,2064,1196
277,1710925215529210368,2059,2052,2047,2080,2073,2064,1194
278,1710925215539222177,2056,2054,2056,2081,2056,2077,1195
279,1710925215549206575,2057,2057,2047,2101,2056,2053,1197
280,1710925215559216683,2062,2054,2056,2041,2036,2080,1197
281,1710925215569218654,2056,2067,2053,2060,2097,2059,1195
282,1710925215579206117,2060,2061,2074,2016,2037,2052,1196
283,1710925215589187230,2044,2041,2032,2072,2107,2105,1195
284,1710925215599206534,2056,2061,2064,2004,1968,2050,1195
285,1710925215609205700,2054,2050,2037,1994,2057,1974,1192
286,1710925215619205627,2051,2049,2053,2008,2008,2050,1199
287,1710925215629205776,2063,2064,2061,2072,2085,2060,1196
288,1710925215639206765,2064,2068,2085,2000,2021,2043,1194
289,1710925215649207854,2060,2061,2056,2059,2065,2049,1195
290,1710925215659208834,2055,2054,2061,2053,2032,2051,1196
291,1710925215669210205,2054,2054,2053,2176,2102,2061,1196
292,1710925215679209761,2062,2056,2062,2076,2045,2069,1195
293,1710925215689210300,2048,2044,2044,2043,2060,2069,1195
294,1710925215699218474,2052,2064,2062,2112,2075,2052,1196
295,1710925215709211568,2056,2049,2039,2027,2043,1964,1192
296,1710925215719211084,2053,2049,2060,2072,2025,2062,1196
297,1710925215729211873,2053,2053,2046,2086,2058,2064,1194
298,1710925215739213024,2052,2061,2072,2039,2043,2066,1196
299,1710925215749250953,2054,2049,2037,2080,2086,2060,1197
300,1710925215759211956,2059,2064,2082,2099,2029,2059,1194
301,1710925215769216362,2058,2052,2051,2072,2081,2033,1191
302,1710925215779212874,2052,2052,2062,2042,2028,2061,1195
303,1710925215789216799,2049,2052,2045,2028,2030,2024,1193
304,1710925215799214692,2056,2053,2062,2092,2013,2031,1192
305,1710925215809214379,2060,2059,2046,1993,2063,2034,1195
306,1710925215819213405,2066,2064,2064,2117,2045,2068,1197
307,1710925215829224233,2052,2064,2064,2037,2048,2059,1197
308,1710925215839197009,2056,2048,2048,2017,2041,1988,1196
309,1710925215849252122,2044,2048,2048,2068,2054,2018,1194
310,1710925215859236780,2054,2053,2057,2082,2069,2058,1195
311,1710925215869228772,2047,2052,2050,1972,2049,2038,1194
312,1710925215879199765,2056,2065,2077,2076,2032,2036,1193
313,1710925215889200174,2056,2053,2040,2058,2091,2060,1195
314,1710925215899196174,2058,2052,2062,2047,2050,2057,1196
315,1710925215909222120,2058,2056,2049,2024,2074,2061,1194
316,1710925215919220636,2058,2056,2063,2096,2057,2065,1197
317,1710925215929220162,2060,2067,2067,2072,2033,2043,1195
318,1710925215939199391,2047,2044,2056,2053,1990,2045,1192
319,1710925215949203756,2057,2056,2045,2031,2062,2000,1193
320,1710925215959221759,2065,2067,2072,2019,2068,2069,1197
321,1710925215969215214,2056,2058,2053,2024,2059,2045,1193
322,1710925215979200022,2061,2058,2058,2113,2052,2081,1195
323,1710925215989234045,2055,2051,2042,2083,2068,2080,1196
324,1710925215999203535,2054,2052,2054,2087,2054,2060,1196
325,1710925216009236324,2049,2054,2056,2059,2072,2082,1196
326,1710925216019220471,2049,2048,2064,2108,2056,2136,1197
327,1710925216029193559,2053,2050,2052,2040,2038,2041,1193
328,1710925216039230146,2052,2049,2046,2043,2040,2040,1193
329,1710925216049222158,2050,2049,2043,2047,2056,2056,1195
330,1710925216059221816,2053,2056,2065,2081,2033,2054,1195
331,1710925216069222715,2062,2065,2064,2068,2077,2122,1196
332,1710925216079200951,2064,2063,2073,2121,2075,2172,1196
333,1710925216089231637,2060,2060,2056,2004,2041,2059,1199
334,1710925216099201918,2052,2055,2066,2011,2025,2014,1193
335,1710925216109201445,2053,2060,2062,2075,2080,2053,1194
336,1710925216119209648,2054,2053,2049,2056,2061,2053,1197
337,1710925216129223613,2053,2054,2047,2065,2089,2067,1195
338,1710925216139230794,2056,2056,2064,2073,2032,2052,1196
339,1710925216149203549,2056,2058,2047,2144,2104,2064,1195
340,1710925216159223716,2056,2058,2065,2077,2056,2056,1199
341,1710925216169227080,2056,2056,2053,2047,2056,2044,1193
342,1710925216179202090,2056,2055,2060,2077,2069,2066,1195
343,1710925216189210573,2062,2055,2050,2042,2080,2044,1193
344,1710925216199209409,2058,2058,2074,2045,2057,2060,1197
345,1710925216209207884,2048,2047,2040,1993,2016,2020,1194
346,1710925216219206278,2050,2041,2056,2044,2008,2008,1193
347,1710925216229205355,2054,2053,2047,2048,2099,2049,1195
348,1710925216239198820,2050,2046,2056,2072,2037,2050,1195
349,1710925216249201001,2056,2051,2046,2053,2048,2040,1193
350,1710925216259203966,2048,2064,2071,2113,2081,2012,1192
351,1710925216269203823,2056,2058,2048,2078,2068,2057,1197
352,1710925216279205483,2056,2056,2057,2062,2048,2048,1198
353,1710925216289226711,2047,2050,2045,2035,2069,2056,1195
354,1710925216299203605,2050,2051,2056,2032,2058,2051,1196
355,1710925216309201819,2050,2044,2040,2046,2047,2045,1190
356,1710925216319205624,2060,2059,2076,2213,2084,2088,1195
357,1710925216329199260,2060,2069,2068,2085,2076,2050,1196
358,1710925216339199448,2062,2059,2063,2047,2044,2055,1195
359,1710925216349212300,2047,2044,2040,2066,2046,2045,1192
360,1710925216359195136,2052,2059,2056,2064,2058,2090,1194
361,1710925216369195544,2052,2065,2064,2130,2078,2064,1195
362,1710925216379204137,2053,2048,2046,1950,2036,2106,1195
363,1710925216389200498,2046,2056,2054,2080,2047,2097,1196
364,1710925216399211657,2050,2067,2060,1947,2005,2084,1196
365,1710925216409199832,2056,2044,2015,2068,2046,2045,1193
366,1710925216419194109,2067,2088,2056,2050,2059,2094,1196
367,1710925216429197935,2060,2064,2052,2047,2060,2037,1195
368,1710925216439198774,2051,2047,2052,2040,2056,2062,1196
369,1710925216449208770,2056,2060,2059,2087,2082,2073,1196
370,1710925216459198559,2056,2061,2066,2062,2061,2055,1196
371,1710925216469198236,2053,2028,2025,2026,2057,2052,1195
372,1710925216479199706,2052,2058,2064,2039,2034,2044,1192
373,1710925216489208740,2062,2065,2065,2069,2053,2073,1196
374,1710925216499205052,2049,2037,2045,2033,2048,2054,1194
375,1710925216509193968,2052,2040,2049,2036,2046,2076,1196
376,1710925216519195979,2053,2065,2061,2012,2037,2095,1196
377,1710925216529197691,2051,2052,2045,2064,2065,2049,1195
378,1710925216539192308,2050,2049,2057,2125,2040,2047,1192
379,1710925216549207404,2053,2059,2046,1979,2038,2044,1192
380,1710925216559198314,2056,2059,2063,2020,2042,2055,1195
381,1710925216569185468,2060,2058,2067,2086,2066,2090,1196
382,1710925216579201246,2058,2061,2064,2107,2064,2080,1195
383,1710925216589202826,2053,2041,2040,2040,2061,2052,1196
384,1710925216599199959,2059,2058,2053,2029,2051,2057,1195
385,1710925216609193945,2046,2031,2038,2032,2054,2055,1195
386,1710925216619196768,2057,2049,2047,2061,2065,2040,1193
387,1710925216629193169,2048,2041,2044,2038,2052,2045,1194
388,1710925216639196373,2056,2047,2052,2112,2052,2053,1195
389,1710925216649208423,2047,2040,2029,2029,2030,2037,1192
390,1710925216659200666,2053,2052,2060,2004,2003,2054,1195
391,1710925216669200293,2055,2044,2046,2022,2056,2052,1195
392,1710925216679202775,2050,2059,2062,2053,2045,2050,1194
393,1710925216689203284,2057,2052,2051,2066,2074,2056,1196
394,1710925216699195167,2061,2057,2067,2076,2066,2056,1194
395,1710925216709200604,2052,2053,2052,2057,2040,2023,1190
396,1710925216719194610,2057,2053,2054,2066,2052,2040,1193
397,1710925216729200410,2052,2063,2060,2112,2080,2072,1196
398,1710925216739197622,2043,2032,2044,2084,2053,2078,1196
399,1710925216749204252,2054,2052,2052,2047,2045,2069,1196
400,1710925216759192717,2056,2056,2056,2025,2068,2089,1196
401,1710925216769196523,2057,2066,2064,2064,2069,2077,1196
402,1710925216779199596,2056,2041,2048,2027,2020,1957,1193
403,1710925216789201277,2045,2044,2044,2038,2041,2023,1192
404,1710925216799203920,2063,2069,2072,2037,2048,2052,1196
405,1710925216809189871,2054,2052,2055,2066,2062,2075,1195
406,1710925216819196661,2060,2060,2063,2090,2052,2046,1195
407,1710925216829196248,2056,2071,2084,2068,2054,2052,1196
408,1710925216839197639,2047,2036,2044,2065,2027,1950,1194
409,1710925216849198428,2059,2065,2064,2019,2045,2059,1196
410,1710925216859216950,2065,2052,2052,2067,2049,2078,1195
411,1710925216869198904,2052,2052,2042,2015,2041,2040,1192
412,1710925216879203510,2056,2057,2054,2076,2046,2054,1196
413,1710925216889202857,2056,2054,2057,2073,2056,2089,1195
414,1710925216899201072,2056,2058,2064,2058,2037,2051,1195
415,1710925216909201760,2053,2056,2061,2143,2072,2052,1195
416,1710925216919203491,2054,2053,2061,2028,2064,2046,1193
417,1710925216929203479,2053,2052,2052,2100,2066,2052,1195
418,1710925216939224547,2054,2057,2068,2107,2055,2056,1196
419,1710925216949207862,2053,2068,2061,2047,2064,2084,1197
420,1710925216959204904,2044,2037,2039,2071,2050,2077,1196
421,1710925216969205143,2050,2052,2049,2047,2049,2048,1195
422,1710925216979205311,2052,2053,2055,2055,2047,2061,1196
423,1710925216989240715,2050,2049,2052,2101,2056,2047,1193
424,1710925216999210226,2056,2056,2059,2080,2057,2057,1195
425,1710925217009204452,2056,2056,2053,2068,2058,2056,1197
426,1710925217019207125,2069,2065,2064,2055,2074,2019,1195
427,1710925217029207203,2052,2048,2042,2049,2048,2040,1193
428,1710925217039214394,2054,2057,2045,2020,2040,2059,1196
429,1710925217049205845,2056,2057,2068,2125,2072,2064,1197
430,1710925217059203489,2054,2050,2057,2059,2051,2075,1197
431,1710925217069207795,2050,2045,2036,2013,2032,2053,1197
432,1710925217079201019,2056,2050,2049,2017,2037,2052,1195
433,1710925217089203612,2049,2033,2049,2044,2055,2045,1193
434,1710925217099204051,2047,2047,2040,2052,2045,2027,1192
435,1710925217109210511,2050,2044,2037,2043,2036,2003,1192
436,1710925217119211289,2060,2050,2053,2062,2062,2083,1196
437,1710925217129211929,2058,2052,2051,2117,2067,2054,1196
438,1710925217139215373,2056,2053,2059,2069,2052,2058,1197
439,1710925217149215380,2056,2058,2045,2017,2062,2053,1196
440,1710925217159201422,2057,2051,2056,2057,2077,2012,1192
441,1710925217169208693,2053,2056,2052,2056,2056,2053,1197
442,1710925217179218359,2048,2052,2056,2071,2057,2051,1196
443,1710925217189188982,2056,2072,2077,2092,2070,2036,1194
444,1710925217199211412,2068,2068,2070,1974,2062,2069,1197
445,1710925217209212591,2056,2067,2060,2068,2052,2044,1193
446,1710925217219194856,2060,2056,2060,2061,2064,2051,1193
447,1710925217229198280,2052,2047,2040,2033,2050,2028,1196
448,1710925217239202966,2063,2064,2066,2041,2040,2061,1194
449,1710925217249208605,2057,2053,2057,2056,2065,2089,1197
450,1710925217259199746,2056,2048,2058,2069,2057,2058,1196
451,1710925217269196477,2056,2060,2056,2030,2035,2029,1195
452,1710925217279211203,2058,2068,2075,2123,2056,2038,1194
453,1710925217289215930,2050,2041,2044,2067,2056,2096,1197
454,1710925217299218783,2055,2053,2058,2065,2052,2056,1195
455,1710925217309198092,2056,2061,2071,2052,2056,2057,1194
456,1710925217319194773,2048,2044,2056,2025,2054,2056,1198
457,1710925217329196634,2059,2054,2045,2102,2057,2057,1196
458,1710925217339200009,2054,2063,2069,2056,2056,2072,1196
459,1710925217349212830,2069,2068,2069,2081,2061,1980,1194
460,1710925217359196717,2058,2055,2058,2017,2045,2056,1197
461,1710925217369195082,2052,2048,2048,2044,2056,2084,1197
462,1710925217379236759,2053,2056,2056,2058,2057,2061,1195
463,1710925217389201499,2054,2052,2051,2098,2055,2060,1195
464,1710925217399244298,2060,2073,2076,2114,2031,2047,1192
465,1710925217409186847,2052,2049,2050,2049,2056,2052,1198
466,1710925217419190993,2057,2057,2069,2056,2042,2048,1196
467,1710925217429196811,2050,2043,2046,2038,2061,2060,1197
468,1710925217439197481,2057,2056,2052,2020,2041,2069,1197
469,1710925217449201325,2051,2046,2042,2071,2064,2050,1193
470,1710925217459197596,2049,2051,2061,2028,2057,2069,1195
471,1710925217469196252,2060,2053,2071,2120,2070,2071,1196
472,1710925217479206819,2060,2058,2064,2073,2040,2045,1193
473,1710925217489195575,2056,2059,2067,2068,2046,2049,1195
474,1710925217499199200,2052,2048,2048,2054,2056,2066,1196
475,1710925217509191623,2044,2062,2070,2082,2035,2033,1191
476,1710925217519198273,2061,2072,2065,2008,2051,2066,1196
477,1710925217529197761,2050,2047,2049,2012,2047,2048,1195
478,1710925217539200944,2055,2056,2056,2022,2036,2052,1195
479,1710925217549203687,2060,2060,2061,2041,2049,2060,1196
480,1710925217559183928,2056,2056,2054,2060,2054,2047,1193
481,1710925217569190888,2057,2058,2060,2088,2068,2063,1195
482,1710925217579206265,2047,2052,2055,2038,2057,2042,1192
483,1710925217589204079,2058,2049,2061,1973,2029,2076,1196
484,1710925217599204026,2060,2076,2064,2092,2068,2056,1196
485,1710925217609206017,2048,2048,2052,2049,2042,2040,1194
486,1710925217619189925,2052,2047,2049,2039,2033,2053,1195
487,1710925217629195944,2058,2060,2050,2061,2053,2065,1196
488,1710925217639198035,2058,2042,2045,2052,2050,2052,1194
489,1710925217649199616,2056,2026,2056,2002,2059,2056,1193
490,1710925217659191248,2062,2047,2054,2072,2062,2072,1197
491,1710925217669198479,2050,2050,2050,2049,2046,2072,1194
492,1710925217679199549,2064,2045,2064,2073,2036,2053,1197
493,1710925217689201441,2058,2059,2061,2024,2056,2062,1196
494,1710925217699209023,2051,2052,2057,2088,2072,2073,1198
495,1710925217709207988,2056,2066,2080,1971,2049,2053,1195
496,1710925217719191806,2052,2052,2064,2083,2074,2047,1192
497,1710925217729199598,2058,2064,2057,2068,2057,2060,1198
498,1710925217739194395,2056,2056,2058,2064,2064,2052,1196
499,1710925217749200726,2059,2057,2061,2050,2057,2082,1195
500,1710925217759195994,2057,2060,2072,2065,2037,2089,1196
501,1710925217769196282,2046,2042,2040,2108,2056,2043,1193
502,1710925217779204586,2062,2036,2042,2073,2066,2064,1197
503,1710925217789190938,2056,2034,2036,2067,2042,2047,1194
504,1710925217799204381,2056,2052,2056,2057,2043,2057,1196
505,1710925217809186796,2064,2060,2066,2027,2054,2031,1193
506,1710925217819197614,2058,2050,2042,2094,2050,2049,1195
507,1710925217829196739,2056,2052,2057,2079,2060,2059,1196
508,1710925217839194584,2054,2048,2056,2067,2060,2052,1196
509,1710925217849198478,2056,2013,2019,2053,2052,2036,1193
510,1710925217859212793,2061,2053,2043,2040,2060,2052,1198
511,1710925217869202442,2051,2049,2050,2090,2053,2067,1196
512,1710925217879205926,2057,2056,2056,2093,2066,2056,1195
513,1710925217889200853,2052,2052,2047,2032,2039,2054,1194
514,1710925217899203176,2055,2052,2058,2066,2070,2057,1194
515,1710925217909199156,2061,2053,2052,2065,2069,2057,1193
516,1710925217919201348,2055,2035,2047,2042,2057,1980,1192
517,1710925217929197669,2059,2054,2056,2046,2059,2066,1196
518,1710925217939194891,2056,2058,2062,2037,2049,2036,1192
519,1710925217949197804,2057,2053,2059,2051,2056,2039,1195
520,1710925217959192091,2053,2064,2056,2072,2047,2068,1196
521,1710925217969197589,2060,2059,2065,2074,2041,2062,1196
522,1710925217979197877,2053,2049,2057,2041,2068,2060,1195
523,1710925217989211561,2051,2054,2072,2088,2046,2056,1198
524,1710925217999214935,2066,2050,2052,2068,2062,1977,1194
525,1710925218009196077,2060,2024,2035,2053,2044,2098,1198
526,1710925218019204711,2056,2045,2020,2051,2039,2065,1197
527,1710925218029200932,2053,2053,2058,2036,2040,2047,1194
528,1710925218039198124,2058,2057,2052,2036,2035,2047,1192
529,1710925218049204194,2056,2061,2059,2070,2046,2051,1196
530,1710925218059196757,2046,2034,2038,2056,2052,2047,1194
531,1710925218069198799,2061,2060,2072,2100,2052,2076,1195
532,1710925218079203595,2053,2056,2056,2066,2054,2015,1193
533,1710925218089199796,2050,2048,2045,2010,2041,2049,1195
534,1710925218099200936,2050,2050,2061,2065,2058,2056,1195
535,1710925218109196986,2049,2040,2042,2021,2050,2050,1193
536,1710925218119202094,2052,2061,2052,2053,2068,2056,1197
537,1710925218129200668,2056,2046,2056,2076,2061,2058,1196
538,1710925218139198012,2055,2083,2072,2075,2060,2066,1195
539,1710925218149211064,2072,2052,2067,2018,2052,2070,1196
540,1710925218159193789,2052,2046,2036,1989,2037,2042,1193
541,1710925218169201742,2055,2056,2056,2075,2053,2074,1197
542,1710925218179198644,2053,2056,2060,2066,2065,2049,1193
543,1710925218189199853,2059,2060,2057,2012,2059,2058,1194
544,1710925218199214790,2056,2052,2044,2085,2088,2091,1197
545,1710925218209231459,2053,2072,2071,1961,2031,2064,1197
546,1710925218219195348,2056,2069,2060,2067,2060,2074,1196
547,1710925218229198853,2056,2048,2057,2068,2047,2078,1197
548,1710925218239200073,2051,2052,2060,2080,2046,2018,1192
549,1710925218249199188,2054,2052,2061,2072,2056,2053,1195
550,1710925218259238671,2054,2032,2040,2076,2077,2058,1196
551,1710925218269154209,2066,2064,2048,2071,2056,2062,1195
552,1710925218279205133,2047,2043,2037,2009,2043,2034,1192
553,1710925218289200072,2056,2054,2068,1993,2032,2066,1196
554,1710925218299211400,2057,2050,2068,2086,2074,2057,1196
555,1710925218309235233,2056,2056,2074,2102,2056,2076,1194
556,1710925218319202309,2056,2051,2045,2046,2047,2056,1197
557,1710925218329198890,2059,2065,2048,1957,2034,2054,1197
558,1710925218339195872,2046,2044,2048,2064,2073,2083,1197
559,1710925218349196692,2052,2044,2061,2100,2032,2063,1196
560,1710925218359199194,2058,2071,2069,2062,2073,2062,1195
561,1710925218369203901,2050,2052,2052,2073,2042,2045,1194
562,1710925218379187618,2053,2049,2040,2078,2055,2056,1197
563,1710925218389197043,2052,2054,2079,2096,2066,2020,1194
564,1710925218399193774,2049,2047,2056,2061,2066,2061,1195
565,1710925218409200525,2057,2048,2056,2020,2056,2063,1196
566,1710925218419218727,2060,2061,2053,2081,2061,2084,1195
567,1710925218429198988,2054,2056,2061,1998,2028,2056,1196
568,1710925218439199917,2052,2053,2070,2044,2060,2044,1194
569,1710925218449198241,2060,2049,2056,2065,2047,2050,1196
570,1710925218459197178,2052,2056,2060,2076,2064,2041,1193
571,1710925218469201072,2055,2056,2052,2060,2044,2046,1197
572,1710925218479221859,2048,2053,2034,2040,2064,2074,1196
573,1710925218489197742,2050,2047,2053,2026,2044,2060,1197
574,1710925218499195124,2056,2068,2061,2093,2064,2052,1197
575,1710925218509202105,2052,2043,2050,2079,2046,2050,1196
576,1710925218519200180,2056,2062,2091,2117,2067,2045,1195
577,1710925218529200107,2061,2053,2042,2021,2038,2057,1197
578,1710925218539194434,2056,2046,2031,1979,2041,2076,1195
579,1710925218549193681,2048,2028,2036,2077,2057,2046,1196
580,1710925218559187196,2053,2045,2039,2046,2048,2061,1196
581,1710925218569189688,2048,2034,2052,2028,2039,2082,1195
582,1710925218579185278,2059,2060,2052,2073,2073,2074,1198
583,1710925218589207377,2061,2058,2052,2021,2027,2042,1194
584,1710925218599189180,2060,2056,2050,2050,2065,1994,1193
585,1710925218609192535,2062,2059,2064,2100,2078,2069,1197
586,1710925218619193754,2046,2034,2033,2066,2061,2065,1197
587,1710925218629190936,2069,2068,2091,2045,2044,2048,1196
588,1710925218639190394,2060,2067,2072,2000,2021,2057,1193
589,1710925218649193537,2062,2058,2053,2061,1997,2032,1194
590,1710925218659188325,2056,2053,2045,2088,2059,2003,1193
591,1710925218669190638,2053,2055,2064,2067,2060,2081,1196
592,1710925218679190244,2053,2056,2056,2082,2064,2050,1194
593,1710925218689184291,2056,2054,2052,2008,2036,2049,1195
594,1710925218699159472,2052,2052,2053,2045,2063,2049,1197
595,1710925218709191860,2057,2058,2065,2070,2059,2060,1194
596,1710925218719185967,2052,2052,2045,1968,2014,2046,1194
597,1710925218729188961,2052,2054,2055,2087,2047,2053,1194
598,1710925218739204247,2058,2045,2057,1995,2033,2050,1196
599,1710925218749192673,2060,2061,2073,2045,2045,2052,1197
600,1710925218759191098,2053,2045,2033,2064,2077,2059,1196
601,1710925218769193510,2056,2056,2070,2061,2064,2050,1196
602,1710925218779191535,2054,2041,2042,1989,2043,2056,1197
603,1710925218789229925,2053,2043,2057,2094,2050,2056,1195
604,1710925218799196649,2051,2056,2044,2067,2072,2073,1195
605,1710925218809189915,2056,2061,2065,2080,2048,2014,1193
606,1710925218819189922,2054,2061,2049,2104,2076,2042,1193
607,1710925218829186864,2049,2060,2068,2066,2061,2078,1198
608,1710925218839192773,2055,2057,2053,2068,2062,2056,1194
609,1710925218849193261,2052,2052,2052,2081,2052,1980,1194
610,1710925218859212946,2059,2056,2046,2099,2061,2050,1195
611,1710925218869187116,2053,2046,2069,2044,2025,2054,1195
612,1710925218879211038,2056,2042,2064,2012,2040,2041,1193
613,1710925218889203171,2054,2049,2054,2073,2030,2037,1197
614,1710925218899191577,2053,2056,2050,1952,2039,2052,1195
615,1710925218909197346,2047,2036,2044,2036,2028,2018,1193
616,1710925218919186232,2052,2044,2034,1983,2053,2073,1196
617,1710925218929189637,2052,2062,2075,2102,2053,2079,1196
618,1710925218939190666,2055,2060,2059,2029,2057,2064,1198
619,1710925218949190403,2049,2050,2072,2061,2059,2061,1195
620,1710925218959210610,2064,2067,2050,2015,2054,2050,1195
621,1710925218969191671,2058,2054,2063,2060,2055,2037,1194
622,1710925218979191108,2056,2077,2070,2092,2078,2044,1193
623,1710925218989222876,2052,2056,2056,2032,2041,2053,1196
624,1710925218999189961,2061,2065,2064,2012,2052,2044,1192
625,1710925219009193275,2061,2046,2057,2062,2033,2028,1195
626,1710925219019199565,2051,2052,2044,2052,2070,2060,1194
627,1710925219029193491,2053,2056,2060,2079,2030,2074,1199
628,1710925219039192988,2056,2068,2070,2114,2068,2052,1196
629,1710925219049193096,2058,2062,2085,2079,2033,2062,1196
630,1710925219059193554,2052,2056,2065,2080,2059,2056,1196
631,1710925219069193803,2056,2052,2059,2093,2041,2056,1196
632,1710925219079198870,2059,2059,2046,1996,2052,2050,1196
633,1710925219089200821,2054,2057,2066,2082,2044,2057,1196
634,1710925219099193295,2058,2066,2058,2112,2069,2045,1192
635,1710925219109196709,2057,2064,2065,2127,2060,2043,1191
636,1710925219119219220,2056,2056,2068,2076,2047,2047,1194
637,1710925219129195122,2052,2046,2064,1981,2040,2066,1193
638,1710925219139198035,2056,2052,2044,2072,2069,2064,1196
639,1710925219149200268,2056,2069,2049,2036,2037,2048,1194
640,1710925219159196868,2057,2059,2040,2080,2076,2058,1196
641,1710925219169201124,2054,2042,2043,2128,2069,2056,1195
642,1710925219179169502,2056,2052,2054,2148,2092,2047,1193
643,1710925219189201911,2055,2059,2064,2068,2053,2062,1197
644,1710925219199197901,2056,2054,2056,2046,2060,2056,1197
645,1710925219209198170,2057,2053,2072,2050,2056,2065,1197
646,1710925219219219147,2052,2058,2060,2073,2077,2069,1197
647,1710925219229194298,2057,2061,2060,2069,2056,2070,1198
648,1710925219239182864,2058,2062,2073,2059,2054,2061,1197
649,1710925219249181379,2059,2053,2059,2082,2053,2067,1197
650,1710925219259181427,2052,2052,2046,2080,2052,2047,1195
651,1710925219269217653,2053,2059,2056,2066,2030,2045,1193
652,1710925219279184868,2049,2045,2038,2032,2052,2033,1193
653,1710925219289202290,2053,2058,2065,2001,2028,2053,1195
654,1710925219299124991,2052,2034,2039,2072,2076,2056,1196
655,1710925219309203057,2060,2052,2047,2048,2064,2058,1193
656,1710925219319199518,2059,2064,2056,2000,2064,2044,1192
657,1710925219329201158,2044,2042,2047,2076,2047,2041,1193
658,1710925219339203291,2061,2059,2059,2064,2069,2065,1197
659,1710925219349207827,2052,2037,2053,2084,2053,2058,1194
660,1710925219359186654,2071,2076,2086,2034,2069,2056,1196
661,1710925219369186111,2056,2058,2064,2050,2043,2056,1194
662,1710925219379206036,2052,2052,2047,2050,2052,2046,1192
663,1710925219389184583,2053,2053,2060,2068,2056,2068,1193
664,1710925219399179702,2048,2056,2057,2027,2067,2064,1197
665,1710925219409190119,2059,2049,2058,2022,2036,2066,1194
666,1710925219419239211,2050,2053,2052,2065,2065,2032,1192
667,1710925219429157333,2056,2049,2040,2032,2013,2030,1195
668,1710925219439187528,2053,2052,2046,2072,2058,2100,1197
669,1710925219449189730,2061,2054,2056,2027,2051,2082,1197
670,1710925219459189217,2050,2055,2050,2018,2057,2058,1196
671,1710925219469187852,2052,2040,2052,2085,2043,2053,1197
672,1710925219479215723,2060,2053,2054,2070,2079,2058,1195
673,1710925219489208206,2056,2045,2044,2068,2073,2058,1195
674,1710925219499190319,2056,2079,2058,2024,2042,2077,1195
675,1710925219509190598,2042,2046,2041,2058,2038,2048,1194
676,1710925219519188492,2053,2053,2043,2037,2035,2052,1197
677,1710925219529218196,2064,2073,2072,2048,2047,2071,1195
678,1710925219539192074,2048,2051,2041,2033,2056,2032,1192
679,1710925219549187222,2056,2042,2056,2006,2008,2047,1192
680,1710925219559187882,2067,2053,2052,2090,2073,2058,1194
681,1710925219569187649,2061,2056,2068,2091,2065,2059,1196
682,1710925219579198066,2045,2043,2033,2026,1996,2028,1193
683,1710925219589209957,2053,2052,2064,2154,2060,2063,1196
684,1710925219599189947,2058,2061,2050,2140,2078,2056,1194
685,1710925219609186789,2057,2059,2072,2117,2048,2054,1196
686,1710925219619196595,2049,2057,2056,2045,2033,2036,1193
687,1710925219629155334,2052,2056,2076,2145,2045,2049,1195
688,1710925219639168678,2050,2047,2044,2124,2085,2056,1196
689,1710925219649129020,2062,2064,2063,2009,2036,2052,1196
690,1710925219659189021,2060,2091,2076,2077,2061,2053,1195
691,1710925219669189230,2052,2042,2053,2066,2052,2071,1195
692,1710925219679186733,2057,2068,2048,1986,2059,2104,1195
693,1710925219689222638,2052,2052,2060,2035,2037,2059,1196
694,1710925219699184805,2056,2058,2057,2050,2067,2064,1194
695,1710925219709188479,2060,2059,2066,2061,2036,2068,1195
696,1710925219719190992,2054,2036,2032,2079,2090,2059,1196
697,1710925219729190879,2060,2043,2042,2047,2032,2058,1195
698,1710925219739199273,2043,2038,2043,2052,2056,2064,1194
699,1710925219749179093,2060,2053,2048,2020,2028,2082,1196
700,1710925219759189390,2052,2053,2040,2069,2066,2053,1194
701,1710925219769188686,2060,2060,2084,1992,2024,2052,1194
702,1710925219779192171,2048,2041,2037,2009,2052,2002,1192
703,1710925219789195294,2057,2061,2068,2077,2035,2047,1194
704,1710925219799192867,2057,2080,2072,2106,2087,2065,1196
705,1710925219809190291,2059,2072,2091,2043,2053,2059,1196
706,1710925219819183445,2050,2045,2046,2089,2072,2088,1196
707,1710925219829198291,2061,2073,2076,2034,2045,2063,1196
708,1710925219839199090,2050,2054,2054,2055,2056,2031,1193
709,1710925219849190742,2052,2050,2050,2068,2046,2062,1196
710,1710925219859193997,2045,2025,2029,2030,2070,2089,1194
711,1710925219869190617,2062,2044,2058,2008,2047,2052,1195
712,1710925219879193230,2053,2058,2040,2041,2065,2052,1196
713,1710925219889202556,2053,2041,2058,2045,2040,2088,1195
714,1710925219899196712,2057,2061,2058,2054,2053,2068,1198
715,1710925219909193985,2058,2053,2058,2047,2020,2056,1195
716,1710925219919184675,2052,2052,2040,2038,2068,2053,1194
717,1710925219929188640,2051,2055,2056,2061,2037,2053,1196
718,1710925219939198627,2053,2060,2065,2093,2073,2069,1195
719,1710925219949188335,2057,2096,2085,2036,2019,2045,1192
720,1710925219959201207,2053,2050,2046,2047,2054,2049,1195
721,1710925219969190165,2055,2064,2080,2064,2044,2066,1195
722,1710925219979169583,2059,2057,2057,2016,2061,2085,1195
723,1710925219989202382,2052,2054,2065,2100,2046,2052,1194
724,1710925219999204304,2056,2053,2047,2068,2074,2054,1195
725,1710925220009236523,2052,2050,2062,2053,2032,2056,1197
726,1710925220019186166,2054,2041,2060,2018,2044,2048,1195
727,1710925220029188608,2058,2045,2057,2125,2039,2028,1194
728,1710925220039188004,2050,2046,2042,2098,2069,2050,1196
729,1710925220049205436,2057,2044,2044,2074,2047,2060,1196
730,1710925220059206134,2056,2058,2040,2032,2061,2004,1192
731,1710925220069196755,2056,2061,2056,2040,2044,2096,1195
732,1710925220079187024,2056,2057,2058,2072,2052,2057,1196
733,1710925220089195708,2051,2045,2041,2073,2047,2079,1195
734,1710925220099202068,2064,2049,2045,1963,2056,2053,1195
735,1710925220109202947,2052,2050,2060,2046,2033,2045,1191
736,1710925220119192625,2057,2052,2041,2033,2062,2000,1192
737,1710925220129190830,2049,2056,2059,2048,2029,2060,1194
738,1710925220139193332,2051,2042,2056,2072,2060,2040,1192
739,1710925220149191808,2052,2056,2051,2078,2027,2045,1193
740,1710925220159197897,2056,2072,2065,2064,2076,2080,1193
741,1710925220169201501,2061,2058,2070,1988,2045,2056,1195
742,1710925220179202932,2054,2052,2045,2044,2060,2048,1196
743,1710925220189194644,2053,2049,2053,2060,2030,2060,1195
744,1710925220199197257,2059,2058,2042,2041,2069,2017,1193
745,1710925220209191313,2057,2044,2056,2094,2026,2062,1198
746,1710925220219190970,2056,2056,2057,2090,2077,2070,1197
747,1710925220229188093,2052,2026,2045,2042,2039,2040,1193
748,1710925220239188451,2064,2058,2051,1998,2050,2052,1194
749,1710925220249191865,2053,2064,2069,2073,2042,2021,1193
750,1710925220259194669,2050,2053,2048,2058,2071,2059,1196
751,1710925220269207280,2053,2046,2056,2029,2037,2052,1194
752,1710925220279199243,2055,2040,2047,2066,2064,2001,1192
753,1710925220289190774,2061,2052,2068,2075,2046,2051,1196
754,1710925220299197074,2052,2056,2040,2073,2059,2045,1195
755,1710925220309188055,2060,2062,2075,2097,2028,2043,1193
756,1710925220319182101,2057,2054,2047,2047,2061,2008,1191
757,1710925220329193992,2063,2053,2054,2048,2041,2059,1196
758,1710925220339188178,2057,2048,2040,2056,2072,2064,1196
759,1710925220349191572,2054,2070,2076,2047,2048,2058,1196
760,1710925220359198303,2056,2076,2061,2039,2096,2064,1195
761,1710925220369191257,2060,2055,2058,2038,2020,2016,1192
762,1710925220379190865,2053,2054,2050,2012,2073,2059,1195
763,1710925220389192676,2050,2049,2057,2089,2052,2047,1191
764,1710925220399174599,2050,2049,2041,2084,2075,2047,1192
765,1710925220409182643,2057,2076,2082,2052,2036,2052,1195
766,1710925220419190665,2057,2045,2042,2080,2064,2043,1194
767,1710925220429188329,2049,2025,2043,2068,2053,2035,1194
768,1710925220439190691,2062,2052,2045,2006,2070,2044,1192
769,1710925220449211077,2053,2050,2062,2109,2035,2004,1194
770,1710925220459139650,2056,2053,2043,2066,2065,2048,1192
771,1710925220469201825,2061,2070,2073,2028,2015,2012,1193
772,1710925220479216330,2056,2054,2042,2030,2074,2058,1194
773,1710925220489202893,2056,2066,2083,2061,2024,2049,1196
774,1710925220499206868,2059,2065,2072,2076,2081,2044,1192
775,1710925220509209331,2051,2052,2073,2050,2038,2042,1192
776,1710925220519190523,2059,2064,2049,2017,2065,2026,1193
777,1710925220529200669,2052,2052,2062,2072,2041,2060,1197
778,1710925220539201319,2053,2053,2046,2052,2076,2053,1196
779,1710925220549201417,2065,2060,2070,2069,2072,2069,1195
780,1710925220559205343,2055,2068,2040,2135,2068,2045,1192
781,1710925220569211472,2054,2065,2061,2074,2047,2045,1194
782,1710925220579205648,2052,2042,2027,2057,2072,2052,1194
783,1710925220589200236,2050,2051,2062,2070,2058,2064,1195
784,1710925220599203950,2053,2055,2050,2048,2056,2015,1192
785,1710925220609207645,2054,2056,2069,2070,2046,2066,1197
786,1710925220619200039,2046,2029,2026,2010,2058,2042,1193
787,1710925220629204034,2060,2048,2065,1963,2016,2068,1198
788,1710925220639203922,2061,2056,2041,2062,2072,2065,1196
789,1710925220649204300,2054,2050,2064,2079,2048,2053,1195
790,1710925220659212002,2053,2053,2042,2062,2082,2053,1197
791,1710925220669203905,2060,2057,2062,2021,2022,2051,1195
792,1710925220679203101,2056,2056,2044,2077,2085,2048,1194
793,1710925220689207388,2059,2058,2060,2088,2012,2035,1193
794,1710925220699209349,2049,2045,2042,2080,2060,2052,1195
795,1710925220709213173,2051,2046,2062,2064,2025,2044,1192
796,1710925220719209014,2055,2047,2038,2038,2056,2014,1194
797,1710925220729202278,2057,2056,2062,2047,2032,2050,1194
798,1710925220739200954,2060,2069,2056,2067,2080,2061,1197
799,1710925220749200260,2054,2061,2077,2003,2036,2049,1196
800,1710925220759212401,2056,2052,2040,2052,2075,2045,1193
801,1710925220769207560,2054,2078,2078,2064,2028,2046,1194
802,1710925220779207968,2054,2052,2048,2120,2073,1960,1194
803,1710925220789208377,2052,2053,2053,2064,2053,2071,1197
804,1710925220799208665,2064,2065,2068,2041,2058,2062,1197
805,1710925220809209174,2054,2052,2059,2053,2021,2038,1194
806,1710925220819226034,2056,2060,2044,2039,2074,2058,1196
807,1710925220829206965,2052,2037,2041,2025,2014,2046,1194
808,1710925220839218054,2051,2044,2035,2053,2052,2042,1194
809,1710925220849209596,2060,2062,2087,2062,2037,2060,1197
810,1710925220859210675,2056,2050,2040,2068,2078,2031,1194
811,1710925220869208570,2053,2047,2045,2049,2040,2080,1194
812,1710925220879210341,2057,2060,2050,2058,2074,2067,1194
813,1710925220889193586,2056,2050,2052,2038,2045,2066,1196
814,1710925220899200548,2052,2048,2040,2063,2076,2066,1193
815,1710925220909211556,2056,2058,2061,2000,2047,2061,1193
816,1710925220919199882,2050,2047,2042,2036,2073,2069,1196
817,1710925220929196894,2043,2041,2064,2110,2022,2042,1193
818,1710925220939211750,2056,2051,2040,2056,2068,1985,1193
819,1710925220949211668,2052,2056,2068,2051,2026,2047,1193
820,1710925220959195915,2054,2044,2035,2059,2056,2043,1193
821,1710925220969198378,2058,2076,2058,2068,2031,2053,1195
822,1710925220979204147,2041,2032,2035,2087,2073,2041,1192
823,1710925220989221647,2061,2048,2056,1994,2040,2070,1197
824,1710925220999202570,2042,2040,2036,1983,2048,2038,1192
825,1710925221009194281,2053,2057,2072,2012,2003,2017,1195
826,1710925221019197306,2055,2050,2051,2078,2076,2055,1195
827,1710925221029189208,2056,2057,2083,2123,2034,2048,1198
828,1710925221039192842,2056,2050,2041,2092,2075,2026,1195
829,1710925221049199363,2048,2048,2065,2073,2050,2064,1196
830,1710925221059196705,2056,2053,2037,2068,2067,2053,1197
831,1710925221069199929,2056,2062,2072,2020,2027,2068,1196
832,1710925221079198093,2053,2043,2044,2093,2080,2069,1195
833,1710925221089199914,2045,2042,2047,2075,2029,2032,1193
834,1710925221099195935,2052,2052,2050,2076,2065,2050,1195
835,1710925221109196654,2054,2053,2054,2113,2045,2040,1192
836,1710925221119198927,2056,2060,2056,2138,2071,2056,1196
837,1710925221129197321,2056,2054,2056,2097,2040,2064,1196
838,1710925221139209161,2057,2056,2052,2073,2075,2059,1196
839,1710925221149224678,2056,2054,2061,2059,2041,2057,1197
840,1710925221159200270,2054,2056,2056,2080,2069,2000,1192
841,1710925221169206380,2053,2047,2047,2078,2040,2025,1194
842,1710925221179212599,2056,2046,2028,2046,2080,2045,1194
843,1710925221189210683,2052,2057,2047,1974,2013,2050,1194
844,1710925221199206333,2052,2057,2044,2052,2052,2049,1194
845,1710925221209196341,2049,2053,2050,2094,2047,2076,1195
846,1710925221219198754,2046,2045,2035,2027,2076,2077,1195
847,1710925221229200054,2050,2050,2053,2026,2024,2048,1195
848,1710925221239197357,2049,2052,2044,2032,2049,2068,1195
849,1710925221249219246,2046,2052,2056,2064,2024,2050,1198
850,1710925221259198204,2055,2046,2034,2069,2064,2024,1194
851,1710925221269195898,2052,2052,2054,2085,2034,2056,1195
852,1710925221279199352,2054,2047,2040,2082,2099,2061,1195
853,1710925221289211994,2058,2062,2066,2064,2028,2053,1195
854,1710925221299200209,2048,2051,2047,2040,2081,2053,1194
855,1710925221309198263,2049,2072,2068,2058,2053,2016,1194
856,1710925221319201537,2052,2042,2025,2040,2064,2056,1197
857,1710925221329199240,2056,2058,2064,2025,2025,2060,1194
858,1710925221339199319,2050,2043,2030,1999,2041,2036,1195
859,1710925221349201951,2062,2058,2068,2056,2038,2060,1196
860,1710925221359203954,2054,2057,2040,2065,2063,2062,1196
861,1710925221369203390,2057,2072,2083,2064,2034,2071,1197
862,1710925221379203628,2068,2066,2064,2078,2079,2081,1195
863,1710925221389218645,2053,2054,2062,2060,2044,2041,1193
864,1710925221399179027,2056,2068,2068,2096,2064,2037,1193
865,1710925221409195787,2052,2051,2056,2061,2045,2062,1197
866,1710925221419193701,2052,2043,2041,2133,2090,2069,1194
867,1710925221429193868,2064,2066,2078,2080,2053,2085,1196
868,1710925221439191492,2053,2055,2058,2011,2065,2057,1196
869,1710925221449197962,2048,2056,2073,2068,2004,2028,1193
870,1710925221459200435,2058,2058,2053,2018,2076,2065,1196
871,1710925221469224528,2057,2058,2070,2068,2059,2040,1193
872,1710925221479203345,2059,2059,2054,2079,2072,2055,1198
873,1710925221489203314,2054,2053,2056,2090,2033,2056,1196
874,1710925221499204173,2056,2044,2032,1952,2075,2060,1197
875,1710925221509197619,2057,2064,2084,2083,2026,2048,1197
876,1710925221519196103,2057,2054,2040,1999,2050,2024,1193
877,1710925221529197965,2051,2052,2068,2083,2047,2068,1197
878,1710925221539199215,2052,2048,2037,2044,2060,2058,1198
879,1710925221549203701,2060,2057,2056,2040,2034,2075,1196
880,1710925221559211033,2052,2046,2040,2064,2077,1994,1192
881,1710925221569196202,2058,2049,2055,2063,2068,2062,1197
882,1710925221579203014,2052,2053,2049,2012,2048,2078,1196
883,1710925221589199825,2049,2049,2065,2088,2041,2064,1196
884,1710925221599205303,2054,2064,2062,2034,2057,2041,1196
885,1710925221609203257,2057,2053,2058,2018,2032,2059,1197
886,1710925221619193967,2048,2048,2033,2078,2076,2059,1196
887,1710925221629199205,2049,2058,2057,2025,2027,2058,1197
888,1710925221639197119,2056,2044,2046,2065,2060,2052,1196
889,1710925221649200122,2055,2050,2061,2090,2049,2081,1196
890,1710925221659197555,2058,2054,2044,2045,2073,2069,1196
891,1710925221669199777,2056,2053,2056,2076,2036,2047,1194
892,1710925221679203593,2053,2053,2039,2047,2068,2066,1195
893,1710925221689198781,2057,2057,2070,2106,2036,2057,1196
894,1710925221699207796,2053,2042,2053,2076,2057,2064,1194
895,1710925221709209136,2047,2041,2058,2132,2049,2044,1193
896,1710925221719198714,2056,2056,2046,2086,2079,2050,1197
897,1710925221729219101,2058,2060,2078,2036,2022,2040,1192
898,1710925221739196796,2053,2050,2037,2068,2065,2052,1194
899,1710925221749197465,2056,2052,2060,2052,2058,2048,1195
900,1710925221759196822,2049,2049,2038,1988,2074,2012,1193
901,1710925221769200737,2052,2056,2068,2085,2051,2064,1195
902,1710925221779197940,2060,2054,2050,2017,2080,2056,1196
903,1710925221789197687,2056,2061,2062,2077,2044,2056,1194
904,1710925221799202975,2052,2052,2036,2076,2072,2065,1194
905,1710925221809197232,2059,2065,2080,2056,2038,2026,1193
906,1710925221819199323,2057,2055,2049,2048,2070,2064,1195
907,1710925221829201165,2050,2053,2061,2065,2038,2061,1197
908,1710925221839200090,2056,2061,2058,2053,2083,2084,1196
909,1710925221849257718,2054,2083,2070,1945,2027,2060,1195
910,1710925221859201288,2053,2047,2040,2029,2070,2065,1194
911,1710925221869212317,2058,2052,2056,2048,2048,2088,1197
912,1710925221879199050,2050,2073,2048,2104,2073,2057,1196
913,1710925221889198977,2045,2046,2063,2054,2023,2023,1193
914,1710925221899202753,2046,2052,2041,2018,2066,2050,1196
915,1710925221909200586,2054,2056,2061,1995,2027,2047,1193
916,1710925221919206456,2058,2056,2050,2004,2078,2058,1196
917,1710925221929196484,2056,2053,2058,2044,2031,2068,1196
918,1710925221939205328,2059,2049,2041,2072,2082,2017,1192
919,1710925221949201970,2059,2060,2054,2080,2044,2067,1194
920,1710925221959199132,2055,2062,2054,2084,2065,2057,1196
921,1710925221969220030,2052,2052,2068,2069,2042,2060,1195
922,1710925221979194039,2048,2051,2032,2080,2066,2033,1192
923,1710925221989199256,2060,2059,2073,2084,2047,2049,1196
924,1710925221999195357,2057,2058,2053,2056,2062,2057,1196
925,1710925222009742599,2053,2051,2058,2027,2041,2059,1196
926,1710925222019199090,2058,2066,2062,2006,2045,2060,1195
927,1710925222029198967,2053,2044,2056,2034,2040,2057,1197
928,1710925222039221187,2054,2060,2050,2058,2081,2061,1196
929,1710925222049203521,2045,2042,2049,2000,2012,2014,1194
930,1710925222059201445,2056,2050,2049,2058,2068,2055,1196
931,1710925222069201974,2058,2053,2061,2046,2049,2060,1197
932,1710925222079215808,2056,2052,2040,2050,2077,2062,1196
933,1710925222089195578,2052,2053,2064,2077,2041,2086,1196
934,1710925222099200374,2056,2069,2059,2108,2080,2077,1197
935,1710925222109207606,2056,2053,2079,2095,2060,2078,1193
936,1710925222119221660,2054,2052,2045,2026,2068,2066,1196
937,1710925222129202522,2056,2056,2064,2035,2036,2053,1197
938,1710925222139203241,2061,2057,2052,2065,2091,2057,1197
939,1710925222149197307,2060,2056,2065,2062,2035,2055,1196
940,1710925222159206133,2054,2056,2047,2000,2070,2055,1195
941,1710925222169198015,2053,2056,2061,2054,2033,2039,1193
942,1710925222179216428,2052,2052,2038,2040,2053,2033,1192
943,1710925222189195325,2053,2046,2057,2044,2037,2050,1197
944,1710925222199206465,2049,2053,2050,2049,2064,2056,1195
945,1710925222209202214,2047,2046,2056,2029,2016,2019,1193
946,1710925222219218182,2058,2058,2050,2011,2074,2036,1192
947,1710925222229197140,2053,2049,2052,2059,2040,2053,1197
948,1710925222239200624,2069,2082,2082,2050,2079,2077,1196
949,1710925222249210642,2053,2046,2062,2072,2052,2064,1197
950,1710925222259181935,2057,2053,2042,2044,2074,2060,1197
951,1710925222269199356,2052,2044,2065,2056,2025,2045,1193
952,1710925222279202670,2058,2045,2047,2130,2078,2064,1196
953,1710925222289210513,2056,2046,2059,2060,2046,2060,1196
954,1710925222299198017,2056,2046,2044,1993,2077,2066,1198
955,1710925222309191762,2055,2056,2064,1992,2032,2073,1195
956,1710925222319192272,2049,2054,2034,2042,2060,2065,1196
957,1710925222329203490,2056,2056,2063,2068,2060,2075,1193
958,1710925222339205142,2054,2053,2045,2080,2068,2048,1197
959,1710925222349202564,2059,2057,2068,2044,2020,2056,1196
960,1710925222359198394,2050,2048,2046,1993,2052,2056,1198
961,1710925222369198653,2057,2056,2061,2074,2040,2061,1197
962,1710925222379203139,2054,2068,2066,2083,2070,2047,1193
963,1710925222389201454,2053,2057,2068,2108,2047,2047,1194
964,1710925222399188106,2060,2062,2060,2074,2070,2059,1193
965,1710925222409224704,2056,2070,2081,2009,2036,2080,1196
966,1710925222419206036,2040,2040,2020,2064,2048,2042,1193
967,1710925222429201335,2054,2054,2061,1992,2034,2049,1197
968,1710925222439212744,2056,2042,2042,2033,2057,2058,1197
969,1710925222449193996,2051,2053,2060,2042,2033,2050,1195
970,1710925222459158137,2054,2056,2057,2110,2085,2056,1195
971,1710925222469198631,2053,2043,2053,2047,2035,2064,1198
972,1710925222479209961,2060,2071,2058,2062,2084,2067,1197
973,1710925222489221350,2060,2054,2072,1985,2048,2062,1197
974,1710925222499157828,2056,2030,2032,2058,2086,2064,1195
975,1710925222509202009,2062,2052,2046,2050,2040,2052,1196
976,1710925222519198740,2047,2043,2034,1992,2069,2090,1194
977,1710925222529199550,2052,2049,2062,2045,2021,2025,1193
978,1710925222539196341,2056,2036,2031,2074,2066,2044,1194
979,1710925222549199876,2056,2064,2065,2093,2019,2056,1195
980,1710925222559202729,2054,2058,2050,2070,2078,2069,1196
981,1710925222569201505,2054,2046,2060,2052,2026,2061,1197
982,1710925222579205340,2063,2073,2072,2080,2056,2050,1197
983,1710925222589211550,2048,2042,2056,2118,2041,2072,1197
984,1710925222599168666,2057,2042,2039,2058,2073,2051,1194
985,1710925222609191276,2055,2052,2058,2084,2034,2055,1195
986,1710925222619192177,2060,2064,2046,2089,2070,2047,1192
987,1710925222629192485,2050,2053,2067,2084,2016,1986,1195
988,1710925222639197703,2054,2077,2064,2072,2083,2080,1196
989,1710925222649166341,2051,2047,2064,2033,2040,2051,1196
990,1710925222659193310,2057,2044,2039,2120,2089,2050,1197
991,1710925222669210641,2052,2044,2045,2093,2045,2052,1195
992,1710925222679198495,2058,2056,2047,2027,2083,2077,1195
993,1710925222689205637,2053,2048,2060,2121,2042,2049,1198
994,1710925222699195245,2053,2056,2045,2044,2062,2009,1194
995,1710925222709192147,2053,2060,2054,2064,2010,2064,1194
996,1710925222719160274,2058,2044,2040,2088,2096,2064,1197
997,1710925222729195960,2054,2050,2047,2036,2037,2049,1195
998,1710925222739197671,2054,2048,2038,2019,2066,2050,1198
999,1710925222749189213,2056,2049,2050,2077,2044,2055,1196
1000,1710925222759188930,2057,2067,2052,2018,2060,2077,1197
1001,1710925222769189268,2048,2076,2082,2066,2018,2050,1193
1002,1710925222779189848,2058,2052,2040,2080,2083,2058,1197
1003,1710925222789204372,2055,2054,2055,2046,2025,2055,1196
1004,1710925222799188230,2053,2065,2057,2044,2065,1999,1192
1005,1710925222809195572,2053,2061,2069,2061,2025,2047,1195
1006,1710925222819194978,2056,2054,2050,2120,2082,2058,1195
1007,1710925222829195117,2056,2059,2053,1948,2009,2046,1194
1008,1710925222839205514,2036,2030,2011,2004,2038,2012,1193
1009,1710925222849202406,2056,2052,2056,2023,2029,2049,1195
1010,1710925222859194789,2056,2049,2047,2012,2072,2057,1197
1011,1710925222869195579,2058,2053,2064,2086,2030,2013,1194
1012,1710925222879197470,2049,2047,2044,2093,2076,2076,1198
1013,1710925222889206104,2058,2081,2104,2090,2029,2057,1195
1014,1710925222899476444,2051,2044,2042,2038,2062,2041,1193
1015,1710925222909203444,2056,2054,2052,2042,2032,2052,1194
1016,1710925222919201179,2052,2044,2043,2049,2078,2049,1196
1017,1710925222929201136,2052,2047,2060,1997,2035,2029,1192
1018,1710925222939203389,2057,2077,2056,2043,2056,2055,1196
1019,1710925222949205380,2072,2062,2054,2094,2041,2023,1195
1020,1710925222959202212,2062,2068,2053,2064,2083,2041,1193
1021,1710925222969202240,2053,2059,2072,2092,2041,2057,1195
1022,1710925222979201926,2048,2044,2033,1944,2062,2057,1195
1023,1710925222989217224,2056,2089,2075,2081,2042,2052,1197
1024,1710925222999214586,2050,2034,2026,2069,2072,2052,1196
1025,1710925223009203544,2056,2045,2062,2059,2034,2041,1194
1026,1710925223019203421,2053,2053,2035,2000,2072,2077,1196
1027,1710925223029204241,2052,2050,2056,2034,2024,2032,1192
1028,1710925223039207304,2049,2041,2034,2038,2034,2041,1193
1029,1710925223049204296,2050,2049,2055,2096,2022,2046,1192
1030,1710925223059203372,2060,2058,2045,2032,2088,2060,1195
1031,1710925223069184595,2065,2068,2087,2109,2053,2070,1197
1032,1710925223079184863,2057,2057,2058,2098,2078,2056,1196
1033,1710925223089203716,2056,2052,2058,2120,2033,2056,1196
1034,1710925223099202362,2054,2056,2046,2037,2056,2050,1195
1035,1710925223109180739,2045,2043,2048,2090,2043,2063,1193
1036,1710925223119186318,2057,2046,2041,2063,2070,2079,1195
1037,1710925223129187267,2047,2058,2062,2109,2036,2082,1195
1038,1710925223139188117,2059,2054,2051,2042,2081,2054,1196
1039,1710925223149210386,2053,2049,2064,2028,2030,2073,1196
1040,1710925223159206788,2051,2017,2016,2076,2096,2069,1196
1041,1710925223169188841,2062,2061,2064,2104,2041,2041,1195
1042,1710925223179189511,2051,2044,2038,2052,2068,2049,1196
1043,1710925223189189448,2048,2047,2064,2060,2030,2052,1193
1044,1710925223199189406,2053,2049,2034,2056,2086,2069,1196
1045,1710925223209183703,2061,2062,2069,2035,2036,2058,1197
1046,1710925223219184472,2058,2057,2047,2036,2057,2047,1191
1047,1710925223229184030,2049,2045,2053,2055,2024,2096,1197
1048,1710925223239183736,2048,2074,2050,2085,2076,2080,1198
1049,1710925223249184687,2058,2049,2053,2065,2044,2058,1194
1050,1710925223259183322,2056,2037,2035,2040,2062,2049,1196
1051,1710925223269182739,2058,2053,2065,2071,2043,2015,1194
1052,1710925223279182816,2056,2060,2041,2082,2080,2052,1194
1053,1710925223289192673,2047,2049,2053,2029,2017,2046,1192
1054,1710925223299189445,2054,2052,2042,2035,2063,2036,1193
1055,1710925223309180806,2064,2066,2064,2025,2045,2116,1194
1056,1710925223319186645,2056,2056,2045,2061,2068,2040,1193
1057,1710925223329184919,2056,2054,2073,2063,2031,2064,1196
1058,1710925223339191580,2053,2087,2060,2043,2057,2046,1193
1059,1710925223349191478,2056,2059,2078,2001,2026,2056,1196
1060,1710925223359188561,2056,2061,2049,2060,2068,2054,1197
1061,1710925223369184520,2053,2055,2074,1995,2017,2053,1196
1062,1710925223379187074,2056,2052,2045,2088,2085,2052,1197
1063,1710925223389193653,2045,2041,2046,2110,2025,2069,1197
1064,1710925223399181449,2044,2040,2022,2076,2061,2052,1196
1065,1710925223409189251,2053,2050,2060,2041,2038,2049,1198
1066,1710925223419186864,2050,2051,2043,2031,2068,2062,1197
1067,1710925223429189657,2058,2062,2076,2016,2057,2064,1197
1068,1710925223439190286,2053,2058,2052,2025,2059,2047,1192
1069,1710925223449189272,2057,2056,2062,2047,2035,2068,1197
1070,1710925223459191514,2048,2035,2037,2052,2047,2047,1194
1071,1710925223469188747,2060,2061,2071,2056,2037,2050,1195
1072,1710925223479189566,2051,2048,2037,1990,2052,2064,1195
1073,1710925223489198832,2056,2063,2077,2042,2047,2043,1194
1074,1710925223499190594,2053,2033,2026,1958,2052,2085,1197
1075,1710925223509193287,2052,2040,2048,2029,2043,2064,1194
1076,1710925223519187734,2046,2034,2028,2008,2057,2056,1197
1077,1710925223529190397,2058,2057,2057,1980,2034,2058,1195
1078,1710925223539188431,2052,2050,2045,2088,2081,2028,1192
1079,1710925223549191906,2057,2056,2068,2002,2014,2051,1195
1080,1710925223559188017,2053,2032,2029,2043,2070,2048,1196
1081,1710925223569190148,2056,2059,2050,2027,2021,2040,1193
1082,1710925223579190567,2051,2050,2035,2037,2064,2062,1196
1083,1710925223589195043,2056,2056,2053,2096,2042,2078,1195
1084,1710925223599186455,2052,2064,2042,2032,2061,2056,1194
1085,1710925223609177235,2056,2062,2081,2049,1994,2045,1194
1086,1710925223619160923,2052,2054,2052,2065,2073,2054,1195
1087,1710925223629188703,2050,2046,2046,2021,2008,1978,1193
1088,1710925223639190264,2052,2049,2045,2082,2047,2041,1195
1089,1710925223649200431,2055,2061,2068,2045,2018,2048,1196
1090,1710925223659192283,2047,2058,2022,2017,2076,2042,1192
1091,1710925223669193153,2046,2043,2046,2047,2024,2047,1194
1092,1710925223679185746,2060,2056,2040,2052,2077,2056,1195
1093,1710925223689193539,2057,2044,2051,2121,2049,2060,1196
1094,1710925223699192935,2058,2031,2040,2118,2075,2044,1194
1095,1710925223709192082,2058,2040,2044,2028,2041,2074,1194
1096,1710925223719191148,2052,2046,2044,2056,2063,2024,1191
1097,1710925223729176368,2056,2055,2046,2081,2036,2076,1195
1098,1710925223739197716,2056,2062,2058,2063,2060,2052,1195
1099,1710925223749133122,2056,2051,2061,2064,2044,2058,1198
1100,1710925223759194396,2056,2064,2049,2078,2084,2060,1196
1101,1710925223769192520,2060,2077,2090,2043,2037,2060,1196
1102,1710925223779191496,2056,2053,2048,2097,2092,2059,1194
1103,1710925223789191513,2051,2052,2060,2072,2029,2058,1196
1104,1710925223799186923,2059,2052,2071,2034,2062,2026,1192
1105,1710925223809188794,2054,2029,2051,2069,2040,2057,1197
1106,1710925223819190105,2056,2056,2053,2083,2061,2052,1198
1107,1710925223829188159,2050,2060,2067,2074,2022,2046,1195
1108,1710925223839249243,2054,2047,2043,2117,2064,2046,1192
1109,1710925223849194667,2050,2053,2062,2047,2016,2042,1195
1110,1710925223859198853,2065,2064,2052,2079,2100,2054,1195
1111,1710925223869189914,2056,2054,2061,2078,2034,2076,1197
1112,1710925223879190182,2053,2035,2040,2068,2075,2044,1192
1113,1710925223889192294,2050,2052,2058,2016,2026,2058,1195
1114,1710925223899147847,2052,2045,2039,2020,2059,2077,1198
1115,1710925223909252333,2053,2051,2062,2058,2038,2058,1194
1116,1710925223919195553,2056,2048,2065,2060,2060,2041,1193
1117,1710925223929201583,2056,2045,2049,2047,2005,2047,1193
1118,1710925223939201039,2053,2045,2036,2026,2060,2044,1193
1119,1710925223949205436,2062,2072,2082,2047,2045,2072,1197
1120,1710925223959211956,2057,2053,2042,2049,2081,2058,1195
1121,1710925223969205853,2052,2044,2065,2001,2040,2060,1197
1122,1710925223979198376,2064,2059,2050,2040,2082,2016,1195
1123,1710925223989204315,2056,2058,2065,1995,2008,2053,1195
1124,1710925223999193893,2049,2062,2050,2052,2067,2064,1195
1125,1710925224009143827,2052,2065,2062,2035,2029,2061,1197
1126,1710925224019183950,2048,2041,2038,2047,2072,2050,1196
1127,1710925224029195650,2058,2058,2061,2074,2047,2056,1193
1128,1710925224039188174,2056,2054,2050,2012,2048,2050,1196
1129,1710925224049206997,2052,2053,2056,2053,2044,2052,1195
1130,1710925224059191406,2056,2049,2045,2100,2058,2049,1195
1131,1710925224069199509,2051,2045,2043,2036,2042,2051,1198
1132,1710925224079108285,2058,2060,2031,2092,2090,2058,1195
1133,1710925224089189886,2059,2069,2085,2048,2033,2060,1196
1134,1710925224099195826,2051,2043,2021,1898,2052,2057,1197
1135,1710925224109190483,2053,2050,2056,2071,2043,2060,1194
1136,1710925224119189009,2050,2053,2049,2060,2061,2050,1196
1137,1710925224129190880,2056,2060,2076,2081,2035,2058,1199
1138,1710925224139189105,2052,2047,2047,2047,2064,2043,1192
1139,1710925224149129580,2051,2054,2065,2124,2043,2030,1195
1140,1710925224159191876,2058,2056,2042,2105,2077,2053,1197
1141,1710925224169146828,2061,2061,2067,2100,2031,2064,1196
1142,1710925224179190960,2061,2053,2050,2012,2072,2056,1196
1143,1710925224189134731,2058,2060,2069,2086,2047,2085,1199
1144,1710925224199197929,2061,2058,2044,2065,2060,2058,1197
1145,1710925224209188068,2057,2060,2073,2035,2020,2049,1198
1146,1710925224219183959,2053,2063,2066,2076,2084,2050,1194
1147,1710925224229184297,2056,2061,2064,2104,2049,2040,1196
1148,1710925224239184805,2050,2040,2036,2061,2066,2048,1198
1149,1710925224249189452,2049,2039,2053,2026,2037,2050,1196
1150,1710925224259197405,2060,2084,2048,1988,2080,2072,1196
1151,1710925224269187334,2054,2044,2042,2095,2034,2037,1192
1152,1710925224279187652,2051,2043,2041,2045,2088,2042,1193
1153,1710925224289187971,2052,2058,2074,2053,2041,2074,1193
1154,1710925224299192437,2053,2055,2044,2053,2060,2013,1193
1155,1710925224309182296,2058,2053,2060,2022,2048,2073,1195
1156,1710925224319179829,2046,2034,2037,2036,2049,2037,1194
1157,1710925224329192872,2062,2084,2092,2078,2066,2069,1196
1158,1710925224339187729,2057,2062,2057,2103,2084,2085,1195
1159,1710925224349189431,2051,2044,2034,2057,2042,2064,1196
1160,1710925224359187705,2056,2052,2044,2024,2075,2069,1195
1161,1710925224369194897,2053,2053,2053,2060,2030,2050,1193
1162,1710925224379198562,2056,2033,2036,2046,2067,2058,1197
1163,1710925224389191917,2056,2045,2075,2117,2029,2059,1197
1164,1710925224399195271,2052,2056,2064,2065,2073,2047,1193
1165,1710925224409190090,2053,2040,2057,2107,2061,2060,1197
1166,1710925224419195798,2049,2068,2065,2058,2068,2038,1193
1167,1710925224429197609,2065,2061,2074,2064,2040,2016,1193
1168,1710925224439204079,2055,2077,2058,2031,2052,2050,1194
1169,1710925224449196854,2067,2065,2077,2081,2047,2058,1195
1170,1710925224459205799,2044,2044,2045,2010,2049,2000,1195
1171,1710925224469201849,2058,2059,2069,2086,2057,2060,1196
1172,1710925224479197098,2053,2041,2033,2033,2067,2049,1196
1173,1710925224489198509,2064,2050,2036,1991,2028,2050,1196
1174,1710925224499210188,2053,2049,2041,2036,2072,2053,1193
1175,1710925224509191430,2056,2068,2064,2043,2026,2045,1187
1176,1710925224519207750,2056,2052,2051,2094,2072,2069,1193
1177,1710925224529198870,2048,2029,2044,2066,2029,2053,1195
1178,1710925224539200792,2066,2064,2057,2053,2081,2063,1196
1179,1710925224549155123,2050,2047,2060,2046,2029,2047,1192
1180,1710925224559188104,2056,2065,2062,2084,2079,2054,1195
1181,1710925224569202018,2052,2046,2058,2096,2028,2035,1193
1182,1710925224579203719,2056,2054,2052,2032,2068,2060,1196
1183,1710925224589204839,2050,2072,2064,1993,2028,2053,1197
1184,1710925224599137350,2062,2056,2053,2099,2083,2052,1196
1185,1710925224609190117,2056,2060,2083,2075,2044,2094,1197
1186,1710925224619214722,2050,2059,2046,2006,2047,2043,1192
1187,1710925224629215681,2054,2049,2056,2085,2033,2017,1196
1188,1710925224639202434,2053,2051,2032,2106,2084,2057,1197
1189,1710925224649215757,2056,2050,2058,2012,2029,2049,1196
1190,1710925224659184747,2053,2043,2040,2056,2072,2041,1194
1191,1710925224669204722,2052,2056,2040,2075,2041,2064,1197
1192,1710925224679188971,2052,2064,2044,2040,2034,2001,1194
1193,1710925224689189990,2052,2050,2071,2066,2007,2040,1192
1194,1710925224699247086,2050,2045,2037,2073,2068,2051,1196
1195,1710925224709179656,2052,2058,2061,1968,2037,2056,1192
1196,1710925224719186727,2050,2045,2040,2063,2056,2037,1193
1197,1710925224729181806,2055,2045,2053,2047,2035,2049,1195
1198,1710925224739182174,2063,2064,2042,2026,2083,2101,1193
1199,1710925224749199525,2060,2059,2068,2005,2028,2093,1197
1200,1710925224759196267,2052,2056,2046,2054,2062,2028,1194
1201,1710925224769197267,2053,2048,2072,2065,2050,2025,1193
1202,1710925224779191413,2053,2024,2042,2054,2073,2046,1194
1203,1710925224789195409,2058,2052,2054,2116,2052,2049,1193
1204,1710925224799211086,2061,2053,2035,2072,2073,2060,1196
1205,1710925224809203801,2056,2049,2060,2080,2040,2059,1197
1206,1710925224819186736,2057,2060,2046,2033,2085,2064,1193
1207,1710925224829190211,2049,2070,2075,2030,2025,2055,1196
1208,1710925224839213012,2053,2040,2035,1990,2065,2052,1195
1209,1710925224849202991,2054,2048,2057,2024,2033,2052,1196
1210,1710925224859201976,2054,2057,2066,2115,2056,2050,1196
1211,1710925224869194060,2056,2049,2056,2060,2031,2047,1194
1212,1710925224879190721,2056,2041,2037,2055,2083,2048,1197
1213,1710925224889211589,2057,2057,2060,2046,2046,2061,1197
1214,1710925224899247655,2054,2066,2056,2069,2082,2060,1197
1215,1710925224909203208,2046,2040,2044,2048,2040,2049,1193
1216,1710925224919186284,2052,2049,2047,2062,2068,2062,1196
1217,1710925224929181824,2054,2056,2059,2069,2037,2068,1194
1218,1710925224939184767,2053,2052,2045,2080,2064,2068,1195
1219,1710925224949206677,2053,2044,2052,2016,2017,2047,1194
1220,1710925224959191235,2062,2050,2048,2056,2084,2056,1196
1221,1710925224969194049,2061,2052,2057,2004,2032,2054,1195
1222,1710925224979191562,2056,2058,2061,2084,2068,2039,1193
1223,1710925224989192011,2050,2047,2064,2068,2039,2052,1195
1224,1710925224999202188,2047,2046,2036,2004,2038,2037,1191
1225,1710925225009193949,2056,2056,2068,2029,2040,2061,1196
1226,1710925225019197655,2049,2054,2052,2069,2064,2053,1194
1227,1710925225029193524,2052,2057,2075,2044,2035,2049,1196
1228,1710925225039192551,2057,2052,2050,2090,2072,2042,1193
1229,1710925225049188631,2049,2064,2066,2035,2034,2048,1193
1230,1710925225059193248,2056,2056,2054,2039,2060,2037,1193
1231,1710925225069202753,2053,2056,2067,2119,2024,2040,1193
1232,1710925225079190769,2047,2038,2039,2059,2049,2040,1192
1233,1710925225089190967,2044,2030,2040,2070,2045,2059,1195
1234,1710925225099194041,2057,2049,2043,2066,2081,2058,1197
1235,1710925225109181826,2056,2046,2043,2063,2024,2041,1191
1236,1710925225119208114,2057,2056,2054,2018,2060,2082,1195
1237,1710925225129181340,2055,2070,2068,2047,2045,2116,1197
1238,1710925225139191228,2046,2048,2052,2035,2056,2052,1195
1239,1710925225149189472,2056,2054,2058,2024,2052,2061,1195
1240,1710925225159191814,2049,2051,2049,2030,2058,1990,1192
1241,1710925225169201681,2054,2073,2088,2101,2051,2064,1195
1242,1710925225179198824,2056,2050,2040,2021,2063,2048,1193
1243,1710925225189189815,2057,2059,2071,2085,2039,2074,1196
1244,1710925225199198980,2061,2075,2076,2099,2060,2048,1195
1245,1710925225209176425,2052,2047,2056,2025,2032,2070,1195
1246,1710925225219196100,2056,2052,2050,2030,2037,2044,1193
1247,1710925225229202350,2047,2042,2050,2058,2028,2044,1194
1248,1710925225239187580,2052,2037,2052,2102,2070,2053,1193
1249,1710925225249188610,2066,2056,2087,2032,2033,2060,1196
1250,1710925225259189549,2056,2052,2046,2130,2100,2057,1195
1251,1710925225269197272,2054,2061,2056,2043,2037,2044,1193
1252,1710925225279201738,2056,2048,2035,2031,2034,2033,1193
1253,1710925225289192188,2056,2056,2067,2072,2052,2044,1193
1254,1710925225299191044,2058,2053,2045,2060,2065,2049,1195
1255,1710925225309189689,2060,2075,2084,2084,2037,2012,1190
1256,1710925225319199946,2062,2078,2102,2090,2072,2068,1195
1257,1710925225329191458,2060,2070,2072,2102,2044,2064,1194
1258,1710925225339191186,2056,2056,2041,2054,2092,2058,1196
1259,1710925225349187056,2045,2041,2042,1988,2018,2047,1194
1260,1710925225359187024,2052,2053,2051,2069,2091,2052,1196
1261,1710925225369199826,2054,2049,2057,2061,2056,2056,1195
1262,1710925225379203631,2062,2058,2054,2050,2065,2052,1196
1263,1710925225389193259,2061,2058,2053,2070,2058,2064,1196
1264,1710925225399187997,2050,2047,2055,2053,2065,2077,1198
1265,1710925225409216820,2058,2049,2053,2013,2049,2075,1194
1266,1710925225419197000,2047,2041,2036,2061,2068,2052,1195
1267,1710925225429214772,2046,2042,2054,2056,2061,2073,1196
1268,1710925225439191596,2053,2056,2049,2096,2074,2086,1196
1269,1710925225449192485,2057,2053,2065,2111,2053,2060,1195
1270,1710925225459193214,2060,2070,2053,2060,2064,2055,1196
1271,1710925225469192311,2050,2060,2065,2086,2045,2048,1195
1272,1710925225479195424,2059,2052,2039,2040,2063,2050,1196
1273,1710925225489192216,2057,2064,2079,2058,1989,2034,1193
1274,1710925225499193366,2068,2062,2072,2049,2082,2024,1194
1275,1710925225509190499,2056,2066,2068,2091,2044,2064,1195
1276,1710925225519280577,2061,2057,2054,2045,2072,2044,1195
1277,1710925225529190384,2052,2058,2054,2011,2020,2044,1195
1278,1710925225539196023,2053,2034,2042,2032,2061,2052,1195
1279,1710925225549191222,2056,2050,2064,2081,2051,2004,1191
1280,1710925225559186050,2052,2053,2052,2057,2072,2074,1194
1281,1710925225569163235,2055,2057,2062,2075,2012,2052,1193
1282,1710925225579227153,2052,2049,2033,2056,2053,2049,1196
1283,1710925225589190392,2060,2061,2062,2132,2055,2056,1196
1284,1710925225599188656,2057,2062,2065,2061,2067,2050,1195
1285,1710925225609188614,2055,2056,2046,2074,2052,2061,1193
1286,1710925225619207177,2047,2045,2048,2065,2052,2057,1196
1287,1710925225629210361,2057,2055,2062,2089,2041,2030,1194
1288,1710925225639187265,2060,2054,2047,2074,2064,2042,1193
1289,1710925225649193044,2052,2041,2053,2045,2023,2040,1196
1290,1710925225659188183,2056,2060,2049,2033,2052,2085,1196
1291,1710925225669190796,2056,2072,2066,2120,2032,2022,1194
1292,1710925225679217464,2052,2043,2031,2088,2068,2045,1195
1293,1710925225689205359,2061,2058,2066,2039,2036,2056,1195
1294,1710925225699191531,2056,2054,2047,2057,2067,2063,1196
1295,1710925225709194535,2056,2052,2060,2033,2024,2077,1192
1296,1710925225719227485,2051,2058,2041,2022,2062,2048,1197
1297,1710925225729224046,2056,2065,2066,2204,2054,2056,1194
1298,1710925225739201682,2047,2070,2056,2065,2042,2040,1194
1299,1710925225749200868,2052,2056,2055,2043,2042,2033,1193
1300,1710925225759192510,2050,2043,2040,2054,2058,2045,1194
1301,1710925225769207907,2060,2072,2076,2090,2046,2054,1196
1302,1710925225779212454,2049,2044,2044,2003,2063,2052,1194
1303,1710925225789181032,2053,2042,2043,1959,2030,2049,1194
1304,1710925225799183415,2056,2062,2061,2049,2054,2049,1196
1305,1710925225809204272,2051,2056,2074,2040,2041,2058,1196
1306,1710925225819213107,2052,2047,2040,2056,2059,2048,1195
1307,1710925225829230698,2057,2056,2068,2019,2034,2067,1195
1308,1710925225839195990,2047,2044,2040,2052,2065,2029,1192
1309,1710925225850221388,2053,2060,2083,2098,2056,2050,1193
1310,1710925225859216986,2056,2053,2047,2082,2085,2073,1194
1311,1710925225869199050,2056,2068,2092,2067,2051,2084,1195
1312,1710925225879208676,2053,2054,2032,2009,2038,2040,1193
1313,1710925225889202292,2053,2055,2070,2128,2052,2068,1197
1314,1710925225899203472,2053,2049,2068,2063,2066,2063,1196
1315,1710925225909196326,2057,2050,2064,2052,2041,2061,1195
1316,1710925225919201614,2058,2060,2056,2046,2056,2076,1195
1317,1710925225929188387,2051,2061,2056,1957,2033,2049,1194
1318,1710925225939161795,2061,2057,2060,2083,2102,2059,1195
1319,1710925225949196097,2046,2054,2059,2123,2054,2051,1195
1320,1710925225959191196,2052,2056,2053,2061,2068,2053,1196
1321,1710925225969197416,2056,2051,2048,2076,2021,2002,1194
1322,1710925225979201481,2058,2058,2043,2092,2080,2054,1195
1323,1710925225989199646,2047,2045,2049,2027,2029,2068,1195
1324,1710925225999187410,2054,2056,2058,2041,2064,2052,1195
1325,1710925226009195213,2056,2044,2051,2008,2034,2058,1197
1326,1710925226019200341,2056,2092,2089,2002,2035,2049,1193
1327,1710925226029202593,2052,2053,2056,2058,2037,2056,1197
1328,1710925226039204735,2061,2068,2069,2046,2060,2057,1194
1329,1710925226049196207,2056,2061,2079,2033,2028,2052,1194
1330,1710925226059199300,2050,2045,2048,2088,2076,2032,1192
1331,1710925226069201212,2052,2052,2064,2044,2036,2054,1195
1332,1710925226079199116,2056,2063,2062,2067,2068,2044,1192
1333,1710925226089199846,2050,2015,2048,2076,2038,2049,1196
1334,1710925226099197619,2065,2060,2069,2009,2061,2052,1194
1335,1710925226109200042,2061,2062,2064,2017,2017,2065,1194
1336,1710925226119198556,2052,2047,2041,2032,2080,2056,1194
1337,1710925226129216429,2048,2048,2052,2040,2019,2069,1194
1338,1710925226139197681,2057,2056,2063,2092,2061,2058,1195
1339,1710925226149212146,2060,2061,2055,2017,2041,2056,1196
1340,1710925226159200602,2058,2056,2040,2060,2060,2039,1193
1341,1710925226169199789,2056,2044,2055,2094,2026,2045,1194
1342,1710925226179197692,2058,2072,2039,2069,2080,2063,1195
1343,1710925226189209012,2064,2053,2065,2094,2035,2063,1196
1344,1710925226199191638,2047,2041,2038,2050,2013,2052,1195
1345,1710925226209198979,2054,2062,2072,1997,2017,2033,1193
1346,1710925226219201783,2061,2056,2045,2012,2066,2058,1195
1347,1710925226229201239,2056,2049,2052,1997,2029,2045,1196
1348,1710925226239207149,2054,2058,2063,2040,2035,2035,1193
1349,1710925226249199902,2052,2053,2056,1987,2046,2001,1193
1350,1710925226259209860,2046,2046,2049,2112,2038,2029,1194
1351,1710925226269203625,2061,2062,2069,2098,2047,2066,1195
1352,1710925226279198243,2052,2053,2041,2106,2085,2049,1195
1353,1710925226289198201,2053,2055,2056,2082,2060,2054,1196
1354,1710925226299209901,2058,2064,2047,2005,2057,2053,1196
1355,1710925226309192155,2053,2048,2065,2072,2053,2047,1192
1356,1710925226319189919,2050,2080,2068,2078,2052,2033,1192
1357,1710925226329192451,2047,2041,2045,2074,2028,2047,1192
1358,1710925226339202258,2050,2052,2062,2083,2068,2098,1195
1359,1710925226349197717,2052,2052,2054,2135,2056,2070,1194
1360,1710925226359211893,2050,2049,2052,2043,2037,2024,1194
1361,1710925226369204557,2053,2048,2072,2075,2056,2062,1196
1362,1710925226379198132,2053,2036,2042,2072,2064,2046,1194
1363,1710925226389245229,2066,2043,2038,2069,2053,2064,1197
1364,1710925226399199060,2053,2053,2050,2050,2061,2061,1198
1365,1710925226409201422,2056,2041,2053,2130,2062,2092,1197
1366,1710925226419191010,2051,2050,2063,2074,2065,2056,1197
1367,1710925226429190878,2050,2050,2053,2056,2033,2045,1194
1368,1710925226439194192,2044,2049,2042,2012,2035,2039,1193
1369,1710925226449201154,2050,2049,2050,2066,2047,2050,1195
1370,1710925226459192365,2054,2058,2037,2026,2068,2062,1194
1371,1710925226469192123,2056,2054,2053,2069,2046,2067,1196
1372,1710925226479192992,2056,2056,2040,2031,2074,2052,1197
1373,1710925226489162993,2060,2053,2062,2041,2056,2063,1195
1374,1710925226499193508,2060,2064,2062,1985,2071,2064,1196
1375,1710925226509189660,2051,2057,2057,2043,2030,2042,1193
1376,1710925226519192593,2058,2056,2054,2081,2080,2049,1196
1377,1710925226529192451,2051,2034,2040,2122,2052,2052,1195
1378,1710925226539204010,2061,2068,2061,2032,2042,2036,1191
1379,1710925226549205381,2052,2052,2057,2053,2042,2082,1195
1380,1710925226559202333,2054,2049,2048,2043,2072,2056,1197
1381,1710925226569195107,2047,2050,2058,2023,2037,2037,1193
1382,1710925226579202449,2050,2056,2047,2013,2077,2044,1192
1383,1710925226589250418,2044,2040,2050,2048,2044,2053,1196
1384,1710925226599200100,2056,2042,2039,1992,2064,2052,1196
1385,1710925226609197484,2062,2065,2064,2066,2055,2065,1197
1386,1710925226619198324,2056,2048,2056,2088,2097,2068,1195
1387,1710925226629197730,2051,2045,2057,2045,2036,2062,1197
1388,1710925226639196255,2058,2060,2061,2032,2052,2065,1193
1389,1710925226649177297,2058,2065,2069,2012,2038,2061,1195
1390,1710925226659203605,2056,2052,2055,2050,2067,2049,1198
1391,1710925226669198333,2056,2044,2051,2056,2062,2083,1197
1392,1710925226679161872,2053,2030,2026,2064,2074,2060,1194
1393,1710925226689263001,2053,2053,2072,2092,2047,2059,1196
1394,1710925226699231530,2058,2057,2044,2104,2064,2072,1195
1395,1710925226709196391,2050,2046,2044,2063,2037,2059,1195
1396,1710925226719200587,2056,2052,2043,2056,2073,2058,1195
1397,1710925226729182210,2054,2055,2052,2080,2044,2038,1193
1398,1710925226739182138,2054,2051,2053,2057,2063,2044,1196
1399,1710925226749204087,2053,2056,2064,1970,2034,2050,1196
1400,1710925226759199366,2055,2056,2049,1961,2053,2052,1194
1401,1710925226769202239,2056,2054,2053,2080,2040,2060,1198
1402,1710925226779214561,2051,2044,2041,2052,2071,2061,1197
1403,1710925226789180464,2056,2040,2042,2048,2062,2061,1196
1404,1710925226799199388,2049,2036,2033,2042,2068,2062,1198
1405,1710925226809181081,2057,2064,2059,2082,2064,2064,1197
1406,1710925226819186760,2056,2057,2052,2039,2046,2045,1194
1407,1710925226829186708,2053,2051,2051,2116,2042,2058,1198
1408,1710925226839186445,2052,2053,2065,2088,2080,2058,1195
1409,1710925226849194088,2057,2059,2070,1963,2000,2033,1193
1410,1710925226859205307,2058,2049,2041,2052,2069,2004,1193
1411,1710925226869188303,2053,2051,2052,2030,2057,2061,1197
1412,1710925226879213538,2054,2050,2045,2008,2062,2049,1194
1413,1710925226889206984,2054,2050,2053,2073,2044,2058,1196
1414,1710925226899210728,2053,2052,2053,2020,2052,2063,1195
1415,1710925226909204826,2056,2057,2052,2000,2022,2042,1192
1416,1710925226919189103,2053,2052,2048,2057,2064,2049,1194
1417,1710925226929189553,2058,2075,2085,2029,2019,2056,1196
1418,1710925226939188428,2057,2053,2050,2077,2073,2035,1193
1419,1710925226949190661,2057,2056,2061,2101,2061,2062,1197
1420,1710925226959189967,2046,2044,2030,2033,2056,2057,1196
1421,1710925226969210524,2053,2048,2056,2063,2042,2071,1197
1422,1710925226979232864,2053,2054,2047,2045,2085,2083,1197
1423,1710925226989187126,2052,2051,2055,2088,2058,2072,1194
1424,1710925226999213172,2052,2047,2036,2053,2059,2053,1196
1425,1710925227009191890,2046,2031,2040,2057,2046,2046,1194
1426,1710925227019213480,2060,2053,2053,2042,2060,2052,1196
1427,1710925227029190143,2056,2050,2051,2042,2064,2037,1193
1428,1710925227039189911,2047,2034,2030,2010,2050,2037,1193
1429,1710925227049192884,2055,2054,2054,2043,2036,2052,1196
1430,1710925227059189195,2051,2050,2045,2075,2053,2040,1192
1431,1710925227069216194,2053,2093,2080,2049,2052,2056,1197
1432,1710925227079196505,2053,2052,2045,2096,2068,2025,1193
1433,1710925227089194949,2056,2053,2060,2090,2056,2057,1196
1434,1710925227099188646,2053,2053,2050,2048,2073,2053,1197
1435,1710925227109197841,2054,2049,2050,2060,2026,2053,1194
1436,1710925227119196497,2061,2057,2074,2046,2045,2076,1196
1437,1710925227129199851,2053,2054,2054,2081,2050,2049,1196
1438,1710925227139184740,2053,2069,2065,2096,2037,2051,1196
1439,1710925227149188406,2065,2058,2063,2073,2035,2091,1196
1440,1710925227159188784,2052,2046,2040,2030,2064,2046,1193
1441,1710925227169194222,2062,2062,2060,2045,2057,2060,1196
1442,1710925227179194260,2056,2056,2057,2132,2065,2043,1193
1443,1710925227189189700,2054,2023,2045,2129,2065,2066,1196
1444,1710925227199190148,2056,2072,2057,2026,2066,2056,1197
1445,1710925227209193352,2051,2060,2074,2064,2052,2060,1198
1446,1710925227219195324,2054,2040,2045,1996,2030,2044,1192
1447,1710925227229189651,2048,2045,2040,2050,2045,2049,1196
1448,1710925227239193106,2058,2053,2037,2051,2066,2057,1196
1449,1710925227249185399,2049,2045,2049,2068,2051,2057,1198
1450,1710925227259188724,2056,2058,2049,2052,2056,2064,1197
1451,1710925227269185515,2056,2056,2050,2053,2023,2040,1192
1452,1710925227279194380,2055,2048,2053,2052,2047,2046,1193
1453,1710925227289181664,2049,2061,2060,1989,2039,2052,1195
1454,1710925227299164830,2049,2060,2075,2131,2085,2073,1195
1455,1710925227309190356,2056,2049,2057,2085,2047,2058,1195
1456,1710925227319161860,2056,2063,2053,2054,2044,2051,1196
1457,1710925227329190523,2055,2045,2060,2114,2030,2043,1194
1458,1710925227339114647,2057,2056,2067,2033,2082,2059,1196
1459,1710925227349201139,2059,2072,2056,2068,2057,2061,1196
1460,1710925227359187170,2052,2044,2034,2062,2068,2059,1198
1461,1710925227369191376,2056,2053,2048,2046,2053,2055,1198
1462,1710925227379197185,2063,2053,2046,2072,2066,2040,1192
1463,1710925227389188567,2057,2049,2051,1938,2051,2045,1192
1464,1710925227399191420,2045,2042,2034,2030,2050,2045,1192
1465,1710925227409188763,2056,2065,2057,2135,2046,2050,1197
1466,1710925227419197667,2053,2054,2070,2039,2057,2052,1196
1467,1710925227429189470,2056,2049,2050,2008,2028,2056,1197
1468,1710925227439203825,2057,2060,2068,2064,2057,2061,1194
1469,1710925227449192402,2052,2068,2069,2096,2050,2053,1198
1470,1710925227459188362,2058,2052,2046,2023,2070,2056,1196
1471,1710925227469183330,2055,2052,2072,2108,2058,2015,1194
1472,1710925227479179692,2054,2056,2056,2013,2058,2045,1195
1473,1710925227489200789,2041,2042,2046,2084,2032,2043,1194
1474,1710925227499196249,2057,2056,2056,2073,2046,2057,1198
1475,1710925227509186438,2060,2057,2061,2084,2051,2059,1194
1476,1710925227519189893,2052,2056,2062,2064,2061,2060,1195
1477,1710925227529182516,2060,2044,2050,2018,2044,2076,1195
1478,1710925227539194277,2056,2056,2060,2033,2061,2044,1193
1479,1710925227549187772,2058,2054,2053,2069,2017,2047,1191
1480,1710925227559182550,2059,2061,2071,2080,2061,2058,1195
1481,1710925227569182999,2061,2062,2070,2089,2045,2062,1197
1482,1710925227579192435,2060,2064,2053,2039,2060,2081,1194
1483,1710925227589189177,2068,2066,2060,1960,2078,2064,1196
1484,1710925227599183043,2056,2060,2035,1993,2088,2098,1197
1485,1710925227609184464,2057,2051,2054,2027,2050,2076,1196
1486,1710925227619182658,2057,2056,2049,2090,2065,2032,1191
1487,1710925227629188077,2064,2064,2074,2120,2035,1996,1192
1488,1710925227639197402,2058,2057,2052,2064,2063,2062,1196
1489,1710925227649193272,2055,2051,2047,2071,2073,2062,1195
1490,1710925227659187279,2053,2069,2056,2084,2059,2044,1192
1491,1710925227669188509,2045,2021,2036,2028,2029,2051,1198
1492,1710925227679161457,2061,2065,2061,2046,2080,2061,1197
1493,1710925227689210166,2054,2054,2056,2004,2049,2055,1196
1494,1710925227699191078,2065,2064,2061,2056,2074,2038,1193
1495,1710925227709182810,2062,2056,2073,2097,2068,2060,1196
1496,1710925227719189121,2049,2044,2041,2018,2022,2024,1194
1497,1710925227729195540,2048,2060,2049,2058,2024,2053,1194
1498,1710925227739154341,2046,2046,2058,2080,2061,2038,1192
1499,1710925227749193533,2051,2052,2051,2053,2044,2036,1193
1500,1710925227759189854,2062,2059,2064,2081,2076,2061,1195
1501,1710925227769191735,2047,2046,2037,2056,2016,1946,1192
1502,1710925227779206551,2050,2041,2043,2078,2073,2055,1196
1503,1710925227789190549,2053,2057,2067,2112,2029,2045,1194
1504,1710925227799190126,2052,2045,2053,2078,2068,2057,1196
1505,1710925227809186788,2072,2072,2079,2086,2072,2077,1196
1506,1710925227819188068,2050,2047,2051,2056,2060,2040,1193
1507,1710925227829204798,2053,2061,2052,2014,2059,2064,1196
1508,1710925227839190729,2063,2047,2061,2104,2081,2051,1196
1509,1710925227849199263,2050,2051,2046,2059,2063,2056,1195
1510,1710925227859150749,2050,2061,2059,2034,2041,2052,1197
1511,1710925227869191103,2058,2074,2084,2032,2064,2069,1198
1512,1710925227879191222,2051,2032,2042,1998,2056,2057,1197
1513,1710925227889199906,2065,2060,2060,2066,2046,2010,1194
1514,1710925227899200275,2050,2049,2040,2047,2047,2037,1193
1515,1710925227909192478,2054,2082,2084,2173,2062,2056,1194
1516,1710925227919132933,2049,2041,2034,2123,2050,2047,1195
1517,1710925227929196882,2056,2056,2042,2038,2041,2048,1197
1518,1710925227939191470,2059,2058,2060,2045,2070,2058,1195
1519,1710925227949196337,2053,2054,2060,2082,2042,2060,1195
1520,1710925227959145369,2050,2051,2049,1992,2024,2008,1192
1521,1710925227969165154,2052,2043,2035,2056,2046,2053,1197
1522,1710925227979189648,2048,2041,2045,2077,2050,2044,1196
1523,1710925227989159670,2047,2043,2048,2061,2046,2055,1197
1524,1710925227999147184,2061,2064,2058,2016,2061,2052,1196
1525,1710925228009196966,2054,2050,2041,2059,2058,2056,1197
1526,1710925228019186714,2052,2047,2038,2096,2061,2050,1197
1527,1710925228029190620,2049,2060,2054,2145,2046,2060,1197
1528,1710925228039186860,2053,2056,2054,1976,2049,2050,1197
1529,1710925228049193892,2053,2061,2062,2036,2034,2052,1195
1530,1710925228059186476,2045,2024,2035,2069,2055,2049,1196
1531,1710925228069186524,2059,2030,2033,2078,2070,2075,1196
1532,1710925228079190119,2060,2053,2061,2061,2068,2062,1196
1533,1710925228089208922,2053,2053,2065,1941,2036,2052,1197
1534,1710925228099200605,2056,2047,2042,2046,2044,2053,1193
1535,1710925228109212805,2058,2056,2058,2053,2056,2069,1192
1536,1710925228119192505,2049,2028,2035,1960,2026,2056,1196
1537,1710925228129200368,2065,2064,2058,2077,2060,2037,1192
1538,1710925228139203131,2057,2056,2063,2047,2056,2072,1197
1539,1710925228149182039,2056,2073,2076,2090,2057,2050,1197
1540,1710925228159209579,2057,2057,2058,2063,2056,2050,1197
1541,1710925228169196273,2052,2056,2048,2035,2045,2042,1195
1542,1710925228179146516,2052,2067,2059,1978,2046,2045,1193
1543,1710925228189186450,2047,2059,2056,2010,2066,2061,1194
1544,1710925228199205103,2057,2052,2042,1977,2061,2059,1197
1545,1710925228209197607,2058,2053,2045,2061,2059,2076,1194
1546,1710925228219196864,2066,2074,2084,2016,2069,2064,1197
1547,1710925228229191822,2056,2076,2058,2040,2040,2026,1193
1548,1710925228239195587,2056,2052,2044,2063,2056,2052,1194
1549,1710925228249209992,2055,2046,2046,2052,2049,2053,1194
1550,1710925228259202356,2057,2072,2057,2029,2039,2053,1198
1551,1710925228269201061,2050,2047,2049,2087,2040,2052,1197
1552,1710925228279201210,2054,2056,2052,2084,2052,2066,1197
1553,1710925228289200136,2058,2054,2068,2097,2064,2078,1194
1554,1710925228299215092,2049,2054,2057,2032,2067,2054,1195
1555,1710925228309219048,2053,2046,2044,2044,2044,2044,1194
1556,1710925228319199288,2064,2080,2077,2064,2071,2061,1193
1557,1710925228329196841,2059,2068,2060,1981,2036,2063,1196
1558,1710925228339184566,2050,2037,2050,2022,2051,2052,1197
1559,1710925228349199803,2056,2046,2034,2033,2044,2049,1196
1560,1710925228359206945,2045,2044,2038,2113,2051,2044,1193
1561,1710925228369202303,2057,2060,2068,2037,2063,2061,1196
1562,1710925228379199426,2060,2040,2028,2098,2076,2068,1196
1563,1710925228389188373,2058,2057,2060,2047,2070,2054,1196
1564,1710925228399210102,2050,2054,2055,2049,2050,2028,1194
1565,1710925228409205721,2057,2056,2056,2038,2073,2069,1197
1566,1710925228419186984,2053,2043,2022,1936,2035,2051,1196
1567,1710925228429191100,2052,2049,2046,2028,2057,2083,1197
1568,1710925228439186349,2057,2037,2046,2052,2055,2056,1197
1569,1710925228449186157,2056,2054,2056,2067,2060,2062,1198
1570,1710925228459205922,2056,2052,2050,2055,2061,2100,1196
1571,1710925228469205560,2050,2047,2043,2010,2061,2052,1196
1572,1710925228479146055,2057,2057,2069,2028,2045,2055,1196
1573,1710925228489189926,2062,2057,2058,2011,2047,2029,1196
1574,1710925228499223397,2046,2036,2047,2064,2050,2058,1195
1575,1710925228509188930,2053,2054,2057,2072,2040,2069,1194
1576,1710925228519192074,2058,2060,2054,2101,2076,2061,1198
1577,1710925228529187844,2047,2045,2040,2009,2032,2029,1192
1578,1710925228539193683,2056,2056,2069,2078,2069,2067,1195
1579,1710925228549187990,2072,2080,2093,2078,2072,2088,1196
1580,1710925228559208627,2056,2058,2052,2021,2050,2029,1194
1581,1710925228569192785,2052,2064,2058,2073,2058,2063,1195
1582,1710925228579189467,2056,2058,2064,2145,2082,2063,1196
1583,1710925228589189174,2055,2062,2073,2044,2036,2061,1196
1584,1710925228599155178,2056,2046,2054,1992,2056,2054,1196
1585,1710925228609199159,2061,2066,2060,2070,2038,2042,1194
1586,1710925228619192544,2057,2056,2056,1987,2048,2053,1196
1587,1710925228629190930,2056,2055,2061,2096,2070,2068,1195
1588,1710925228639189935,2056,2049,2050,2055,2051,2049,1198
1589,1710925228649195584,2054,2059,2060,2098,2073,2056,1197
1590,1710925228659190984,2056,2056,2058,2059,2049,2056,1195
1591,1710925228669206721,2053,2047,2050,2007,2034,2044,1195
1592,1710925228679187614,2044,2027,2042,2084,2054,2052,1197
1593,1710925228689194364,2056,2052,2061,2037,2057,2061,1196
1594,1710925228699201175,2058,2058,2048,2040,2063,2057,1197
1595,1710925228709150908,2056,2056,2057,2037,2043,2047,1190
1596,1710925228719187585,2060,2059,2057,2053,2063,2056,1195
1597,1710925228729193705,2053,2061,2070,2044,2052,2044,1191
1598,1710925228739187711,2056,2050,2045,2008,2037,2016,1193
1599,1710925228749226253,2058,2040,2032,2065,2060,2050,1196
1600,1710925228759192787,2050,2046,2044,2138,2066,2066,1197
1601,1710925228769170192,2053,2081,2084,2098,2072,2064,1194
1602,1710925228779193534,2047,2052,2047,2010,2015,2029,1193
1603,1710925228789173595,2049,2047,2054,2043,2049,2046,1193
1604,1710925228799193240,2056,2050,2061,2086,2068,2068,1197
1605,1710925228809195502,2060,2090,2077,2148,2058,2055,1196
1606,1710925228819139875,2056,2056,2052,1998,2050,2056,1196
1607,1710925228829177604,2061,2092,2074,2036,2064,2064,1196
1608,1710925228839173134,2044,2045,2052,2047,2050,2050,1196
1609,1710925228849188351,2053,2052,2049,2064,2068,2082,1194
1610,1710925228859205591,2054,2050,2057,2056,2056,2045,1194
1611,1710925228869199177,2056,2058,2052,2096,2064,2044,1191
1612,1710925228879200116,2049,2037,2044,2010,2037,2044,1193
1613,1710925228889187401,2058,2035,2055,2025,2039,2015,1193
1614,1710925228899185334,2068,2063,2070,2120,2088,2065,1196
1615,1710925228909202996,2058,2060,2071,1996,2046,2065,1192
1616,1710925228919194998,2048,2032,2059,2022,2033,2072,1194
1617,1710925228929187593,2064,2061,2056,2082,2072,2089,1194
1618,1710925228939189856,2053,2057,2091,2070,2061,2052,1195
1619,1710925228949190765,2052,2042,2044,2054,2071,2052,1196
1620,1710925228959190763,2044,2032,2044,2037,2033,2049,1198
1621,1710925228969189879,2062,2062,2067,2055,2069,2064,1196
1622,1710925228979196440,2057,2056,2057,2025,2053,2053,1198
1623,1710925228989191488,2047,2044,2056,2056,2058,2064,1196
1624,1710925228999191386,2054,2049,2041,2008,2047,2058,1195
1625,1710925229009207675,2053,2084,2088,2033,2050,2066,1197
1626,1710925229019207813,2048,2048,2061,2109,2060,2052,1194
1627,1710925229029199866,2051,2066,2054,2064,2068,2036,1195
1628,1710925229039201938,2052,2046,2047,2060,2040,2042,1194
1629,1710925229049198570,2052,2050,2058,2021,2040,2061,1197
1630,1710925229059200551,2045,2028,2041,2040,2053,2057,1197
1631,1710925229069230426,2063,2080,2077,2073,2078,2056,1198
1632,1710925229079195298,2049,2058,2049,2036,2057,2052,1196
1633,1710925229089198361,2056,2052,2045,2070,2072,2061,1196
1634,1710925229099205042,2054,2057,2067,2014,2029,2047,1193
1635,1710925229109212584,2064,2088,2080,1997,2052,2050,1195
1636,1710925229119211750,2049,2043,2051,2061,2048,2045,1194
1637,1710925229129198834,2046,2036,2040,2020,2052,2074,1196
1638,1710925229139201517,2057,2046,2057,2060,2060,2063,1195
1639,1710925229149199191,2056,2051,2044,2032,2026,2045,1194
1640,1710925229159198527,2062,2091,2069,2102,2083,2064,1195
1641,1710925229169204557,2052,2052,2044,2045,2061,2061,1195
1642,1710925229179196891,2052,2042,2049,2054,2056,2057,1194
1643,1710925229189202930,2050,2050,2049,2044,2047,2048,1196
1644,1710925229199199802,2056,2045,2043,2060,2044,2051,1197
1645,1710925229209204448,2052,2039,2044,2093,2058,2064,1196
1646,1710925229219210749,2041,2064,2058,2073,2049,2037,1196
1647,1710925229229211278,2053,2080,2068,1988,2053,2089,1197
1648,1710925229239190647,2049,2042,2044,2031,2050,2049,1195
1649,1710925229249195013,2049,2044,2046,2054,2048,2040,1195
1650,1710925229259188759,2056,2056,2069,2049,2032,2053,1197
1651,1710925229269203014,2058,2044,2044,2005,2063,2051,1196
1652,1710925229279215836,2061,2049,2056,2073,2077,2060,1196
1653,1710925229289222266,2054,2040,2039,2070,2069,2053,1196
1654,1710925229299199372,2056,2066,2062,2074,2054,2033,1194
1655,1710925229309204108,2056,2060,2080,2114,2084,2066,1194
1656,1710925229319201782,2054,2045,2041,2040,2050,2054,1195
1657,1710925229329221928,2045,2034,2039,2022,2057,2051,1195
1658,1710925229339191599,2047,2058,2068,2065,2056,2049,1196
1659,1710925229349173362,2056,2064,2070,2048,2048,2054,1196
1660,1710925229359189641,2052,2049,2053,2053,2053,2054,1196
1661,1710925229369188948,2059,2038,2049,2113,2066,2060,1197
1662,1710925229379145553,2056,2060,2054,2008,2031,2047,1193
1663,1710925229389194654,2053,2052,2045,2061,2037,2056,1196
1664,1710925229399179885,2052,2038,2054,2067,2052,2060,1197
1665,1710925229409188619,2054,2063,2056,2027,2040,2043,1195
1666,1710925229419172467,2061,2056,2042,2056,2062,2064,1196
1667,1710925229429203262,2060,2060,2064,2049,2066,2060,1196
1668,1710925229439846267,2061,2059,2067,2092,2059,2029,1193
1669,1710925229449147694,2055,2053,2053,2096,2071,2065,1194
1670,1710925229459191765,2050,2070,2080,1980,2032,2054,1196
1671,1710925229469190581,2058,2054,2054,2072,2072,2052,1197
1672,1710925229479213382,2053,2057,2057,2050,2056,2042,1195
1673,1710925229489188814,2057,2056,2064,2052,2055,2052,1196
1674,1710925229499195313,2048,2049,2040,2056,2044,2034,1193
1675,1710925229509191464,2058,2034,2045,2067,2054,2052,1194
1676,1710925229519191503,2061,2048,2042,2000,2041,2060,1195
1677,1710925229529200738,2059,2063,2067,2036,2046,2076,1196
1678,1710925229539205215,2048,2034,2040,2040,2059,2029,1193
1679,1710925229549194182,2040,2024,2028,2074,2036,2033,1194
1680,1710925229559187978,2056,2044,2041,2093,2014,2023,1194
1681,1710925229569191072,2044,2040,2037,1949,2042,2040,1193
1682,1710925229579191380,2048,2047,2047,2036,2035,2034,1192
1683,1710925229589194855,2048,2059,2047,2025,2036,2038,1192
1684,1710925229599189853,2051,2046,2068,2090,2062,2061,1194
1685,1710925229609190683,2052,2047,2045,1950,2038,2060,1196
1686,1710925229619188598,2060,2056,2056,2093,2072,2068,1194
1687,1710925229629193805,2056,2058,2078,2092,2070,2056,1195
1688,1710925229639192511,2055,2057,2046,2056,2059,2058,1197
1689,1710925229649152663,2048,2051,2052,2053,2054,2050,1195
1690,1710925229659195963,2053,2050,2056,2060,2041,2049,1196
1691,1710925229669192956,2049,2045,2058,1996,2046,2033,1193
1692,1710925229679190980,2050,2058,2065,2082,2046,2012,1195
1693,1710925229689211236,2056,2050,2056,2040,2056,2064,1196
1694,1710925229699186868,2050,2047,2040,2057,2056,2053,1195
1695,1710925229709191204,2048,2050,2072,2040,2045,1995,1191
1696,1710925229719211280,2055,2047,2045,2033,2039,2053,1197
1697,1710925229729199015,2056,2054,2055,2061,2055,2049,1194
1698,1710925229739206297,2056,2048,2050,2045,2060,2020,1193
1699,1710925229749192248,2049,2060,2042,2030,2062,2048,1196
1700,1710925229759189130,2059,2057,2063,2034,2021,2046,1193
1701,1710925229769189579,2061,2056,2050,2039,2037,2065,1194
1702,1710925229779243890,2043,2045,2036,2041,2040,2053,1196
1703,1710925229789206677,2057,2059,2059,2056,2048,2044,1196
1704,1710925229799204020,2053,2041,2050,2069,2072,2054,1193
1705,1710925229809199891,2056,2051,2047,2015,2073,2041,1192
1706,1710925229819200219,2053,2066,2074,2028,2036,2053,1195
1707,1710925229829206289,2052,2069,2065,1988,2032,2040,1194
1708,1710925229839172313,2056,2056,2071,1939,2039,2056,1194
1709,1710925229849183932,2058,2050,2050,2051,2065,2001,1190
1710,1710925229859201785,2053,2050,2057,1993,2026,2076,1196
1711,1710925229869136699,2061,2062,2058,1938,2038,2076,1197
1712,1710925229879201891,2041,2037,2046,1970,2024,2049,1195
1713,1710925229889227407,2054,2053,2047,2080,2072,2053,1196
1714,1710925229899154847,2055,2049,2047,2093,2050,2045,1193
1715,1710925229909199651,2052,2064,2033,2046,2054,2060,1194
1716,1710925229919186894,2056,2045,2062,2076,2070,2116,1197
1717,1710925229929183726,2044,2040,2034,2069,2033,2052,1196
1718,1710925229939179245,2060,2049,2037,2014,2044,2062,1196
1719,1710925229949213599,2050,2055,2049,2043,2069,2013,1192
1720,1710925229959184101,2049,2050,2046,2043,2034,2054,1196
1721,1710925229969209306,2053,2045,2030,2016,2024,2050,1195
1722,1710925229979187173,2063,2077,2079,2048,2052,2068,1196
1723,1710925229989176210,2047,2032,2024,2012,2043,2052,1195
1724,1710925229999189433,2058,2064,2068,2036,2060,2052,1196
1725,1710925230009187357,2056,2057,2047,2139,2074,2056,1196
1726,1710925230019191232,2056,2052,2045,1970,2033,2054,1196
1727,1710925230029191652,2054,2052,2045,2015,2066,2087,1196
1728,1710925230039200426,2051,2048,2057,2013,2008,2010,1193
1729,1710925230049189323,2062,2060,2037,2056,2059,2089,1193
1730,1710925230059190053,2052,2047,2052,2052,2058,2068,1196
1731,1710925230069218544,2053,2053,2036,2084,2083,2064,1195
1732,1710925230079191561,2068,2056,2071,2070,2049,2060,1194
1733,1710925230089234581,2053,2045,2035,2120,2056,2040,1192
1734,1710925230099158184,2047,2051,2063,2116,2047,2078,1194
1735,1710925230109194932,2054,2048,2044,2070,2059,2077,1193
1736,1710925230119188828,2063,2059,2060,2010,2024,2052,1194
1737,1710925230129188686,2055,2054,2046,2029,2059,1989,1193
1738,1710925230139194676,2049,2031,2040,2069,2053,2057,1196
1739,1710925230149193140,2060,2053,2064,2046,2040,2074,1196
1740,1710925230159188400,2055,2043,2054,2007,2013,2064,1196
1741,1710925230169190993,2052,2042,2032,2051,2040,2043,1191
1742,1710925230179190900,2066,2071,2061,2058,2036,2000,1193
1743,1710925230189288574,2052,2056,2058,2077,2064,2016,1195
1744,1710925230199143406,2050,2077,2074,2091,2046,2069,1194
1745,1710925230209189071,2056,2074,2087,2041,2064,2057,1195
1746,1710925230219190932,2056,2055,2061,2113,2069,2058,1194
1747,1710925230229191371,2057,2060,2078,2029,2059,2057,1197
1748,1710925230239200397,2053,2052,2058,2052,2058,2050,1197
1749,1710925230249193431,2048,2050,2052,2039,2041,2024,1194
1750,1710925230259193660,2056,2064,2056,2052,2064,2057,1197
1751,1710925230269195231,2058,2060,2058,2008,2075,2098,1197
1752,1710925230279203985,2057,2068,2068,2058,2041,2056,1196
1753,1710925230289283134,2053,2056,2037,2049,2066,2050,1195
1754,1710925230299241843,2048,2036,2038,2029,2029,2050,1193
1755,1710925230309194732,2056,2061,2040,1954,2029,2039,1194
1756,1710925230319194981,2045,2004,2030,2021,2025,2051,1195
1757,1710925230329194738,2063,2041,2029,2056,2070,2038,1193
1758,1710925230339195598,2057,2051,2054,2059,2052,2073,1196
1759,1710925230349196027,2056,2056,2060,2115,2073,2064,1197
1760,1710925230359197608,2056,2052,2069,2020,2030,2084,1195
1761,1710925230369237301,2058,2054,2044,2089,2074,2064,1195
1762,1710925230379240885,2059,2055,2066,2077,2057,2074,1196
1763,1710925230389239070,2052,2031,2035,2048,2052,2047,1191
1764,1710925230399236364,2060,2048,2049,2032,2046,2056,1196
1765,1710925230409241781,2054,2043,2040,2039,2053,2009,1193
1766,1710925230419242050,2060,2060,2063,2131,2051,2062,1196
1767,1710925230429244292,2053,2056,2062,2060,2054,2052,1196
1768,1710925230439243799,2050,2052,2064,2052,2044,2053,1195
1769,1710925230449242976,2058,2038,2033,2039,2066,2031,1195
1770,1710925230459237353,2054,2057,2065,2064,2024,2069,1197
1771,1710925230469239756,2056,2052,2044,2069,2064,2073,1194
1772,1710925230479240655,2045,2050,2063,2065,2050,2055,1196
1773,1710925230489239111,2053,2044,2042,2085,2052,2045,1194
1774,1710925230499234651,2050,2052,2056,2040,2016,2041,1196
1775,1710925230509242874,2056,2052,2040,1981,2073,2057,1194
1776,1710925230519184622,2061,2085,2089,2051,2047,2043,1192
1777,1710925230529184920,2049,2036,2032,2088,2076,2072,1195
1778,1710925230539227369,2049,2041,2036,2045,2020,2074,1196
1779,1710925230549226465,2052,2046,2036,2056,2061,2045,1192
1780,1710925230559224880,2055,2056,2061,2061,2060,2062,1194
1781,1710925230569225630,2058,2056,2055,2072,2059,2055,1196
1782,1710925230579227902,2056,2057,2058,2045,2050,2052,1195
1783,1710925230589191992,2046,2050,2076,2082,2058,2050,1195
1784,1710925230599227798,2050,2041,2047,2026,2035,2057,1197
1785,1710925230609220713,2047,2046,2056,2040,2057,2050,1196
1786,1710925230619222323,2053,2046,2048,2088,2055,2073,1194
1787,1710925230629223093,2058,2072,2069,2036,2061,2091,1196
1788,1710925230639229673,2057,2052,2053,2072,2056,2056,1196
1789,1710925230649225654,2059,2052,2043,2053,2048,2060,1194
1790,1710925230659223898,2056,2038,2037,2064,2050,2055,1196
1791,1710925230669221843,2056,2054,2050,2108,2065,2041,1196
1792,1710925230679224576,2052,2049,2051,2042,2037,2057,1198
1793,1710925230689236186,2056,2052,2046,2034,2053,2045,1195
1794,1710925230699111077,2053,2049,2057,2061,2037,1999,1193
1795,1710925230709225311,2052,2058,2038,1972,2061,2053,1193
1796,1710925230719220129,2052,2052,2052,2025,2040,2049,1196
1797,1710925230729219176,2058,2048,2052,2048,2069,2057,1196
1798,1710925230739241576,2060,2045,2050,2039,2054,2045,1192
1799,1710925230749214593,2052,2056,2060,2036,2073,2050,1195
1800,1710925230759213319,2058,2060,2072,2080,2052,2069,1197
1801,1710925230769217084,2056,2056,2047,2056,2085,2064,1194
1802,1710925230779216902,2053,2056,2053,2007,2056,2064,1195
1803,1710925230789233712,2063,2068,2064,2072,2076,2099,1196
1804,1710925230799219933,2045,2084,2092,2050,2030,2046,1193
1805,1710925230809214161,2054,2056,2060,2085,2072,2060,1196
1806,1710925230819214739,2056,2047,2053,2032,2036,2061,1195
1807,1710925230829211772,2058,2064,2032,1995,2067,2054,1199
1808,1710925230839221468,2050,2047,2050,2090,2036,2047,1195
1809,1710925230849203753,2051,2056,2050,2065,2080,2061,1195
1810,1710925230859213610,2057,2052,2069,2118,2066,2068,1197
1811,1710925230869203929,2056,2064,2039,2064,2072,2048,1198
1812,1710925230879206342,2058,2052,2045,2092,2056,2080,1198
1813,1710925230889207643,2056,2059,2052,2015,2052,2029,1195
1814,1710925230899218832,2055,2057,2072,2144,2053,2062,1197
1815,1710925230909205555,2051,2052,2054,2050,2064,2046,1192
1816,1710925230919208207,2052,2052,2061,2052,2047,2029,1192
1817,1710925230929202645,2057,2083,2075,2149,2088,2012,1192
1818,1710925230939203616,2048,2037,2036,2067,2040,2045,1193
1819,1710925230949202290,2058,2064,2046,2088,2067,2052,1195
1820,1710925230959202229,2051,2052,2058,2158,2024,2020,1194
1821,1710925230969201165,2062,2058,2053,2056,2056,2072,1195
1822,1710925230979200060,2053,2037,2031,2047,2031,2062,1195
1823,1710925230989207814,2050,2075,2063,2041,2064,2030,1193
1824,1710925230999231245,2052,2045,2049,2011,2043,2050,1196
1825,1710925231009207679,2053,2048,2040,2054,2066,2053,1197
1826,1710925231019200785,2060,2065,2068,2073,2072,2069,1198
1827,1710925231029200632,2056,2088,2075,2042,2064,2054,1196
1828,1710925231039200650,2050,2057,2060,1997,2046,2057,1196
1829,1710925231049209805,2056,2054,2045,2072,2072,2056,1196
1830,1710925231059208741,2054,2050,2051,1954,2032,2046,1195
1831,1710925231069199252,2057,2068,2060,2020,2038,2041,1194
1832,1710925231079200111,2052,2053,2052,2076,2061,2080,1197
1833,1710925231089203345,2054,2057,2060,2070,2055,2061,1193
1834,1710925231099209796,2063,2065,2077,2108,2058,2061,1198
1835,1710925231109204303,2052,2048,2041,2096,2077,2060,1197
1836,1710925231119199392,2058,2059,2064,2081,2060,2058,1194
1837,1710925231129199811,2053,2054,2056,2045,2037,2039,1194
1838,1710925231139196332,2059,2065,2070,2074,2051,2053,1196
1839,1710925231149205568,2056,2059,2043,2047,2057,2045,1193
1840,1710925231159206327,2056,2053,2075,2052,2056,2060,1197
1841,1710925231169200735,2064,2064,2061,1904,2057,2062,1196
1842,1710925231179200904,2057,2052,2051,2082,2053,2009,1192
1843,1710925231189201522,2051,2048,2043,2042,2060,2051,1197
1844,1710925231199282704,2053,2064,2088,2084,2039,2048,1195
1845,1710925231209204083,2053,2042,2045,2100,2031,1994,1192
1846,1710925231219192519,2052,2061,2076,2030,2058,2091,1197
1847,1710925231229200683,2057,2057,2071,2100,2036,2021,1194
1848,1710925231239196945,2042,2044,2053,2024,2010,2028,1193
1849,1710925231249212742,2056,2064,2070,2066,2052,2041,1195
1850,1710925231259202751,2054,2049,2058,2081,2043,2002,1193
1851,1710925231269215143,2052,2069,2088,1992,2003,2040,1192
1852,1710925231279200192,2056,2049,2046,2113,2080,2086,1195
1853,1710925231289200662,2044,2035,2028,2043,2074,1980,1194
1854,1710925231299214596,2060,2064,2065,2049,2040,2067,1197
1855,1710925231309205707,2060,2056,2045,1952,2014,2052,1192
1856,1710925231319200997,2053,2049,2056,2057,2049,2050,1194
1857,1710925231329196796,2057,2053,2042,2059,2040,2039,1193
1858,1710925231339197516,2053,2050,2056,2047,2030,2049,1196
1859,1710925231349237680,2057,2056,2052,1983,2090,2061,1196
1860,1710925231359206429,2053,2045,2038,2061,2058,2061,1194
1861,1710925231369201868,2052,2047,2035,1937,2074,2053,1196
1862,1710925231379202497,2058,2049,2053,2070,2045,2016,1191
1863,1710925231389203427,2057,2057,2056,2040,2072,2052,1195
1864,1710925231399213885,2056,2053,2056,2035,2044,2064,1194
1865,1710925231409206399,2056,2063,2045,2004,2076,2062,1196
1866,1710925231419199755,2056,2041,2049,1964,1973,2034,1193
1867,1710925231429201516,2052,2052,2044,1969,2064,2043,1193
1868,1710925231439196093,2048,2026,2026,1937,2027,1996,1193
1869,1710925231449210479,2056,2056,2036,2066,2049,2058,1197
1870,1710925231459205758,2052,2056,2039,2044,2012,2056,1197
1871,1710925231469196058,2076,2072,2071,2075,2005,2050,1196
1872,1710925231479199663,2059,2045,2047,2067,2028,2068,1196
1873,1710925231489200002,2048,2052,2062,2076,2075,2064,1196
1874,1710925231499210389,2054,2054,2056,2034,2053,2033,1192
1875,1710925231509211129,2056,2073,2069,2035,2069,1996,1190
1876,1710925231519198352,2048,2052,2041,2033,2017,2034,1193
1877,1710925231529197258,2064,2061,2048,2053,2066,2056,1196
1878,1710925231539195574,2056,2062,2075,2074,2056,2077,1197
1879,1710925231549197415,2055,2061,2053,2052,2029,2060,1195
1880,1710925231559199407,2060,2053,2068,2076,2047,2071,1195
1881,1710925231569205186,2056,2068,2052,2056,2072,2091,1196
1882,1710925231579206636,2056,2049,2054,2076,2081,2092,1196
1883,1710925231589201235,2061,2066,2073,2080,2077,2073,1194
1884,1710925231599205660,2053,2047,2054,2046,2054,2010,1192
1885,1710925231609237709,2047,2042,2040,2100,2057,2047,1196
1886,1710925231619196690,2053,2046,2048,2078,2048,2038,1192
1887,1710925231629201016,2056,2066,2056,2053,2072,2048,1195
1888,1710925231639197568,2054,2084,2062,2088,2020,2015,1192
1889,1710925231649200221,2051,2050,2056,2110,2066,2141,1197
1890,1710925231659199056,2048,2044,2052,2093,2043,2100,1197
1891,1710925231669237988,2060,2055,2030,2029,2068,2040,1194
1892,1710925231679240601,2058,2050,2052,2080,2068,2064,1195
1893,1710925231689240629,2054,2046,2032,2057,2089,2057,1197
1894,1710925231699197486,2052,2057,2092,2113,2071,2116,1196
1895,1710925231709249232,2053,2062,2047,2021,2064,2066,1192
1896,1710925231719231717,2048,2064,2074,1992,2044,2070,1196
1897,1710925231729223940,2052,2054,2041,1996,2058,2054,1195
1898,1710925231739223617,2054,2050,2046,2044,2045,2049,1194
1899,1710925231749263481,2063,2061,2068,2065,2116,2096,1197
1900,1710925231759264111,2033,2032,2053,2001,2023,2077,1194
1901,1710925231769225625,2005,2039,2032,2038,2067,2025,1193
1902,1710925231779227307,2051,2042,2052,2015,2052,2056,1196
1903,1710925231789227405,2057,2053,2042,2045,2054,2064,1194
1904,1710925231799231070,2064,2050,2064,2066,2050,2060,1196
1905,1710925231809226820,2057,2040,2052,2018,2060,2055,1196
1906,1710925231819203413,2090,2056,2092,2161,2061,2063,1195
1907,1710925231829225754,2082,2072,2054,2112,2069,2057,1197
1908,1710925231839227366,2045,2067,2064,2057,2045,2027,1193
1909,1710925231849229818,2024,2057,2056,2072,2056,2067,1196
1910,1710925231859229826,2052,2054,2066,2003,2022,2046,1193
1911,1710925231869217801,2050,2047,2044,2026,2035,2036,1193
1912,1710925231879222478,2068,2066,2067,2052,2046,2082,1197
1913,1710925231889211415,2061,2060,2071,2018,2077,2076,1196
1914,1710925231899221252,2057,2051,2054,2028,2051,2048,1196
1915,1710925231909215850,2044,2053,2059,2056,2081,2046,1193
1916,1710925231919214435,2048,2057,2068,2048,2005,2011,1197
1917,1710925231929220114,2042,2043,2040,2115,2066,2045,1194
1918,1710925231939212377,2045,2042,2052,2059,2037,2058,1196
1919,1710925231949216433,2050,2052,2046,2068,2060,2088,1197
1920,1710925231959204779,2045,2040,2062,2112,2058,2032,1193
1921,1710925231969200399,2061,2061,2056,2034,2033,2042,1194
1922,1710925231979200418,2069,2067,2078,2017,2033,2061,1197
1923,1710925231989206025,2071,2073,2074,2057,2072,2098,1194
1924,1710925231999220652,2050,2043,2046,2019,2015,2042,1194
1925,1710925232009207375,2055,2056,2064,1926,2030,2052,1196
1926,1710925232019207693,2062,2059,2070,2132,2086,1969,1193
1927,1710925232029209505,2068,2076,2072,2042,2088,2064,1196
1928,1710925232039211807,2053,2044,2040,2090,2049,2052,1198
1929,1710925232049213679,2046,2050,2052,2073,2086,2064,1196
1930,1710925232059208357,2059,2092,2112,1941,1940,2045,1193
1931,1710925232069203977,2058,2054,2040,2061,2114,2094,1196
1932,1710925232079208453,2057,2058,2070,2082,2077,2057,1194
1933,1710925232089200336,2060,2061,2070,1980,2073,2077,1195
1934,1710925232099213919,2057,2036,2044,2066,2060,2089,1197
1935,1710925232109207115,2063,2056,2050,2002,2069,2088,1195
1936,1710925232119208265,2062,2057,2053,1929,2000,2051,1194
1937,1710925232129203133,2067,2065,2062,2046,2092,2056,1196
1938,1710925232139215184,2050,2048,2060,2058,2040,2042,1192
1939,1710925232149239629,2051,2073,2057,2010,2035,2079,1196
1940,1710925232159202326,2072,2072,2089,1997,2014,1948,1194
1941,1710925232169200180,2049,2048,2046,2074,2056,2061,1195
1942,1710925232179205669,2059,2045,2080,2175,2032,2049,1195
1943,1710925232189206728,2050,2048,2029,2082,2117,2069,1194
1944,1710925232199206046,2065,2069,2078,2112,2072,2068,1196
1945,1710925232209200954,2048,2042,2040,2059,2069,2066,1196
1946,1710925232219199429,2056,2072,2069,2084,2047,2047,1196
1947,1710925232229206621,2050,2035,2032,1984,2058,2056,1197
1948,1710925232239196380,2057,2058,2088,2066,2029,2048,1197
1949,1710925232249192981,2061,2064,2062,2093,2077,2064,1196
1950,1710925232259197578,2057,2066,2078,1972,1960,2059,1195
1951,1710925232269195192,2049,2049,2033,2041,2080,2084,1195
1952,1710925232279197975,2049,2056,2065,2062,2037,2026,1194
1953,1710925232289236786,2074,2068,2065,2060,2044,2047,1193
1954,1710925232299242555,2046,2037,2052,2043,2017,2050,1196
1955,1710925232309188291,2050,2049,2038,2057,2053,2062,1193
1956,1710925232319190964,2056,2056,2061,2119,2030,2025,1194
1957,1710925232329189890,2045,2043,2030,2031,2048,2038,1192
1958,1710925232339160442,2049,2044,2048,2021,2016,2060,1197
1959,1710925232349192642,2046,2046,2032,2022,2084,2050,1196
1960,1710925232359195404,2046,2042,2042,2060,2044,2056,1195
1961,1710925232369189401,2058,2033,2037,2109,2076,2046,1194
1962,1710925232379189340,2048,2044,2058,2049,2021,2046,1192
1963,1710925232389233722,2052,2051,2044,2025,2050,2040,1194
1964,1710925232399214543,2059,2057,2064,1981,2017,2047,1192
1965,1710925232409224681,2056,2042,2026,2086,2106,2065,1196
1966,1710925232419227554,2042,2030,2052,2047,2053,2056,1194
1967,1710925232429225528,2054,2054,2065,1946,2013,2053,1196
1968,1710925232439220397,2060,2060,2072,2057,2038,2076,1198
1969,1710925232449208913,2055,2051,2041,1988,2049,2046,1194
1970,1710925232459194554,2060,2072,2078,1960,2031,2029,1193
1971,1710925232469221914,2051,2052,2051,2072,2036,2027,1192
1972,1710925232479193297,2055,2043,2064,2021,2059,2065,1197
1973,1710925232489224966,2068,2064,2054,2044,2084,2064,1196
1974,1710925232499222710,2053,2052,2054,2037,2044,2072,1195
1975,1710925232509221866,2050,2041,2030,2113,2082,2065,1195
1976,1710925232519192759,2051,2053,2059,2028,2040,2090,1197
1977,1710925232529189892,2055,2053,2046,2068,2037,2040,1194
1978,1710925232539223122,2053,2052,2061,2064,1997,2044,1194
1979,1710925232549192843,2056,2046,2041,2052,2060,2015,1192
1980,1710925232559218801,2057,2058,2072,2141,2062,2061,1197
1981,1710925232569215232,2057,2043,2047,2090,2092,2076,1196
1982,1710925232579216022,2050,2040,2056,2096,2043,2045,1193
1983,1710925232589204297,2062,2042,2030,2048,2082,2037,1193
1984,1710925232599171563,2044,2044,2053,2063,2010,1985,1194
1985,1710925232609196068,2052,2050,2052,2099,2092,2060,1194
1986,1710925232619217327,2056,2067,2104,2037,2030,2067,1196
1987,1710925232629215110,2052,2058,2029,1955,2068,2034,1195
1988,1710925232639231800,2049,2042,2056,2050,2026,2050,1197
1989,1710925232649181082,2049,2031,2036,2008,2050,2075,1194
1990,1710925232659214513,2067,2070,2080,2038,2034,2050,1197
1991,1710925232669212909,2049,2044,2040,2089,2072,2073,1196
1992,1710925232679193489,2051,2050,2059,2104,2049,2057,1196
1993,1710925232689196223,2044,2037,2028,2022,2076,2080,1196
1994,1710925232699566091,2054,2056,2066,2081,2049,2080,1196
1995,1710925232709186872,2056,2064,2051,2068,2080,2088,1193
1996,1710925232719209422,2050,2035,2052,2113,2046,2061,1196
1997,1710925232729189874,2061,2062,2076,2112,2076,2034,1194
1998,1710925232739193778,2054,2036,2044,2097,2016,2037,1191
1999,1710925232749189559,2050,2049,2052,2039,2050,2042,1193
2000,1710925232759204806,2052,2040,2043,2033,2044,2050,1194
2001,1710925232769204774,2059,2075,2045,2040,2050,2008,1193
2002,1710925232779195374,2040,2036,2045,2030,2034,1993,1192
2003,1710925232789188690,2061,2060,2049,2046,2072,2040,1193
2004,1710925232799197614,2058,2068,2070,2076,2070,2056,1196
2005,1710925232809192793,2047,2048,2036,2041,2065,2008,1194
2006,1710925232819195928,2052,2048,2045,1986,2047,2050,1195
2007,1710925232829191056,2056,2044,2022,2093,2043,2035,1193
2008,1710925232839187307,2057,2071,2055,2034,2024,2049,1193
2009,1710925232849200040,2062,2052,2044,2026,2058,2046,1194
2010,1710925232859152006,2056,2059,2068,2045,2059,2070,1195
2011,1710925232869133440,2064,2065,2054,2027,2033,2058,1196
2012,1710925232879157664,2054,2052,2056,2024,2054,2069,1195
2013,1710925232889190023,2055,2042,2033,2047,2065,2054,1195
2014,1710925232899193157,2060,2060,2068,2032,2040,2062,1195
2015,1710925232909220527,2047,2034,2011,2018,2072,2068,1193
2016,1710925232919199325,2059,2057,2068,1993,2043,2043,1193
2017,1710925232929192370,2053,2065,2050,2070,2056,2055,1196
2018,1710925232939189743,2050,2044,2048,1956,2024,2046,1192
2019,1710925232949211452,2048,2028,2020,2008,2045,2032,1193
2020,1710925232959193897,2059,2064,2072,2080,2047,2047,1193
2021,1710925232969200598,2054,2045,2040,1954,2057,2053,1197
2022,1710925232979175748,2062,2060,2064,2073,2028,2029,1192
2023,1710925232989186237,2054,2068,2074,2074,2065,2010,1192
2024,1710925232999196735,2061,2036,2052,2056,2066,2070,1195
2025,1710925233009191803,2061,2056,2048,2095,2072,2056,1194
2026,1710925233019209034,2053,2056,2069,2137,2060,2060,1195
2027,1710925233029211377,2058,2052,2051,2053,2070,2016,1193
2028,1710925233039194933,2061,2061,2065,2098,2049,2061,1197
2029,1710925233049190263,2049,2069,2060,2121,2076,2077,1194
2030,1710925233059190572,2056,2037,2043,2113,2068,2076,1196
2031,1710925233069208493,2055,2040,2041,2072,2069,2056,1196
2032,1710925233079194886,2056,2056,2064,2059,2042,2060,1193
2033,1710925233089186187,2052,2052,2046,2074,2072,2061,1195
2034,1710925233099192417,2058,2064,2076,2005,2057,2059,1194
2035,1710925233109195551,2053,2049,2039,2075,2075,2051,1193
2036,1710925233119202293,2068,2073,2088,1979,2006,2018,1192
2037,1710925233129204464,2057,2031,2040,2047,2069,2012,1193
2038,1710925233139190947,2065,2061,2064,2062,2062,2061,1197
2039,1710925233149190815,2060,2060,2061,2096,2082,2053,1195
2040,1710925233159191724,2064,2054,2056,2045,2025,2072,1195
2041,1710925233169192414,2060,2065,2053,2065,2074,2104,1196
2042,1710925233179198995,2053,2049,2049,2001,2038,2048,1193
2043,1710925233189200295,2058,2064,2058,2096,2062,2046,1192
2044,1710925233199192348,2051,2045,2036,2033,2056,2054,1194
2045,1710925233209238694,2053,2052,2051,2095,2068,2044,1192
2046,1710925233219215268,2051,2041,2040,2045,2033,2052,1194
2047,1710925233229191080,2053,2057,2057,1931,2052,2037,1195
2048,1710925233239191610,2051,2047,2056,2049,2020,2052,1193
2049,1710925233249191227,2061,2057,2044,2115,2068,2064,1195
2050,1710925233259192046,2052,2046,2058,2072,2052,2060,1194
2051,1710925233269204909,2052,2047,2041,2075,2072,2059,1196
2052,1710925233279199978,2053,2050,2058,2015,2043,2066,1196
2053,1710925233289208111,2060,2059,2060,2047,2066,2062,1197
2054,1710925233299196517,2048,2041,2061,2079,2037,2044,1193
2055,1710925233309219048,2069,2047,2050,2098,2085,2080,1193
2056,1710925233319230608,2051,2048,2046,2043,2036,2052,1195
2057,1710925233329196722,2058,2050,2041,2027,2066,2070,1198
2058,1710925233339197562,2062,2058,2074,2104,2033,2058,1196
2059,1710925233349189484,2053,2045,2049,2138,2071,2024,1194
2060,1710925233359194071,2047,2047,2047,2017,2033,2065,1195
2061,1710925233369217584,2052,2064,2048,2064,2063,2056,1195
2062,1710925233379202102,2065,2064,2077,2054,2033,2066,1193
2063,1710925233389201840,2055,2048,2045,2024,2071,2048,1196
2064,1710925233399192501,2052,2057,2057,2053,2044,2053,1195
2065,1710925233409189613,2047,2044,2047,2079,2096,2068,1197
2066,1710925233419209319,2051,2048,2040,2027,2052,2067,1195
2067,1710925233429186544,2050,2043,2032,2037,2073,2053,1196
2068,1710925233439193755,2060,2067,2090,2100,2025,2056,1195
2069,1710925233449196789,2055,2062,2052,2072,2069,2034,1192
2070,1710925233459194624,2053,2056,2073,2040,2029,2065,1197
2071,1710925233469192648,2056,2050,2049,2077,2059,2050,1196
2072,1710925233479197224,2052,2052,2064,2108,2063,2064,1196
2073,1710925233489204326,2062,2058,2041,2030,2080,2066,1195
2074,1710925233499194776,2052,2050,2043,2116,2052,2053,1196
2075,1710925233509198842,2060,2051,2036,2076,2084,2056,1195
2076,1710925233519195744,2056,2053,2065,2076,2048,2054,1193
2077,1710925233529205551,2054,2037,2043,2084,2072,2047,1193
2078,1710925233539189268,2053,2042,2051,2047,2044,2030,1193
2079,1710925233549192623,2053,2053,2038,2058,2067,2060,1195
2080,1710925233559157385,2052,2048,2055,2025,2049,2052,1197
2081,1710925233569193120,2061,2067,2069,2057,2090,2062,1196
2082,1710925233579191645,2060,2059,2062,2052,2052,2031,1192
2083,1710925233589191543,2048,2047,2031,2025,2059,2057,1196
2084,1710925233599150624,2058,2072,2071,2051,2024,2052,1195
2085,1710925233609194224,2058,2056,2047,2145,2074,2049,1196
2086,1710925233619196808,2054,2069,2077,2120,2045,2065,1196
2087,1710925233629191806,2047,2050,2045,2035,2074,2075,1197
2088,1710925233639195471,2054,2052,2065,2038,2036,2046,1192
2089,1710925233649194057,2053,2049,2041,2072,2081,2024,1193
2090,1710925233659190267,2052,2052,2069,2023,2026,2052,1196
2091,1710925233669190025,2047,2048,2031,2066,2064,2052,1196
2092,1710925233679189863,2057,2054,2065,1984,2041,2062,1195
2093,1710925233689199249,2052,2068,2056,2058,2047,2043,1194
2094,1710925233699185471,2051,2047,2047,2078,2050,2064,1198
2095,1710925233709195478,2053,2052,2042,2034,2060,2056,1196
2096,1710925233719190466,2061,2057,2066,1981,2046,2060,1195
2097,1710925233729235630,2057,2053,2056,2068,2085,2048,1197
2098,1710925233739203347,2053,2047,2058,2050,2033,2053,1196
2099,1710925233749191172,2050,2062,2066,1974,2058,2061,1194
2100,1710925233759189256,2056,2052,2058,2013,2027,2068,1195
2101,1710925233769185237,2051,2052,2040,1992,2076,2057,1195
2102,1710925233779185896,2056,2064,2076,2074,2027,2020,1193
2103,1710925233789197697,2056,2058,2057,2088,2083,2045,1194
2104,1710925233799186324,2058,2060,2064,2079,2041,2054,1197
2105,1710925233809190499,2058,2058,2046,2004,2077,2049,1195
2106,1710925233819187542,2056,2057,2070,2025,2076,2067,1196
2107,1710925233829193742,2056,2049,2055,1991,2055,2045,1193
2108,1710925233839204811,2046,2028,2037,2067,2030,2044,1194
2109,1710925233849174591,2056,2055,2048,2036,2062,2050,1196
2110,1710925233859197774,2054,2047,2058,2070,2042,2046,1195
2111,1710925233869190959,2057,2058,2050,2054,2076,2061,1195
2112,1710925233879189925,2056,2057,2070,2030,2017,2043,1194
2113,1710925233889191316,2056,2060,2057,2058,2072,2070,1193
2114,1710925233899193298,2051,2049,2064,2065,2037,2069,1195
2115,1710925233909187895,2050,2047,2042,2056,2069,2042,1192
2116,1710925233919193354,2063,2094,2096,2073,2032,2030,1193
2117,1710925233929191329,2060,2071,2050,2091,2078,2066,1195
2118,1710925233939199512,2050,2045,2050,2088,2036,2051,1195
2119,1710925233949199460,2061,2061,2050,2086,2096,2049,1196
2120,1710925233959158541,2052,2057,2058,2058,2062,2048,1195
2121,1710925233969194537,2068,2060,2060,2086,2072,2017,1195
2122,1710925233979199935,2054,2052,2056,2025,2043,2060,1194
2123,1710925233989193211,2063,2061,2054,2036,2092,2036,1193
2124,1710925233999197456,2057,2056,2063,2048,2045,2053,1195
2125,1710925234009199338,2043,2037,2026,2096,2085,2059,1197
2126,1710925234019194738,2058,2079,2076,2056,2036,2057,1194
2127,1710925234029194836,2050,2047,2037,2073,2093,2074,1197
2128,1710925234039193632,2056,2053,2058,2042,2033,2049,1196
2129,1710925234049195133,2060,2058,2052,2071,2069,2049,1195
2130,1710925234059194901,2058,2060,2070,2093,2040,2040,1193
2131,1710925234069196311,2052,2052,2055,2057,2056,2036,1192
2132,1710925234079195849,2054,2049,2062,2109,2054,2045,1194
2133,1710925234089198091,2059,2058,2061,2138,2092,2027,1194
2134,1710925234099199732,2054,2065,2083,2095,2031,2038,1193
2135,1710925234109198177,2050,2050,2043,2065,2076,2040,1191
2136,1710925234119198787,2051,2049,2076,2088,2042,2052,1194
2137,1710925234129198905,2050,2056,2049,2092,2081,2056,1195
2138,1710925234139200947,2054,2049,2051,2038,2041,2030,1192
2139,1710925234149209842,2056,2053,2040,1987,2072,2056,1195
2140,1710925234159199291,2060,2059,2068,2020,2034,2091,1196
2141,1710925234169196863,2052,2053,2045,2040,2065,2048,1195
2142,1710925234179203625,2054,2046,2060,2002,2015,2014,1193
2143,1710925234189203854,2052,2060,2046,2033,2065,2065,1196
2144,1710925234199198200,2056,2057,2081,2036,2014,2047,1194
2145,1710925234209201715,2059,2056,2049,2061,2066,2060,1196
2146,1710925234219202786,2064,2063,2064,2062,2050,2022,1193
2147,1710925234229203365,2054,2057,2045,2020,2056,1953,1194
2148,1710925234239225655,2047,2045,2060,2142,2032,2017,1192
2149,1710925234249203652,2066,2062,2068,2058,2105,2064,1195
2150,1710925234259184103,2055,2056,2057,2006,2048,2070,1196
2151,1710925234269185794,2057,2067,2070,2097,2075,2058,1197
2152,1710925234279187435,2065,2065,2066,2030,2032,2057,1197
2153,1710925234289182655,2054,2060,2060,2043,2070,2034,1194
2154,1710925234299204534,2055,2056,2072,2133,2028,2071,1194
2155,1710925234309186818,2064,2059,2053,2108,2084,2081,1196
2156,1710925234319155177,2054,2052,2057,2091,2039,2021,1195
2157,1710925234329186645,2065,2056,2044,2027,2082,2078,1196
2158,1710925234339207542,2053,2050,2056,2114,2072,2064,1197
2159,1710925234349182082,2050,2041,2024,2078,2106,2030,1193
2160,1710925234359186980,2050,2041,2041,2089,2049,2052,1194
2161,1710925234369188361,2049,2040,2032,2042,2035,2071,1197
2162,1710925234379237221,2053,2061,2066,2104,2042,1952,1193
2163,1710925234389188577,2065,2066,2061,2028,2049,2088,1197
2164,1710925234399190308,2047,2047,2056,1969,2049,2044,1194
2165,1710925234409188242,2052,2056,2038,2013,2058,2049,1195
2166,1710925234419188041,2052,2050,2060,2046,2049,2058,1195
2167,1710925234429192256,2054,2049,2041,2040,2069,2052,1196
2168,1710925234439189389,2054,2045,2050,2066,2021,2065,1196
2169,1710925234449191982,2064,2077,2067,1985,2068,2092,1194
2170,1710925234459190328,2061,2060,2070,2129,2049,2084,1195
2171,1710925234469191608,2057,2056,2046,2052,2082,2068,1197
2172,1710925234479190223,2060,2060,2074,2005,2026,2084,1195
2173,1710925234489192636,2058,2052,2054,2070,2074,1957,1193
2174,1710925234499191281,2051,2050,2058,2019,2076,2089,1196
2175,1710925234509188715,2056,2050,2031,2062,2076,2050,1194
2176,1710925234519187601,2046,2052,2052,2073,2027,2036,1192
2177,1710925234529187729,2049,2042,2056,2125,2072,2044,1194
2178,1710925234539186665,2055,2046,2058,2082,2022,2028,1192
2179,1710925234549190631,2054,2056,2049,2091,2085,2060,1194
2180,1710925234559188786,2053,2047,2058,2081,2052,2066,1195
2181,1710925234569188163,2056,2060,2049,1976,1985,1993,1192
2182,1710925234579191767,2053,2050,2056,2098,2060,2116,1196
2183,1710925234589182138,2057,2059,2061,2047,2092,2056,1194
2184,1710925234599162748,2061,2061,2063,2040,2039,2057,1197
2185,1710925234609179088,2052,2068,2068,1963,2038,2054,1197
2186,1710925234619188474,2060,2054,2068,2081,2056,2040,1195
2187,1710925234629188672,2060,2056,2047,2044,2060,2005,1195
2188,1710925234639192658,2046,2041,2047,2025,2038,2088,1197
2189,1710925234649189931,2058,2061,2064,2101,2085,2082,1196
2190,1710925234659188146,2045,2036,2042,2039,2028,2026,1195
2191,1710925234669187833,2053,2059,2063,2157,2089,2047,1194
2192,1710925234679189595,2053,2052,2054,2085,2041,2072,1197
2193,1710925234689194182,2052,2047,2038,1928,2065,2033,1192
2194,1710925234699188560,2046,2042,2043,2030,2006,2045,1192
2195,1710925234709191983,2061,2066,2065,2086,2073,2058,1192
2196,1710925234719191872,2064,2062,2070,2064,2068,2030,1192
2197,1710925234729192100,2053,2039,2040,1964,2059,2093,1195
2198,1710925234739195655,2063,2059,2063,2056,2025,2057,1197
2199,1710925234749199500,2056,2047,2035,2024,2068,2053,1196
2200,1710925234759192085,2050,2047,2050,1932,2011,2048,1195
2201,1710925234769190971,2055,2056,2051,2056,2082,2036,1190
2202,1710925234779185628,2043,2045,2043,2021,1998,2028,1193
2203,1710925234789185507,2044,2038,2024,2090,2084,2050,1196
2204,1710925234799195554,2060,2058,2068,2074,2065,2063,1197
2205,1710925234809190592,2052,2060,2053,2060,2060,1980,1194
2206,1710925234819192154,2064,2060,2057,2022,2028,2084,1197
2207,1710925234829188555,2049,2052,2041,2051,2076,2099,1197
2208,1710925234839197600,2058,2062,2066,2042,2041,2077,1198
2209,1710925234849208589,2056,2049,2033,2030,2064,2108,1196
2210,1710925234859190834,2051,2045,2049,2072,2046,2061,1195
2211,1710925234869188047,2064,2067,2061,1980,2057,2012,1193
2212,1710925234879194947,2052,2050,2059,2102,2039,2066,1196
