seq,time,data[0],data[1],data[2],data[3],data[4],data[5],data[6]
201,1711440004799241406,2049,2063,2049,1997,1998,2042,1193
202,1711440004809245966,2060,2081,2097,2057,2077,2056,1195
203,1711440004819246519,2049,2072,2056,1948,2001,2040,1193
204,1711440004829251179,2055,2040,2029,2056,2084,2056,1196
205,1711440004839242503,2049,2052,2064,2094,2030,2050,1197
206,1711440004849244418,2051,2044,2058,2051,2072,2051,1195
207,1711440004859239909,2056,2058,2053,2054,2031,2053,1194
208,1711440004869243348,2075,2065,2075,2073,2082,2053,1196
209,1711440004879244351,2059,2052,2050,2023,2029,2053,1195
210,1711440004889250794,2056,2036,2035,2096,2080,2055,1195
211,1711440004899241477,2047,2037,2040,2069,2021,2052,1195
212,1711440004909243913,2055,2049,2061,2085,2088,2056,1194
213,1711440004919243022,2054,2046,2045,2043,2035,2056,1195
214,1711440004929252562,2062,2089,2120,2088,2085,2058,1196
215,1711440004939245248,2045,2055,2061,2036,2026,2052,1195
216,1711440004949245270,2057,2056,2057,2060,2061,2046,1193
217,1711440004959241634,2046,2047,2051,2038,2020,2043,1190
218,1711440004969247245,2058,2046,2037,2073,2074,2053,1196
219,1711440004979243760,2046,2042,2040,2046,2021,2048,1195
220,1711440004989252889,2056,2070,2086,1988,2076,2058,1195
221,1711440004999245165,2053,2072,2047,2040,2035,2053,1197
222,1711440005009248615,2052,2048,2049,2060,2084,2057,1195
223,1711440005019243711,2045,2044,2042,2059,2030,2052,1195
224,1711440005029247063,2057,2036,2040,2125,2090,2060,1197
225,1711440005039246528,2056,2045,2055,2096,2052,2064,1196
226,1711440005049247767,2064,2053,2054,2081,2088,2058,1197
227,1711440005059246400,2052,2047,2062,2042,2026,2052,1196
228,1711440005069245554,2064,2074,2051,2065,2076,2057,1198
229,1711440005079242204,2052,2051,2049,2077,2042,2062,1199
230,1711440005089244735,2064,2073,2069,1986,2081,2060,1197
231,1711440005099239690,2047,2044,2040,2082,2020,2048,1196
232,1711440005109258804,2062,2047,2049,2069,2085,2064,1197
233,1711440005119245784,2052,2040,2065,2053,2040,2057,1195
234,1711440005129246851,2066,2072,2050,2082,2058,2054,1196
235,1711440005139265484,2044,2040,2052,2029,2018,2046,1192
236,1711440005149269909,2060,2062,2064,2078,2076,2056,1196
237,1711440005159249926,2053,2071,2073,2084,2029,2053,1194
238,1711440005169251725,2057,2047,2049,2112,2085,2056,1197
239,1711440005179252432,2052,2050,2056,2069,2025,2048,1196
240,1711440005189269292,2061,2068,2066,2067,2083,2056,1196
241,1711440005199256633,2056,2059,2060,2038,2032,2056,1196
242,1711440005209262570,2058,2045,2048,2022,2081,2062,1197
243,1711440005219239240,2065,2090,2081,2072,2025,2052,1197
244,1711440005229260198,2061,2067,2056,1997,2081,2064,1199
245,1711440005239240144,2045,2043,2041,2030,2033,2052,1197
246,1711440005249267042,2060,2060,2057,2061,2084,2058,1196
247,1711440005259233973,2049,2054,2062,2040,2014,2051,1196
248,1711440005269261172,2065,2097,2129,2099,2073,2053,1199
249,1711440005279237942,2054,2061,2052,1997,2017,2048,1198
250,1711440005289236586,2061,2061,2058,1928,2065,2049,1196
251,1711440005299238065,2049,2046,2047,2032,2021,2049,1198
252,1711440005309251286,2065,2068,2084,2080,2073,2056,1197
253,1711440005319238998,2048,2032,2036,2043,2029,2052,1197
254,1711440005329251389,2059,2049,2041,2081,2088,2057,1196
255,1711440005339284320,2057,2074,2068,2096,2033,2052,1197
256,1711440005349205690,2056,2040,2043,2084,2077,2054,1196
257,1711440005359229613,2042,2032,2026,2031,2009,2038,1193
258,1711440005369248266,2053,2062,2056,2072,2074,2056,1196
259,1711440005379241729,2048,2072,2088,2056,2030,2050,1197
260,1711440005389254901,2061,2048,2055,2065,2084,2061,1198
261,1711440005399236139,2056,2071,2034,2080,2045,2054,1198
262,1711440005409250734,2058,2046,2064,2099,2073,2053,1196
263,1711440005419242905,2056,2056,2037,2013,2024,2049,1196
264,1711440005429252219,2056,2034,2032,2008,2076,2057,1196
265,1711440005439246373,2058,2057,2053,2032,2028,2049,1196
266,1711440005449246529,2057,2036,2046,2088,2084,2052,1196
267,1711440005459238650,2056,2036,2022,2069,2040,2052,1197
268,1711440005469252153,2061,2057,2056,2123,2085,2062,1198
269,1711440005479231628,2042,2048,2038,2061,2033,2052,1198
270,1711440005489263747,2058,2085,2105,2066,2080,2056,1195
271,1711440005499259946,2048,2041,2054,2079,2046,2060,1196
272,1711440005509249311,2064,2071,2058,2083,2086,2057,1197
273,1711440005519244647,2049,2053,2037,2018,2026,2056,1198
274,1711440005529248751,2058,2046,2052,2093,2081,2056,1197
275,1711440005539256352,2057,2078,2052,2093,2045,2052,1197
276,1711440005549246708,2058,2057,2056,2092,2073,2056,1198
277,1711440005559250081,2054,2056,2053,2034,2028,2048,1193
278,1711440005569253785,2061,2056,2060,2052,2070,2053,1197
279,1711440005579254472,2048,2032,2013,2036,2029,2052,1195
280,1711440005589285539,2065,2047,2046,2017,2069,2051,1195
281,1711440005599255987,2049,2054,2052,2052,2035,2050,1197
282,1711440005609245201,2062,2056,2070,2089,2076,2056,1197
283,1711440005619240588,2056,2081,2056,2008,2029,2048,1196
284,1711440005629255593,2064,2056,2058,2069,2078,2057,1196
285,1711440005639267593,2050,2052,2040,1979,2020,2049,1199
286,1711440005649245606,2061,2046,2057,2061,2075,2057,1197
287,1711440005659263607,2056,2069,2060,2059,2041,2056,1196
288,1711440005669245487,2057,2069,2057,2112,2072,2051,1197
289,1711440005679253729,2049,2045,2045,2095,2036,2053,1197
290,1711440005689252091,2055,2048,2068,2008,2045,2044,1195
291,1711440005699245494,2052,2104,2104,2072,2013,2049,1198
292,1711440005709244078,2060,2064,2042,2062,2068,2057,1194
293,1711440005719237961,2047,2040,2033,2047,2025,2045,1193
294,1711440005729277165,2059,2058,2072,2037,2063,2052,1196
295,1711440005739231801,2054,2040,2037,2041,2036,2050,1197
296,1711440005749245785,2056,2047,2059,2104,2080,2053,1197
297,1711440005759249267,2049,2074,2074,2035,2034,2054,1197
298,1711440005769247159,2058,2050,2075,2010,2069,2051,1196
299,1711440005779254359,2051,2066,2049,2083,2029,2052,1196
300,1711440005789264576,2060,2057,2059,2088,2085,2060,1196
301,1711440005799242277,2055,2041,2045,2004,2012,2042,1193
302,1711440005809245670,2065,2044,2061,2084,2076,2053,1197
303,1711440005819242840,2046,2024,2026,1933,2015,2046,1194
304,1711440005829268847,2065,2084,2071,2099,2068,2052,1196
305,1711440005839246359,2040,2048,2065,2050,2030,2043,1194
306,1711440005849243399,2062,2056,2052,2088,2066,2051,1197
307,1711440005859244156,2054,2056,2045,2102,2032,2049,1197
308,1711440005869242298,2058,2050,2056,2087,2070,2047,1195
309,1711440005879267254,2044,2092,2108,2072,2034,2050,1196
310,1711440005889239805,2053,2034,2045,2062,2074,2056,1197
311,1711440005899236905,2051,2061,2072,2033,2024,2051,1194
312,1711440005909242492,2058,2050,2044,2052,2070,2056,1195
313,1711440005919238460,2046,2008,2012,1928,2014,2042,1193
314,1711440005929262814,2069,2040,2044,2108,2070,2053,1198
315,1711440005939263100,2048,2042,2041,2045,2033,2049,1197
316,1711440005949252986,2061,2054,2061,2096,2088,2061,1196
317,1711440005959243924,2038,2040,2028,2032,2007,2039,1192
318,1711440005969272096,2060,2072,2070,1966,2054,2057,1197
319,1711440005979244417,2045,2041,2033,2049,2020,2048,1197
320,1711440005989244864,2058,2084,2080,2031,2072,2056,1197
321,1711440005999243968,2042,2040,2037,2104,2045,2053,1197
322,1711440006009247824,2065,2068,2072,2091,2084,2060,1196
323,1711440006019301200,2047,2046,2040,2022,2032,2049,1196
324,1711440006029249879,2064,2078,2064,2168,2099,2061,1196
325,1711440006039244299,2039,2053,2058,1987,2002,2041,1195
326,1711440006049249790,2054,2038,2045,2095,2088,2056,1194
327,1711440006059243860,2052,2041,2051,2052,2048,2062,1199
328,1711440006069264130,2068,2072,2081,2052,2054,2050,1196
329,1711440006079241196,2053,2068,2050,2040,2023,2047,1195
330,1711440006089239963,2064,2080,2061,1960,2065,2057,1195
331,1711440006099232489,2047,2020,2008,2040,2020,2044,1194
332,1711440006109233873,2065,2038,2047,2043,2068,2056,1196
333,1711440006119307238,2047,2040,2036,2050,2032,2051,1196
334,1711440006129245206,2064,2066,2069,2081,2078,2060,1194
335,1711440006139260818,2042,2039,2029,2038,2040,2053,1195
336,1711440006149236661,2056,2060,2046,2071,2066,2050,1195
337,1711440006159235910,2050,2074,2074,2064,2028,2051,1193
338,1711440006169245580,2057,2052,2062,2088,2070,2056,1195
339,1711440006179241432,2052,2055,2044,2029,2039,2053,1196
340,1711440006189243096,2058,2057,2056,2032,2057,2056,1196
341,1711440006199226043,2058,2093,2100,2056,2022,2044,1193
342,1711440006209245142,2057,2056,2086,2086,2081,2053,1195
343,1711440006219249981,2036,2038,2035,2074,2028,2043,1192
344,1711440006229253860,2058,2057,2058,2078,2080,2059,1197
345,1711440006239229793,2050,2045,2046,2066,2033,2053,1198
346,1711440006249248852,2057,2056,2057,2017,2078,2062,1197
347,1711440006259233652,2042,2039,2026,2084,2029,2051,1199
348,1711440006269251418,2059,2052,2059,2104,2064,2053,1197
349,1711440006279234084,2047,2045,2042,2057,2023,2042,1195
350,1711440006289234336,2058,2056,2068,2068,2078,2053,1197
351,1711440006299227773,2047,2077,2082,1990,2022,2046,1193
352,1711440006309236010,2057,2056,2050,2062,2068,2056,1197
353,1711440006319237824,2050,2052,2059,2009,2032,2051,1197
354,1711440006329242194,2065,2056,2044,2085,2073,2055,1196
355,1711440006339230801,2044,2049,2043,2045,2026,2044,1192
356,1711440006349234099,2057,2055,2056,2075,2076,2060,1194
357,1711440006359272164,2044,2018,2020,2069,2028,2043,1192
358,1711440006369242908,2065,2034,2041,2085,2082,2063,1196
359,1711440006379221656,2044,2039,2056,1985,2015,2044,1194
360,1711440006389229994,2059,2058,2076,2082,2064,2051,1196
361,1711440006399226016,2044,2048,2042,2010,2022,2047,1195
362,1711440006409228863,2053,2047,2063,2081,2073,2060,1197
363,1711440006419232179,2045,2040,2042,2040,2036,2045,1195
364,1711440006429240688,2067,2060,2065,2091,2076,2058,1198
365,1711440006439239585,2042,2013,2030,2084,2037,2049,1198
366,1711440006449197674,2070,2056,2061,2148,2081,2058,1197
367,1711440006459258674,2051,2047,2057,2049,2038,2051,1196
368,1711440006469237604,2062,2056,2042,2069,2072,2064,1198
369,1711440006479238125,2045,2052,2060,2041,2036,2047,1195
370,1711440006489239609,2054,2061,2061,2100,2065,2056,1197
371,1711440006499231393,2047,2058,2083,2038,2033,2046,1193
372,1711440006509197035,2064,2077,2097,2088,2080,2064,1198
373,1711440006519229701,2044,2046,2040,2033,2045,2051,1197
374,1711440006529254791,2061,2053,2061,2134,2064,2054,1199
375,1711440006539234702,2053,2059,2049,2050,2033,2043,1194
376,1711440006549236787,2065,2084,2078,2012,2078,2064,1196
377,1711440006559254282,2040,2038,2030,2048,2035,2048,1193
378,1711440006569249613,2058,2063,2062,2090,2066,2058,1195
379,1711440006579230807,2048,2050,2060,2069,2043,2047,1192
380,1711440006589238874,2062,2052,2056,2070,2068,2060,1194
381,1711440006599240879,2053,2054,2072,2068,2044,2053,1198
382,1711440006609248835,2060,2072,2069,2093,2060,2056,1198
383,1711440006619232914,2047,2037,2025,2025,2052,2054,1198
384,1711440006629247082,2065,2057,2052,2070,2048,2047,1195
385,1711440006639242795,2049,2052,2056,1997,2015,2037,1194
386,1711440006649231503,2054,2035,2045,2037,2080,2064,1196
387,1711440006659253277,2046,2042,2057,2000,1999,2033,1193
388,1711440006669242736,2056,2052,2040,1995,2055,2052,1195
389,1711440006679237207,2058,2088,2098,2010,2005,2030,1194
390,1711440006689231906,2064,2058,2060,2069,2056,2042,1195
391,1711440006699226938,2048,2047,2041,2045,2046,2050,1197
392,1711440006709195436,2061,2045,2047,2074,2070,2072,1195
393,1711440006719231358,2050,2037,2042,2016,2044,2050,1197
394,1711440006729276938,2054,2026,2035,2063,2069,2052,1196
395,1711440006739221921,2061,2074,2088,2044,2044,2052,1197
396,1711440006749193324,2062,2070,2093,2133,2059,2053,1197
397,1711440006759245418,2052,2056,2056,2068,2044,2052,1195
398,1711440006769270037,2059,2057,2053,2045,2064,2059,1195
399,1711440006779242012,2045,2056,2054,2020,2012,2040,1194
400,1711440006789227063,2058,2059,2069,2066,2073,2057,1197
401,1711440006799231603,2045,2040,2039,2128,2059,2056,1196
402,1711440006809234349,2060,2074,2091,2060,2072,2056,1196
403,1711440006819245552,2053,2056,2051,1890,2014,2046,1194
404,1711440006829194081,2064,2061,2065,2058,2059,2056,1196
405,1711440006839209212,2047,2054,2081,2065,2047,2048,1197
406,1711440006849236847,2065,2069,2068,2084,2061,2060,1197
407,1711440006859231417,2049,2039,2033,2049,2060,2053,1197
408,1711440006869258381,2065,2045,2037,2069,2071,2061,1197
409,1711440006879248442,2048,2045,2047,2064,2047,2050,1194
410,1711440006889241629,2068,2061,2064,2087,2088,2070,1197
411,1711440006899238473,2053,2059,2036,2060,2045,2052,1196
412,1711440006909243263,2062,2074,2085,2032,2065,2061,1197
413,1711440006919260838,2044,2047,2051,2060,2040,2048,1197
414,1711440006929251782,2057,2049,2059,2078,2060,2053,1193
415,1711440006939238776,2052,2058,2075,1980,2044,2050,1197
416,1711440006949248617,2062,2066,2056,2081,2066,2062,1198
417,1711440006959262745,2047,2051,2052,2024,2050,2051,1194
418,1711440006969265672,2061,2053,2053,2076,2061,2058,1196
419,1711440006979242426,2052,2055,2054,1978,2026,2040,1194
420,1711440006989246986,2060,2053,2040,2093,2071,2059,1194
421,1711440006999241365,2045,2044,2032,2056,2038,2052,1196
422,1711440007009256728,2058,2057,2065,2064,2062,2056,1196
423,1711440007019243517,2047,2042,2048,2064,2058,2052,1196
424,1711440007029259774,2061,2054,2073,2097,2078,2058,1197
425,1711440007039244259,2052,2056,2062,2060,2046,2048,1197
426,1711440007049243493,2059,2054,2054,2080,2068,2059,1197
427,1711440007059264870,2052,2051,2054,1988,2045,2047,1195
428,1711440007069303332,2052,2032,2036,2066,2073,2060,1196
429,1711440007079297927,2051,2068,2052,1982,2033,2049,1197
430,1711440007089231901,2056,2040,2052,2089,2073,2062,1196
431,1711440007099234502,2047,2034,2040,2020,2045,2050,1197
432,1711440007109238696,2064,2059,2066,2025,2066,2056,1196
433,1711440007119230103,2050,2057,2058,2048,2046,2052,1197
434,1711440007129237404,2065,2075,2068,2068,2059,2056,1198
435,1711440007139223161,2049,2066,2054,2046,2045,2052,1196
436,1711440007149240730,2054,2052,2049,2060,2062,2058,1198
437,1711440007159231468,2047,2060,2054,1961,2032,2044,1191
438,1711440007169274088,2056,2036,2061,2022,2040,2048,1194
439,1711440007179240697,2047,2051,2047,2088,2038,2044,1195
440,1711440007189233678,2057,2046,2042,2070,2065,2061,1195
441,1711440007199235678,2052,2066,2068,2045,2052,2052,1196
442,1711440007209237547,2069,2069,2075,2101,2069,2061,1196
443,1711440007219254796,2052,2072,2054,2092,2062,2052,1196
444,1711440007229237758,2061,2058,2064,2079,2062,2056,1196
445,1711440007239241781,2052,2032,2025,2043,2053,2054,1197
446,1711440007249242097,2075,2066,2054,2129,2068,2064,1195
447,1711440007259240499,2049,2049,2061,2083,2070,2054,1196
448,1711440007269248651,2065,2064,2074,2050,2044,2052,1197
449,1711440007279226001,2048,2052,2054,2033,2044,2053,1196
450,1711440007289194254,2061,2080,2068,2068,2056,2057,1197
451,1711440007299226303,2060,2052,2020,2042,2052,2050,1197
452,1711440007309228522,2062,2062,2066,2086,2064,2061,1195
453,1711440007319238387,2052,2065,2056,2007,2043,2049,1195
454,1711440007329250927,2054,2040,2054,2068,2053,2053,1196
455,1711440007339225262,2052,2058,2060,2110,2061,2048,1197
456,1711440007349195208,2056,2042,2029,2173,2074,2057,1195
457,1711440007359260362,2060,2052,2053,2122,2056,2053,1195
458,1711440007369237352,2063,2056,2065,2090,2074,2059,1196
459,1711440007379227036,2045,2044,2028,2001,2044,2049,1195
460,1711440007389234397,2054,2038,2039,2073,2056,2058,1194
461,1711440007399231386,2052,2064,2062,2080,2060,2052,1197
462,1711440007409236391,2052,2044,2056,2062,2069,2058,1197
463,1711440007419245585,2047,2061,2080,1949,2046,2048,1197
464,1711440007429239689,2069,2068,2080,2104,2065,2060,1197
465,1711440007439218783,2050,2034,2037,2044,2051,2049,1195
466,1711440007449228687,2069,2068,2061,2074,2056,2061,1195
467,1711440007459227631,2052,2054,2052,2072,2050,2047,1194
468,1711440007469247646,2059,2064,2054,2079,2046,2058,1198
469,1711440007479255125,2048,2046,2049,2064,2061,2051,1194
470,1711440007489238198,2060,2056,2054,2036,2040,2050,1197
471,1711440007499227663,2053,2072,2072,2028,2054,2048,1197
472,1711440007509233699,2060,2077,2075,2123,2068,2055,1194
473,1711440007519242993,2056,2056,2057,2044,2053,2053,1195
474,1711440007529244692,2061,2084,2085,2060,2051,2054,1196
475,1711440007539228775,2048,2044,2044,2088,2042,2045,1192
476,1711440007549234282,2064,2061,2078,2106,2070,2061,1196
477,1711440007559232765,2047,2049,2041,2032,2060,2052,1194
478,1711440007569233841,2057,2077,2064,2050,2068,2059,1196
479,1711440007579235981,2041,2066,2070,2021,2027,2041,1192
480,1711440007589237159,2057,2061,2056,2124,2064,2059,1196
481,1711440007599230551,2049,2048,2039,1953,2044,2049,1196
482,1711440007609239805,2060,2056,2052,2047,2056,2057,1194
483,1711440007619233428,2048,2026,2057,2028,2054,2053,1196
484,1711440007629244305,2065,2039,2042,2108,2064,2066,1194
485,1711440007639229751,2049,2041,2032,1975,2046,2049,1196
486,1711440007649228414,2057,2061,2068,2049,2061,2057,1195
487,1711440007659234001,2053,2068,2041,2031,2059,2052,1198
488,1711440007669248584,2062,2064,2070,2134,2051,2051,1200
489,1711440007679254461,2050,2045,2053,2088,2054,2048,1195
490,1711440007689244207,2062,2056,2074,2065,2049,2056,1198
491,1711440007699239372,2052,2056,2063,2060,2044,2046,1195
492,1711440007709246802,2063,2084,2090,2081,2073,2065,1196
493,1711440007719257298,2047,2034,2049,2042,2056,2048,1196
494,1711440007729242675,2060,2049,2053,2082,2057,2056,1195
495,1711440007739243331,2051,2072,2060,2078,2063,2054,1196
496,1711440007749201103,2058,2074,2093,2124,2065,2056,1198
497,1711440007759229215,2044,2037,2033,2021,2043,2045,1194
498,1711440007769271573,2065,2052,2047,2082,2061,2056,1197
499,1711440007779225788,2048,2038,2044,2040,2053,2053,1197
500,1711440007789240262,2058,2029,2041,2253,2068,2062,1194
501,1711440007799229967,2048,2029,2043,2068,2055,2049,1196
502,1711440007809230373,2073,2086,2092,2072,2057,2061,1195
503,1711440007819237373,2044,2029,2040,2078,2056,2050,1196
504,1711440007829244050,2065,2054,2050,2100,2048,2055,1194
505,1711440007839228205,2054,2061,2049,2043,2039,2048,1194
506,1711440007849232178,2061,2070,2056,2096,2049,2056,1196
507,1711440007859254708,2048,2049,2052,2045,2054,2052,1197
508,1711440007869239513,2055,2026,2030,2067,2052,2056,1197
509,1711440007879237054,2061,2064,2060,2057,2070,2056,1197
510,1711440007889236549,2059,2057,2067,2113,2060,2058,1197
511,1711440007899231623,2046,2034,2044,2063,2052,2045,1195
512,1711440007909244905,2062,2061,2073,2096,2055,2057,1196
513,1711440007919239410,2048,2040,2040,2048,2041,2046,1193
514,1711440007929235908,2058,2047,2040,1949,2052,2060,1197
515,1711440007939233328,2045,2039,2023,2080,2056,2045,1194
516,1711440007949235839,2060,2058,2060,2101,2064,2062,1195
517,1711440007959231545,2044,2035,2045,2038,2052,2047,1192
518,1711440007969240418,2064,2070,2076,2071,2062,2062,1197
519,1711440007979228350,2049,2047,2048,2058,2064,2053,1195
520,1711440007989233226,2056,2028,2036,2062,2054,2059,1196
521,1711440007999223421,2056,2047,2038,1995,2036,2040,1192
522,1711440008009197528,2057,2058,2051,2067,2058,2059,1196
523,1711440008019223899,2049,2051,2056,2032,2048,2047,1194
524,1711440008029255813,2062,2050,2064,2065,2049,2057,1196
525,1711440008039232236,2057,2054,2073,2028,2050,2053,1196
526,1711440008049195734,2058,2080,2088,2101,2051,2058,1196
527,1711440008059243588,2052,2043,2043,2059,2051,2050,1195
528,1711440008069241224,2060,2067,2055,2052,2053,2060,1199
529,1711440008079239911,2049,2041,2028,2046,2057,2048,1196
530,1711440008089242426,2056,2058,2049,2091,2062,2059,1196
531,1711440008099231555,2045,2044,2072,2048,2066,2053,1197
532,1711440008109238147,2060,2047,2042,2024,2053,2056,1196
533,1711440008119269459,2049,2047,2048,2067,2060,2053,1198
534,1711440008129230993,2057,2035,2047,2058,2046,2055,1198
535,1711440008139232356,2048,2044,2044,1960,2048,2051,1196
536,1711440008149233268,2066,2076,2104,2090,2061,2062,1197
537,1711440008159225352,2052,2011,2008,2020,2063,2052,1195
538,1711440008169290220,2068,2051,2058,2066,2030,2052,1196
539,1711440008179224741,2052,2056,2065,2052,2069,2055,1194
540,1711440008189246023,2062,2056,2057,2050,2037,2052,1195
541,1711440008199225352,2055,2062,2059,2082,2064,2047,1193
542,1711440008209241154,2061,2060,2067,2073,2053,2058,1195
543,1711440008219230542,2060,2081,2096,2085,2061,2052,1195
544,1711440008229257295,2054,2050,2048,2053,2052,2056,1196
545,1711440008239231454,2052,2061,2069,2072,2051,2050,1198
546,1711440008249238277,2060,2057,2062,2116,2048,2056,1195
547,1711440008259236173,2051,2053,2052,2062,2056,2049,1197
548,1711440008269242725,2065,2077,2096,2076,2051,2060,1197
549,1711440008279235842,2044,2065,2074,2084,2067,2056,1197
550,1711440008289236714,2056,2050,2066,2047,2045,2056,1197
551,1711440008299223398,2047,2026,2044,2053,2064,2052,1199
552,1711440008309242936,2058,2058,2049,2068,2052,2056,1198
553,1711440008319224870,2049,2049,2058,2069,2049,2042,1193
554,1711440008329248847,2059,2053,2059,2116,2054,2054,1198
555,1711440008339224319,2053,2083,2082,2084,2047,2045,1193
556,1711440008349220512,2055,2034,2038,2050,2053,2059,1195
557,1711440008359228948,2046,2056,2046,2086,2062,2047,1192
558,1711440008369253407,2056,2051,2064,2102,2044,2058,1196
559,1711440008379229259,2048,2045,2045,2018,2054,2045,1194
560,1711440008389180181,2065,2080,2074,2091,2050,2060,1194
561,1711440008399258807,2044,2066,2078,2069,2056,2046,1192
562,1711440008409237475,2061,2081,2093,2079,2049,2057,1195
563,1711440008419231173,2045,2042,2038,2005,2040,2040,1193
564,1711440008429229189,2056,2052,2056,2125,2060,2060,1197
565,1711440008439243627,2054,2062,2057,2046,2060,2048,1196
566,1711440008449230671,2057,2067,2061,2092,2053,2056,1195
567,1711440008459227766,2048,2047,2058,2083,2062,2049,1198
568,1711440008469244779,2054,2036,2036,2074,2041,2053,1196
569,1711440008479232996,2057,2047,2036,2095,2069,2052,1194
570,1711440008489196835,2066,2072,2064,2048,2035,2057,1196
571,1711440008499226924,2050,2055,2057,2067,2067,2053,1197
572,1711440008509236362,2064,2073,2052,2092,2052,2060,1196
573,1711440008519231914,2043,2046,2045,2028,2050,2043,1194
574,1711440008529241603,2062,2053,2051,2071,2047,2060,1197
575,1711440008539208678,2048,2037,2041,2091,2070,2049,1197
576,1711440008549234870,2059,2048,2050,2081,2048,2057,1196
577,1711440008559225481,2057,2065,2057,1996,2053,2047,1193
578,1711440008569233506,2056,2041,2040,2106,2044,2054,1196
579,1711440008579235991,2049,2048,2034,2048,2052,2045,1193
580,1711440008589227414,2060,2057,2054,2061,2034,2056,1194
581,1711440008599226453,2049,2046,2046,2010,2049,2046,1195
582,1711440008609235020,2064,2076,2092,2065,2046,2057,1196
583,1711440008619225280,2052,2046,2044,2005,2066,2052,1195
584,1711440008629240249,2059,2082,2080,2098,2037,2052,1197
585,1711440008639236462,2052,2073,2079,1937,2065,2056,1197
586,1711440008649260289,2060,2056,2050,2045,2045,2060,1195
587,1711440008659235691,2048,2071,2060,2033,2061,2047,1193
588,1711440008669249077,2056,2041,2044,2050,2040,2056,1195
589,1711440008679246231,2049,2040,2044,2053,2066,2049,1196
590,1711440008689239949,2057,2068,2085,2122,2050,2058,1195
591,1711440008699237324,2053,2058,2077,2064,2052,2042,1192
592,1711440008709238676,2059,2061,2054,2104,2040,2052,1194
593,1711440008719237604,2045,2033,2029,2002,2062,2049,1197
594,1711440008729252744,2063,2041,2039,2097,2049,2058,1196
595,1711440008739237684,2053,2052,2036,1992,2052,2049,1197
596,1711440008749244097,2062,2061,2061,2080,2049,2059,1194
597,1711440008759248806,2050,2062,2054,1935,2053,2046,1189
598,1711440008769243035,2058,2036,2044,2064,2036,2056,1198
599,1711440008779235350,2055,2048,2063,2035,2062,2051,1195
600,1711440008789248125,2059,2058,2058,2090,2040,2056,1194
601,1711440008799222384,2048,2029,2033,2054,2072,2049,1195
602,1711440008809236822,2064,2071,2076,2058,2037,2061,1197
603,1711440008819226662,2053,2054,2052,2038,2074,2051,1197
604,1711440008829255860,2061,2070,2061,2065,2046,2059,1197
605,1711440008839233285,2050,2052,2036,2068,2078,2053,1195
606,1711440008849237835,2058,2046,2041,2078,2036,2058,1196
607,1711440008859226662,2045,2045,2052,2053,2068,2046,1192
608,1711440008869233525,2056,2020,2024,2086,2042,2055,1196
609,1711440008879249607,2057,2059,2046,2010,2067,2050,1196
610,1711440008889235299,2059,2068,2053,2114,2029,2053,1197
611,1711440008899222464,2043,2040,2050,2032,2058,2045,1194
612,1711440008909233746,2061,2062,2060,2104,2040,2056,1194
613,1711440008919228395,2058,2062,2054,2092,2072,2050,1196
614,1711440008929247052,2059,2040,2040,2130,2048,2059,1194
615,1711440008939263745,2064,2058,2047,2040,2061,2047,1194
616,1711440008949233275,2058,2059,2060,2088,2048,2062,1196
617,1711440008959228936,2052,2052,2069,2040,2069,2050,1194
618,1711440008969236742,2060,2067,2054,2049,2052,2063,1194
619,1711440008979230489,2047,2044,2050,2058,2068,2049,1196
620,1711440008989235739,2056,2029,2036,2052,2038,2057,1195
621,1711440008999228746,2064,2077,2076,2028,2072,2052,1195
622,1711440009009234429,2060,2068,2062,2033,2040,2062,1195
623,1711440009019228291,2049,2056,2082,2062,2067,2049,1197
624,1711440009029255901,2058,2052,2049,2010,2034,2056,1195
625,1711440009039225335,2049,2052,2041,2012,2053,2043,1192
626,1711440009049193026,2064,2104,2088,2128,2052,2063,1196
627,1711440009059227538,2047,2037,2050,2030,2068,2052,1197
628,1711440009069276088,2065,2045,2040,2025,2034,2060,1196
629,1711440009079231786,2054,2053,2041,1918,2041,2048,1198
630,1711440009089243734,2057,2049,2061,2116,2040,2057,1196
631,1711440009099233018,2048,2041,2045,2020,2058,2047,1192
632,1711440009109232971,2059,2043,2044,2092,2040,2059,1197
633,1711440009119228567,2051,2056,2055,2043,2065,2047,1196
634,1711440009129252660,2062,2061,2043,2040,2044,2058,1196
635,1711440009139223326,2052,2041,2044,2040,2078,2055,1195
636,1711440009149238721,2062,2061,2060,1984,2031,2057,1195
637,1711440009159232854,2053,2049,2052,1970,2061,2050,1195
638,1711440009169301313,2069,2066,2064,2149,2058,2063,1195
639,1711440009179269225,2052,2058,2057,2023,2068,2050,1196
640,1711440009189241925,2062,2065,2045,2072,2046,2064,1195
641,1711440009199227311,2049,2053,2042,2057,2070,2053,1197
642,1711440009209239419,2060,2057,2043,2105,2042,2060,1196
643,1711440009219228733,2054,2049,2047,2032,2074,2053,1194
644,1711440009229239489,2066,2054,2058,2174,2041,2059,1194
645,1711440009239232920,2048,2056,2056,2044,2066,2048,1196
646,1711440009249233636,2054,2049,2044,2014,2036,2056,1195
647,1711440009259228430,2047,2054,2043,2009,2065,2046,1193
648,1711440009269230209,2060,2065,2065,2132,2042,2059,1195
649,1711440009279250693,2050,2056,2058,2076,2070,2050,1197
650,1711440009289240107,2065,2102,2073,2046,2039,2058,1196
651,1711440009299241013,2041,2043,2047,2024,2064,2050,1195
652,1711440009309240166,2070,2063,2062,2062,2037,2060,1195
653,1711440009319236103,2052,2061,2068,2012,2064,2049,1197
654,1711440009329248401,2062,2079,2072,2104,2045,2063,1195
655,1711440009339234498,2052,2059,2068,2043,2068,2046,1194
656,1711440009349240946,2062,2064,2061,2060,2025,2054,1196
657,1711440009359241762,2052,2048,2052,2057,2078,2052,1195
658,1711440009369244392,2064,2068,2075,2062,2041,2056,1196
659,1711440009379243344,2053,2065,2052,2064,2068,2053,1197
660,1711440009389245132,2064,2056,2053,2076,2036,2061,1196
661,1711440009399229816,2059,2072,2068,1998,2063,2048,1195
662,1711440009409232987,2068,2062,2047,2088,2050,2059,1196
663,1711440009419231248,2047,2043,2044,2040,2074,2053,1195
664,1711440009429250280,2064,2062,2069,2064,2040,2061,1195
665,1711440009439230045,2049,2049,2056,2029,2069,2050,1196
666,1711440009449234478,2062,2052,2057,2072,2040,2058,1196
667,1711440009459232568,2044,2044,2038,2020,2064,2044,1193
668,1711440009469263154,2056,2041,2060,2029,2027,2053,1198
669,1711440009479233289,2058,2069,2046,2030,2060,2047,1194
670,1711440009489234036,2058,2046,2054,1978,2033,2056,1196
671,1711440009499231886,2046,2046,2047,2028,2054,2046,1192
672,1711440009509235757,2057,2057,2060,2092,2037,2061,1196
673,1711440009519248778,2049,2032,2047,2044,2082,2050,1198
674,1711440009529226648,2064,2083,2080,1950,2021,2050,1198
675,1711440009539239458,2050,2058,2053,2094,2076,2050,1198
676,1711440009549243661,2057,2049,2048,2139,2054,2062,1195
677,1711440009559232533,2049,2049,2054,2084,2080,2049,1194
678,1711440009569245604,2060,2061,2056,2092,2044,2057,1195
679,1711440009579222553,2048,2053,2056,2043,2068,2047,1194
680,1711440009589228931,2067,2079,2082,2112,2041,2061,1195
681,1711440009599227462,2040,2056,2068,2075,2076,2046,1194
682,1711440009609229630,2061,2060,2066,2104,2040,2060,1196
683,1711440009619232341,2045,2056,2041,2047,2075,2049,1197
684,1711440009629246924,2058,2040,2057,2085,2049,2062,1197
685,1711440009639228122,2056,2053,2060,2020,2076,2050,1197
686,1711440009649234839,2062,2086,2090,2100,2040,2061,1196
687,1711440009659232619,2049,2048,2046,2062,2076,2050,1197
688,1711440009669268815,2057,2057,2059,2096,2033,2059,1197
689,1711440009679242327,2043,2044,2048,2015,2058,2040,1196
690,1711440009689241040,2064,2057,2054,2056,2036,2052,1197
691,1711440009699230433,2047,2044,2049,2069,2078,2055,1196
692,1711440009709236860,2072,2068,2036,2080,2040,2061,1197
693,1711440009719229029,2053,2050,2048,2042,2075,2054,1194
694,1711440009729242951,2064,2062,2074,2094,2037,2058,1197
695,1711440009739242806,2052,2066,2056,2085,2070,2045,1194
696,1711440009749238762,2060,2056,2064,2100,2040,2061,1197
697,1711440009759237183,2051,2069,2044,2008,2074,2047,1194
698,1711440009769265905,2064,2051,2060,2022,2036,2058,1195
699,1711440009779250288,2051,2072,2053,2003,2076,2050,1194
700,1711440009789236315,2061,2053,2053,2069,2036,2059,1196
701,1711440009799232993,2046,2046,2047,2001,2072,2048,1197
702,1711440009809238609,2064,2066,2084,2008,2029,2059,1195
703,1711440009819234154,2057,2076,2054,2064,2078,2049,1197
704,1711440009829247495,2062,2054,2049,2023,2025,2057,1195
705,1711440009839242069,2049,2054,2057,2044,2069,2047,1194
706,1711440009849250460,2062,2053,2050,2061,2028,2058,1196
707,1711440009859231978,2046,2056,2047,2019,2077,2049,1197
708,1711440009869248285,2060,2040,2079,2106,2042,2063,1197
709,1711440009879276795,2047,2037,2040,2038,2068,2044,1193
710,1711440009889226812,2067,2052,2049,2072,2032,2056,1196
711,1711440009899227227,2052,2057,2062,2033,2079,2049,1195
712,1711440009909236079,2060,2059,2065,2069,2037,2058,1196
713,1711440009919227386,2053,2053,2042,2067,2073,2047,1193
714,1711440009929233933,2063,2041,2039,2081,2034,2057,1195
715,1711440009939222025,2046,2044,2054,2089,2068,2046,1196
716,1711440009949185457,2063,2036,2052,2090,2034,2058,1196
717,1711440009959228537,2048,2056,2081,2047,2082,2054,1196
718,1711440009969193191,2060,2061,2076,2080,2042,2062,1196
719,1711440009979232393,2050,2067,2061,2014,2064,2044,1195
720,1711440009989246756,2064,2069,2070,2069,2036,2059,1197
721,1711440009999229095,2053,2050,2049,2040,2072,2045,1193
722,1711440010009232148,2061,2057,2060,2138,2038,2058,1197
723,1711440010019230112,2049,2052,2071,2076,2072,2045,1193
724,1711440010029230191,2060,2062,2068,2060,2030,2057,1197
725,1711440010039235722,2047,2042,2053,2056,2082,2053,1196
726,1711440010049193446,2070,2052,2061,2079,2040,2064,1196
727,1711440010059234628,2045,2044,2039,1987,2060,2044,1194
728,1711440010069193765,2072,2084,2106,2083,2038,2065,1197
729,1711440010079247491,2047,2047,2052,2034,2070,2047,1193
730,1711440010089244203,2061,2057,2057,2106,2041,2062,1198
731,1711440010099234744,2050,2037,2034,1905,2053,2044,1192
732,1711440010109237568,2070,2045,2047,2080,2042,2064,1196
733,1711440010119232326,2043,2037,2049,1995,2076,2050,1194
734,1711440010129244550,2069,2063,2045,2084,2039,2061,1199
735,1711440010139237485,2052,2051,2047,2038,2069,2051,1196
736,1711440010149192665,2058,2068,2062,2073,2027,2056,1196
737,1711440010159231631,2047,2056,2052,2046,2068,2046,1193
738,1711440010169195148,2062,2080,2090,2081,2028,2054,1198
739,1711440010179224505,2046,2057,2048,1994,2062,2042,1193
740,1711440010189252710,2064,2054,2057,2088,2036,2059,1195
741,1711440010199221717,2050,2050,2046,2034,2067,2045,1194
742,1711440010209237608,2064,2057,2056,2061,2035,2056,1195
743,1711440010219229271,2053,2046,2042,2060,2090,2056,1195
744,1711440010229244620,2061,2048,2048,2078,2030,2058,1195
745,1711440010239236132,2049,2042,2040,2027,2077,2046,1196
746,1711440010249249107,2072,2062,2069,2028,2024,2057,1199
747,1711440010259238435,2052,2064,2060,2025,2076,2050,1197
748,1711440010269243895,2064,2066,2102,2078,2029,2057,1196
749,1711440010279235948,2052,2071,2057,2064,2073,2045,1195
750,1711440010289252439,2061,2071,2081,2094,2030,2056,1195
751,1711440010299236557,2049,2053,2057,2038,2084,2052,1197
752,1711440010309241656,2060,2037,2045,2000,2029,2060,1195
753,1711440010319230463,2053,2046,2033,2058,2072,2048,1196
754,1711440010329313025,2064,2057,2064,2085,2025,2060,1195
755,1711440010339236954,2047,2071,2065,2032,2069,2043,1193
756,1711440010349254387,2064,2081,2105,2054,2030,2060,1195
757,1711440010359225268,2045,2037,2041,2036,2075,2048,1196
758,1711440010369245147,2062,2053,2057,2114,2023,2056,1196
759,1711440010379243953,2045,2053,2058,2048,2070,2045,1193
760,1711440010389270866,2061,2058,2064,2085,2040,2062,1195
761,1711440010399241226,2051,2056,2067,2045,2080,2050,1197
762,1711440010409241806,2061,2078,2091,1994,2016,2057,1196
763,1711440010419225533,2045,2045,2062,2023,2078,2053,1195
764,1711440010429245100,2065,2065,2064,2097,2036,2066,1195
765,1711440010439243196,2049,2043,2041,2070,2080,2050,1196
766,1711440010449248636,2064,2068,2055,2088,2032,2056,1196
767,1711440010459230399,2051,2072,2070,2028,2076,2050,1197
768,1711440010469252101,2065,2078,2056,2081,2040,2063,1199
769,1711440010479232220,2047,2048,2041,2032,2077,2046,1193
770,1711440010489254003,2065,2061,2054,2029,2028,2060,1196
771,1711440010499231446,2044,2048,2044,1948,2074,2044,1196
772,1711440010509234963,2069,2058,2062,2076,2034,2066,1196
773,1711440010519231044,2050,2064,2040,2017,2076,2041,1195
774,1711440010529237856,2057,2072,2096,2064,2021,2060,1197
775,1711440010539230371,2053,2047,2060,2014,2076,2051,1197
776,1711440010549241151,2058,2047,2046,2076,2029,2061,1194
777,1711440010559229076,2050,2056,2051,1993,2080,2048,1195
778,1711440010569262751,2057,2053,2047,1994,2014,2053,1196
779,1711440010579225377,2044,2048,2069,2028,2072,2047,1194
780,1711440010589246758,2057,2064,2066,2073,2035,2061,1195
781,1711440010599229743,2052,2049,2056,2041,2077,2046,1192
782,1711440010609232788,2060,2057,2056,2010,2032,2062,1196
783,1711440010619229490,2048,2045,2052,2015,2077,2050,1197
784,1711440010629241644,2066,2073,2074,2052,2024,2056,1195
785,1711440010639236312,2051,2024,2031,2037,2072,2048,1196
786,1711440010649233205,2064,2049,2050,2080,2024,2057,1196
787,1711440010659229978,2045,2041,2046,2081,2085,2050,1198
788,1711440010669240136,2058,2071,2078,2090,2038,2062,1198
789,1711440010679266979,2048,2042,2053,2043,2076,2047,1194
790,1711440010689239654,2058,2052,2075,2040,2024,2061,1197
791,1711440010699230364,2049,2065,2078,1992,2074,2048,1197
792,1711440010709234141,2061,2055,2052,2072,2030,2060,1197
793,1711440010719230803,2050,2058,2056,1963,2071,2046,1194
794,1711440010729251964,2058,2048,2056,2092,2030,2061,1196
795,1711440010739235170,2056,2068,2077,2050,2077,2045,1194
796,1711440010749235079,2059,2059,2053,2064,2018,2060,1196
797,1711440010759227673,2051,2091,2095,2089,2088,2049,1194
798,1711440010769232271,2056,2046,2066,2094,2028,2059,1196
799,1711440010779245316,2050,2053,2040,1971,2074,2045,1193
800,1711440010789238200,2060,2052,2052,2123,2024,2060,1196
801,1711440010799236176,2046,2044,2059,2069,2082,2047,1193
802,1711440010809237337,2062,2025,2044,2088,2033,2061,1196
803,1711440010819237015,2054,2038,2033,2019,2082,2047,1192
804,1711440010829250872,2064,2066,2072,2064,2028,2064,1194
805,1711440010839235380,2049,2067,2052,1962,2071,2046,1192
806,1711440010849245319,2058,2052,2045,2085,2026,2061,1196
807,1711440010859230879,2050,2055,2064,2045,2078,2044,1194
808,1711440010869233975,2061,2056,2062,2077,2023,2058,1196
809,1711440010879257129,2052,2042,2038,2033,2082,2045,1197
810,1711440010889248961,2066,2072,2066,1981,2028,2064,1196
811,1711440010899229242,2043,2045,2052,2020,2069,2040,1193
812,1711440010909232457,2061,2060,2060,2100,2024,2061,1198
813,1711440010919237467,2056,2059,2063,2049,2093,2053,1196
814,1711440010929288416,2064,2072,2106,2076,2024,2056,1195
815,1711440010939230290,2048,2041,2030,1942,2068,2043,1194
816,1711440010949245389,2064,2058,2065,2081,2032,2062,1198
817,1711440010959230358,2048,2051,2048,2000,2076,2044,1193
818,1711440010969235217,2059,2056,2054,2019,2020,2058,1196
819,1711440010979256047,2051,2064,2060,2042,2085,2047,1192
820,1711440010989231648,2056,2037,2043,2052,2033,2065,1196
821,1711440010999226176,2061,2048,2033,2049,2081,2047,1193
822,1711440011009230325,2061,2053,2050,2066,2028,2063,1195
823,1711440011019225769,2056,2057,2056,2005,2073,2045,1193
824,1711440011029243288,2060,2054,2049,2088,2027,2061,1196
825,1711440011039231337,2047,2050,2046,2002,2094,2052,1196
826,1711440011049238836,2068,2088,2074,2099,2035,2065,1197
827,1711440011059229541,2044,2040,2036,2032,2092,2048,1196
828,1711440011069237009,2066,2062,2076,2021,2020,2064,1197
829,1711440011079232614,2048,2044,2060,2059,2088,2052,1196
830,1711440011089244891,2066,2057,2058,2096,2033,2064,1197
831,1711440011099232360,2049,2054,2048,2032,2081,2048,1196
832,1711440011109239718,2060,2059,2068,2068,2021,2062,1197
833,1711440011119230483,2044,2030,2052,2035,2085,2047,1195
834,1711440011129242310,2066,2059,2060,2070,2020,2053,1196
835,1711440011139255880,2050,2065,2072,1974,2084,2045,1195
836,1711440011149250072,2058,2045,2027,2064,2018,2056,1195
837,1711440011159244134,2049,2050,2057,2038,2083,2045,1194
838,1711440011169234147,2059,2037,2040,2097,2008,2052,1197
839,1711440011179232277,2056,2053,2056,2024,2084,2047,1195
840,1711440011189254093,2060,2070,2086,2047,2019,2063,1196
841,1711440011199229208,2046,2043,2038,1953,2090,2044,1193
842,1711440011209232257,2060,2041,2047,2120,2025,2061,1196
843,1711440011219226840,2052,2058,2054,2030,2084,2042,1195
844,1711440011229242854,2060,2052,2050,1952,2011,2061,1198
845,1711440011239243269,2049,2022,2042,1998,2080,2047,1194
846,1711440011249242962,2072,2068,2090,2112,2024,2060,1195
847,1711440011259235611,2049,2057,2067,2047,2078,2044,1194
848,1711440011269239201,2064,2083,2070,2069,2016,2058,1198
849,1711440011279231339,2044,2046,2039,2013,2089,2046,1194
850,1711440011289248857,2058,2029,2024,2077,2020,2064,1197
851,1711440011299234702,2056,2050,2044,2089,2088,2045,1197
852,1711440011309196911,2067,2074,2081,2047,2003,2056,1196
853,1711440011319236452,2044,2044,2052,2088,2098,2049,1195
854,1711440011329243650,2060,2052,2047,2072,2011,2062,1197
855,1711440011339266910,2045,2045,2046,2093,2100,2042,1193
856,1711440011349229950,2059,2072,2082,2113,2026,2060,1196
857,1711440011359229894,2052,2038,2053,1984,2081,2044,1191
858,1711440011369232292,2066,2072,2062,2088,2025,2064,1196
859,1711440011379232285,2047,2052,2062,2051,2085,2044,1196
860,1711440011389255965,2064,2070,2080,2113,2031,2058,1196
861,1711440011399234746,2048,2039,2045,2064,2094,2051,1196
862,1711440011409233998,2066,2076,2084,2198,2029,2064,1197
863,1711440011419234904,2048,2048,2054,2063,2096,2047,1194
864,1711440011429198225,2065,2046,2060,2101,2026,2065,1194
865,1711440011439239029,2056,2052,2064,2032,2088,2044,1194
866,1711440011449239804,2058,2050,2049,2080,2021,2058,1195
867,1711440011459222563,2046,2052,2073,1997,2080,2043,1196
868,1711440011469245642,2063,2068,2066,1928,2008,2058,1198
869,1711440011479227569,2044,2046,2046,2059,2078,2040,1196
870,1711440011489246320,2064,2058,2040,2073,2023,2062,1196
871,1711440011499261664,2051,2052,2044,2034,2088,2048,1197
872,1711440011509249684,2065,2061,2077,2074,2021,2062,1197
873,1711440011519229747,2045,2015,2021,2024,2085,2046,1192
874,1711440011529252997,2074,2064,2049,2077,2012,2060,1196
875,1711440011539245977,2048,2053,2052,1999,2089,2045,1193
876,1711440011549231260,2061,2059,2050,2114,2022,2061,1196
877,1711440011559231464,2052,2061,2047,2052,2083,2042,1193
878,1711440011569195497,2059,2054,2060,2063,2013,2060,1196
879,1711440011579227313,2047,2056,2067,2018,2090,2046,1193
880,1711440011589234220,2066,2102,2104,2112,2029,2068,1197
881,1711440011599235426,2046,2043,2051,1968,2085,2045,1192
882,1711440011609192474,2062,2076,2075,1990,2005,2058,1195
883,1711440011619227216,2045,2039,2050,2058,2096,2047,1193
884,1711440011629266818,2060,2054,2043,2092,2011,2057,1195
885,1711440011639254177,2051,2048,2032,2014,2088,2040,1193
886,1711440011649231696,2066,2074,2049,2090,2008,2057,1197
887,1711440011659228322,2044,2047,2049,2029,2084,2043,1195
888,1711440011669229969,2061,2073,2057,2096,2026,2064,1197
889,1711440011679229902,2049,2049,2048,1915,2077,2039,1193
890,1711440011689197070,2064,2052,2053,2076,2013,2061,1197
891,1711440011699232414,2046,2053,2041,2000,2100,2049,1197
892,1711440011709236435,2056,2040,2040,2084,2013,2062,1194
893,1711440011719229174,2046,2052,2053,2053,2089,2041,1195
894,1711440011729239248,2068,2062,2088,2090,2008,2059,1195
895,1711440011739225204,2046,2037,2040,2052,2094,2045,1193
896,1711440011749234265,2067,2102,2093,2061,2008,2062,1196
897,1711440011759231302,2042,2036,2040,2014,2088,2044,1193
898,1711440011769196065,2065,2065,2067,2101,2021,2065,1195
899,1711440011779257370,2048,2056,2060,2016,2084,2040,1193
900,1711440011789237645,2066,2051,2045,2038,2018,2061,1195
901,1711440011799234642,2052,2048,2052,2066,2098,2047,1194
902,1711440011809257341,2058,2045,2039,2088,2020,2060,1196
903,1711440011819235280,2052,2037,2047,2078,2080,2036,1193
904,1711440011829242178,2069,2060,2051,2064,2013,2065,1195
905,1711440011839234796,2048,2054,2048,2117,2100,2042,1194
906,1711440011849237785,2057,2055,2032,2078,2011,2062,1194
907,1711440011859233090,2044,2029,2032,2046,2100,2045,1194
908,1711440011869240077,2058,2050,2070,2085,2017,2061,1196
909,1711440011879252525,2052,2048,2052,2044,2100,2047,1195
910,1711440011889244974,2060,2058,2060,2088,2005,2061,1198
911,1711440011899221971,2050,2069,2072,1996,2095,2047,1193
912,1711440011909237816,2059,2052,2056,2025,2009,2064,1196
913,1711440011919221517,2045,2012,2025,2042,2101,2045,1194
914,1711440011929261069,2065,2046,2040,2113,2018,2065,1196
915,1711440011939270992,2052,2053,2053,2019,2090,2044,1193
916,1711440011949237118,2057,2053,2053,2068,2008,2060,1197
917,1711440011959230489,2047,2057,2054,2069,2105,2052,1196
918,1711440011969235893,2060,2056,2070,2146,2024,2064,1197
919,1711440011979231467,2051,2047,2038,1971,2097,2048,1198
920,1711440011989229015,2060,2050,2053,2136,2021,2061,1198
921,1711440011999225863,2052,2052,2056,2024,2100,2049,1198
922,1711440012009229865,2061,2063,2058,2045,2022,2061,1197
923,1711440012019221717,2050,2052,2050,2067,2107,2053,1195
924,1711440012029237036,2053,2049,2068,2133,2024,2061,1194
925,1711440012039224297,2044,2033,2044,2012,2090,2047,1192
926,1711440012049239616,2067,2069,2054,2089,2020,2062,1194
927,1711440012059223001,2052,2042,2050,2024,2088,2048,1196
928,1711440012069233209,2059,2056,2056,2176,2028,2063,1198
929,1711440012079246983,2050,2050,2054,2060,2084,2046,1194
930,1711440012089235208,2062,2054,2083,2066,2019,2060,1196
931,1711440012099231909,2053,2045,2041,2058,2088,2042,1195
932,1711440012109244282,2062,2056,2041,2066,2018,2061,1195
933,1711440012119232756,2049,2056,2059,2028,2083,2040,1193
934,1711440012129261741,2053,2031,2030,2057,2019,2058,1197
935,1711440012139233453,2055,2056,2064,2052,2086,2047,1194
936,1711440012149248902,2060,2057,2066,2077,2025,2060,1194
937,1711440012159233829,2048,2044,2043,2017,2087,2045,1191
938,1711440012169232905,2061,2057,2043,2079,2018,2057,1196
939,1711440012179228063,2055,2048,2052,2030,2086,2050,1195
940,1711440012189239644,2060,2060,2065,2088,2020,2057,1196
941,1711440012199237567,2048,2037,2033,2002,2088,2047,1194
942,1711440012209240731,2060,2058,2045,2115,2020,2059,1195
943,1711440012219233666,2044,2064,2075,2041,2093,2041,1192
944,1711440012229240447,2061,2063,2058,2106,2015,2060,1196
945,1711440012239236336,2054,2053,2056,2009,2081,2045,1193
946,1711440012249246303,2058,2084,2065,2080,2020,2065,1195
947,1711440012259238736,2049,2057,2047,1983,2094,2048,1195
948,1711440012269238634,2064,2052,2054,2083,2020,2065,1196
949,1711440012279229093,2044,2014,2034,2100,2102,2047,1194
950,1711440012289239311,2070,2061,2057,2086,2012,2056,1195
951,1711440012299222545,2052,2053,2056,2045,2104,2048,1196
952,1711440012309233846,2055,2060,2056,2168,2020,2062,1196
953,1711440012319228643,2043,2031,2045,2056,2109,2053,1196
954,1711440012329233931,2062,2070,2081,2086,2016,2066,1197
955,1711440012339240332,2045,2040,2042,2060,2097,2046,1194
956,1711440012349240951,2064,2064,2050,2052,2015,2059,1195
957,1711440012359246840,2052,2063,2083,2041,2097,2047,1193
958,1711440012369231206,2057,2047,2050,2091,2012,2059,1196
959,1711440012379224511,2046,2042,2052,1928,2089,2047,1193
960,1711440012389245000,2061,2042,2047,2112,2013,2061,1196
961,1711440012399209637,2052,2084,2089,2056,2090,2045,1193
962,1711440012409232730,2055,2052,2062,2050,2006,2057,1197
963,1711440012419232939,2050,2042,2068,2033,2097,2050,1199
964,1711440012429238367,2067,2072,2071,2032,2004,2059,1197
965,1711440012439234928,2051,2053,2066,2047,2106,2050,1195
966,1711440012449195117,2065,2073,2080,2104,2015,2064,1196
967,1711440012459237669,2053,2089,2093,2059,2110,2052,1197
968,1711440012469238789,2057,2047,2046,2088,2013,2055,1196
969,1711440012479240450,2048,2056,2074,2056,2092,2047,1195
970,1711440012489259044,2061,2072,2074,2082,2010,2060,1195
971,1711440012499242660,2046,2040,2050,2107,2101,2046,1195
972,1711440012509244952,2061,2061,2066,2073,2016,2059,1195
973,1711440012519228077,2054,2040,2044,2061,2099,2050,1198
974,1711440012529252673,2059,2052,2042,2016,1999,2054,1194
975,1711440012539223603,2046,2036,2040,2064,2100,2041,1192
976,1711440012549234673,2068,2068,2064,2077,2010,2063,1197
977,1711440012559226625,2047,2043,2047,1987,2093,2047,1194
978,1711440012569196532,2064,2065,2057,2079,2016,2064,1195
979,1711440012579223113,2051,2045,2058,2088,2108,2050,1194
980,1711440012589231227,2056,2044,2041,2096,2012,2061,1196
981,1711440012599235985,2052,2062,2063,2036,2100,2048,1196
982,1711440012609255781,2061,2058,2064,2074,2005,2060,1196
983,1711440012619225829,2054,2042,2034,2010,2101,2052,1196
984,1711440012629245196,2067,2060,2049,2085,2013,2058,1194
985,1711440012639231196,2047,2043,2058,2016,2091,2047,1193
986,1711440012649247736,2061,2052,2054,1985,1992,2057,1197
987,1711440012659234107,2050,2067,2059,2040,2099,2050,1197
988,1711440012669198825,2060,2052,2050,2070,2008,2059,1198
989,1711440012679268892,2048,2051,2064,2052,2104,2047,1194
990,1711440012689244190,2058,2042,2034,2098,2011,2058,1197
991,1711440012699233847,2058,2046,2059,2058,2097,2044,1193
992,1711440012709237623,2061,2064,2064,2076,2015,2064,1197
993,1711440012719230016,2051,2067,2077,2003,2096,2046,1195
994,1711440012729244722,2062,2070,2077,2092,2012,2058,1197
995,1711440012739227626,2050,2044,2070,2095,2097,2045,1195
996,1711440012749248756,2064,2042,2045,2041,2013,2063,1197
997,1711440012759243904,2056,2049,2036,1999,2097,2050,1193
998,1711440012769246586,2057,2060,2060,2080,2001,2060,1193
999,1711440012779251364,2052,2064,2077,2056,2101,2045,1195
1000,1711440012789255169,2066,2073,2088,2041,2000,2056,1196
1001,1711440012799230057,2043,2042,2068,2032,2092,2042,1192
1002,1711440012809241637,2057,2068,2057,2090,2002,2057,1197
1003,1711440012819229441,2050,2080,2090,2056,2108,2049,1198
1004,1711440012829245230,2057,2057,2056,2100,2013,2062,1196
1005,1711440012839235860,2046,2032,2040,2068,2100,2045,1192
1006,1711440012849237771,2057,2032,2028,2176,2018,2062,1196
1007,1711440012859232188,2059,2056,2068,2052,2104,2047,1194
1008,1711440012869236203,2056,2033,2044,2088,2009,2061,1198
1009,1711440012879241412,2055,2046,2044,2011,2089,2047,1193
1010,1711440012889242090,2061,2056,2049,2076,2011,2064,1196
1011,1711440012899238060,2049,2038,2052,2068,2102,2045,1195
1012,1711440012909240102,2066,2058,2055,2097,2014,2064,1195
1013,1711440012919240230,2058,2075,2072,2069,2108,2049,1197
1014,1711440012929247462,2060,2065,2049,2070,2009,2062,1197
1015,1711440012939265215,2054,2052,2051,2022,2101,2046,1194
1016,1711440012949252538,2063,2064,2056,2087,2014,2060,1196
1017,1711440012959225482,2052,2049,2056,2034,2112,2052,1193
1018,1711440012969233525,2060,2052,2052,2112,2005,2060,1195
1019,1711440012979234295,2047,2039,2045,2001,2096,2043,1193
1020,1711440012989204574,2060,2059,2057,2060,1997,2057,1197
1021,1711440012999234361,2056,2060,2061,2027,2102,2049,1197
1022,1711440013009232006,2060,2057,2059,2037,2006,2060,1194
1023,1711440013019232038,2050,2053,2054,2030,2105,2048,1194
1024,1711440013029255076,2060,2059,2064,2112,2005,2060,1196
1025,1711440013039219257,2050,2053,2042,2018,2100,2054,1196
1026,1711440013049236312,2057,2034,2032,2093,2005,2059,1195
1027,1711440013059227457,2054,2047,2044,2032,2106,2050,1199
1028,1711440013069237419,2063,2059,2040,2086,2000,2057,1199
1029,1711440013079235577,2046,2044,2045,2072,2104,2048,1197
1030,1711440013089237493,2058,2054,2040,2043,2007,2061,1195
1031,1711440013099222535,2050,2059,2040,2050,2094,2046,1192
1032,1711440013109232767,2066,2074,2081,2083,2010,2060,1194
1033,1711440013119229082,2058,2060,2067,2075,2104,2049,1195
1034,1711440013129236488,2061,2060,2060,2100,2021,2061,1196
1035,1711440013139239246,2056,2073,2053,2058,2101,2047,1194
1036,1711440013149227145,2054,2048,2049,2068,2013,2058,1196
1037,1711440013159230803,2050,2068,2068,2021,2081,2045,1192
1038,1711440013169231978,2057,2057,2068,2072,2021,2063,1196
1039,1711440013179232180,2046,2049,2052,1989,2056,2041,1194
1040,1711440013189257943,2059,2058,2063,2059,2021,2062,1197
1041,1711440013199237254,2053,2072,2069,2041,2084,2047,1196
1042,1711440013209235152,2054,2078,2104,2050,2024,2059,1196
1043,1711440013219228671,2050,2047,2038,2011,2086,2050,1195
1044,1711440013229258362,2070,2062,2056,2069,2032,2065,1197
1045,1711440013239224056,2053,2065,2069,1986,2082,2048,1197
1046,1711440013249240110,2056,2040,2050,2127,2025,2058,1196
1047,1711440013259237858,2048,2037,2044,2061,2084,2050,1197
1048,1711440013269236618,2057,2052,2035,2053,2024,2060,1196
1049,1711440013279228813,2049,2042,2060,2040,2083,2052,1198
1050,1711440013289238355,2060,2048,2060,2183,2040,2060,1198
1051,1711440013299227786,2051,2053,2082,2048,2088,2052,1194
1052,1711440013309231425,2062,2056,2058,2112,2029,2056,1198
1053,1711440013319230224,2053,2046,2056,2051,2088,2052,1195
1054,1711440013329248583,2065,2050,2050,2126,2040,2064,1195
1055,1711440013339822971,2051,2056,2052,2032,2081,2047,1195
1056,1711440013349194279,2060,2061,2057,2037,2028,2060,1197
1057,1711440013359248649,2046,2050,2057,1976,2073,2045,1192
1058,1711440013369235194,2061,2069,2077,2096,2034,2061,1196
1059,1711440013379228052,2056,2056,2050,2041,2079,2049,1195
1060,1711440013389241131,2061,2063,2064,2067,2021,2059,1196
1061,1711440013399231122,2052,2062,2057,2089,2092,2052,1197
1062,1711440013409237117,2057,2060,2052,2071,2020,2056,1196
1063,1711440013419230095,2046,2043,2034,1999,2079,2045,1194
1064,1711440013429266619,2064,2065,2036,1947,2013,2056,1195
1065,1711440013439244146,2050,2042,2040,2029,2084,2050,1194
1066,1711440013449193818,2060,2056,2050,2168,2022,2057,1195
1067,1711440013459234571,2050,2037,2056,2068,2092,2049,1197
1068,1711440013469236056,2056,2033,2044,2112,2024,2056,1199
1069,1711440013479237191,2058,2063,2054,2082,2093,2047,1194
1070,1711440013489265568,2059,2055,2052,1998,2021,2061,1195
1071,1711440013499251062,2054,2096,2104,2114,2086,2045,1195
1072,1711440013509240764,2052,2058,2060,2061,2020,2059,1196
1073,1711440013519240685,2051,2029,2051,2045,2089,2050,1197
1074,1711440013529242822,2058,2052,2053,2093,2014,2057,1195
1075,1711440013539251822,2056,2048,2063,2056,2100,2049,1196
1076,1711440013549192336,2057,2052,2047,2136,2016,2058,1196
1077,1711440013559223099,2056,2016,2040,2078,2099,2048,1195
1078,1711440013569193803,2065,2057,2053,2096,2019,2064,1195
1079,1711440013579223573,2052,2058,2062,2047,2092,2046,1195
1080,1711440013589251010,2060,2062,2057,1928,2004,2056,1196
1081,1711440013599232765,2053,2054,2041,2061,2101,2048,1197
1082,1711440013609233870,2060,2055,2056,2024,2001,2056,1195
1083,1711440013619226528,2060,2035,2031,2037,2109,2053,1194
1084,1711440013629255226,2059,2045,2049,2072,2006,2058,1196
1085,1711440013639237032,2051,2030,2044,2065,2097,2046,1193
1086,1711440013649228317,2057,2044,2047,2043,2002,2058,1197
1087,1711440013659243018,2052,2048,2053,2029,2099,2049,1197
1088,1711440013669234163,2066,2075,2063,2123,2023,2059,1198
1089,1711440013679226309,2054,2058,2053,2036,2100,2047,1193
1090,1711440013689230600,2056,2057,2063,2072,2008,2058,1195
1091,1711440013699232064,2049,2044,2051,2044,2102,2048,1196
1092,1711440013709229241,2051,2059,2041,2036,1983,2053,1197
1093,1711440013719228371,2050,2060,2068,2049,2096,2043,1193
1094,1711440013729234916,2056,2072,2072,2085,2008,2059,1196
1095,1711440013739230199,2061,2060,2068,2012,2092,2046,1191
1096,1711440013749231753,2057,2046,2049,2074,2008,2062,1196
1097,1711440013759224562,2058,2065,2060,2084,2101,2052,1192
1098,1711440013769228742,2054,2049,2056,2073,2008,2061,1195
1099,1711440013779220337,2053,2059,2054,2034,2092,2044,1192
1100,1711440013789228957,2053,2072,2072,2058,2002,2056,1192
1101,1711440013799228297,2052,2061,2084,2035,2104,2052,1195
1102,1711440013809228239,2052,2044,2047,2047,2004,2056,1194
1103,1711440013819218993,2052,2037,2052,2067,2104,2050,1195
1104,1711440013829191871,2064,2062,2062,2097,2020,2064,1196
1105,1711440013839221241,2059,2060,2064,2032,2104,2050,1197
1106,1711440013849234840,2053,2041,2033,2076,2002,2056,1195
1107,1711440013859236896,2057,2053,2062,2045,2104,2049,1198
1108,1711440013869198712,2061,2044,2053,2097,2012,2060,1198
1109,1711440013879227792,2056,2048,2076,2052,2100,2049,1196
1110,1711440013889231662,2052,2050,2048,2102,2009,2056,1195
1111,1711440013899234559,2057,2064,2075,2072,2108,2049,1198
1112,1711440013909244281,2061,2083,2077,2065,2015,2061,1196
1113,1711440013919237580,2048,2045,2044,2024,2098,2044,1194
1114,1711440013929243283,2059,2069,2044,1981,2002,2059,1196
1115,1711440013939241251,2052,2043,2052,2020,2100,2048,1196
1116,1711440013949255832,2055,2046,2053,2139,2009,2062,1194
1117,1711440013959238579,2052,2072,2069,2034,2090,2044,1192
1118,1711440013969247699,2054,2045,2050,1995,2002,2056,1196
1119,1711440013979243864,2057,2069,2068,2029,2097,2044,1193
1120,1711440013989238625,2052,2044,2046,2116,2000,2060,1196
1121,1711440013999246884,2056,2064,2073,2039,2104,2054,1196
1122,1711440014009236547,2058,2052,2045,2117,2008,2064,1196
1123,1711440014019234468,2050,2080,2074,2009,2093,2040,1192
1124,1711440014029235096,2053,2061,2082,2072,2008,2057,1196
1125,1711440014039230964,2053,2052,2047,2074,2100,2047,1193
1126,1711440014049618959,2062,2071,2052,2053,1996,2057,1195
1127,1711440014059220216,2055,2052,2064,2008,2101,2047,1194
1128,1711440014069193700,2056,2048,2048,2130,2005,2057,1197
1129,1711440014079222082,2050,2044,2052,2043,2104,2051,1197
1130,1711440014089193571,2062,2058,2053,2134,2002,2058,1198
1131,1711440014099216753,2056,2052,2075,2044,2106,2049,1198
1132,1711440014109234455,2059,2077,2084,2090,1999,2057,1198
1133,1711440014119233589,2044,2040,2058,2013,2100,2050,1197
1134,1711440014129238616,2054,2049,2052,2079,2004,2064,1196
1135,1711440014139232470,2057,2088,2094,1967,2102,2046,1193
1136,1711440014149253998,2053,2043,2040,2089,1993,2056,1198
1137,1711440014159231840,2052,2044,2056,2065,2114,2046,1192
1138,1711440014169231696,2069,2086,2091,2052,1992,2062,1194
1139,1711440014179215050,2053,2052,2052,1898,2101,2042,1190
1140,1711440014189219695,2056,2052,2042,2129,1994,2058,1197
1141,1711440014199214712,2051,2057,2057,2061,2121,2045,1194
1142,1711440014209194337,2050,2043,2027,2092,1995,2061,1199
1143,1711440014219245815,2058,2047,2069,2026,2120,2050,1196
1144,1711440014229236012,2058,2066,2036,2068,1996,2059,1197
1145,1711440014239227943,2057,2043,2052,2052,2122,2049,1195
1146,1711440014249238069,2050,2053,2053,2034,1985,2057,1197
1147,1711440014259232043,2058,2088,2080,2056,2117,2043,1195
1148,1711440014269242992,2056,2054,2053,2096,1992,2060,1197
1149,1711440014279220021,2056,2052,2060,2007,2113,2047,1197
1150,1711440014289229216,2054,2034,2048,2116,1992,2062,1196
1151,1711440014299217720,2062,2064,2066,2054,2121,2046,1196
1152,1711440014309196995,2049,2072,2062,2079,1988,2060,1196
1153,1711440014319224866,2053,2068,2065,2033,2116,2044,1193
1154,1711440014329235774,2049,2047,2061,2068,1986,2059,1196
1155,1711440014339230961,2056,2054,2055,2084,2128,2048,1197
1156,1711440014349253651,2052,2050,2050,2097,1993,2056,1196
1157,1711440014359232716,2056,2072,2089,2030,2113,2045,1195
1158,1711440014369228695,2048,2033,2028,2067,1987,2058,1197
1159,1711440014379225755,2058,2064,2066,2035,2118,2047,1194
1160,1711440014389194630,2052,2077,2083,2120,2000,2061,1197
1161,1711440014399221410,2049,2064,2058,2077,2109,2043,1194
1162,1711440014409196305,2054,2050,2052,2093,2003,2060,1197
1163,1711440014419220910,2055,2056,2071,2026,2104,2037,1193
1164,1711440014429238832,2056,2051,2062,2070,1990,2061,1197
1165,1711440014439227306,2056,2075,2092,2045,2112,2045,1194
1166,1711440014449263333,2053,2035,2047,2098,1997,2059,1197
1167,1711440014459241937,2049,2045,2045,1960,2100,2040,1195
1168,1711440014469239649,2060,2077,2062,2100,1988,2058,1197
1169,1711440014479235657,2053,2053,2064,2032,2120,2046,1193
1170,1711440014489236304,2055,2055,2056,2036,1991,2061,1196
1171,1711440014499234076,2052,2054,2049,2033,2112,2045,1196
1172,1711440014509238251,2059,2061,2064,2042,1993,2062,1197
1173,1711440014519215192,2054,2066,2096,2052,2121,2041,1193
1174,1711440014529234907,2058,2053,2056,2081,1996,2061,1197
1175,1711440014539239562,2056,2056,2056,2029,2106,2042,1193
1176,1711440014549239798,2060,2056,2038,2045,1992,2061,1195
1177,1711440014559246578,2057,2093,2099,2040,2117,2049,1193
1178,1711440014569243098,2046,2051,2059,2056,2002,2062,1196
1179,1711440014579222343,2056,2052,2056,2039,2106,2047,1193
1180,1711440014589194444,2053,2043,2037,2029,2000,2060,1197
1181,1711440014599223728,2055,2052,2052,2047,2102,2044,1193
1182,1711440014609194346,2051,2053,2049,2107,2004,2060,1195
1183,1711440014619229912,2054,2064,2064,2084,2115,2052,1196
1184,1711440014629249377,2061,2056,2025,2037,1997,2059,1196
1185,1711440014639231128,2056,2062,2058,2066,2112,2046,1192
1186,1711440014649255953,2056,2062,2052,2076,2009,2060,1196
1187,1711440014659228635,2053,2072,2063,2050,2108,2047,1194
1188,1711440014669241446,2052,2059,2064,2056,1996,2057,1196
1189,1711440014679232645,2051,2048,2066,2072,2110,2049,1197
1190,1711440014689236519,2056,2058,2045,2112,2005,2062,1196
1191,1711440014699228750,2056,2052,2070,2013,2105,2046,1194
1192,1711440014709231342,2053,2049,2033,2059,2004,2060,1196
1193,1711440014719233222,2055,2061,2052,2105,2120,2050,1196
1194,1711440014729232256,2058,2044,2045,2104,2007,2060,1195
1195,1711440014739231019,2061,2061,2070,2074,2110,2049,1195
1196,1711440014749195104,2058,2053,2045,2102,2002,2057,1198
1197,1711440014759220391,2055,2051,2054,2059,2104,2049,1195
1198,1711440014769250767,2056,2049,2039,2079,1996,2060,1196
1199,1711440014779222648,2055,2054,2062,2048,2117,2050,1195
1200,1711440014789230800,2052,2031,2034,2068,1993,2059,1196
1201,1711440014799220495,2060,2037,2056,2076,2113,2051,1196
1202,1711440014809227455,2057,2047,2049,2080,2000,2058,1194
1203,1711440014819221189,2053,2058,2065,2051,2109,2045,1191
1204,1711440014829238741,2057,2066,2050,2029,1995,2058,1196
1205,1711440014839232845,2050,2046,2059,2074,2109,2044,1194
1206,1711440014849237791,2053,2048,2048,2111,2002,2061,1196
1207,1711440014859226465,2057,2062,2074,2088,2122,2050,1197
1208,1711440014869255568,2052,2035,2033,1982,1986,2060,1198
1209,1711440014879246427,2054,2053,2061,2032,2113,2047,1193
1210,1711440014889238046,2056,2042,2061,2145,2004,2062,1198
1211,1711440014899241299,2060,2047,2061,1984,2112,2050,1195
1212,1711440014909241546,2059,2029,2042,2060,1998,2060,1197
1213,1711440014919235751,2066,2048,2057,2098,2123,2054,1197
1214,1711440014929271637,2056,2044,2048,2032,1996,2062,1196
1215,1711440014939246674,2048,2046,2063,2016,2107,2048,1196
1216,1711440014949249146,2051,2036,2025,2070,1992,2059,1196
1217,1711440014959264452,2051,2034,2042,2000,2109,2047,1192
1218,1711440014969281893,2068,2068,2052,2073,2000,2060,1195
1219,1711440014979249676,2057,2094,2095,2103,2119,2055,1196
1220,1711440014989238911,2053,2045,2064,2068,2001,2064,1194
1221,1711440014999248685,2054,2048,2052,2086,2110,2047,1193
1222,1711440015009247582,2061,2060,2058,2072,2004,2058,1195
1223,1711440015019235198,2058,2068,2045,2008,2110,2049,1197
1224,1711440015029269987,2052,2060,2065,1965,1992,2060,1196
1225,1711440015039254677,2054,2045,2077,1979,2106,2047,1193
1226,1711440015049261170,2060,2052,2044,2163,2009,2059,1197
1227,1711440015059239748,2054,2057,2066,1990,2108,2047,1193
1228,1711440015069274999,2064,2063,2053,2061,2001,2059,1195
1229,1711440015079283556,2061,2064,2054,1986,2113,2052,1196
1230,1711440015089263807,2053,2050,2049,1947,1988,2056,1196
1231,1711440015099229830,2052,2046,2051,2090,2115,2047,1193
1232,1711440015109230382,2054,2047,2042,2039,1989,2064,1196
1233,1711440015119222026,2056,2070,2088,2056,2129,2053,1195
1234,1711440015129236264,2048,2042,2035,2027,1973,2053,1195
1235,1711440015139234240,2051,2064,2062,2029,2118,2044,1193
1236,1711440015149223560,2058,2024,2026,1887,1965,2057,1196
1237,1711440015159228429,2058,2047,2074,2043,2125,2047,1192
1238,1711440015169196266,2056,2048,2050,2118,1994,2061,1196
1239,1711440015179245083,2056,2056,2065,2044,2116,2045,1195
1240,1711440015189244001,2057,2061,2045,2061,1996,2059,1194
1241,1711440015199187270,2060,2070,2060,2056,2117,2046,1193
1242,1711440015209194243,2048,2037,2047,2078,2001,2056,1195
1243,1711440015219215717,2050,2061,2040,2034,2104,2045,1194
1244,1711440015229194725,2057,2056,2044,2089,2000,2057,1194
1245,1711440015239234354,2059,2060,2061,2045,2110,2049,1197
1246,1711440015249193584,2056,2053,2059,2044,1994,2057,1196
1247,1711440015259215918,2061,2068,2066,2110,2121,2048,1196
1248,1711440015269193895,2053,2056,2058,2154,2008,2060,1198
1249,1711440015279218665,2054,2056,2053,2047,2112,2051,1197
1250,1711440015289232092,2058,2058,2046,2030,1989,2058,1198
1251,1711440015299217102,2050,2045,2062,2048,2112,2047,1193
1252,1711440015309236791,2056,2076,2040,2112,1993,2057,1195
1253,1711440015319227714,2051,2044,2049,2042,2107,2043,1194
1254,1711440015329234367,2054,2054,2039,2115,1992,2056,1195
1255,1711440015339242313,2052,2049,2047,2068,2106,2044,1195
1256,1711440015349192926,2054,2032,2038,2086,2004,2058,1196
1257,1711440015359227985,2056,2062,2091,2003,2116,2052,1197
1258,1711440015369196323,2053,2061,2048,2069,1991,2056,1196
1259,1711440015379225431,2052,2047,2057,2129,2115,2050,1196
1260,1711440015389242746,2061,2069,2064,2080,2001,2056,1195
1261,1711440015399218028,2052,2078,2090,2048,2118,2052,1195
1262,1711440015409195082,2053,2065,2069,2097,2011,2058,1199
1263,1711440015419231625,2056,2058,2060,2033,2115,2050,1196
1264,1711440015429257277,2060,2083,2076,2075,2002,2064,1195
1265,1711440015439231535,2047,2043,2041,2015,2113,2048,1196
1266,1711440015449231436,2056,2053,2049,2074,2000,2056,1196
1267,1711440015459234402,2055,2072,2082,2070,2114,2052,1197
1268,1711440015469195856,2052,2064,2072,2050,1996,2057,1197
1269,1711440015479229243,2053,2068,2065,2020,2113,2047,1194
1270,1711440015489235014,2054,2060,2065,2088,1985,2051,1197
1271,1711440015499218712,2063,2069,2073,2079,2120,2056,1199
1272,1711440015509232119,2053,2046,2044,2034,2001,2059,1196
1273,1711440015519233091,2068,2062,2062,2072,2120,2056,1195
1274,1711440015529240426,2060,2049,2049,2103,1996,2061,1197
1275,1711440015539233873,2060,2086,2058,2060,2116,2048,1198
1276,1711440015549238202,2056,2063,2058,2084,1997,2060,1198
1277,1711440015559237682,2052,2056,2046,2012,2112,2047,1194
1278,1711440015569239385,2053,2050,2049,1990,1978,2053,1197
1279,1711440015579246069,2056,2079,2078,2079,2108,2043,1194
1280,1711440015589240238,2049,2040,2038,2046,1992,2052,1197
1281,1711440015599242954,2058,2056,2052,2081,2116,2048,1196
1282,1711440015609244147,2056,2056,2040,2072,1993,2056,1200
1283,1711440015619227494,2052,2044,2041,2004,2111,2050,1196
1284,1711440015629247564,2056,2085,2074,2081,2000,2058,1197
1285,1711440015640563921,2055,2056,2061,2036,2109,2052,1196
1286,1711440015649255130,2052,2048,2035,2047,1992,2056,1196
1287,1711440015659232746,2053,2077,2093,1978,2109,2047,1196
1288,1711440015669238588,2058,2066,2056,2056,1997,2059,1198
1289,1711440015679231955,2056,2050,2050,2074,2113,2052,1198
1290,1711440015689229069,2060,2061,2043,2017,1982,2048,1195
1291,1711440015699235723,2057,2056,2059,2045,2118,2048,1196
1292,1711440015709240743,2056,2056,2052,2080,2001,2060,1196
1293,1711440015719229361,2052,2048,2055,2052,2120,2049,1196
1294,1711440015729241265,2056,2066,2056,2119,1996,2058,1196
1295,1711440015739218740,2054,2050,2054,2057,2113,2050,1196
1296,1711440015749234181,2056,2056,2058,2050,1996,2055,1196
1297,1711440015759230886,2053,2046,2053,1993,2114,2052,1194
1298,1711440015769236827,2057,2066,2050,2097,1992,2053,1196
1299,1711440015779285795,2054,2056,2066,2084,2121,2052,1196
1300,1711440015789243973,2056,2064,2065,2075,2009,2057,1197
1301,1711440015799227961,2056,2063,2053,2047,2114,2047,1196
1302,1711440015809229856,2052,2051,2072,2096,1992,2056,1198
1303,1711440015819225647,2056,2077,2082,2012,2106,2045,1196
1304,1711440015829238092,2050,2048,2044,2112,1980,2054,1198
1305,1711440015839236139,2056,2058,2060,2016,2108,2049,1196
1306,1711440015849230127,2060,2090,2054,2036,1993,2056,1195
1307,1711440015859228314,2057,2072,2077,2069,2118,2055,1198
1308,1711440015869231571,2046,2042,2044,2068,2004,2063,1197
1309,1711440015879228365,2056,2054,2072,2108,2116,2052,1196
1310,1711440015889233776,2060,2053,2048,2092,2005,2060,1196
1311,1711440015899227794,2058,2073,2057,2030,2097,2047,1193
1312,1711440015909230600,2058,2061,2063,2072,2000,2057,1196
1313,1711440015919225400,2056,2072,2077,1981,2097,2050,1196
1314,1711440015929252975,2056,2042,2036,2098,2008,2056,1196
1315,1711440015939228577,2056,2058,2056,1961,2093,2048,1195
1316,1711440015949239098,2054,2046,2049,2054,2005,2060,1197
1317,1711440015959235051,2060,2052,2061,2065,2100,2052,1196
1318,1711440015969241274,2056,2056,2065,2083,2011,2058,1197
1319,1711440015979240993,2050,2056,2068,2061,2098,2049,1195
1320,1711440015989241715,2060,2075,2078,2044,2000,2054,1195
1321,1711440015999240002,2053,2061,2055,2095,2106,2049,1196
1322,1711440016009242630,2052,2060,2056,2068,2008,2057,1197
1323,1711440016019241142,2050,2044,2057,2023,2100,2050,1196
1324,1711440016029254854,2053,2084,2089,2064,2009,2056,1197
1325,1711440016039240860,2052,2045,2056,2130,2106,2054,1196
1326,1711440016049248259,2056,2055,2051,2072,2008,2056,1197
1327,1711440016059228194,2056,2091,2115,2033,2092,2048,1197
1328,1711440016069241023,2057,2072,2073,2052,2009,2059,1198
1329,1711440016079244355,2054,2048,2044,2042,2101,2050,1197
1330,1711440016089238838,2052,2066,2062,2121,2009,2053,1195
1331,1711440016099232600,2050,2056,2056,2026,2090,2045,1194
1332,1711440016109234759,2052,2049,2045,2072,2013,2058,1196
1333,1711440016119227529,2057,2040,2051,2074,2108,2052,1195
1334,1711440016129246411,2058,2057,2080,2055,2012,2058,1197
1335,1711440016139234291,2051,2048,2059,2038,2108,2052,1196
1336,1711440016149228725,2050,2067,2060,2075,1995,2050,1198
1337,1711440016159233198,2053,2052,2052,2041,2107,2050,1194
1338,1711440016169238663,2052,2057,2053,2088,1997,2057,1194
1339,1711440016179239830,2054,2056,2058,2052,2100,2040,1194
1340,1711440016189243121,2056,2064,2069,2056,2002,2060,1197
1341,1711440016199234098,2056,2040,2046,2036,2110,2047,1193
1342,1711440016209196597,2057,2048,2042,2055,1996,2056,1198
1343,1711440016219225950,2066,2048,2062,2051,2112,2050,1197
1344,1711440016229234121,2057,2056,2048,2076,2001,2057,1197
1345,1711440016239221019,2056,2046,2045,1923,2099,2046,1195
1346,1711440016249194421,2058,2069,2081,1988,1979,2054,1197
1347,1711440016259235457,2053,2052,2060,2052,2125,2052,1198
1348,1711440016269234440,2058,2064,2059,2066,1998,2057,1197
1349,1711440016279238131,2056,2041,2048,2043,2118,2056,1197
1350,1711440016289238095,2056,2037,2038,1977,1995,2058,1197
1351,1711440016299226988,2055,2056,2059,2114,2120,2054,1197
1352,1711440016309195910,2048,2019,2031,2073,1992,2058,1197
1353,1711440016319227107,2065,2064,2073,2048,2113,2052,1197
1354,1711440016329227172,2048,2053,2050,2090,2000,2059,1196
1355,1711440016339237777,2056,2054,2063,2061,2112,2050,1195
1356,1711440016349234745,2054,2044,2048,2069,2004,2057,1197
1357,1711440016359228527,2057,2047,2063,1972,2091,2046,1193
1358,1711440016369237119,2052,2053,2044,2074,2005,2057,1196
1359,1711440016379230420,2061,2052,2047,2050,2105,2052,1196
1360,1711440016389248149,2056,2053,2050,2070,2008,2057,1195
1361,1711440016399255920,2050,2053,2060,2037,2105,2049,1196
1362,1711440016409232186,2054,2058,2047,2042,2004,2054,1196
1363,1711440016419222792,2054,2032,2040,2041,2106,2051,1194
1364,1711440016429234370,2059,2049,2052,2069,2009,2058,1196
1365,1711440016439229965,2052,2047,2049,2034,2100,2052,1195
1366,1711440016449233567,2048,2039,2032,2077,2004,2053,1196
1367,1711440016459233381,2055,2052,2069,1968,2092,2050,1196
1368,1711440016469233867,2053,2052,2044,2099,2005,2055,1199
1369,1711440016479229081,2053,2035,2061,2046,2104,2047,1193
1370,1711440016489230769,2065,2044,2045,2090,2017,2057,1197
1371,1711440016499255573,2055,2048,2056,2047,2099,2049,1196
1372,1711440016509232180,2052,2050,2076,2056,1997,2054,1197
1373,1711440016519229039,2056,2042,2053,2058,2092,2041,1195
1374,1711440016529236358,2053,2073,2053,2023,1999,2054,1196
1375,1711440016539230180,2057,2061,2064,2086,2096,2047,1194
1376,1711440016549191528,2057,2058,2050,2140,2013,2059,1197
1377,1711440016559235490,2051,2042,2053,2040,2103,2046,1192
1378,1711440016569237538,2054,2040,2032,2144,2017,2058,1197
1379,1711440016579238163,2058,2061,2067,2074,2101,2048,1197
1380,1711440016589240142,2055,2072,2076,1994,2003,2059,1198
1381,1711440016599240427,2048,2036,2058,1880,2089,2047,1195
1382,1711440016609242976,2056,2049,2044,2069,2007,2058,1196
1383,1711440016619226027,2053,2045,2057,2054,2105,2049,1194
1384,1711440016629245581,2054,2043,2035,2114,2003,2058,1194
1385,1711440016639223011,2060,2074,2073,1997,2092,2045,1192
1386,1711440016649247553,2049,2042,2041,2043,2009,2061,1198
1387,1711440016659231025,2058,2052,2065,2032,2105,2050,1198
1388,1711440016669231410,2055,2056,2064,2075,2009,2060,1199
1389,1711440016679248207,2051,2051,2059,2012,2099,2047,1195
1390,1711440016689251228,2058,2056,2047,2136,2007,2058,1197
1391,1711440016699233237,2056,2051,2072,2059,2119,2052,1198
1392,1711440016709230967,2053,2036,2037,2072,2006,2057,1196
1393,1711440016719231392,2055,2051,2043,2076,2120,2050,1195
1394,1711440016729237349,2058,2065,2070,2084,1988,2057,1198
1395,1711440016739229247,2052,2049,2056,2094,2112,2048,1196
1396,1711440016749191186,2053,2045,2046,2069,1998,2058,1197
1397,1711440016759228584,2058,2057,2063,2019,2108,2049,1193
1398,1711440016769232948,2052,2050,2044,2065,1994,2056,1196
1399,1711440016779229826,2052,2033,2041,2106,2112,2052,1196
1400,1711440016789268917,2060,2060,2053,2076,2001,2054,1194
1401,1711440016799232650,2050,2060,2076,2026,2098,2046,1194
1402,1711440016809232705,2056,2045,2044,2042,2010,2058,1197
1403,1711440016819228791,2056,2053,2054,2059,2105,2050,1197
1404,1711440016829242653,2050,2050,2046,2081,2010,2057,1198
1405,1711440016839246065,2048,2008,2031,2043,2093,2048,1196
1406,1711440016849224546,2067,2054,2038,2048,2014,2058,1196
1407,1711440016859232817,2050,2042,2053,2036,2088,2046,1195
1408,1711440016869237721,2054,2040,2037,2061,2013,2056,1198
1409,1711440016879230722,2062,2063,2062,2072,2109,2056,1197
1410,1711440016889238952,2051,2057,2048,2074,2001,2052,1196
1411,1711440016899231883,2050,2045,2048,2051,2094,2054,1197
1412,1711440016909235134,2056,2037,2048,2135,2017,2056,1195
1413,1711440016919228014,2056,2060,2072,2066,2093,2049,1193
1414,1711440016929238159,2047,2036,2040,2068,2013,2060,1198
1415,1711440016939253133,2057,2052,2066,2042,2104,2052,1196
1416,1711440016949192486,2056,2058,2048,2089,2009,2056,1197
1417,1711440016959221549,2054,2064,2052,1994,2075,2043,1190
1418,1711440016969224159,2053,2055,2051,2144,2012,2056,1196
1419,1711440016979232950,2060,2065,2058,1957,2095,2051,1196
1420,1711440016989247924,2056,2062,2059,2090,2018,2060,1197
1421,1711440016999232328,2062,2059,2064,2088,2104,2049,1197
1422,1711440017009239080,2053,2060,2063,2037,1996,2047,1194
1423,1711440017019235361,2052,2072,2079,2049,2096,2052,1195
1424,1711440017029246041,2051,2028,2038,2069,2020,2060,1196
1425,1711440017039238654,2056,2061,2076,2051,2100,2050,1198
1426,1711440017049240165,2053,2060,2047,2092,2012,2060,1197
1427,1711440017059244342,2053,2032,2044,2037,2089,2045,1193
1428,1711440017069233159,2058,2035,2027,2073,2010,2057,1197
1429,1711440017079227586,2053,2029,2045,2077,2098,2050,1197
1430,1711440017089259808,2052,2037,2052,1990,1992,2051,1193
1431,1711440017099214637,2049,2033,2061,2017,2100,2052,1196
1432,1711440017109227641,2061,2047,2038,2069,2007,2063,1197
1433,1711440017119233572,2057,2057,2078,2018,2101,2055,1197
1434,1711440017129242448,2056,2050,2036,2068,2014,2056,1194
1435,1711440017139273598,2053,2046,2053,2048,2098,2049,1197
1436,1711440017149231082,2060,2071,2049,2086,2018,2059,1195
1437,1711440017159235509,2052,2053,2070,1904,2082,2049,1193
1438,1711440017169231650,2052,2049,2036,2072,2012,2055,1198
1439,1711440017179226749,2056,2068,2066,1981,2090,2048,1197
1440,1711440017189233119,2049,2055,2045,2068,2013,2058,1196
1441,1711440017199229611,2056,2050,2068,2062,2104,2052,1196
1442,1711440017209238447,2053,2059,2050,2076,2010,2058,1196
1443,1711440017219230580,2058,2072,2077,1981,2082,2044,1195
1444,1711440017229233835,2052,2046,2036,2044,2014,2056,1196
1445,1711440017239238082,2053,2022,2037,2071,2102,2050,1196
1446,1711440017249244262,2063,2057,2070,2073,2013,2058,1196
1447,1711440017259224201,2053,2035,2047,2037,2093,2049,1197
1448,1711440017269235392,2056,2052,2046,2066,1994,2053,1198
1449,1711440017279232975,2056,2051,2080,2043,2096,2048,1197
1450,1711440017289238695,2055,2054,2046,2066,2014,2060,1197
1451,1711440017299230978,2049,2021,2022,2096,2106,2052,1197
1452,1711440017309237510,2064,2054,2035,2032,1997,2050,1197
1453,1711440017319229432,2057,2053,2042,2025,2093,2047,1193
1454,1711440017329245493,2056,2064,2046,2104,2009,2057,1195
1455,1711440017339233748,2056,2060,2063,2052,2100,2051,1196
1456,1711440017349250910,2052,2049,2049,2068,2010,2054,1197
1457,1711440017359230207,2057,2058,2059,2036,2088,2051,1193
1458,1711440017369235216,2062,2060,2042,2001,2007,2058,1195
1459,1711440017379228731,2057,2056,2057,2040,2100,2053,1197
1460,1711440017389194722,2057,2065,2057,2048,2000,2053,1199
1461,1711440017399229870,2058,2052,2064,2060,2076,2042,1193
1462,1711440017409228887,2049,2045,2038,2029,2012,2055,1197
1463,1711440017419233625,2056,2050,2046,1968,2096,2052,1197
1464,1711440017429231449,2056,2055,2049,2096,2016,2060,1197
1465,1711440017439226868,2056,2064,2085,1965,2098,2050,1193
1466,1711440017449231165,2057,2064,2058,2105,2020,2058,1197
1467,1711440017459219791,2050,2056,2068,2032,2096,2052,1198
1468,1711440017469231633,2056,2053,2046,2067,2015,2057,1198
1469,1711440017479227533,2058,2080,2072,2035,2094,2050,1199
1470,1711440017489233383,2046,2031,2041,2082,2014,2058,1196
1471,1711440017499232991,2053,2031,2037,2141,2114,2053,1198
1472,1711440017509259131,2056,2090,2088,2088,2009,2057,1197
1473,1711440017519237928,2053,2044,2047,2087,2098,2051,1197
1474,1711440017529239750,2053,2043,2043,2105,2010,2057,1200
1475,1711440017539266862,2061,2060,2064,2040,2100,2053,1197
1476,1711440017549239075,2047,2033,2035,2058,2007,2058,1197
1477,1711440017559228503,2064,2059,2063,2041,2090,2046,1193
1478,1711440017569235545,2047,2046,2048,1997,2008,2056,1196
1479,1711440017579234792,2066,2048,2045,2041,2099,2050,1196
1480,1711440017589195202,2056,2052,2041,2052,2004,2056,1196
1481,1711440017599236863,2050,2049,2057,1989,2106,2048,1197
1482,1711440017609238956,2050,2038,2044,2077,1991,2057,1196
1483,1711440017619238503,2063,2068,2092,2048,2125,2049,1196
1484,1711440017629240917,2049,2042,2039,1951,1968,2053,1196
1485,1711440017639255123,2060,2073,2068,2042,2126,2046,1194
1486,1711440017649247165,2056,2062,2047,2056,1966,2060,1195
1487,1711440017659220812,2061,2059,2064,2045,2137,2047,1195
1488,1711440017669227173,2047,2040,2036,2129,1963,2058,1199
1489,1711440017679226350,2058,2061,2068,2064,2137,2047,1194
1490,1711440017689226789,2048,2037,2035,2144,1978,2058,1195
1491,1711440017699233541,2057,2064,2061,2051,2137,2049,1196
1492,1711440017709250252,2050,2035,2029,2056,1964,2061,1195
1493,1711440017719231323,2062,2051,2061,2050,2146,2051,1196
1494,1711440017729238005,2047,2037,2040,2123,1962,2058,1196
1495,1711440017739258654,2064,2067,2069,2046,2140,2050,1196
1496,1711440017749236298,2049,2027,2013,2052,1963,2056,1196
1497,1711440017759226477,2065,2054,2065,2053,2145,2049,1194
1498,1711440017769244522,2057,2051,2051,2036,1961,2056,1196
1499,1711440017779240111,2052,2060,2058,2054,2145,2047,1194
1500,1711440017789243937,2045,2041,2043,2086,1965,2056,1196
1501,1711440017799244637,2056,2052,2060,2018,2136,2046,1194
1502,1711440017809248603,2045,2022,2031,2105,1972,2057,1196
1503,1711440017819242129,2064,2045,2045,2058,2144,2050,1195
1504,1711440017829250745,2051,2049,2035,2093,1969,2059,1195
1505,1711440017839242376,2055,2040,2056,2038,2137,2050,1197
1506,1711440017849255441,2060,2064,2046,2040,1960,2059,1196
1507,1711440017859229848,2066,2066,2067,2001,2145,2053,1196
1508,1711440017869238534,2046,2048,2043,2066,1965,2058,1196
1509,1711440017879227851,2057,2064,2056,1959,2140,2047,1195
1510,1711440017889231948,2050,2043,2036,2040,1964,2061,1196
1511,1711440017899226806,2061,2052,2045,2047,2142,2048,1197
1512,1711440017909243508,2053,2045,2043,2086,1968,2058,1194
1513,1711440017919228587,2070,2074,2066,2038,2145,2050,1197
1514,1711440017929236240,2046,2043,2044,2076,1969,2056,1196
1515,1711440017939229114,2060,2092,2088,2042,2136,2051,1197
1516,1711440017949239373,2046,2050,2044,1898,1951,2056,1196
1517,1711440017959216056,2060,2066,2083,2060,2146,2053,1193
1518,1711440017969228419,2056,2059,2066,2048,1961,2054,1196
1519,1711440017979232234,2056,2046,2057,2014,2129,2046,1193
1520,1711440017989238886,2052,2026,2029,2100,1982,2060,1196
1521,1711440017999234415,2061,2024,2034,2052,2136,2053,1194
1522,1711440018009237953,2051,2038,2047,2176,1971,2056,1197
1523,1711440018019237625,2062,2059,2063,2058,2126,2047,1194
1524,1711440018029241435,2050,2045,2034,2059,1976,2056,1198
1525,1711440018039238812,2057,2085,2074,2017,2126,2051,1195
1526,1711440018049251841,2048,2038,2031,2057,1976,2056,1196
1527,1711440018059238998,2061,2064,2072,2023,2128,2051,1197
1528,1711440018069244831,2052,2041,2057,2062,1981,2056,1196
1529,1711440018079240365,2056,2043,2055,2094,2130,2050,1198
1530,1711440018089230338,2056,2066,2089,2088,1991,2059,1196
1531,1711440018099222524,2062,2077,2058,2037,2120,2052,1196
1532,1711440018109230223,2045,2039,2037,2056,1980,2056,1196
1533,1711440018119227329,2055,2038,2025,1997,2128,2052,1195
1534,1711440018129195548,2058,2049,2033,2047,1982,2058,1195
1535,1711440018139232083,2060,2054,2068,2029,2122,2049,1195
1536,1711440018149236895,2050,2056,2065,2080,1989,2060,1196
1537,1711440018159232238,2062,2060,2072,2044,2132,2053,1195
1538,1711440018169228263,2049,2048,2044,2031,1978,2057,1195
1539,1711440018179229618,2068,2066,2046,2049,2126,2050,1197
1540,1711440018189237535,2051,2044,2036,2040,1981,2059,1199
1541,1711440018199227268,2062,2063,2070,2112,2138,2053,1197
1542,1711440018209232040,2056,2072,2050,2089,1976,2058,1196
1543,1711440018219250639,2060,2056,2062,2024,2137,2045,1193
1544,1711440018229241794,2050,2052,2041,2008,1960,2061,1196
1545,1711440018239229512,2063,2079,2084,2064,2142,2052,1198
1546,1711440018249233542,2053,2063,2080,2085,1973,2062,1195
1547,1711440018259227653,2058,2051,2061,2032,2144,2050,1196
1548,1711440018269238537,2054,2059,2041,1959,1956,2062,1197
1549,1711440018279196576,2061,2060,2069,2068,2152,2050,1197
1550,1711440018289236538,2048,2040,2046,2080,1953,2052,1196
1551,1711440018299235939,2056,2076,2090,1971,2137,2047,1193
1552,1711440018309235931,2049,2045,2057,2044,1960,2057,1196
1553,1711440018319233088,2060,2059,2056,2031,2140,2050,1197
1554,1711440018329249052,2049,2047,2042,2042,1966,2058,1197
1555,1711440018339214526,2060,2072,2082,1960,2143,2045,1192
1556,1711440018349236041,2047,2037,2036,2000,1953,2057,1197
1557,1711440018359234831,2059,2064,2069,2013,2141,2047,1192
1558,1711440018369227258,2050,2077,2060,2048,1955,2059,1195
1559,1711440018379247331,2053,2048,2056,2036,2149,2047,1193
1560,1711440018389238836,2052,2060,2065,2083,1969,2061,1195
1561,1711440018399234650,2060,2040,2064,2040,2145,2047,1194
1562,1711440018409232158,2058,2056,2047,1949,1953,2060,1195
1563,1711440018419225276,2058,2070,2066,2092,2154,2048,1196
1564,1711440018429252101,2058,2057,2052,2111,1977,2064,1197
1565,1711440018439228307,2065,2066,2065,2037,2138,2047,1193
1566,1711440018449197418,2052,2057,2065,2017,1960,2057,1197
1567,1711440018459233482,2056,2048,2052,2036,2140,2050,1197
1568,1711440018469237543,2056,2070,2070,2076,1988,2062,1198
1569,1711440018479234529,2054,2044,2060,2117,2148,2055,1197
1570,1711440018489191576,2053,2056,2060,2108,1986,2057,1197
1571,1711440018499215597,2056,2033,2040,2008,2126,2048,1196
1572,1711440018509189918,2056,2049,2040,2066,1979,2057,1196
1573,1711440018519227945,2060,2072,2082,2040,2115,2047,1192
1574,1711440018529234311,2047,2029,2041,2044,1970,2057,1193
1575,1711440018539233631,2063,2053,2063,2002,2120,2051,1195
1576,1711440018549235738,2050,2044,2062,2084,1997,2060,1194
1577,1711440018559232715,2060,2031,2040,2041,2120,2049,1195
1578,1711440018569236945,2054,2044,2043,2066,1981,2055,1196
1579,1711440018579231556,2053,2054,2059,2028,2116,2051,1195
1580,1711440018589233063,2056,2057,2064,2090,1999,2058,1196
1581,1711440018599233686,2059,2064,2066,2112,2125,2054,1194
1582,1711440018609197566,2054,2056,2072,2088,1987,2057,1196
1583,1711440018619235715,2058,2068,2075,2041,2121,2050,1196
1584,1711440018629247380,2054,2047,2043,2042,1982,2057,1195
1585,1711440018639245679,2056,2058,2086,2113,2129,2050,1197
1586,1711440018649242145,2050,2052,2045,2059,1984,2059,1196
1587,1711440018659241526,2060,2064,2061,1997,2117,2050,1198
1588,1711440018669241327,2051,2041,2047,2088,1985,2060,1197
1589,1711440018679247132,2052,2033,2047,2010,2111,2046,1194
1590,1711440018689249729,2062,2054,2040,2064,1982,2060,1195
1591,1711440018699229862,2062,2078,2069,2060,2123,2052,1196
1592,1711440018709231358,2048,2043,2049,2077,1980,2058,1197
1593,1711440018719226841,2064,2072,2053,2064,2132,2055,1196
1594,1711440018729259077,2052,2032,2029,2069,1988,2058,1196
1595,1711440018739227918,2061,2057,2059,2052,2128,2053,1196
1596,1711440018749195376,2047,2036,2037,2074,1990,2057,1197
1597,1711440018759231189,2060,2050,2061,1992,2132,2056,1194
1598,1711440018769236582,2056,2048,2049,2027,1982,2058,1195
1599,1711440018779228889,2059,2066,2072,2037,2125,2046,1195
1600,1711440018789269953,2051,2041,2040,1941,1970,2056,1195
1601,1711440018799249665,2067,2077,2089,2088,2116,2047,1193
1602,1711440018809241441,2052,2045,2033,2084,1973,2056,1194
1603,1711440018819225732,2057,2060,2074,2042,2130,2050,1194
1604,1711440018829250544,2052,2066,2050,2014,1967,2054,1193
1605,1711440018839205036,2052,2012,2030,2035,2122,2047,1193
1606,1711440018849231531,2063,2044,2037,2069,1988,2060,1196
1607,1711440018859230392,2051,2053,2062,2040,2132,2052,1195
1608,1711440018869235584,2056,2057,2046,2109,1992,2057,1196
1609,1711440018879233822,2054,2039,2047,1986,2120,2047,1193
1610,1711440018889235479,2051,2018,2023,2080,1990,2057,1198
1611,1711440018899228196,2064,2060,2066,2056,2129,2053,1196
1612,1711440018909233960,2050,2037,2032,2067,1985,2059,1194
1613,1711440018919228452,2066,2072,2061,1956,2120,2048,1196
1614,1711440018929256439,2055,2072,2064,2060,1984,2060,1196
1615,1711440018939242243,2059,2053,2060,2047,2134,2052,1199
1616,1711440018949240202,2052,2049,2048,2090,1986,2058,1196
1617,1711440018959232339,2064,2056,2056,2046,2120,2049,1194
1618,1711440018969243192,2052,2060,2061,2049,1971,2053,1196
1619,1711440018979244578,2062,2064,2058,1928,2096,2040,1193
1620,1711440018989233769,2049,2056,2036,2047,1978,2057,1194
1621,1711440018999228230,2054,2058,2073,2044,2128,2048,1195
1622,1711440019009237465,2057,2059,2061,2067,1983,2057,1196
1623,1711440019019238382,2056,2058,2069,2058,2130,2050,1198
1624,1711440019029250524,2053,2049,2058,2084,1992,2060,1195
1625,1711440019039234778,2057,2074,2057,2002,2130,2049,1199
1626,1711440019049242109,2052,2052,2038,2093,1984,2058,1195
1627,1711440019059246164,2052,2048,2050,2040,2121,2045,1193
1628,1711440019069239446,2052,2021,2028,2078,1973,2052,1197
1629,1711440019079238851,2069,2081,2063,1971,2118,2047,1194
1630,1711440019089246874,2050,2051,2033,1994,1978,2058,1197
1631,1711440019099231008,2052,2068,2068,2020,2132,2048,1194
1632,1711440019109244311,2057,2062,2047,2085,1993,2064,1195
1633,1711440019119230811,2055,2069,2079,2088,2130,2050,1196
1634,1711440019129236969,2049,2049,2048,2064,1977,2056,1196
1635,1711440019139239861,2058,2056,2062,2032,2133,2049,1195
1636,1711440019149195680,2052,2046,2045,2080,1982,2060,1197
1637,1711440019159235445,2058,2065,2053,2049,2125,2045,1194
1638,1711440019169240751,2048,2047,2056,2084,1982,2059,1198
1639,1711440019179228764,2058,2066,2079,2059,2128,2049,1198
1640,1711440019189241416,2052,2058,2050,2081,1980,2057,1196
1641,1711440019199231161,2053,2046,2053,2028,2112,2045,1196
1642,1711440019209233301,2051,2037,2038,2061,1981,2059,1197
1643,1711440019219228830,2054,2061,2063,2072,2129,2050,1197
1644,1711440019229232683,2055,2066,2044,2077,1978,2056,1199
1645,1711440019239232799,2057,2022,2038,2028,2125,2049,1197
1646,1711440019249226925,2060,2049,2056,2073,1978,2060,1198
1647,1711440019259232632,2058,2061,2064,2008,2122,2046,1195
1648,1711440019269252547,2066,2060,2064,2091,1977,2061,1196
1649,1711440019279230120,2056,2040,2056,2098,2139,2053,1197
1650,1711440019289231889,2057,2049,2031,2062,1970,2060,1197
1651,1711440019299232026,2057,2081,2072,2081,2126,2047,1193
1652,1711440019309238666,2057,2055,2060,2026,1979,2060,1198
1653,1711440019319233872,2054,2052,2058,2068,2126,2046,1193
1654,1711440019329238307,2056,2060,2053,2052,1973,2056,1194
1655,1711440019339216901,2059,2047,2069,2025,2131,2050,1196
1656,1711440019349250103,2060,2069,2060,2056,1984,2064,1194
1657,1711440019359223466,2054,2021,2037,2078,2136,2049,1196
1658,1711440019369231588,2056,2045,2012,2088,1984,2060,1195
1659,1711440019379225183,2058,2056,2053,2016,2136,2050,1195
1660,1711440019389233034,2056,2057,2052,2064,1983,2064,1195
1661,1711440019399214834,2053,2046,2050,2025,2128,2045,1192
1662,1711440019409234540,2048,2033,2024,2079,1977,2058,1195
1663,1711440019419230408,2060,2035,2063,2104,2136,2048,1197
1664,1711440019429260583,2052,2061,2055,2107,1981,2057,1194
1665,1711440019439216032,2058,2060,2080,2069,2137,2048,1195
1666,1711440019449237932,2053,2056,2052,2082,1979,2056,1197
1667,1711440019459233338,2056,2052,2053,2048,2126,2046,1196
1668,1711440019469229498,2050,2038,2045,2051,1976,2058,1197
1669,1711440019479292489,2059,2066,2093,2074,2130,2049,1196
1670,1711440019489250611,2054,2037,2027,2098,1980,2058,1197
1671,1711440019499221500,2069,2056,2053,2024,2131,2050,1198
1672,1711440019509194082,2052,2052,2048,2081,1977,2057,1196
1673,1711440019519247875,2057,2056,2057,2001,2137,2050,1197
1674,1711440019529238664,2052,2047,2045,2104,1965,2053,1196
1675,1711440019539230754,2062,2046,2085,2058,2134,2048,1196
1676,1711440019549233816,2058,2053,2040,2030,1969,2057,1195
1677,1711440019559230636,2062,2064,2080,2113,2134,2047,1193
1678,1711440019569234240,2053,2046,2025,2068,1972,2057,1196
1679,1711440019579245167,2053,2045,2052,2061,2133,2046,1193
1680,1711440019589239272,2049,2042,2035,2155,1972,2056,1194
1681,1711440019599237826,2061,2074,2060,1938,2131,2052,1196
1682,1711440019609238082,2051,2050,2049,2084,1979,2058,1197
1683,1711440019619235553,2056,2052,2064,2047,2143,2048,1196
1684,1711440019629253335,2054,2050,2053,2079,1974,2057,1196
1685,1711440019639261517,2060,2071,2088,2109,2140,2047,1194
1686,1711440019649248147,2048,2048,2053,2097,1970,2053,1197
1687,1711440019659240829,2061,2068,2058,1963,2116,2039,1196
1688,1711440019669196988,2052,2057,2066,2088,1972,2057,1197
1689,1711440019679250951,2060,2066,2084,2059,2137,2050,1196
1690,1711440019689250367,2050,2050,2040,2088,1976,2061,1197
1691,1711440019699215324,2058,2054,2058,2097,2147,2052,1197
1692,1711440019709225079,2060,2058,2044,2081,1975,2061,1196
1693,1711440019719223592,2054,2028,2047,2061,2141,2048,1197
1694,1711440019729258999,2059,2060,2053,2097,1977,2061,1197
1695,1711440019739274606,2053,2027,2045,1924,2132,2047,1193
1696,1711440019749229442,2061,2072,2041,2056,1960,2058,1198
1697,1711440019759250922,2057,2056,2064,1995,2156,2050,1194
1698,1711440019769236319,2053,2049,2052,2092,1968,2065,1195
1699,1711440019779228950,2053,2050,2046,2044,2148,2045,1194
1700,1711440019789231622,2053,2064,2052,2038,1963,2059,1195
1701,1711440019799231378,2053,2024,2028,2024,2142,2052,1195
1702,1711440019809229700,2058,2050,2033,2188,1976,2060,1195
1703,1711440019819240118,2056,2056,2044,2071,2131,2045,1194
1704,1711440019829264653,2047,2031,2032,2073,1975,2062,1196
1705,1711440019839228858,2060,2052,2058,2068,2131,2050,1197
1706,1711440019849233915,2048,2037,2034,2098,1978,2056,1195
1707,1711440019859229121,2058,2036,2068,2041,2128,2052,1197
1708,1711440019869229818,2052,2032,2029,2093,1976,2055,1196
1709,1711440019879223973,2064,2059,2062,2072,2129,2050,1195
1710,1711440019889276414,2051,2047,2028,2019,1975,2058,1196
1711,1711440019899229346,2061,2062,2062,2035,2129,2050,1196
1712,1711440019909230686,2047,2026,2029,2080,1973,2056,1197
1713,1711440019919226023,2061,2055,2068,2076,2132,2050,1197
1714,1711440019929240016,2053,2051,2037,2036,1976,2052,1194
1715,1711440019939231035,2058,2064,2060,2049,2132,2049,1197
1716,1711440019949197886,2045,2051,2046,2064,1984,2062,1197
1717,1711440019959232019,2057,2056,2056,2028,2112,2044,1191
1718,1711440019969231574,2052,2047,2042,2077,1986,2063,1194
1719,1711440019979225920,2052,2035,2050,2046,2124,2042,1193
1720,1711440019989246266,2057,2083,2102,1981,1980,2058,1198
1721,1711440019999229058,2056,2056,2093,2050,2128,2047,1192
1722,1711440020009231192,2052,2037,2032,2048,1988,2059,1196
1723,1711440020019227926,2060,2045,2054,2042,2115,2050,1194
1724,1711440020029243337,2049,2051,2052,2080,2006,2060,1195
1725,1711440020039257104,2061,2060,2057,2052,2108,2047,1194
1726,1711440020049228617,2052,2073,2058,2074,1992,2050,1197
1727,1711440020059228978,2051,2043,2053,2158,2105,2044,1193
1728,1711440020069241072,2051,2041,2037,2096,2002,2056,1196
1729,1711440020079234659,2065,2074,2072,2039,2104,2053,1196
1730,1711440020089240130,2051,2048,2050,2065,2002,2059,1195
1731,1711440020099243547,2057,2059,2069,2040,2101,2047,1193
1732,1711440020109248236,2057,2072,2058,2052,2002,2059,1196
1733,1711440020119226884,2052,2053,2043,2093,2117,2052,1196
1734,1711440020129244249,2048,2041,2069,2076,1999,2053,1196
1735,1711440020139258186,2063,2074,2085,2031,2108,2050,1196
1736,1711440020149235962,2056,2054,2070,2107,2011,2058,1197
1737,1711440020159231694,2058,2060,2066,2041,2110,2052,1195
1738,1711440020169195693,2051,2029,2038,2076,2008,2060,1196
1739,1711440020179226845,2061,2050,2060,2024,2104,2047,1193
1740,1711440020189196214,2053,2064,2064,2095,2015,2060,1196
1741,1711440020199226254,2057,2053,2041,2095,2126,2057,1196
1742,1711440020209248729,2053,2045,2036,2048,1996,2054,1197
1743,1711440020219230352,2057,2056,2072,2045,2107,2049,1197
1744,1711440020229209160,2053,2052,2038,1988,1995,2058,1195
1745,1711440020239234731,2058,2064,2052,2018,2117,2046,1194
1746,1711440020249234852,2053,2056,2044,1962,1976,2058,1193
1747,1711440020259222607,2059,2054,2061,1975,2119,2051,1198
1748,1711440020269238969,2056,2068,2084,2029,1983,2057,1197
1749,1711440020279226655,2056,2045,2049,2044,2119,2050,1196
1750,1711440020289239832,2056,2066,2071,2034,1974,2054,1194
1751,1711440020299224752,2060,2049,2056,2075,2122,2052,1196
1752,1711440020309230383,2057,2062,2043,2070,2002,2060,1197
1753,1711440020319231215,2056,2059,2069,2050,2088,2044,1194
1754,1711440020329235103,2052,2036,2018,2108,2009,2061,1197
1755,1711440020339258138,2056,2040,2061,2092,2112,2047,1193
1756,1711440020349245082,2052,2032,2038,2028,2001,2058,1195
1757,1711440020359237417,2056,2044,2054,2040,2104,2048,1192
1758,1711440020369222007,2053,2040,2041,2076,2008,2058,1194
1759,1711440020379222879,2056,2049,2046,1978,2104,2053,1194
1760,1711440020389264822,2056,2051,2041,2079,2012,2058,1195
1761,1711440020399226817,2056,2085,2087,2130,2108,2047,1192
1762,1711440020409198772,2056,2072,2074,2075,2003,2056,1196
1763,1711440020419230214,2061,2066,2067,2018,2106,2052,1194
1764,1711440020429231797,2055,2052,2058,2088,1993,2052,1195
1765,1711440020439269322,2067,2062,2061,2077,2119,2055,1196
1766,1711440020449228912,2053,2041,2050,2084,2008,2061,1196
1767,1711440020459228932,2064,2054,2053,2034,2110,2049,1197
1768,1711440020469231396,2053,2042,2052,2072,1998,2060,1197
1769,1711440020479228371,2061,2064,2062,2029,2106,2050,1196
1770,1711440020489245515,2054,2048,2045,2078,1984,2056,1194
1771,1711440020499230064,2065,2053,2059,2028,2121,2050,1196
1772,1711440020509249753,2049,2069,2076,2150,1987,2057,1197
1773,1711440020519242299,2061,2058,2077,2108,2128,2047,1195
1774,1711440020529245786,2056,2061,2046,2068,1986,2057,1195
1775,1711440020539228772,2057,2047,2063,2083,2133,2053,1197
1776,1711440020549232740,2054,2054,2061,2066,1986,2056,1195
1777,1711440020559223853,2059,2053,2058,2067,2123,2048,1193
1778,1711440020569243973,2056,2077,2064,2133,1998,2057,1195
1779,1711440020579228041,2056,2059,2072,2046,2106,2045,1193
1780,1711440020589230967,2050,2048,2036,2081,1990,2058,1194
1781,1711440020599231388,2054,2036,2047,2024,2124,2049,1197
1782,1711440020609246779,2049,2037,2042,2086,1988,2062,1195
1783,1711440020619233041,2052,2041,2061,2091,2140,2049,1197
1784,1711440020629235947,2056,2057,2052,2104,1984,2063,1195
1785,1711440020639236058,2056,2049,2065,2038,2130,2045,1193
1786,1711440020649249424,2051,2037,2034,2075,1978,2057,1196
1787,1711440020659244925,2060,2049,2072,2027,2136,2048,1195
1788,1711440020669259053,2050,2050,2046,2083,1972,2058,1196
1789,1711440020679225116,2059,2074,2078,2050,2147,2045,1193
1790,1711440020689196029,2050,2043,2050,2050,1965,2060,1196
1791,1711440020699243553,2058,2058,2052,2050,2145,2050,1196
1792,1711440020709246218,2053,2041,2041,2112,1966,2059,1195
1793,1711440020719228944,2066,2066,2060,1989,2148,2052,1196
1794,1711440020729248674,2055,2058,2056,1999,1957,2056,1197
1795,1711440020739229626,2062,2059,2073,2066,2154,2052,1197
1796,1711440020749250096,2050,2038,2032,2078,1960,2061,1197
1797,1711440020759218483,2061,2062,2063,1981,2144,2045,1192
1798,1711440020769230136,2047,2024,2024,2034,1943,2057,1196
1799,1711440020779223664,2062,2058,2069,1997,2149,2047,1195
1800,1711440020789223815,2052,2050,2061,2107,1967,2062,1196
1801,1711440020799232682,2056,2061,2066,2045,2144,2046,1192
1802,1711440020809236670,2052,2040,2024,2074,1966,2056,1196
1803,1711440020819224847,2061,2063,2068,2073,2140,2049,1197
1804,1711440020829233264,2056,2051,2041,2084,1981,2060,1196
1805,1711440020839230578,2056,2080,2072,2057,2131,2047,1193
1806,1711440020849234386,2047,2035,2034,2123,1991,2061,1197
1807,1711440020859222272,2056,2050,2058,2133,2130,2049,1193
1808,1711440020869237683,2057,2053,2040,2078,1984,2057,1197
1809,1711440020879229547,2054,2065,2067,2041,2121,2051,1197
1810,1711440020889236400,2054,2035,2030,2079,1989,2055,1195
1811,1711440020899244867,2056,2064,2061,2045,2125,2049,1196
1812,1711440020909245849,2049,2034,2036,2063,1965,2052,1198
1813,1711440020919227062,2064,2056,2060,2084,2123,2052,1198
1814,1711440020929233615,2056,2040,2050,2140,1989,2057,1196
1815,1711440020939234607,2053,2070,2084,2045,2126,2052,1198
1816,1711440020949197183,2049,2055,2054,2041,1974,2056,1196
1817,1711440020959227052,2056,2041,2044,2040,2123,2048,1194
1818,1711440020969229758,2055,2057,2041,2075,1979,2056,1197
1819,1711440020979229207,2057,2053,2057,1950,2121,2049,1196
1820,1711440020989232794,2047,2047,2049,2026,1972,2055,1196
1821,1711440020999244137,2057,2082,2090,2060,2129,2050,1196
1822,1711440021009241264,2055,2050,2068,2095,1977,2054,1196
1823,1711440021019230696,2063,2061,2076,2045,2131,2047,1193
1824,1711440021029233246,2050,2052,2044,2073,1977,2058,1194
1825,1711440021039233310,2051,2049,2056,2077,2127,2049,1197
1826,1711440021049688005,2054,2037,2029,2069,1972,2058,1196
1827,1711440021059225733,2061,2047,2047,1997,2131,2045,1194
1828,1711440021069235014,2053,2057,2068,2079,1972,2061,1198
1829,1711440021079233506,2058,2071,2071,2033,2150,2050,1196
1830,1711440021089237327,2052,2032,2028,2075,1960,2060,1196
1831,1711440021099238954,2062,2048,2058,2033,2148,2048,1197
1832,1711440021109190692,2056,2065,2056,2016,1947,2054,1197
1833,1711440021119242559,2059,2056,2060,2036,2152,2049,1193
1834,1711440021129244356,2052,2053,2044,2068,1953,2060,1196
1835,1711440021139232136,2060,2060,2069,1904,2137,2043,1193
1836,1711440021149241017,2056,2065,2052,1990,1949,2060,1195
1837,1711440021159227404,2057,2044,2060,2060,2156,2049,1195
1838,1711440021169240775,2053,2065,2049,2057,1953,2058,1196
1839,1711440021179228314,2060,2053,2056,2038,2154,2052,1193
1840,1711440021189232216,2054,2049,2045,1950,1944,2058,1198
1841,1711440021199228622,2056,2065,2089,2054,2156,2049,1198
1842,1711440021209247063,2050,2038,2030,2094,1954,2058,1194
1843,1711440021219230775,2054,2052,2046,2045,2152,2047,1192
1844,1711440021229232150,2052,2060,2045,2093,1967,2062,1196
1845,1711440021239199761,2053,2074,2078,2017,2153,2051,1196
1846,1711440021249193211,2052,2042,2031,2057,1942,2056,1196
1847,1711440021259232803,2053,2037,2057,2056,2157,2049,1197
1848,1711440021269228740,2059,2055,2065,2125,1946,2060,1197
1849,1711440021279221529,2059,2054,2061,2039,2157,2050,1197
1850,1711440021289228727,2056,2053,2051,2033,1949,2058,1194
1851,1711440021299232278,2052,2021,2032,2090,2163,2049,1195
1852,1711440021309239446,2057,2046,2026,2121,1961,2063,1197
1853,1711440021319227356,2052,2053,2057,2105,2149,2041,1194
1854,1711440021329236027,2047,2040,2037,2104,1951,2053,1195
1855,1711440021339241011,2064,2052,2084,2095,2156,2053,1195
1856,1711440021349259291,2054,2069,2057,2093,1969,2058,1196
1857,1711440021359239345,2055,2040,2042,2024,2133,2044,1193
1858,1711440021369193749,2056,2061,2040,1999,1977,2061,1196
1859,1711440021379232349,2053,2047,2056,2098,2126,2051,1197
1860,1711440021389239266,2056,2058,2067,2046,1979,2056,1197
1861,1711440021399231976,2058,2064,2058,2042,2129,2052,1195
1862,1711440021409241238,2050,2036,2035,2109,1989,2056,1194
1863,1711440021419234168,2054,2040,2044,2045,2128,2047,1193
1864,1711440021429241527,2056,2073,2047,2082,1985,2056,1194
1865,1711440021439244596,2052,2048,2054,1930,2106,2044,1193
1866,1711440021449245071,2053,2060,2049,2096,1973,2056,1196
1867,1711440021459238762,2057,2052,2047,2031,2130,2049,1196
1868,1711440021469238316,2056,2057,2064,2056,1982,2057,1196
1869,1711440021479232899,2052,2046,2049,2047,2126,2048,1197
1870,1711440021489231660,2060,2056,2036,2077,1985,2058,1195
1871,1711440021499248287,2050,2050,2056,2024,2130,2048,1195
1872,1711440021509239924,2052,2038,2034,2074,1982,2053,1194
1873,1711440021519230850,2062,2069,2062,2044,2121,2050,1194
1874,1711440021529231886,2056,2061,2080,2079,1984,2057,1196
1875,1711440021539229875,2053,2057,2056,2081,2133,2048,1195
1876,1711440021549258046,2062,2052,2036,2063,1987,2060,1194
1877,1711440021559225214,2060,2052,2062,1999,2133,2056,1194
1878,1711440021569236089,2050,2053,2050,2122,1986,2060,1198
1879,1711440021579223980,2055,2064,2080,2013,2119,2047,1193
1880,1711440021589225807,2050,2043,2028,2064,1983,2060,1196
1881,1711440021599235751,2060,2089,2096,2034,2131,2047,1193
1882,1711440021609237208,2058,2041,2036,2044,1982,2060,1194
1883,1711440021619232251,2052,2041,2052,2065,2134,2050,1197
1884,1711440021629237045,2060,2058,2051,2091,1989,2063,1196
1885,1711440021639234804,2062,2082,2085,2064,2132,2049,1196
1886,1711440021649242684,2048,2047,2036,2072,1972,2053,1195
1887,1711440021659233510,2057,2086,2092,2043,2123,2049,1195
1888,1711440021669239996,2047,2034,2029,2006,1976,2058,1198
1889,1711440021679238557,2057,2036,2057,2039,2139,2049,1196
1890,1711440021689241908,2056,2045,2052,2060,1985,2060,1197
1891,1711440021699224256,2059,2060,2062,1982,2126,2048,1197
1892,1711440021709243248,2053,2047,2045,2081,1977,2056,1198
1893,1711440021719226418,2060,2091,2099,2036,2129,2046,1194
1894,1711440021729229178,2054,2059,2060,2090,1979,2059,1195
1895,1711440021739225034,2054,2056,2059,1981,2124,2046,1194
1896,1711440021749193875,2050,2031,2040,2088,1977,2057,1195
1897,1711440021759236915,2058,2052,2061,2013,2136,2046,1190
1898,1711440021769190857,2048,2033,2041,2075,1981,2062,1197
1899,1711440021779228656,2058,2046,2056,2025,2132,2045,1193
1900,1711440021789230023,2063,2082,2060,2014,1971,2061,1193
1901,1711440021799225267,2052,2048,2058,2072,2152,2050,1195
1902,1711440021809235451,2050,2028,2037,2114,1968,2058,1195
1903,1711440021819236286,2056,2050,2056,2078,2136,2046,1193
1904,1711440021829232733,2057,2049,2048,2069,1970,2061,1197
1905,1711440021839230112,2052,2047,2060,2013,2134,2050,1196
1906,1711440021849241007,2054,2032,2043,1959,1965,2062,1197
1907,1711440021859223797,2064,2058,2066,2034,2152,2052,1196
1908,1711440021869229513,2057,2056,2042,1962,1963,2060,1196
1909,1711440021879228063,2053,2049,2058,2049,2141,2046,1196
1910,1711440021889198869,2051,2044,2038,2080,1968,2057,1198
1911,1711440021899228091,2056,2058,2064,2019,2138,2047,1194
1912,1711440021909257974,2053,2058,2053,2058,1961,2052,1195
1913,1711440021919237698,2053,2059,2082,1858,2128,2045,1193
1914,1711440021929235297,2054,2052,2047,2106,1963,2060,1193
1915,1711440021939233778,2052,2072,2071,2067,2148,2047,1193
1916,1711440021949251447,2052,2044,2045,2096,1975,2063,1196
1917,1711440021959227493,2051,2067,2080,2033,2132,2045,1191
1918,1711440021969249070,2047,2050,2043,2093,1972,2061,1195
1919,1711440021979231709,2053,2053,2065,2064,2140,2047,1193
1920,1711440021989196483,2056,2073,2052,2108,1964,2056,1195
1921,1711440021999229743,2058,2054,2052,2029,2136,2045,1191
1922,1711440022009234621,2060,2065,2047,2081,1970,2062,1194
1923,1711440022019225019,2060,2064,2060,2100,2141,2044,1193
1924,1711440022029228132,2052,2046,2044,2074,1969,2061,1195
1925,1711440022039227268,2059,2050,2048,2036,2136,2046,1193
1926,1711440022049243678,2053,2050,2044,2136,1980,2062,1194
1927,1711440022059242785,2054,2060,2063,2061,2148,2047,1194
1928,1711440022069254455,2052,2036,2029,2005,1962,2062,1198
1929,1711440022080619630,2057,2056,2053,2005,2125,2042,1193
1930,1711440022089254099,2058,2033,2025,2056,1974,2064,1196
1931,1711440022099248125,2061,2070,2054,1967,2128,2049,1195
1932,1711440022109250988,2050,2040,2040,2073,1975,2059,1197
1933,1711440022119271246,2058,2043,2051,1955,2124,2048,1195
1934,1711440022129254701,2051,2036,2030,2063,1982,2063,1195
1935,1711440022139257935,2056,2049,2067,2000,2121,2048,1196
1936,1711440022149255318,2054,2048,2047,2089,1984,2060,1197
1937,1711440022159248291,2056,2102,2088,2048,2134,2045,1194
1938,1711440022169275172,2053,2040,2041,2114,1992,2060,1197
1939,1711440022179280740,2057,2054,2052,2067,2116,2049,1196
1940,1711440022189245317,2065,2074,2061,2086,1992,2061,1194
1941,1711440022199234714,2052,2053,2054,2054,2128,2047,1193
1942,1711440022209243629,2061,2082,2061,2132,1991,2061,1197
1943,1711440022219239419,2060,2073,2070,2040,2125,2045,1194
1944,1711440022229274666,2061,2060,2069,2062,1983,2062,1196
1945,1711440022239248312,2053,2049,2060,1988,2121,2046,1191
1946,1711440022249256756,2058,2051,2048,2066,1981,2060,1196
1947,1711440022259241182,2056,2056,2052,2076,2130,2049,1197
1948,1711440022269279316,2058,2077,2055,2109,1988,2059,1199
1949,1711440022279266267,2046,2051,2058,1967,2122,2042,1194
1950,1711440022289268990,2057,2065,2059,2067,1960,2058,1195
1951,1711440022299241303,2053,2049,2057,2044,2135,2047,1197
1952,1711440022309252242,2061,2064,2058,2040,1974,2059,1197
1953,1711440022319259454,2057,2053,2065,2060,2138,2047,1195
1954,1711440022329279963,2065,2092,2080,2077,1982,2068,1196
1955,1711440022339244700,2058,2040,2063,2031,2133,2050,1197
1956,1711440022349241000,2060,2064,2051,2041,1974,2061,1196
1957,1711440022359234485,2059,2050,2065,2061,2133,2042,1192
1958,1711440022369247548,2054,2052,2042,2089,1966,2058,1195
1959,1711440022379263538,2051,2052,2056,2008,2110,2033,1193
1960,1711440022389236642,2057,2065,2059,2096,1980,2060,1197
1961,1711440022399245307,2052,2033,2057,2048,2134,2046,1194
1962,1711440022409247799,2058,2058,2050,2056,1980,2060,1197
1963,1711440022419239901,2056,2056,2050,2045,2129,2039,1194
1964,1711440022429244287,2056,2070,2052,2008,1964,2056,1194
1965,1711440022439237040,2054,2053,2060,2008,2139,2042,1195
1966,1711440022449238741,2052,2089,2111,2132,1989,2058,1197
1967,1711440022459226534,2056,2057,2064,2022,2133,2046,1193
1968,1711440022469267764,2056,2046,2030,2072,1973,2061,1196
1969,1711440022479238924,2056,2043,2047,1980,2130,2043,1195
1970,1711440022489196558,2056,2056,2079,2082,1973,2062,1198
1971,1711440022499234531,2057,2064,2059,1956,2132,2046,1194
1972,1711440022509240590,2052,2012,2017,2100,1977,2065,1195
1973,1711440022519230568,2064,2059,2049,2030,2137,2047,1195
1974,1711440022529250865,2054,2028,2032,2100,1991,2065,1197
1975,1711440022539223499,2056,2043,2060,2043,2136,2044,1194
1976,1711440022549237695,2052,2041,2040,2091,1971,2064,1197
1977,1711440022559228895,2065,2077,2074,2050,2136,2047,1192
1978,1711440022569234363,2059,2053,2046,2090,1984,2064,1196
1979,1711440022579229351,2056,2070,2076,2088,2132,2048,1196
1980,1711440022589231703,2054,2040,2040,2120,1986,2057,1196
1981,1711440022599226590,2057,2058,2047,2072,2128,2046,1193
1982,1711440022609230747,2057,2072,2061,2045,1986,2064,1194
1983,1711440022619248599,2053,2047,2056,2060,2125,2046,1193
1984,1711440022629236183,2048,2040,2032,2088,1990,2061,1197
1985,1711440022639251620,2057,2074,2071,2046,2120,2044,1191
1986,1711440022649234735,2064,2078,2082,2092,1989,2065,1196
1987,1711440022659236937,2055,2057,2064,2037,2128,2047,1194
1988,1711440022669240451,2052,2047,2037,2074,1992,2060,1195
1989,1711440022679249076,2056,2069,2068,1992,2100,2042,1194
1990,1711440022689195196,2056,2057,2057,2066,1997,2064,1197
1991,1711440022699239061,2052,2053,2065,1897,2104,2045,1194
1992,1711440022709242826,2050,2038,2037,2054,1988,2060,1194
1993,1711440022719226552,2052,2058,2068,2047,2127,2048,1197
1994,1711440022729248512,2058,2046,2044,2117,1991,2060,1196
1995,1711440022739220775,2056,2064,2057,2042,2120,2045,1195
1996,1711440022749230913,2059,2050,2054,2089,1988,2063,1196
1997,1711440022759228946,2055,2056,2057,2036,2129,2047,1193
1998,1711440022769251769,2050,2065,2078,2063,1980,2060,1197
1999,1711440022779236075,2048,2034,2063,2036,2130,2045,1194
2000,1711440022789259300,2059,2068,2057,2104,1986,2065,1197
2001,1711440022799232584,2054,2048,2046,2019,2136,2049,1196
2002,1711440022809236259,2056,2065,2072,2071,1981,2058,1196
2003,1711440022819229793,2056,2059,2062,2069,2140,2051,1194
2004,1711440022829245822,2059,2037,2028,2097,1980,2061,1195
2005,1711440022839208857,2055,2053,2045,2008,2129,2050,1198
2006,1711440022849239886,2051,2031,2046,2061,1981,2060,1196
2007,1711440022859244573,2057,2037,2039,2041,2121,2044,1193
2008,1711440022869239310,2054,2055,2053,2090,1986,2065,1197
2009,1711440022879241553,2053,2016,2028,2048,2130,2045,1192
2010,1711440022889234917,2074,2069,2056,2112,1980,2065,1198
2011,1711440022899224654,2053,2049,2054,2044,2126,2047,1194
2012,1711440022909234100,2057,2057,2064,2053,1980,2060,1196
2013,1711440022919229989,2056,2054,2067,1986,2116,2045,1192
2014,1711440022929246841,2057,2064,2058,2052,1985,2064,1194
2015,1711440022939792490,2052,2030,2036,2034,2120,2047,1193
2016,1711440022949248860,2057,2064,2051,2134,1996,2059,1197
2017,1711440022959266783,2052,2042,2060,2047,2132,2047,1192
2018,1711440022969255027,2056,2056,2050,2076,1976,2058,1194
2019,1711440022979241969,2046,2051,2062,2034,2114,2043,1194
2020,1711440022989254771,2059,2066,2048,2064,1993,2061,1196
2021,1711440022999237375,2053,2057,2057,2014,2109,2044,1192
2022,1711440023009244379,2057,2044,2045,1971,1980,2061,1195
2023,1711440023019237697,2063,2082,2088,2024,2121,2046,1193
2024,1711440023029236916,2050,2047,2033,2145,1994,2059,1196
2025,1711440023039237058,2052,2047,2054,2051,2123,2044,1194
2026,1711440023049244163,2063,2065,2081,2085,1997,2068,1196
2027,1711440023059259815,2057,2061,2076,2067,2114,2044,1192
2028,1711440023069245288,2055,2086,2076,2067,1990,2060,1199
2029,1711440023079227414,2052,2057,2072,2056,2124,2048,1197
2030,1711440023089233917,2056,2057,2057,2074,1993,2061,1197
2031,1711440023099235993,2056,2057,2062,2046,2120,2045,1197
2032,1711440023109237027,2052,2051,2040,2096,1992,2061,1200
2033,1711440023119238110,2055,2069,2057,2037,2116,2044,1194
2034,1711440023129244173,2056,2074,2077,2088,1988,2062,1195
2035,1711440023139221940,2053,2046,2057,1938,2125,2049,1196
2036,1711440023149238554,2052,2056,2046,2083,1985,2062,1196
2037,1711440023159230660,2052,2064,2072,1996,2123,2045,1194
2038,1711440023169235911,2050,2043,2042,2105,1982,2062,1196
2039,1711440023179228798,2058,2065,2080,2025,2120,2045,1193
2040,1711440023189232026,2056,2041,2040,2076,1974,2057,1194
2041,1711440023199228781,2059,2048,2037,1994,2126,2049,1197
2042,1711440023209233582,2058,2060,2047,2109,1984,2061,1196
2043,1711440023219227100,2057,2077,2080,1911,2115,2046,1196
2044,1711440023229238734,2056,2046,2046,2042,1984,2065,1196
2045,1711440023239220479,2058,2055,2073,2040,2128,2048,1196
2046,1711440023249237415,2060,2037,2049,2000,1981,2064,1195
2047,1711440023259235041,2056,2043,2053,2031,2119,2040,1192
2048,1711440023269230623,2061,2052,2056,2076,1976,2065,1197
2049,1711440023279223760,2051,2053,2060,2040,2125,2042,1193
2050,1711440023289237799,2058,2068,2076,2090,1988,2061,1196
2051,1711440023299236649,2051,2032,2039,2036,2121,2044,1193
2052,1711440023309232362,2059,2066,2069,2141,1982,2060,1196
2053,1711440023319232433,2054,2056,2056,2061,2123,2044,1194
2054,1711440023329239057,2056,2053,2062,2086,1989,2061,1196
2055,1711440023339229459,2051,2049,2046,2027,2120,2045,1193
2056,1711440023349192077,2056,2035,2042,2066,1984,2060,1196
2057,1711440023359247979,2056,2043,2051,2072,2126,2046,1192
2058,1711440023369237819,2057,2080,2094,2106,1986,2061,1195
2059,1711440023379227981,2058,2052,2057,2057,2123,2048,1197
2060,1711440023389242911,2058,2050,2041,2061,1996,2063,1196
2061,1711440023399219096,2051,2049,2052,2042,2116,2048,1195
2062,1711440023409234388,2061,2058,2056,2054,1994,2060,1196
2063,1711440023419230270,2057,2067,2079,1909,2112,2050,1195
2064,1711440023429238838,2060,2109,2093,2099,2004,2061,1194
2065,1711440023439233239,2049,2049,2050,2017,2113,2045,1195
2066,1711440023449181438,2058,2058,2074,2092,2000,2064,1197
2067,1711440023459234193,2052,2052,2053,2040,2115,2047,1194
2068,1711440023469240296,2048,2031,2033,2104,1994,2059,1196
2069,1711440023479231511,2052,2037,2050,2036,2112,2044,1193
2070,1711440023489242773,2055,2081,2084,2142,1997,2060,1195
2071,1711440023499231603,2049,2056,2048,2051,2108,2045,1193
2072,1711440023509238818,2057,2052,2040,2073,1985,2060,1193
2073,1711440023519230994,2050,2063,2060,2019,2122,2041,1193
2074,1711440023529242879,2056,2040,2051,2091,1985,2063,1195
2075,1711440023539228983,2050,2053,2064,2051,2124,2044,1195
2076,1711440023549237401,2054,2077,2073,2208,1998,2067,1196
2077,1711440023559230167,2048,2052,2067,2050,2112,2041,1193
2078,1711440023569242152,2058,2056,2058,2123,1997,2062,1194
2079,1711440023579229990,2054,2056,2053,2023,2120,2047,1195
2080,1711440023589240302,2061,2053,2041,2036,1987,2064,1194
2081,1711440023599233319,2047,2052,2058,2040,2118,2042,1192
2082,1711440023609231807,2064,2052,2042,2077,1988,2063,1198
2083,1711440023619232078,2045,2045,2052,2013,2120,2044,1193
2084,1711440023629241879,2058,2076,2087,2088,1977,2056,1197
2085,1711440023639230347,2050,2052,2056,2026,2120,2050,1197
2086,1711440023649233996,2059,2056,2056,2088,1992,2066,1195
2087,1711440023659235941,2052,2061,2053,2021,2123,2045,1195
2088,1711440023669239419,2062,2073,2074,2132,2007,2068,1198
2089,1711440023679238038,2056,2056,2058,2066,2120,2047,1193
2090,1711440023689239692,2060,2049,2046,2086,1994,2064,1196
2091,1711440023699239834,2052,2046,2050,2021,2120,2048,1196
2092,1711440023709241929,2059,2064,2063,2084,1990,2062,1195
2093,1711440023719224034,2050,2056,2072,2102,2114,2047,1194
2094,1711440023729243694,2057,2050,2048,2093,1992,2062,1197
2095,1711440023739224848,2049,2053,2047,2070,2120,2044,1193
2096,1711440023749227355,2066,2063,2064,2040,1992,2066,1196
2097,1711440023759230472,2050,2055,2053,2077,2112,2044,1192
2098,1711440023769229722,2064,2077,2074,2145,1997,2061,1196
2099,1711440023779227930,2052,2065,2072,2069,2124,2045,1194
2100,1711440023789233422,2064,2054,2052,2109,1993,2058,1195
2101,1711440023799218153,2054,2048,2056,2030,2119,2045,1193
2102,1711440023809196731,2062,2059,2060,2080,1994,2064,1196
2103,1711440023819225510,2049,2054,2077,2057,2124,2047,1195
2104,1711440023829237955,2060,2058,2056,2100,1996,2062,1196
2105,1711440023839232406,2054,2047,2076,2065,2126,2047,1195
2106,1711440023849238830,2061,2053,2049,2090,1992,2058,1196
2107,1711440023859233099,2048,2045,2057,2052,2120,2048,1198
2108,1711440023869230385,2069,2064,2061,2104,1990,2064,1195
2109,1711440023879228723,2053,2056,2073,2062,2120,2048,1196
2110,1711440023889231991,2060,2066,2054,1990,1988,2060,1197
2111,1711440023899229117,2052,2075,2069,2056,2123,2052,1197
2112,1711440023909229719,2058,2053,2040,2032,1974,2056,1198
2113,1711440023919228237,2048,2032,2050,2036,2114,2047,1194
2114,1711440023929236565,2065,2048,2058,2090,2000,2067,1197
2115,1711440023939200846,2052,2047,2044,2008,2114,2047,1194
2116,1711440023949228441,2068,2066,2058,2095,1994,2061,1196
2117,1711440023959225797,2056,2068,2072,2051,2118,2048,1194
2118,1711440023969231269,2057,2068,2066,2113,1992,2061,1196
2119,1711440023979226571,2048,2049,2040,2048,2110,2045,1192
2120,1711440023989227935,2057,2053,2045,2034,1976,2053,1196
2121,1711440023999229960,2044,2032,2044,1984,2117,2048,1197
2122,1711440024009240194,2059,2058,2041,2080,2004,2061,1195
2123,1711440024019230069,2048,2057,2050,2024,2110,2046,1193
2124,1711440024029239322,2066,2072,2058,2077,1996,2057,1196
2125,1711440024039242153,2054,2052,2051,2005,2104,2045,1193
2126,1711440024049224512,2064,2064,2051,2080,2006,2064,1195
2127,1711440024059225409,2049,2050,2045,2078,2117,2044,1196
2128,1711440024069243309,2061,2058,2058,2090,2004,2062,1197
2129,1711440024079216441,2050,2048,2061,2041,2112,2050,1197
2130,1711440024089245624,2062,2085,2076,2073,2005,2063,1198
2131,1711440024099244075,2046,2036,2047,2042,2099,2044,1193
2132,1711440024109251325,2064,2050,2048,2097,2010,2064,1196
2133,1711440024119241870,2046,2033,2049,1981,2095,2045,1194
2134,1711440024129250854,2060,2041,2049,2065,2006,2059,1197
2135,1711440024139264465,2054,2041,2048,2074,2107,2042,1195
2136,1711440024149234079,2072,2055,2050,2114,2011,2064,1198
2137,1711440024159220267,2048,2049,2049,2037,2104,2042,1192
2138,1711440024169196134,2064,2071,2077,2054,1997,2064,1196
2139,1711440024179226008,2049,2024,2037,2054,2093,2049,1195
2140,1711440024189238678,2062,2049,2058,2040,1984,2058,1195
2141,1711440024199224545,2047,2047,2046,2086,2113,2048,1195
2142,1711440024209236854,2070,2060,2037,2109,1995,2060,1194
2143,1711440024219226408,2050,2055,2047,2044,2116,2046,1194
2144,1711440024229231413,2062,2057,2037,2142,1994,2058,1196
2145,1711440024239232309,2044,2046,2048,2014,2112,2046,1193
2146,1711440024249200251,2063,2066,2066,2057,1992,2062,1196
2147,1711440024259222089,2052,2052,2064,2038,2121,2051,1197
2148,1711440024269241341,2064,2074,2083,2065,1999,2061,1197
2149,1711440024279233331,2052,2052,2060,2066,2116,2046,1194
2150,1711440024289237934,2060,2052,2044,2089,1999,2064,1198
2151,1711440024299234152,2051,2048,2045,2012,2114,2046,1194
2152,1711440024309240369,2060,2033,2036,2089,2004,2062,1196
2153,1711440024319228340,2056,2094,2116,2069,2116,2047,1193
2154,1711440024329233916,2058,2058,2058,2120,2002,2059,1197
2155,1711440024339232227,2047,2047,2053,2026,2112,2045,1194
2156,1711440024349260127,2058,2052,2066,2101,1998,2059,1196
2157,1711440024359230753,2057,2080,2080,2030,2106,2047,1193
2158,1711440024369234827,2060,2054,2047,2101,1997,2058,1196
2159,1711440024379230503,2047,2033,2045,2050,2105,2042,1192
2160,1711440024389237833,2065,2047,2046,2121,2005,2064,1194
2161,1711440024399222016,2049,2048,2056,2059,2108,2046,1194
2162,1711440024409228974,2060,2036,2041,2095,2013,2067,1194
2163,1711440024419230302,2053,2046,2060,2062,2109,2047,1195
2164,1711440024429231549,2055,2024,2031,2121,2016,2062,1196
2165,1711440024439232466,2057,2065,2056,2035,2106,2049,1194
2166,1711440024449236418,2056,2056,2066,2109,2001,2061,1195
2167,1711440024459226153,2050,2054,2056,2068,2106,2049,1197
2168,1711440024469240566,2058,2045,2061,2080,2006,2064,1197
2169,1711440024479228217,2056,2061,2074,2056,2108,2050,1196
2170,1711440024489231588,2056,2061,2056,1957,1992,2060,1197
2171,1711440024499225741,2049,2085,2094,2064,2104,2043,1196
2172,1711440024509193202,2066,2060,2076,2179,2002,2062,1199
2173,1711440024519234278,2052,2060,2056,2052,2100,2044,1194
2174,1711440024529235786,2056,2062,2072,2100,2008,2061,1197
2175,1711440024539235881,2050,2052,2076,2038,2103,2045,1194
2176,1711440024549253831,2062,2060,2050,2092,2010,2065,1196
2177,1711440024559218065,2050,2051,2050,2046,2101,2043,1193
2178,1711440024569236145,2057,2064,2046,2034,1991,2056,1196
2179,1711440024579229277,2050,2047,2048,2043,2094,2046,1193
2180,1711440024589233500,2062,2088,2076,2100,2003,2057,1196
2181,1711440024599234366,2047,2020,2029,2049,2110,2049,1195
2182,1711440024609193099,2065,2048,2053,2101,2014,2065,1197
2183,1711440024619230458,2045,2056,2059,2109,2106,2046,1196
2184,1711440024629233159,2057,2056,2056,2086,2006,2058,1195
2185,1711440024639237241,2050,2065,2057,2044,2096,2040,1192
2186,1711440024649231154,2053,2033,2028,2065,1993,2058,1195
2187,1711440024659232692,2054,2060,2060,2048,2110,2052,1197
2188,1711440024669239199,2057,2077,2090,2103,2011,2064,1197
2189,1711440024679238734,2043,2050,2069,1917,2100,2048,1195
2190,1711440024689240842,2065,2064,2037,2063,2004,2062,1196
2191,1711440024699245096,2048,2052,2052,2027,2101,2043,1195
2192,1711440024709222185,2062,2057,2054,2048,1990,2059,1194
2193,1711440024719226709,2050,2050,2064,2005,2104,2046,1194
2194,1711440024729197836,2060,2041,2033,2099,1993,2059,1196
2195,1711440024739235977,2056,2046,2044,1960,2093,2044,1194
2196,1711440024749248517,2057,2063,2053,2126,2010,2062,1194
2197,1711440024759220716,2046,2048,2050,2032,2102,2044,1191
2198,1711440024769233016,2064,2070,2060,2035,2000,2062,1196
2199,1711440024779231317,2047,2044,2048,2039,2105,2043,1193
2200,1711440024789232625,2063,2080,2086,2116,2007,2063,1195
2201,1711440024799235976,2053,2052,2042,2047,2113,2047,1194
2202,1711440024809230780,2061,2070,2056,2029,1997,2060,1195
2203,1711440024819234633,2050,2051,2056,2031,2105,2046,1193
2204,1711440024829236631,2060,2069,2072,2052,2006,2058,1195
2205,1711440024839232228,2045,2043,2047,1990,2098,2041,1195
2206,1711440024849249436,2065,2052,2036,2081,2008,2064,1196
2207,1711440024859228690,2046,2030,2040,1904,2081,2042,1195
2208,1711440024869233685,2060,2060,2051,2031,2004,2064,1197
2209,1711440024879233288,2048,2056,2050,2021,2095,2043,1193
2210,1711440024889237743,2064,2050,2060,2034,2006,2061,1197
2211,1711440024899246033,2052,2043,2065,2050,2104,2044,1193
2212,1711440024909240899,2064,2056,2047,2087,2008,2057,1197
