seq,time,data[0],data[1],data[2],data[3],data[4],data[5],data[6]
201,1716363704945005384,2060,2056,2058,2060,2040,2052,1197
202,1716363704955004079,2045,2050,2057,2079,2056,2060,1198
203,1716363704965062186,2056,2057,2054,2112,2057,2057,1196
204,1716363704975005627,2053,2050,2047,2061,2067,2048,1196
205,1716363704985062633,2066,2058,2064,2049,2042,2045,1193
206,1716363704995006654,2052,2049,2047,2045,2048,2059,1196
207,1716363705005006451,2058,2055,2058,2056,2056,2057,1198
208,1716363705015005388,2055,2058,2060,2056,2060,2057,1199
209,1716363705025007349,2057,2056,2058,2048,2046,2056,1197
210,1716363705035005192,2049,2045,2038,2060,2033,2084,1197
211,1716363705045006884,2049,2035,2032,2077,2110,2060,1198
212,1716363705055004406,2045,2049,2049,2062,2040,2028,1194
213,1716363705065065590,2059,2057,2056,2050,2031,2036,1195
214,1716363705075008590,2052,2053,2056,2072,2049,2066,1197
215,1716363705085006894,2060,2057,2056,2016,2052,2045,1194
216,1716363705095008204,2050,2049,2053,2060,2053,2025,1193
217,1716363705105007080,2059,2058,2057,2052,2053,2050,1195
218,1716363705115006837,2054,2052,2039,2067,2044,2056,1197
219,1716363705125007506,2055,2056,2030,2075,2064,2055,1196
220,1716363705135004849,2047,2053,2051,2037,2050,2052,1197
221,1716363705145008514,2059,2056,2056,2061,2044,2048,1194
222,1716363705155006668,2054,2056,2053,2048,2052,2044,1193
223,1716363705165046882,2056,2056,2050,2018,2042,2043,1193
224,1716363705175006623,2053,2053,2056,2050,2036,2054,1194
225,1716363705185004487,2058,2052,2056,2058,2046,2053,1196
226,1716363705195047176,2049,2048,2050,2013,2044,2050,1197
227,1716363705205045330,2056,2051,2052,2052,2036,2051,1196
228,1716363705215045518,2055,2056,2054,2064,2066,2056,1196
229,1716363705225043282,2061,2062,2078,2062,2056,2051,1193
230,1716363705235042588,2056,2057,2056,2060,2056,2056,1195
231,1716363705245050160,2059,2056,2056,2050,2046,2050,1195
232,1716363705255042032,2052,2048,2056,2060,2060,2080,1196
233,1716363705265041499,2059,2056,2061,2043,2043,2047,1195
234,1716363705275046046,2059,2053,2051,2053,2075,2075,1196
235,1716363705285042446,2054,2054,2058,2057,2042,2050,1195
236,1716363705295038927,2053,2051,2049,2054,2048,2052,1194
237,1716363705305036751,2057,2052,2053,2063,2050,2049,1196
238,1716363705315038893,2052,2053,2056,2075,2064,2059,1195
239,1716363705325035584,2056,2053,2052,2064,2053,2046,1195
240,1716363705335034621,2053,2054,2057,2051,2042,2048,1196
241,1716363705345035740,2065,2059,2059,2088,2049,2051,1197
242,1716363705355040046,2056,2053,2058,2090,2062,2057,1197
243,1716363705365036958,2058,2056,2054,2057,2058,2054,1197
244,1716363705375036424,2052,2050,2053,2059,2079,2057,1197
245,1716363705385032064,2057,2056,2058,2057,2049,2050,1198
246,1716363705395034777,2055,2056,2048,2062,2044,2054,1197
247,1716363705405032270,2057,2053,2063,2100,2078,2059,1195
248,1716363705415031896,2055,2056,2044,2037,2016,2045,1193
249,1716363705425032827,2057,2056,2067,2081,2045,2056,1197
250,1716363705435030520,2052,2053,2054,2058,2056,2057,1195
251,1716363705445030828,2057,2055,2056,2056,2054,2046,1195
252,1716363705455030656,2051,2052,2058,2060,2061,2056,1199
253,1716363705465029571,2059,2057,2056,2053,2058,2059,1197
254,1716363705475029038,2053,2050,2053,2047,2036,2044,1194
255,1716363705485027814,2058,2057,2060,2046,2051,2042,1193
256,1716363705495027781,2053,2052,2050,2047,2059,2056,1196
257,1716363705505027088,2062,2057,2056,2043,2040,2078,1195
258,1716363705515026554,2057,2056,2068,2057,2057,2050,1196
259,1716363705525026662,2056,2052,2038,2058,2090,2050,1197
260,1716363705535024216,2047,2052,2055,2070,2064,2062,1195
261,1716363705545025015,2060,2058,2058,2068,2049,2046,1196
262,1716363705555022718,2057,2054,2056,2060,2062,2057,1197
263,1716363705565030471,2060,2060,2060,2056,2052,2049,1197
264,1716363705575023365,2052,2052,2052,2048,2009,2058,1197
265,1716363705585023252,2054,2051,2050,2049,2027,2051,1198
266,1716363705595024252,2048,2049,2053,2066,2050,2032,1195
267,1716363705605021344,2060,2056,2058,2048,2056,2064,1198
268,1716363705615021271,2054,2054,2060,2049,2068,2061,1198
269,1716363705624981134,2058,2055,2056,2054,2038,2049,1199
270,1716363705635020155,2050,2052,2052,2072,2043,2049,1195
271,1716363705645020904,2060,2053,2059,2018,2050,2051,1197
272,1716363705655020792,2053,2056,2058,2048,2060,2056,1197
273,1716363705665060534,2056,2058,2057,2073,2051,2054,1196
274,1716363705675018622,2052,2047,2047,2062,2058,2050,1198
275,1716363705685017018,2061,2052,2052,2056,2047,2049,1196
276,1716363705695017085,2054,2052,2052,2060,2064,2085,1197
277,1716363705705016351,2057,2060,2047,2023,2047,2047,1195
278,1716363705715016851,2056,2064,2081,2080,2056,2055,1196
279,1716363705725019403,2056,2048,2042,2029,2057,2057,1197
280,1716363705735016996,2054,2057,2057,2061,2058,2061,1196
281,1716363705745022495,2060,2057,2060,2057,2053,2056,1195
282,1716363705755014577,2048,2046,2048,2062,2049,2060,1197
283,1716363705765015066,2054,2050,2055,2060,2053,2065,1195
284,1716363705775018079,2050,2049,2051,2080,2045,2027,1194
285,1716363705785016985,2052,2052,2054,2054,2032,2040,1194
286,1716363705795018826,2050,2051,2047,2035,2074,2049,1198
287,1716363705805020788,2062,2059,2060,2006,2036,2046,1195
288,1716363705815017248,2057,2057,2060,2005,2041,2047,1194
289,1716363705825018189,2056,2054,2061,2074,2069,2041,1194
290,1716363705835022013,2048,2051,2050,2068,2045,2024,1196
291,1716363705845018995,2056,2058,2058,2052,2033,2037,1194
292,1716363705855016779,2048,2050,2056,2054,2033,2056,1197
293,1716363705865016416,2052,2054,2051,2072,2041,2028,1192
294,1716363705875020491,2052,2056,2055,2047,2047,2056,1196
295,1716363705885017474,2057,2054,2051,2049,2042,2035,1195
296,1716363705895020887,2053,2049,2052,2100,2061,2065,1195
297,1716363705905018751,2056,2054,2052,2046,2027,2055,1195
298,1716363705915017507,2050,2052,2046,2057,2072,2066,1196
299,1716363705925015671,2062,2054,2044,1951,2031,2052,1195
300,1716363705935032119,2049,2053,2037,2016,2047,2065,1197
301,1716363705945017049,2053,2046,2047,2018,2057,2069,1198
302,1716363705955019551,2058,2056,2060,2081,2058,2048,1200
303,1716363705965017154,2062,2057,2062,1995,2041,2052,1194
304,1716363705975022072,2053,2056,2057,2050,2089,2068,1195
305,1716363705985016729,2064,2066,2063,2020,2045,2044,1194
306,1716363705995019693,2050,2050,2049,2006,2072,2050,1195
307,1716363706005016695,2067,2060,2059,2037,2068,2072,1199
308,1716363706015017263,2050,2048,2036,2023,2048,2048,1196
309,1716363706025017141,2049,2052,2060,2038,2017,2042,1193
310,1716363706035024853,2055,2052,2047,2010,2042,2070,1196
311,1716363706045018168,2066,2058,2059,2089,2063,2068,1195
312,1716363706055019890,2048,2056,2056,2066,2085,2050,1197
313,1716363706065016310,2056,2052,2052,2021,2051,2052,1196
314,1716363706075020687,2047,2052,2059,2028,2049,2048,1197
315,1716363706085016336,2060,2052,2054,2053,2050,2060,1198
316,1716363706095020442,2050,2055,2056,2088,2070,2058,1196
317,1716363706105017364,2059,2056,2063,2084,2056,2051,1197
318,1716363706115020908,2053,2053,2056,2030,2056,2068,1196
319,1716363706125021438,2058,2053,2048,2071,2058,2077,1196
320,1716363706135027707,2054,2052,2045,2052,2059,2056,1197
321,1716363706145021112,2056,2051,2054,2038,2037,2045,1192
322,1716363706155018986,2056,2056,2061,2056,2066,2039,1193
323,1716363706165019174,2057,2052,2050,1995,2029,2045,1195
324,1716363706175019383,2045,2048,2054,2065,2056,2046,1194
325,1716363706185019701,2053,2049,2048,2051,2059,2017,1195
326,1716363706195020009,2057,2056,2058,2064,2047,2059,1195
327,1716363706205020217,2068,2063,2064,2093,2052,2024,1196
328,1716363706215020686,2054,2051,2052,2015,2027,2032,1194
329,1716363706225020404,2064,2057,2058,2061,2059,2076,1197
330,1716363706235021122,2055,2057,2058,2083,2066,2060,1197
331,1716363706245022051,2064,2056,2064,2099,2069,2066,1196
332,1716363706255021849,2052,2057,2056,1988,2040,2023,1195
333,1716363706265047425,2066,2060,2064,2049,2048,2040,1196
334,1716363706275048576,2047,2047,2046,2059,2051,2065,1196
335,1716363706285048202,2058,2058,2066,2089,2060,2058,1197
336,1716363706295049593,2054,2053,2055,2080,2052,2050,1196
337,1716363706305049010,2069,2066,2069,2055,2067,2062,1198
338,1716363706315048576,2054,2057,2054,2057,2045,2045,1193
339,1716363706325050318,2061,2054,2049,2009,2052,2053,1195
340,1716363706335050015,2049,2051,2047,2057,2057,2055,1196
341,1716363706345024265,2065,2064,2089,2084,2057,2075,1197
342,1716363706355053107,2051,2050,2054,2076,2060,2052,1198
343,1716363706365050489,2056,2052,2050,2069,2052,2056,1197
344,1716363706375051509,2058,2068,2097,2073,2068,2084,1195
345,1716363706385052268,2053,2037,2013,2065,2089,2046,1194
346,1716363706395053007,2051,2050,2017,2056,2048,2037,1194
347,1716363706405053105,2061,2056,2049,2070,2061,2041,1197
348,1716363706415040439,2052,2052,2061,1946,2053,2067,1195
349,1716363706425038283,2053,2051,2060,2061,2064,2069,1196
350,1716363706435042739,2064,2062,2055,2069,2096,2087,1196
351,1716363706445049250,2061,2060,2073,2090,2075,2082,1195
352,1716363706455040050,2052,2050,2041,2090,2050,2051,1194
353,1716363706465037212,2064,2059,2061,2021,2061,2050,1193
354,1716363706475037401,2053,2054,2053,2045,2082,2065,1197
355,1716363706485037167,2057,2056,2060,2049,2052,1964,1192
356,1716363706495034501,2049,2052,2051,2052,2032,2016,1194
357,1716363706505036712,2059,2056,2064,2086,2053,2045,1193
358,1716363706515037281,2044,2045,2049,2093,2061,2070,1195
359,1716363706525035225,2055,2056,2049,2043,2047,2051,1194
360,1716363706535035313,2048,2049,2051,2060,2056,2125,1198
361,1716363706545033518,2059,2053,2047,2046,2057,2077,1196
362,1716363706555039457,2052,2047,2034,2055,2065,2049,1198
363,1716363706565032401,2058,2053,2048,2052,2057,2047,1194
364,1716363706575031117,2054,2058,2062,2080,2071,2060,1197
365,1716363706585032386,2066,2061,2059,2053,2058,2069,1197
366,1716363706595031573,2052,2049,2049,2042,2057,2049,1197
367,1716363706605031180,2056,2052,2058,2080,2050,1994,1194
368,1716363706615032080,2053,2053,2057,2091,2070,2053,1197
369,1716363706625028320,2056,2054,2057,2060,2053,2047,1194
370,1716363706635049778,2049,2048,2045,2027,2036,2037,1194
371,1716363706645030701,2056,2054,2047,2054,2048,2048,1195
372,1716363706655027031,2053,2052,2056,2047,2056,2064,1198
373,1716363706665025185,2064,2054,2054,2068,2042,1998,1194
374,1716363706675026937,2056,2055,2058,2084,2054,2057,1197
375,1716363706685023498,2060,2057,2060,2077,2061,2065,1194
376,1716363706695024167,2057,2054,2056,2068,2055,2045,1192
377,1716363706705022341,2053,2051,2048,2064,2052,2043,1192
378,1716363706715022009,2053,2062,2056,2044,2064,2073,1196
379,1716363706725022848,2057,2054,2054,2076,2060,2057,1196
380,1716363706735023547,2052,2048,2052,2061,2059,2050,1197
381,1716363706745021662,2056,2053,2056,2056,2056,2067,1196
382,1716363706755025095,2050,2050,2048,2070,2064,2068,1196
383,1716363706765022428,2058,2057,2062,2077,2066,2050,1198
384,1716363706775020412,2061,2056,2045,2066,2065,2094,1198
385,1716363706785019788,2058,2056,2061,2061,2057,2050,1197
386,1716363706795017713,2051,2051,2063,2044,2056,2051,1198
387,1716363706805044631,2061,2052,2025,2056,2053,2047,1195
388,1716363706815017328,2054,2064,2088,2061,2060,2065,1197
389,1716363706825024379,2060,2050,2047,2046,2053,2052,1198
390,1716363706835017964,2056,2061,2046,2061,2061,2062,1197
391,1716363706845019215,2050,2038,2002,2052,2060,2064,1198
392,1716363706855014383,2051,2052,2047,2025,2040,2042,1194
393,1716363706865011857,2060,2057,2058,2060,2061,2073,1195
394,1716363706875014539,2056,2053,2057,2059,2049,2056,1197
395,1716363706885010679,2053,2049,2053,2050,2052,2046,1192
396,1716363706895011239,2062,2086,2175,2074,2061,2060,1194
397,1716363706905014041,2054,2047,2028,2055,2052,2038,1194
398,1716363706915028256,2052,2051,2046,2052,2047,2042,1194
399,1716363706925004810,2063,2061,2064,2047,2047,2048,1197
400,1716363706935012582,2053,2052,2056,2053,2036,2056,1195
401,1716363706945009865,2059,2056,2053,2056,2054,2052,1198
402,1716363706955007258,2052,2050,2056,2053,2072,2056,1195
403,1716363706965013879,2060,2054,2050,2066,2068,2054,1197
404,1716363706975012343,2050,2058,2084,2058,2045,2040,1193
405,1716363706985009735,2062,2062,2075,2056,2061,2062,1198
406,1716363706995010796,2054,2053,2025,2059,2050,2060,1197
407,1716363707005006936,2059,2049,2037,2064,2064,2056,1198
408,1716363707015008427,2052,2064,2078,2061,2056,2047,1196
409,1716363707025054712,2056,2051,2044,2054,2059,2056,1196
410,1716363707035007491,2057,2048,2049,2049,2056,2060,1196
411,1716363707045011346,2057,2057,2055,2056,2052,2078,1195
412,1716363707055009991,2053,2058,2075,2064,2056,2062,1194
413,1716363707065010771,2056,2056,2061,2053,2052,2047,1192
414,1716363707075005438,2047,2046,2042,2079,2061,2047,1192
415,1716363707085005436,2058,2053,2051,2060,2057,2052,1197
416,1716363707095040240,2052,2051,2053,2056,2061,2061,1195
417,1716363707105041130,2054,2056,2052,2059,2049,2041,1194
418,1716363707115011771,2049,2050,2058,2073,2054,2021,1192
419,1716363707125004667,2060,2055,2047,2054,2053,2058,1195
420,1716363707135038828,2053,2060,2070,2068,2056,2051,1195
421,1716363707145038436,2065,2072,2161,2110,2052,2054,1195
422,1716363707155008457,2048,2047,2040,2082,2085,2061,1198
423,1716363707165009407,2056,2050,2050,2049,2062,2056,1197
424,1716363707175004916,2050,2052,2045,2060,2045,2060,1197
425,1716363707185041533,2066,2057,2058,2058,2062,2080,1197
426,1716363707195031963,2056,2058,2062,2064,2064,2052,1196
427,1716363707205006913,2056,2053,2057,2060,2056,2043,1193
428,1716363707215006711,2056,2052,2056,2063,2056,2057,1197
429,1716363707225032227,2057,2052,2053,2056,2148,2065,1198
430,1716363707235032987,2049,2045,2040,2056,2051,2060,1197
431,1716363707245040588,2057,2056,2037,2075,2044,2046,1194
432,1716363707255007574,2054,2056,2080,2049,2061,2072,1197
433,1716363707265008904,2057,2049,2051,2037,2034,2047,1193
434,1716363707275013822,2050,2052,2079,2056,2062,2073,1196
435,1716363707285010122,2057,2053,2056,2108,2057,2068,1198
436,1716363707295008106,2053,2053,2052,2072,2048,2055,1193
437,1716363707305024896,2068,2063,2056,2064,2063,2062,1196
438,1716363707315025475,2056,2058,2099,2088,2078,2047,1193
439,1716363707325024832,2060,2052,2036,2066,2058,2050,1195
440,1716363707335025331,2054,2066,2102,2081,2088,2053,1196
441,1716363707345009368,2057,2059,2077,2067,2062,2056,1198
442,1716363707355021849,2056,2056,2049,2005,2066,2064,1196
443,1716363707365005938,2068,2064,2062,2060,2052,2023,1195
444,1716363707375011045,2056,2053,2062,2065,2063,2057,1197
445,1716363707385010953,2058,2055,2052,2024,2040,2043,1194
446,1716363707395017332,2052,2053,2054,2068,2075,2054,1200
447,1716363707405005639,2059,2055,2058,2058,2074,2058,1197
448,1716363707415004253,2063,2064,2078,2062,2056,2062,1196
449,1716363707425006376,2053,2050,2045,2077,2090,2082,1197
450,1716363707435014008,2049,2044,2044,2027,2036,2048,1197
451,1716363707445015519,2060,2054,2060,2092,2053,2056,1197
452,1716363707455019895,2052,2061,2070,2066,2064,2064,1195
453,1716363707465008350,2064,2062,2049,2040,2050,2051,1199
454,1716363707475012927,2045,2052,2052,2063,2070,2070,1195
455,1716363707485011161,2060,2056,2060,2047,2051,2045,1194
456,1716363707495010809,2056,2054,2047,2047,2057,2060,1196
457,1716363707505006759,2058,2056,2050,2087,2075,2054,1197
458,1716363707515014562,2056,2049,2047,1994,2050,2041,1194
459,1716363707525004500,2063,2060,2068,2076,2044,2055,1193
460,1716363707535009829,2050,2052,2043,2056,2055,2046,1193
461,1716363707545008283,2059,2056,2056,2070,2058,2035,1193
462,1716363707555006568,2051,2053,2052,2056,2054,2048,1196
463,1716363707565000995,2058,2056,2052,2027,2034,2037,1194
464,1716363707575021312,2051,2050,2038,2065,2058,2066,1197
465,1716363707585012262,2056,2053,2079,2068,2052,2052,1195
466,1716363707595004335,2050,2052,2050,2068,2045,2080,1196
467,1716363707605010365,2053,2053,2056,1927,2058,2056,1197
468,1716363707615005673,2041,2045,2054,2056,2048,2056,1197
469,1716363707625004059,2077,2065,2053,2044,2071,2064,1197
470,1716363707635023463,2056,2052,2045,2081,2076,2054,1196
471,1716363707645007280,2059,2056,2053,2077,2085,2079,1194
472,1716363707655011897,2054,2058,2048,2063,2082,2064,1196
473,1716363707665012326,2061,2066,2089,2022,2029,2058,1195
474,1716363707675014347,2050,2052,2045,2037,2028,2064,1195
475,1716363707685013173,2054,2056,2058,2109,2077,2054,1197
476,1716363707695009784,2052,2054,2053,1991,2028,2047,1193
477,1716363707705008851,2061,2057,2055,2065,2069,2040,1192
478,1716363707715021512,2056,2056,2051,2049,2057,2058,1197
479,1716363707725007052,2056,2053,2048,1966,2045,2047,1195
480,1716363707735014284,2052,2055,2056,2047,2044,2044,1193
481,1716363707745024120,2059,2053,2053,2053,2046,2056,1194
482,1716363707755003049,2052,2056,2053,1988,2048,2054,1197
483,1716363707765005862,2056,2050,2047,2034,2032,2046,1194
484,1716363707775005960,2060,2059,2053,2060,2064,2054,1195
485,1716363707785006559,2062,2060,2057,2000,2044,2052,1194
486,1716363707795014162,2048,2054,2053,2058,2063,2054,1197
487,1716363707805005943,2060,2056,2059,2126,2068,2085,1197
488,1716363707815004900,2054,2049,2050,2133,2056,2062,1197
489,1716363707825005558,2073,2061,2054,2065,2068,2034,1193
490,1716363707835005256,2040,2051,2049,2061,2056,2054,1196
491,1716363707845016204,2056,2050,2053,2078,2049,2042,1193
492,1716363707854999611,2049,2052,2052,2056,2040,2038,1193
493,1716363707865006682,2061,2054,2050,2064,2025,2006,1193
494,1716363707875004275,2053,2052,2056,2101,2074,2061,1196
495,1716363707884977002,2062,2067,2100,2085,2062,2060,1196
496,1716363707895026322,2047,2052,2053,2102,2044,2045,1193
497,1716363707905002506,2061,2056,2052,2068,2066,2060,1195
498,1716363707915009887,2056,2052,2033,2046,2044,2069,1196
499,1716363707924996320,2059,2052,2039,2044,2056,2053,1194
500,1716363707935015864,2047,2060,2072,2037,2045,2048,1195
501,1716363707945009230,2065,2058,2058,2058,2062,2057,1195
502,1716363707955020118,2052,2056,2067,2081,2034,2043,1195
503,1716363707964999488,2061,2054,2049,2074,2056,2072,1197
504,1716363707975002601,2046,2049,2041,2074,2045,2058,1196
505,1716363707985023328,2067,2060,2060,2066,2048,2069,1195
506,1716363707995008488,2052,2054,2072,2058,2056,2064,1197
507,1716363708005002304,2058,2057,2058,2008,2037,2056,1197
508,1716363708015007171,2044,2050,2046,2082,2058,2043,1194
509,1716363708025006648,2056,2050,2050,2032,2064,2056,1196
510,1716363708035006896,2051,2052,2047,2045,2066,2060,1196
511,1716363708045006483,2061,2058,2057,2056,2058,2034,1195
512,1716363708055014076,2050,2052,2053,2040,2029,2056,1198
513,1716363708065001491,2055,2056,2059,2073,2097,2076,1196
514,1716363708075006988,2057,2058,2059,2067,2054,2052,1194
515,1716363708085006636,2064,2064,2061,2050,2044,2064,1197
516,1716363708095004710,2053,2056,2056,2031,2066,2081,1194
517,1716363708105012463,2056,2052,2052,2054,2062,2056,1194
518,1716363708115002802,2052,2049,2038,2061,2059,2057,1196
519,1716363708125006107,2059,2056,2024,2049,2070,2077,1197
520,1716363708135006114,2050,2048,2046,2052,2056,2049,1195
521,1716363708145006884,2059,2056,2058,2064,2056,2030,1194
522,1716363708155036167,2054,2053,2051,2023,2022,2056,1196
523,1716363708165011048,2060,2058,2060,2066,2060,2057,1195
524,1716363708175002138,2049,2047,2048,2042,2066,2047,1193
525,1716363708185003970,2060,2056,2046,2052,2056,2068,1196
526,1716363708195017623,2050,2058,2061,2050,2052,2036,1196
527,1716363708205006260,2057,2052,2057,2041,2058,2056,1197
528,1716363708215020194,2050,2056,2056,2068,2060,2056,1196
529,1716363708225009051,2057,2056,2057,2056,2042,2056,1199
530,1716363708235006283,2056,2054,2056,2043,2036,2046,1193
531,1716363708245008706,2059,2056,2056,2097,2062,2066,1198
532,1716363708255009175,2056,2055,2053,2074,2049,2039,1194
533,1716363708265010456,2065,2057,2051,1965,2049,2054,1197
534,1716363708275009893,2056,2052,2044,2042,2062,2058,1197
535,1716363708285008558,2058,2057,2059,2075,2052,2067,1197
536,1716363708295009307,2048,2051,2050,2066,2045,2074,1194
537,1716363708305009546,2059,2056,2059,2068,2085,2067,1193
538,1716363708315009183,2049,2053,2053,2068,2051,2044,1196
539,1716363708325010503,2052,2052,2052,2025,2040,2044,1194
540,1716363708335009249,2053,2052,2045,2060,2061,2046,1195
541,1716363708345010950,2057,2054,2049,2074,2064,2063,1195
542,1716363708355011008,2056,2056,2057,2137,2074,2053,1197
543,1716363708365008571,2056,2057,2062,2117,2028,2037,1192
544,1716363708375011445,2047,2052,2052,2076,2057,2068,1196
545,1716363708385011112,2057,2052,2044,2050,2060,2053,1192
546,1716363708395012212,2058,2056,2054,2086,2100,2077,1196
547,1716363708405012270,2056,2056,2060,2045,2064,2070,1196
548,1716363708415013310,2047,2052,2051,2008,2061,2048,1196
549,1716363708425013448,2064,2064,2062,2060,2049,2069,1195
550,1716363708435013587,2064,2058,2057,2053,2048,2069,1197
551,1716363708445014245,2056,2057,2060,2043,2074,2061,1198
552,1716363708455015015,2047,2050,2047,2053,2044,2021,1194
553,1716363708465013850,2060,2063,2107,2057,2046,2036,1194
554,1716363708475011705,2058,2059,2056,2037,2045,2049,1197
555,1716363708485014046,2056,2050,2045,2036,2044,2050,1196
556,1716363708495015798,2046,2044,2043,2068,2058,2052,1196
557,1716363708505016367,2057,2053,2053,2065,2045,2056,1196
558,1716363708515016946,2054,2058,2056,2047,2053,2056,1194
559,1716363708525016673,2056,2048,2049,2040,2047,2047,1192
560,1716363708535029826,2052,2058,2056,2057,2061,2056,1196
561,1716363708545017612,2054,2054,2057,2052,2059,2072,1197
562,1716363708555018080,2053,2050,2048,2012,2057,2037,1192
563,1716363708565018499,2055,2051,2057,2073,2058,2055,1196
564,1716363708575018517,2059,2053,2044,2057,2076,2051,1198
565,1716363708585018655,2062,2055,2042,2032,2053,2063,1198
566,1716363708595019564,2051,2053,2061,2068,2053,2067,1196
567,1716363708605020515,2065,2057,2052,2033,2048,2072,1197
568,1716363708615024820,2053,2063,2072,2114,2105,2059,1198
569,1716363708625020651,2069,2062,2047,2092,2069,2060,1198
570,1716363708635020568,2040,2052,2052,2066,2110,2072,1196
571,1716363708645020396,2058,2056,2062,2066,2079,2040,1192
572,1716363708655020293,2043,2048,2047,2032,2045,2037,1194
573,1716363708665003730,2065,2045,2036,2076,2058,2058,1195
574,1716363708675004209,2048,2046,2045,2085,2029,2034,1194
575,1716363708685003466,2064,2056,2059,2094,2060,2064,1197
576,1716363708695003613,2052,2052,2057,2073,2075,2063,1194
577,1716363708705004463,2056,2047,2042,2066,2039,2056,1195
578,1716363708715004591,2044,2046,2048,2050,2060,2040,1195
579,1716363708725005491,2064,2056,2058,2080,2096,2075,1197
580,1716363708735005790,2052,2054,2052,2059,2063,2044,1192
581,1716363708745006168,2062,2061,2061,2094,2066,2060,1193
582,1716363708755005375,2047,2053,2053,2056,2070,2059,1198
583,1716363708765006304,2071,2056,2062,2059,2047,2030,1193
584,1716363708775006312,2051,2052,2056,2030,2065,2073,1195
585,1716363708785004727,2076,2073,2062,2088,2084,2074,1197
586,1716363708795006619,2053,2049,2032,2098,2069,2037,1196
587,1716363708805005675,2056,2053,2050,2123,2062,2053,1198
588,1716363708815007857,2054,2051,2051,2094,2053,2043,1195
589,1716363708825062117,2064,2064,2064,2044,2056,2049,1198
590,1716363708835026178,2047,2043,2042,2037,2038,2048,1197
591,1716363708845008462,2068,2064,2077,2079,2076,2069,1197
592,1716363708855003090,2040,2041,2036,2078,2043,2052,1197
593,1716363708865004119,2051,2052,2050,2042,2023,2049,1195
594,1716363708875007143,2059,2050,2049,2074,2056,2072,1199
595,1716363708885012140,2072,2054,2058,2056,2052,2051,1198
596,1716363708895010706,2056,2050,2043,2044,2050,2032,1191
597,1716363708905012797,2062,2064,2053,2019,2026,2040,1194
598,1716363708915006724,2058,2050,2050,2062,2044,2037,1194
599,1716363708925012402,2057,2057,2072,1992,2047,2014,1193
600,1716363708935011539,2049,2049,2065,2067,2062,2052,1195
601,1716363708945004944,2061,2052,2031,2046,2045,2056,1198
602,1716363708955006946,2050,2051,2043,2056,2058,2062,1196
603,1716363708965008817,2053,2052,2051,2001,2059,2067,1196
604,1716363708975006191,2052,2056,2057,2074,2075,2053,1198
605,1716363708985011338,2061,2056,2060,2093,2084,2060,1197
606,1716363708995010525,2054,2053,2044,2066,2066,2056,1196
607,1716363709005049165,2057,2054,2058,2020,2045,2067,1196
608,1716363709015014558,2060,2061,2047,1993,2046,2052,1196
609,1716363709025006061,2056,2052,2050,2030,2032,2047,1195
610,1716363709035033089,2052,2050,2054,2049,2052,2033,1195
611,1716363709045009272,2054,2056,2066,2077,2058,2022,1195
612,1716363709055035159,2048,2045,2038,1997,2002,2021,1196
613,1716363709065055997,2056,2056,2058,2050,2056,2043,1193
614,1716363709075010108,2063,2052,2046,2049,2061,2062,1197
615,1716363709085015095,2060,2055,2052,2049,2066,2074,1195
616,1716363709095009483,2045,2055,2044,2052,2056,2053,1195
617,1716363709105006966,2064,2056,2067,2040,2053,2045,1194
618,1716363709115010130,2050,2060,2073,2057,2065,2064,1196
619,1716363709125008003,2050,2046,2034,2036,2056,2050,1196
620,1716363709135004004,2055,2057,2066,2056,2056,2054,1196
621,1716363709145027878,2064,2045,2034,2052,2034,2056,1195
622,1716363709155008599,2053,2060,2091,2011,2050,2052,1197
623,1716363709165011152,2060,2060,2094,2091,2072,2048,1196
624,1716363709175011280,2053,2047,2036,2041,2015,2062,1196
625,1716363709185006599,2049,2046,2040,2065,2059,2056,1197
626,1716363709195005164,2054,2056,2074,2042,2061,2064,1197
627,1716363709205013288,2072,2056,2046,2092,2050,2082,1198
628,1716363709215014318,2051,2064,2084,2088,2040,2038,1193
629,1716363709225010719,2058,2053,2068,2037,2045,2032,1193
630,1716363709235009976,2058,2058,2053,2037,2061,2056,1199
631,1716363709245010504,2053,2052,2046,2052,2047,2039,1195
632,1716363709255023948,2052,2050,2044,2068,2062,2044,1195
633,1716363709265020769,2056,2053,2063,2088,2061,2066,1196
634,1716363709275010869,2029,2043,2030,2064,2056,2057,1197
635,1716363709285014404,2059,2049,2037,2040,2064,2056,1196
636,1716363709295018569,2053,2059,2049,2066,2057,2062,1195
637,1716363709305022936,2056,2056,2056,2049,2068,2064,1198
638,1716363709315015109,2052,2051,2049,2037,2012,2032,1193
639,1716363709325013404,2056,2058,2069,2032,2053,2066,1195
640,1716363709335021357,2068,2057,2044,2088,2057,2060,1195
641,1716363709345009182,2058,2056,2059,2062,2053,2060,1196
642,1716363709355023648,2055,2050,2059,2060,2070,2061,1198
643,1716363709365011522,2065,2056,2082,2060,2064,2058,1197
644,1716363709375015438,2045,2051,2041,2045,2046,2046,1193
645,1716363709385011307,2061,2052,2055,2035,2042,2057,1197
646,1716363709395008290,2063,2053,2052,2048,2058,2062,1197
647,1716363709405014050,2056,2056,2059,2001,2059,2068,1196
648,1716363709415008867,2064,2057,2044,2068,2056,2073,1199
649,1716363709425012332,2052,2047,2041,2050,2050,2059,1197
650,1716363709435009745,2061,2049,2053,2057,2056,2052,1197
651,1716363709445010855,2059,2057,2047,2050,2045,2062,1196
652,1716363709455006916,2051,2052,2048,2064,2040,2037,1192
653,1716363709465008016,2064,2057,2058,2052,2057,2054,1196
654,1716363709475005519,2050,2056,2054,2052,2057,2052,1195
655,1716363709485009214,2058,2049,2049,2064,2057,2059,1195
656,1716363709495007850,2052,2051,2048,2059,2060,2056,1194
657,1716363709505010352,2056,2056,2053,2062,2061,2058,1196
658,1716363709515006883,2051,2053,2056,2056,2047,2048,1196
659,1716363709525006561,2060,2061,2066,2053,2052,2065,1193
660,1716363709535008512,2051,2053,2056,2064,2054,2037,1194
661,1716363709545010254,2052,2047,2043,2064,2060,2057,1197
662,1716363709555009169,2053,2048,2043,2057,2053,2048,1197
663,1716363709565009238,2056,2053,2057,2037,2054,2039,1192
664,1716363709575009707,2052,2059,2071,2054,2053,2081,1195
665,1716363709585008032,2058,2071,2055,2051,2052,2042,1193
666,1716363709595007699,2052,2060,2056,2062,2047,2060,1196
667,1716363709605016423,2058,2058,2056,2060,2071,2072,1199
668,1716363709615009278,2056,2056,2052,2050,2045,2057,1197
669,1716363709625012552,2057,2056,2059,2052,2057,2053,1196
670,1716363709635016818,2052,2056,2053,2029,2040,2051,1197
671,1716363709645009903,2059,2052,2049,2057,2058,2056,1198
672,1716363709655007136,2047,2051,2050,2050,2045,2056,1197
673,1716363709665010661,2063,2058,2078,2044,2041,2056,1196
674,1716363709675008424,2050,2056,2076,2052,2060,2055,1196
675,1716363709685014424,2058,2052,2053,1942,2050,2056,1197
676,1716363709695011086,2053,2053,2056,2057,2050,2051,1195
677,1716363709705017125,2059,2057,2060,2058,2060,2053,1193
678,1716363709715009939,2052,2049,2050,2036,2046,2037,1195
679,1716363709725013694,2057,2055,2057,2058,2081,2058,1197
680,1716363709735015155,2050,2050,2048,2056,2054,2062,1197
681,1716363709745008861,2066,2059,2058,2058,2062,2067,1194
682,1716363709755006324,2050,2053,2047,2052,2048,2064,1196
683,1716363709765009167,2060,2056,2064,2068,2063,2062,1196
684,1716363709775009987,2052,2056,2058,2056,2054,2051,1195
685,1716363709785015396,2060,2051,2040,2053,2052,2057,1197
686,1716363709795025713,2050,2050,2039,2050,2047,2049,1198
687,1716363709805017305,2060,2052,2049,2050,2056,2058,1199
688,1716363709815011532,2052,2056,2042,2062,2053,2059,1198
689,1716363709825011871,2054,2054,2060,2068,2059,2054,1197
690,1716363709835011979,2051,2052,2056,2065,2056,2053,1197
691,1716363709845010224,2058,2066,2040,2068,2058,2062,1196
692,1716363709855009821,2051,2050,2053,2047,2048,2047,1196
693,1716363709865013295,2059,2056,2077,2063,2052,2042,1194
694,1716363709875008875,2052,2049,2045,2062,2067,2052,1195
695,1716363709885011428,2062,2056,2056,2056,2056,2054,1196
696,1716363709895009703,2052,2042,2050,2050,2044,2049,1196
697,1716363709905024629,2059,2058,2066,2060,2057,2056,1195
698,1716363709915010981,2048,2045,2050,2053,2051,2062,1196
699,1716363709925011921,2056,2048,2040,2057,2061,2041,1195
700,1716363709935011237,2051,2046,2035,2040,2057,2053,1195
701,1716363709945011586,2053,2047,2046,2066,2059,2035,1194
702,1716363709955012316,2053,2054,2054,2055,2053,2055,1196
703,1716363709965012824,2053,2051,2056,2056,2058,2057,1195
704,1716363709975010688,2056,2057,2050,2054,2054,2053,1199
705,1716363709985012490,2057,2054,2056,2057,2052,2056,1197
706,1716363709995013791,2050,2052,2027,2057,2052,2049,1197
707,1716363710005014720,2064,2064,2076,2073,2072,2066,1197
708,1716363710015014107,2045,2044,2044,2043,2035,2041,1193
709,1716363710025014316,2061,2056,2056,2057,2056,2062,1197
710,1716363710035015586,2054,2051,2052,2052,2056,2056,1196
711,1716363710045015123,2061,2062,2061,2059,2056,2044,1196
712,1716363710055015492,2052,2051,2055,2068,2056,2059,1197
713,1716363710065016772,2061,2054,2056,2056,2058,2056,1195
714,1716363710075014116,2053,2052,2050,2049,2047,2047,1196
715,1716363710085015115,2060,2057,2050,2058,2056,2061,1197
716,1716363710095016596,2052,2056,2056,2058,2048,2053,1193
717,1716363710105017927,2057,2059,2068,2052,2047,2036,1195
718,1716363710115017103,2054,2059,2078,2056,2048,2060,1197
719,1716363710125017432,2059,2056,2056,2044,2059,2056,1196
720,1716363710135017931,2052,2055,2053,2052,2045,2048,1198
721,1716363710145017368,2059,2053,2056,2037,2057,2057,1197
722,1716363710155018218,2057,2071,2106,2061,2056,2058,1194
723,1716363710165018356,2058,2056,2056,2052,2057,2055,1197
724,1716363710175016290,2057,2055,2056,2057,2051,2056,1195
725,1716363710185017691,2060,2054,2041,2060,2080,2064,1197
726,1716363710195019793,2053,2051,2041,2053,2042,2021,1197
727,1716363710205019540,2056,2056,2056,2056,2063,2057,1197
728,1716363710215004039,2050,2050,2050,2064,2056,2048,1197
729,1716363710225005650,2057,2056,2048,2075,2097,2051,1197
730,1716363710235018853,2056,2052,2051,2051,2024,2044,1194
731,1716363710245022048,2059,2056,2054,2072,2061,2062,1195
732,1716363710255021664,2050,2048,2053,2058,2046,2044,1195
733,1716363710265031802,2058,2057,2056,2061,2045,2058,1197
734,1716363710275005921,2047,2050,2048,2070,2072,2052,1198
735,1716363710285023743,2056,2053,2053,2050,2046,2054,1197
736,1716363710295022739,2053,2053,2057,2053,2058,2052,1195
737,1716363710305023468,2061,2053,2056,2077,2056,2045,1192
738,1716363710315021623,2052,2056,2056,2059,2050,2068,1197
739,1716363710325024878,2053,2045,2046,2044,2053,2053,1197
740,1716363710335024895,2051,2045,2052,2056,2045,2050,1197
741,1716363710345014143,2056,2054,2038,2065,2069,2056,1198
742,1716363710355014041,2056,2062,2077,2061,2052,2051,1198
743,1716363710365012376,2058,2061,2054,2046,2043,2053,1197
744,1716363710375027453,2053,2054,2077,2070,2095,2058,1198
745,1716363710385010178,2060,2054,2056,2060,2053,2058,1197
746,1716363710395009054,2052,2052,2052,2029,2054,2054,1199
747,1716363710405009573,2061,2060,2071,2060,2062,2056,1198
748,1716363710415009661,2052,2051,2043,2056,2055,2052,1196
749,1716363710425018576,2061,2056,2035,2056,2051,2053,1199
750,1716363710435004878,2052,2055,2072,2054,2052,2070,1198
751,1716363710445012741,2062,2059,2047,2064,2064,2072,1197
752,1716363710455008481,2052,2052,2060,2057,2061,2053,1196
753,1716363710465010934,2052,2036,2045,2062,2141,2061,1198
754,1716363710475006112,2057,2056,2036,2056,2038,2052,1196
755,1716363710485008495,2057,2051,2058,2064,2060,2058,1198
756,1716363710495008153,2051,2054,2048,2054,2052,2041,1193
757,1716363710505007519,2059,2045,2049,2057,2061,2057,1197
758,1716363710515005314,2056,2069,2062,2053,2057,2062,1198
759,1716363710525014428,2068,2056,2053,2062,2057,2065,1197
760,1716363710535011661,2061,2052,2042,2058,2057,2054,1199
761,1716363710545011239,2056,2050,2049,2060,2061,2054,1196
762,1716363710555014032,2052,2049,2051,2042,2045,2061,1195
763,1716363710565009552,2056,2053,2068,2052,2056,2053,1197
764,1716363710575011233,2052,2047,2047,2057,2047,2044,1195
765,1716363710585028213,2061,2057,2036,2068,2061,2063,1199
766,1716363710595012542,2057,2064,2072,2069,2050,2051,1195
767,1716363710605012410,2058,2056,2053,2056,2056,2084,1198
768,1716363710615013129,2052,2052,2044,2047,2049,2056,1196
769,1716363710625015301,2056,2045,2056,2064,2058,2056,1194
770,1716363710635007695,2057,2051,2046,2052,2036,2042,1196
771,1716363710645008073,2056,2056,2081,2062,2031,2058,1197
772,1716363710655011508,2056,2060,2065,2064,2104,2057,1197
773,1716363710665013640,2061,2048,2043,2054,2044,2062,1196
774,1716363710675002447,2056,2052,2037,2080,2043,2038,1195
775,1716363710685009940,2056,2053,2054,2067,2068,2056,1197
776,1716363710695007302,2051,2050,2041,2076,2050,2049,1194
777,1716363710705013021,2055,2046,2040,2055,2065,2058,1196
778,1716363710715006797,2060,2085,2197,2041,2053,2036,1194
779,1716363710725019449,2060,2051,2046,2057,2041,2037,1194
780,1716363710735001864,2052,2052,2052,2056,2051,2052,1196
781,1716363710745008685,2057,2058,2056,2056,2062,2052,1194
782,1716363710755009966,2050,2051,2051,2056,2056,2058,1196
783,1716363710765004554,2056,2047,2055,2049,2064,2057,1197
784,1716363710775005453,2047,2050,2052,2061,2045,2041,1194
785,1716363710785013306,2061,2058,2073,2048,2050,2047,1193
786,1716363710795008235,2056,2052,2064,2062,2047,2046,1196
787,1716363710805011268,2065,2068,2070,2058,2056,2058,1199
788,1716363710815009102,2054,2054,2048,2045,2052,2054,1200
789,1716363710825024941,2054,2051,2041,2072,2058,2059,1199
790,1716363710835007185,2053,2057,2055,2066,2052,2057,1198
791,1716363710845011571,2059,2060,2073,2058,2061,2062,1195
792,1716363710855014365,2053,2051,2047,2060,2045,2049,1197
793,1716363710865010335,2058,2053,2053,2057,2062,2044,1196
794,1716363710875007999,2048,2052,2068,2052,2046,2031,1196
795,1716363710885023325,2058,2057,2060,2045,2055,2060,1196
796,1716363710895013746,2052,2052,2052,2052,2052,2045,1192
797,1716363710905012412,2060,2052,2055,2066,2064,2049,1198
798,1716363710915012529,2053,2059,2082,2074,2056,2047,1192
799,1716363710925018629,2053,2051,2050,2044,2050,2041,1194
800,1716363710935006654,2052,2049,2052,2056,2056,2036,1195
801,1716363710945013656,2054,2057,2050,2046,2064,2057,1197
802,1716363710955010298,2057,2067,2089,2066,2061,2060,1198
803,1716363710965018080,2061,2054,2050,2065,2064,2058,1197
804,1716363710975008360,2048,2052,2054,2074,2048,2068,1196
805,1716363710985006865,2060,2060,2080,2088,2056,2034,1196
806,1716363710995007354,2048,2044,2049,2042,2061,2059,1197
807,1716363711005012903,2058,2053,2057,2054,2052,2044,1196
808,1716363711015013252,2050,2055,2065,2045,2045,2049,1198
809,1716363711025008961,2060,2060,2060,2053,2050,2051,1197
810,1716363711035007166,2053,2052,2048,2064,2048,2054,1198
811,1716363711045011403,2058,2072,2058,2102,2062,2056,1197
812,1716363711055008876,2059,2066,2069,2066,2047,2060,1197
813,1716363711065008002,2056,2057,2072,2056,2050,2058,1196
814,1716363711075009213,2050,2050,2051,2056,2060,2072,1196
815,1716363711085009913,2054,2056,2060,2044,2053,2056,1197
816,1716363711095006964,2054,2054,2058,2045,2046,2066,1194
817,1716363711105011351,2056,2052,2058,2047,2059,2054,1196
818,1716363711115010097,2058,2060,2066,2042,2044,2056,1198
819,1716363711125009934,2052,2048,2047,2000,2054,2057,1197
820,1716363711135007779,2050,2052,2047,2055,2048,2058,1195
821,1716363711145012416,2060,2052,2078,1970,2060,2057,1197
822,1716363711155008617,2049,2052,2057,2047,2045,2049,1195
823,1716363711165008915,2065,2049,2040,2052,2074,2078,1198
824,1716363711175007391,2045,2041,2033,2068,2045,2041,1195
825,1716363711185010515,2052,2056,2054,2060,2060,2057,1196
826,1716363711195006695,2060,2053,2053,2069,2065,2061,1196
827,1716363711205007345,2059,2066,2077,2082,2073,2062,1200
828,1716363711215007623,2056,2061,2070,2043,2054,2057,1197
829,1716363711225005557,2054,2045,2048,2059,2061,2053,1197
830,1716363711235041283,2060,2084,2130,2036,2047,2028,1195
831,1716363711245009321,2061,2065,2064,2088,2057,2052,1196
832,1716363711255007656,2051,2056,2053,2077,2056,2057,1196
833,1716363711265011110,2056,2056,2056,2054,2041,2061,1197
834,1716363711275008404,2052,2056,2053,2050,2054,2057,1195
835,1716363711285008632,2067,2060,2070,2050,2060,2066,1196
836,1716363711295007127,2053,2049,2053,2059,2041,2051,1196
837,1716363711305008508,2055,2052,2050,2040,2062,2064,1195
838,1716363711315007845,2049,2052,2065,2038,2050,2072,1197
839,1716363711325006651,2056,2050,2044,2058,2062,2057,1195
840,1716363711335006328,2054,2071,2062,2080,2064,2056,1196
841,1716363711345009854,2068,2058,2084,2062,2053,2072,1193
842,1716363711355007517,2050,2052,2052,2056,2049,2045,1193
843,1716363711365008467,2067,2056,2044,2004,2053,2068,1198
844,1716363711375005640,2050,2045,2039,2034,2042,2047,1195
845,1716363711385006279,2064,2056,2061,2045,2041,2054,1195
846,1716363711395006006,2052,2050,2050,2060,2052,2062,1198
847,1716363711405006917,2058,2057,2070,2064,2062,2056,1197
848,1716363711415005432,2051,2051,2051,2053,2046,2048,1197
849,1716363711425007904,2063,2072,2062,2048,2056,2044,1194
850,1716363711435005558,2059,2051,2052,2052,2047,2075,1195
851,1716363711445011047,2044,2055,2046,2049,2056,2068,1196
852,1716363711455007287,2056,2059,2064,2076,2044,2044,1192
853,1716363711465007536,2056,2046,2036,1976,2046,2052,1196
854,1716363711475007835,2050,2052,2049,2070,2060,2052,1195
855,1716363711485020587,2057,2053,2059,2070,2053,2048,1196
856,1716363711495011358,2053,2056,2058,2056,2042,2050,1193
857,1716363711505011066,2059,2056,2048,2059,2052,2049,1195
858,1716363711515008719,2050,2060,2065,2057,2037,2028,1194
859,1716363711525007575,2066,2055,2047,2068,2065,2060,1195
860,1716363711534991924,2045,2047,2047,2058,2034,2029,1194
861,1716363711545012241,2060,2056,2052,2065,2074,2072,1195
862,1716363711555008120,2046,2051,2050,1994,2041,2060,1194
863,1716363711565009281,2063,2053,2045,2058,2046,2073,1195
864,1716363711575011463,2052,2068,2056,2041,2052,2053,1197
865,1716363711585042179,2060,2058,2048,2034,2045,2052,1197
866,1716363711595010518,2048,2049,2045,2068,2044,2051,1195
867,1716363711605010666,2053,2054,2051,2067,2066,2062,1199
868,1716363711615008681,2050,2047,2045,2033,2051,2048,1196
869,1716363711625014399,2057,2056,2061,2064,2073,2049,1197
870,1716363711635008857,2055,2050,2060,2074,2052,2069,1197
871,1716363711645011670,2052,2049,2038,2046,2057,2053,1195
872,1716363711655010717,2053,2057,2057,2033,2043,2052,1196
873,1716363711665012859,2061,2056,2058,2051,2053,2056,1196
874,1716363711675010483,2050,2052,2056,2037,2046,2060,1198
875,1716363711684996935,2052,2053,2056,2060,2056,2049,1196
876,1716363711695011431,2056,2053,2046,2056,2058,2031,1191
877,1716363711705010828,2061,2051,2037,2038,2059,2049,1195
878,1716363711715008230,2049,2050,2047,2063,2064,2047,1194
879,1716363711725008720,2052,2052,2053,2056,2063,2041,1196
880,1716363711735008097,2053,2049,2041,2058,2047,2070,1197
881,1716363711745009988,2058,2052,2052,1989,2057,2060,1197
882,1716363711755008213,2053,2056,2055,2064,2045,2041,1194
883,1716363711765007741,2058,2056,2052,2024,2036,2040,1195
884,1716363711775011366,2052,2053,2052,2040,2050,2050,1196
885,1716363711785005683,2061,2052,2052,2072,2064,2078,1196
886,1716363711795009669,2053,2049,2052,2078,2060,2045,1194
887,1716363711805008144,2055,2047,2046,2078,2052,2049,1197
888,1716363711815014203,2049,2049,2055,2065,2052,2054,1197
889,1716363711825009623,2058,2056,2046,2018,2058,2058,1198
890,1716363711835009531,2052,2050,2039,2064,2048,2058,1199
891,1716363711845011392,2056,2050,2043,2070,2064,2067,1199
892,1716363711855010258,2052,2046,2051,2000,2037,2049,1196
893,1716363711865009375,2056,2055,2052,2066,2062,2047,1193
894,1716363711875010485,2046,2043,2037,1989,2027,2053,1199
895,1716363711885007317,2057,2061,2064,2064,2061,2045,1195
896,1716363711895014168,2044,2052,2049,2072,2056,2069,1197
897,1716363711905007865,2057,2059,2056,2024,2040,2022,1196
898,1716363711915006630,2057,2063,2080,2072,2051,2051,1196
899,1716363711925008272,2060,2061,2062,2085,2051,2064,1198
900,1716363711935008330,2050,2052,2064,2057,2042,2042,1192
901,1716363711945008668,2056,2050,2058,2072,2054,2050,1197
902,1716363711955009047,2051,2052,2050,2085,2050,2040,1194
903,1716363711965009897,2058,2060,2063,2052,2061,2054,1195
904,1716363711975006389,2058,2060,2059,2041,2051,2079,1194
905,1716363711985031644,2060,2060,2060,2088,2060,2079,1195
906,1716363711995015392,2050,2051,2047,2029,2052,2060,1196
907,1716363712005007606,2050,2052,2051,2043,2050,2056,1197
908,1716363712015007283,2057,2065,2075,2052,2050,2061,1198
909,1716363712025008113,2050,2044,2036,2052,2056,2047,1194
910,1716363712035008963,2048,2052,2049,2065,2059,2047,1194
911,1716363712045009752,2061,2054,2054,2045,2058,2057,1197
912,1716363712055008698,2048,2044,2034,2021,2056,2056,1197
913,1716363712065008937,2065,2057,2059,2065,2064,2064,1196
914,1716363712075009136,2054,2064,2086,2065,2056,2046,1197
915,1716363712085026377,2068,2061,2062,2074,2065,2095,1198
916,1716363712095008601,2047,2053,2045,2063,2054,2052,1196
917,1716363712105010362,2056,2054,2056,2058,2065,2037,1196
918,1716363712115011092,2052,2050,2052,2050,2050,2056,1195
919,1716363712125011882,2058,2069,2056,2072,2044,2054,1195
920,1716363712135014544,2056,2053,2037,2068,2053,2042,1194
921,1716363712145025854,2056,2054,2050,2060,2056,2054,1198
922,1716363712155013409,2049,2048,2046,2053,2055,2061,1196
923,1716363712165013999,2053,2050,2040,2050,2044,2038,1193
924,1716363712175014197,2047,2049,2047,2040,2014,2021,1194
925,1716363712185014536,2057,2056,2056,2072,2062,2057,1197
926,1716363712195015306,2052,2052,2055,2050,2051,2052,1197
927,1716363712205013861,2058,2056,2044,2063,2061,2042,1195
928,1716363712215015372,2056,2049,2037,2058,2048,2041,1193
929,1716363712225014388,2056,2054,2057,2069,2072,2059,1196
930,1716363712235014757,2056,2056,2056,2052,2052,2054,1197
931,1716363712245015597,2068,2068,2066,2061,2063,2067,1197
932,1716363712255015735,2045,2056,2056,2061,2056,2056,1197
933,1716363712265015944,2055,2054,2049,2058,2054,2050,1195
934,1716363712275015171,2054,2055,2055,2085,2053,2062,1199
935,1716363712285015730,2053,2052,2052,2058,2069,2061,1197
936,1716363712295016439,2060,2059,2068,2037,2055,2077,1193
937,1716363712305016588,2057,2056,2051,2073,2061,2055,1196
938,1716363712315014773,2054,2053,2045,2046,2033,2045,1193
939,1716363712325017076,2059,2052,2048,2053,2061,2061,1194
940,1716363712335017243,2050,2053,2050,2090,2051,2050,1196
941,1716363712345025638,2063,2056,2057,2078,2075,2068,1195
942,1716363712355019635,2053,2056,2048,2050,2049,2068,1195
943,1716363712365021677,2061,2062,2043,2050,2056,2058,1195
944,1716363712375020723,2056,2051,2045,2048,2056,2053,1196
945,1716363712385020871,2059,2054,2051,2058,2070,2064,1196
946,1716363712395033524,2054,2056,2070,2045,2056,2052,1197
947,1716363712405032691,2061,2054,2058,2072,2061,2062,1199
948,1716363712415022459,2053,2052,2052,2127,2036,2028,1196
949,1716363712425022277,2058,2055,2055,2056,2067,2047,1196
950,1716363712435021955,2061,2053,2054,2056,2051,2071,1198
951,1716363712445022624,2056,2053,2049,2052,2053,2066,1198
952,1716363712455024426,2050,2050,2047,2053,2047,2058,1200
953,1716363712465025105,2057,2053,2058,2042,2058,2060,1197
954,1716363712475005987,2059,2051,2052,2040,2051,2056,1198
955,1716363712485025002,2062,2056,2057,2068,2070,2054,1199
956,1716363712495024719,2055,2056,2030,2100,2060,2061,1194
957,1716363712505044144,2061,2056,2059,2060,2058,2048,1197
958,1716363712515002503,2064,2061,2061,2060,2060,2084,1195
959,1716363712525008183,2058,2049,2056,2045,2064,2061,1197
960,1716363712535007680,2052,2058,2049,2034,2048,2042,1194
961,1716363712545007197,2060,2058,2057,2064,2063,2068,1197
962,1716363712555025991,2050,2053,2042,2048,2047,2047,1194
963,1716363712565028003,2058,2062,2056,2012,2053,2049,1195
964,1716363712575000920,2055,2053,2053,2060,2056,2068,1200
965,1716363712585009764,2057,2060,2056,2058,2053,2044,1192
966,1716363712595010604,2044,2047,2036,2088,2038,2060,1198
967,1716363712605043815,2057,2047,2044,2069,2068,2061,1199
968,1716363712615009338,2051,2051,2032,2066,2061,2060,1199
969,1716363712625011660,2053,2050,2029,2069,2057,2047,1194
970,1716363712635012460,2043,2043,2044,2088,2050,2047,1192
971,1716363712645010866,2066,2056,2056,2070,2060,2052,1196
972,1716363712655012327,2054,2056,2044,2067,2054,2040,1193
973,1716363712665011052,2060,2057,2081,2082,2062,2053,1196
974,1716363712675006863,2052,2051,2046,2079,2036,2028,1194
975,1716363712685012281,2063,2061,2066,2042,2060,2058,1195
976,1716363712695013492,2045,2046,2033,2057,2046,2059,1193
977,1716363712705041633,2060,2059,2064,2040,2056,2052,1194
978,1716363712715012877,2045,2050,2049,2042,2044,2046,1193
979,1716363712725009479,2062,2058,2054,2061,2065,2058,1196
980,1716363712735011430,2057,2048,2041,2025,2045,2066,1196
981,1716363712745012891,2056,2056,2072,2061,2056,2052,1195
982,1716363712755012619,2052,2048,2044,2013,2045,2046,1194
983,1716363712765013920,2056,2058,2041,2040,2058,2073,1197
984,1716363712775008438,2053,2059,2056,2076,2063,2056,1196
985,1716363712785009237,2056,2052,2052,2069,2060,2058,1196
986,1716363712795012081,2044,2061,2054,2063,2044,2045,1194
987,1716363712805044130,2057,2056,2065,2045,2042,2044,1196
988,1716363712815011716,2052,2054,2054,2056,2056,2055,1196
989,1716363712825010192,2057,2051,2055,2067,2065,2065,1196
990,1716363712835008096,2046,2052,2065,2049,2053,2073,1197
991,1716363712845007964,2064,2059,2040,2101,2068,2058,1198
992,1716363712855008583,2050,2046,2046,2053,2050,2042,1193
993,1716363712865011757,2064,2058,2059,2040,2056,2061,1197
994,1716363712875000615,2047,2053,2056,2047,2044,2044,1195
995,1716363712885010762,2060,2056,2057,2064,2057,2050,1197
996,1716363712895012714,2056,2056,2062,2038,2052,2057,1196
997,1716363712905018563,2061,2059,2067,2056,2061,2065,1195
998,1716363712915011829,2054,2050,2028,2067,2046,2047,1192
999,1716363712925005265,2053,2052,2052,2072,2059,2048,1196
1000,1716363712935010863,2049,2058,2048,2046,2036,2052,1195
1001,1716363712945006743,2045,2046,2049,2009,2045,2036,1196
1002,1716363712955008575,2049,2052,2041,2087,2051,2056,1199
1003,1716363712965009075,2059,2047,2048,2050,2064,2061,1197
1004,1716363712975010325,2073,2058,2049,2055,2043,2052,1197
1005,1716363712985008379,2058,2045,2080,2068,2074,2066,1196
1006,1716363712995011864,2061,2060,2065,2098,2065,2065,1198
1007,1716363713005030728,2055,2050,2050,2076,2069,2082,1198
1008,1716363713015011810,2051,2051,2052,2060,2045,2050,1198
1009,1716363713025009574,2054,2052,2065,2049,2056,2050,1198
1010,1716363713035012228,2056,2057,2059,2067,2062,2052,1195
1011,1716363713045010002,2053,2046,2047,2050,2062,2052,1195
1012,1716363713055012745,2062,2056,2064,2075,2052,2055,1197
1013,1716363713065010470,2057,2054,2072,2068,2061,2056,1197
1014,1716363713075008965,2052,2049,2045,2028,2035,2061,1197
1015,1716363713085007640,2059,2052,2044,2052,2052,2044,1193
1016,1716363713095017547,2049,2047,2043,2015,2029,2040,1192
1017,1716363713105047943,2063,2058,2056,2069,2066,2058,1195
1018,1716363713115012324,2047,2050,2042,2049,2049,2051,1198
1019,1716363713125006881,2056,2053,2047,2076,2056,2045,1196
1020,1716363713135008733,2055,2058,2072,2077,2046,2044,1196
1021,1716363713145008652,2058,2057,2065,2063,2062,2062,1197
1022,1716363713155007328,2050,2047,2041,2046,2044,2053,1198
1023,1716363713165009190,2066,2050,2037,2054,2052,2060,1197
1024,1716363713175007945,2048,2047,2033,2054,2049,2053,1196
1025,1716363713185005539,2061,2054,2052,2064,2061,2061,1196
1026,1716363713195027348,2057,2060,2069,2060,2049,2057,1197
1027,1716363713205008852,2060,2056,2046,2056,2061,2056,1196
1028,1716363713215014741,2050,2054,2052,2058,2051,2058,1197
1029,1716363713225007206,2048,2049,2056,2057,2053,2067,1197
1030,1716363713235009087,2053,2058,2077,2052,2047,2046,1196
1031,1716363713245010578,2056,2051,2063,2059,2064,2070,1200
1032,1716363713255010145,2049,2046,2047,2048,2060,2060,1196
1033,1716363713265011546,2056,2049,2047,2013,2065,2066,1195
1034,1716363713275012767,2047,2061,2078,2063,2036,2037,1193
1035,1716363713285007134,2046,2053,2053,2060,2057,2056,1196
1036,1716363713295012212,2046,2050,2046,2048,2046,2048,1195
1037,1716363713305008273,2064,2065,2052,2083,2061,2042,1196
1038,1716363713315027087,2058,2053,2052,2117,2060,2056,1196
1039,1716363713325003942,2061,2056,2056,2097,2061,2067,1197
1040,1716363713335006374,2050,2050,2047,2077,2052,2048,1197
1041,1716363713345005130,2059,2051,2044,2054,2064,2045,1194
1042,1716363713355004818,2057,2054,2049,2041,2054,2056,1196
1043,1716363713365008223,2058,2061,2052,2046,2052,2052,1194
1044,1716363713375018921,2057,2059,2054,2081,2043,2042,1195
1045,1716363713385006376,2059,2048,2041,2074,2061,2066,1197
1046,1716363713395011213,2048,2054,2047,2011,2037,2038,1195
1047,1716363713405004298,2057,2053,2055,2047,2059,2040,1194
1048,1716363713415005919,2047,2050,2045,2061,2057,2050,1197
1049,1716363713425007541,2056,2052,2049,2083,2064,2051,1196
1050,1716363713435011847,2046,2051,2052,2042,2034,2015,1194
1051,1716363713445009290,2058,2053,2044,2050,2054,2056,1197
1052,1716363713455011342,2046,2056,2056,2085,2047,2045,1195
1053,1716363713465015158,2054,2048,2058,2064,2054,2040,1194
1054,1716363713475010117,2056,2064,2084,2029,2058,2053,1197
1055,1716363713485003333,2060,2049,2044,2053,2056,2063,1198
1056,1716363713495005264,2052,2052,2052,1986,2044,2040,1192
1057,1716363713505003629,2058,2052,2061,2053,2059,2049,1197
1058,1716363713515013075,2054,2050,2060,2066,2053,2052,1198
1059,1716363713525010068,2060,2051,2043,2056,2056,2058,1196
1060,1716363713535010007,2060,2074,2062,2062,2058,2063,1198
1061,1716363713545008051,2059,2059,2083,2069,2052,2057,1197
1062,1716363713555010023,2058,2056,2061,2090,2058,2062,1197
1063,1716363713565009039,2059,2050,2044,2072,2060,2056,1196
1064,1716363713575006092,2053,2049,2027,2059,2049,2041,1193
1065,1716363713585011641,2056,2051,2043,2068,2060,2051,1194
1066,1716363713595009986,2047,2056,2053,2024,2040,2035,1194
1067,1716363713605021155,2059,2065,2053,2068,2061,2053,1196
1068,1716363713615007527,2061,2059,2058,2051,2053,2084,1195
1069,1716363713625009680,2053,2050,2056,2067,2054,2046,1194
1070,1716363713635009458,2056,2056,2056,2054,2056,2058,1197
1071,1716363713645010358,2057,2047,2039,2016,2053,2056,1199
1072,1716363713655010386,2054,2064,2101,2088,2056,2062,1198
1073,1716363713665013550,2056,2068,2080,2067,2059,2051,1196
1074,1716363713675008599,2050,2052,2044,2018,2050,2045,1196
1075,1716363713685009960,2061,2071,2061,2070,2057,2049,1197
1076,1716363713695010079,2052,2052,2050,2052,2047,2031,1192
1077,1716363713705026538,2069,2064,2092,2052,2053,2037,1194
1078,1716363713715012139,2052,2042,2044,2093,2060,2048,1196
1079,1716363713725014051,2062,2056,2057,2060,2051,2049,1197
1080,1716363713735013829,2056,2054,2053,2052,2048,2050,1198
1081,1716363713745014298,2058,2050,2034,2060,2056,2054,1195
1082,1716363713755014456,2049,2048,2047,2080,2061,2083,1197
1083,1716363713765016759,2067,2056,2053,2062,2062,2052,1197
1084,1716363713775013411,2050,2050,2060,2027,2047,2050,1196
1085,1716363713785015914,2060,2048,2064,2072,2066,2062,1197
1086,1716363713795015612,2053,2058,2059,2056,2048,2051,1196
1087,1716363713805025078,2052,2052,2035,2081,2060,2023,1195
1088,1716363713815016069,2058,2052,2050,2060,2042,2040,1194
1089,1716363713825014123,2058,2052,2048,2043,2050,2052,1196
1090,1716363713835012799,2050,2052,2036,2057,2049,2056,1197
1091,1716363713845014190,2057,2053,2048,2057,2066,2051,1198
1092,1716363713855017876,2050,2049,2053,2070,2030,2027,1195
1093,1716363713865020047,2060,2057,2082,2074,2051,2046,1196
1094,1716363713875016058,2052,2046,2057,2058,2052,2049,1197
1095,1716363713885026156,2064,2053,2064,2054,2061,2065,1198
1096,1716363713895019001,2052,2046,2050,2050,2049,2044,1195
1097,1716363713905031833,2058,2059,2064,2071,2060,2044,1194
1098,1716363713915019237,2049,2048,2052,2044,2044,2047,1194
1099,1716363713925023313,2064,2050,2045,2054,2056,2058,1197
1100,1716363713935020196,2048,2046,2044,2034,2036,2048,1195
1101,1716363713945020835,2052,2057,2092,2088,2061,2058,1196
1102,1716363713955021545,2053,2050,2041,2058,2052,2048,1196
1103,1716363713965022135,2049,2052,2054,2041,2057,2046,1193
1104,1716363713975021541,2054,2060,2075,2056,2044,2075,1197
1105,1716363713985023563,2060,2052,2053,2058,2057,2060,1197
1106,1716363713995022289,2050,2055,2029,2024,2059,2050,1196
1107,1716363714005030864,2060,2068,2112,2062,2052,2034,1195
1108,1716363714015021445,2052,2054,2051,2064,2051,2065,1197
1109,1716363714025008068,2058,2058,2055,2068,2061,2052,1196
1110,1716363714035008016,2049,2052,2049,2072,2036,2026,1196
1111,1716363714045008845,2057,2056,2055,2059,2050,2032,1194
1112,1716363714055008863,2049,2052,2046,2054,2046,2044,1194
1113,1716363714065021536,2056,2067,2088,2061,2055,2068,1196
1114,1716363714075026003,2047,2060,2054,2077,2037,2046,1193
1115,1716363714085027674,2062,2061,2058,2044,2061,2056,1197
1116,1716363714095010610,2052,2049,2052,2065,2050,2054,1195
1117,1716363714105039703,2057,2054,2060,2057,2050,2041,1195
1118,1716363714115014234,2053,2053,2040,2056,2057,2050,1195
1119,1716363714125008020,2064,2057,2057,2045,2059,2059,1198
1120,1716363714135011144,2050,2052,2054,2060,2044,2072,1197
1121,1716363714145009460,2064,2069,2082,2061,2061,2060,1196
1122,1716363714155009578,2048,2052,2049,2080,2043,2041,1194
1123,1716363714165009707,2053,2047,2042,2056,2052,2033,1195
1124,1716363714175010016,2054,2056,2049,2068,2042,2068,1196
1125,1716363714185007930,2058,2053,2033,2056,2064,2065,1196
1126,1716363714195007237,2050,2034,2036,2044,2053,2052,1201
1127,1716363714205009259,2065,2059,2064,2064,2065,2054,1198
1128,1716363714215007073,2051,2058,2068,2049,2045,2034,1195
1129,1716363714225007292,2059,2053,2051,2046,2053,2050,1198
1130,1716363714235007190,2053,2054,2052,2057,2053,2037,1192
1131,1716363714245007940,2057,2056,2057,2016,2056,2064,1197
1132,1716363714255007978,2054,2057,2072,2067,2047,2050,1198
1133,1716363714265007215,2056,2056,2040,2053,2052,2045,1194
1134,1716363714275011301,2053,2054,2065,2072,2056,2061,1197
1135,1716363714285005889,2056,2062,2068,2020,2061,2060,1197
1136,1716363714295001610,2053,2054,2043,2074,2049,2070,1194
1137,1716363714305009323,2054,2057,2072,2072,2068,2031,1194
1138,1716363714315046431,2052,2052,2050,2036,2045,2047,1195
1139,1716363714325008849,2059,2054,2057,2073,2052,2054,1195
1140,1716363714335009578,2044,2048,2043,2065,2044,2043,1194
1141,1716363714345007913,2059,2064,2052,2068,2060,2056,1197
1142,1716363714355007420,2052,2045,2041,2056,2053,2054,1195
1143,1716363714365007799,2060,2056,2061,2054,2064,2067,1197
1144,1716363714375010182,2048,2049,2052,2058,2060,2047,1194
1145,1716363714385006213,2056,2061,2101,2096,2052,2049,1197
1146,1716363714395010580,2049,2046,2038,1986,2042,2052,1200
1147,1716363714405011009,2063,2065,2060,2038,2053,2059,1197
1148,1716363714415010136,2053,2057,2053,2085,2044,2032,1195
1149,1716363714425011125,2061,2053,2047,2090,2070,2059,1197
1150,1716363714435009270,2052,2050,2052,2048,2052,2058,1196
1151,1716363714445008828,2054,2049,2043,2069,2062,2040,1194
1152,1716363714455008726,2049,2056,2062,2024,2028,2043,1193
1153,1716363714465007152,2060,2061,2108,1949,2056,2056,1199
1154,1716363714475007571,2049,2050,2052,2060,2043,2050,1196
1155,1716363714485011346,2059,2052,2046,2053,2044,2044,1195
1156,1716363714495009411,2051,2052,2062,2030,2044,2052,1195
1157,1716363714505030689,2061,2060,2057,2038,2060,2045,1195
1158,1716363714515008415,2053,2049,2052,2057,2047,2032,1195
1159,1716363714525007242,2058,2052,2060,2110,2068,2073,1198
1160,1716363714535012340,2064,2060,2078,2093,2048,2047,1193
1161,1716363714545009593,2056,2047,2051,2078,2059,2053,1197
1162,1716363714555013288,2052,2059,2062,2089,2066,2044,1194
1163,1716363714565011623,2066,2056,2060,2064,2050,2072,1196
1164,1716363714575008094,2051,2064,2097,1985,2045,2078,1197
1165,1716363714585008173,2053,2045,2053,2052,2060,2058,1197
1166,1716363714595008572,2048,2053,2055,2080,2033,2028,1194
1167,1716363714605006326,2059,2057,2060,2100,2068,2056,1197
1168,1716363714615008219,2046,2047,2056,2077,2044,2052,1196
1169,1716363714625012695,2056,2046,2060,2044,2051,2048,1197
1170,1716363714635010890,2066,2068,2084,2070,2056,2046,1194
1171,1716363714645012711,2057,2050,2050,2049,2064,2060,1196
1172,1716363714655010756,2050,2052,2045,2059,2056,2056,1194
1173,1716363714665009001,2056,2050,2045,2066,2056,2038,1193
1174,1716363714675009581,2053,2052,2046,2079,2048,2047,1193
1175,1716363714685009970,2056,2047,2045,1995,2045,2061,1197
1176,1716363714695009918,2052,2056,2052,2072,2050,2053,1195
1177,1716363714705006510,2056,2050,2048,2048,2056,2049,1196
1178,1716363714715012420,2050,2049,2051,2057,2054,2062,1196
1179,1716363714725013289,2045,2046,2034,2036,2051,2045,1192
1180,1716363714735008949,2062,2077,2152,2094,2058,2068,1197
1181,1716363714745012895,2060,2052,2053,2072,2061,2057,1197
1182,1716363714755009357,2049,2040,2047,2069,2052,2052,1195
1183,1716363714765012602,2059,2049,2060,2059,2047,2028,1194
1184,1716363714775009794,2055,2062,2062,2056,2053,2057,1199
1185,1716363714785023549,2054,2052,2058,2053,2051,2034,1193
1186,1716363714795012456,2052,2060,2058,2045,2041,2032,1194
1187,1716363714805008246,2049,2050,2037,2083,2064,2049,1198
1188,1716363714815013905,2053,2051,2064,2042,2052,2058,1198
1189,1716363714825011940,2060,2056,2061,2066,2064,2081,1198
1190,1716363714835009293,2050,2049,2045,2058,2041,2038,1195
1191,1716363714845009813,2064,2054,2050,2078,2059,2043,1194
1192,1716363714855007476,2051,2054,2053,2049,2046,2046,1192
1193,1716363714865006873,2054,2052,2047,2059,2060,2054,1195
1194,1716363714875007193,2052,2045,2040,2050,2040,2036,1193
1195,1716363714885008413,2057,2055,2065,2060,2054,2052,1196
1196,1716363714895007159,2053,2052,2049,2058,2058,2059,1193
1197,1716363714905011476,2060,2058,2056,2044,2042,2072,1196
1198,1716363714915012426,2046,2057,2049,2050,2041,2034,1192
1199,1716363714925010080,2062,2065,2057,2064,2056,2056,1196
1200,1716363714935007233,2049,2050,2054,2056,2053,2056,1197
1201,1716363714945006990,2058,2048,2039,2076,2060,2058,1196
1202,1716363714955006698,2060,2063,2048,2035,2061,2062,1197
1203,1716363714965008089,2058,2047,2025,2000,2052,2053,1195
1204,1716363714975010682,2054,2049,2044,2050,2038,2057,1197
1205,1716363714985008136,2068,2076,2081,2052,2058,2060,1196
1206,1716363714995009908,2056,2060,2041,2068,2052,2060,1196
1207,1716363715005010568,2062,2059,2058,2059,2062,2064,1198
1208,1716363715015008011,2044,2040,2037,2052,2046,2040,1193
1209,1716363715025015222,2059,2058,2049,2062,2068,2063,1197
1210,1716363715035008929,2053,2065,2108,2050,2040,2048,1196
1211,1716363715045010220,2061,2059,2061,2074,2074,2048,1197
1212,1716363715055010899,2041,2047,2048,2000,2035,2049,1197
1213,1716363715065010126,2061,2055,2056,2056,2062,2062,1194
1214,1716363715075007921,2047,2050,2050,2045,2046,2047,1195
1215,1716363715085009652,2068,2064,2066,2089,2073,2064,1198
1216,1716363715095009140,2049,2068,2049,2048,2030,2053,1192
1217,1716363715105008818,2069,2064,2065,2065,2078,2064,1198
1218,1716363715115013816,2044,2049,2047,2051,2032,2053,1197
1219,1716363715125012231,2061,2058,2069,2051,2058,2064,1195
1220,1716363715135014664,2040,2045,2034,2070,2034,2069,1198
1221,1716363715145008301,2066,2055,2060,2097,2080,2057,1196
1222,1716363715155008519,2042,2047,2050,2038,2040,2046,1194
1223,1716363715165008597,2062,2053,2061,2056,2064,2056,1195
1224,1716363715175010710,2045,2049,2039,2056,2037,2044,1194
1225,1716363715185027590,2069,2047,2056,2040,2074,2065,1194
1226,1716363715195010045,2040,2052,2045,2051,2035,2034,1194
1227,1716363715205005896,2066,2052,2062,2063,2075,2058,1197
1228,1716363715215008028,2044,2044,2036,2058,2047,2050,1199
1229,1716363715225007526,2062,2049,2034,2056,2067,2078,1195
1230,1716363715235006673,2040,2047,2033,2004,2034,2040,1192
1231,1716363715245009066,2073,2060,2060,2084,2124,2094,1194
1232,1716363715255012451,2035,2068,2083,2041,2017,2038,1193
1233,1716363715265013170,2077,2060,2069,2066,2111,2081,1193
1234,1716363715275007989,2033,2047,2042,2049,2010,2032,1195
1235,1716363715285007767,2084,2063,2085,2070,2122,2106,1198
1236,1716363715295008767,2030,2037,2019,1965,1986,2016,1194
1237,1716363715305011751,2072,2058,2065,2008,2117,2084,1195
1238,1716363715315021067,2033,2056,2041,2050,2024,2033,1194
1239,1716363715325008341,2073,2056,2061,2068,2112,2085,1196
1240,1716363715335005805,2034,2047,2064,2046,2012,2043,1194
1241,1716363715345006735,2068,2064,2093,2073,2116,2073,1196
1242,1716363715355011753,2024,2039,2042,2035,2004,2026,1195
1243,1716363715364995651,2073,2057,2068,2072,2116,2079,1194
1244,1716363715375012551,2035,2049,2045,2073,2010,2045,1193
1245,1716363715385002441,2072,2052,2068,2088,2129,2084,1195
1246,1716363715395008761,2029,2037,2029,2038,2003,2033,1194
1247,1716363715405012036,2077,2070,2080,2064,2120,2074,1197
1248,1716363715415011122,2024,2045,2039,2027,1985,2024,1194
1249,1716363715425010640,2070,2051,2053,2024,2129,2100,1195
1250,1716363715435006871,2030,2052,2034,2049,1984,2009,1195
1251,1716363715445037557,2077,2057,2064,2099,2140,2086,1196
1252,1716363715455012247,2026,2045,2033,2026,1996,2030,1193
1253,1716363715465010322,2071,2045,2052,2077,2140,2085,1196
1254,1716363715475008778,2028,2047,2051,2043,1998,2025,1193
1255,1716363715485008355,2070,2037,2052,2079,2128,2088,1196
1256,1716363715495009466,2021,2036,2016,2023,2003,2040,1192
1257,1716363715505013121,2080,2058,2065,2066,2132,2086,1196
1258,1716363715515010264,2041,2057,2062,2062,2008,2035,1193
1259,1716363715525011675,2073,2051,2072,2083,2129,2096,1195
1260,1716363715535009370,2030,2049,2036,2025,1990,2020,1196
1261,1716363715545008827,2068,2052,2058,2087,2116,2073,1195
1262,1716363715555006891,2028,2050,2039,2072,2015,2040,1193
1263,1716363715565003162,2079,2054,2063,2062,2115,2076,1195
1264,1716363715575005025,2032,2049,2040,2044,2017,2037,1193
1265,1716363715585003760,2072,2060,2068,2067,2101,2081,1196
1266,1716363715595007065,2029,2045,2038,2017,2014,2041,1194
1267,1716363715605004979,2076,2052,2062,2068,2130,2093,1199
1268,1716363715615011220,2030,2047,2036,2035,2001,2045,1195
1269,1716363715625011960,2073,2057,2065,2076,2118,2085,1195
1270,1716363715635009363,2030,2044,2032,2039,2013,2044,1194
1271,1716363715645014181,2069,2053,2083,2055,2115,2104,1196
1272,1716363715655008278,2033,2044,2051,2056,2018,2030,1195
1273,1716363715665013847,2076,2057,2090,2068,2108,2082,1197
1274,1716363715675011180,2031,2043,2042,2042,2029,2041,1194
1275,1716363715685026909,2072,2060,2088,2047,2107,2071,1195
1276,1716363715695018831,2026,2041,2040,2027,2015,2037,1192
1277,1716363715705016525,2078,2051,2051,2072,2126,2089,1196
1278,1716363715715009450,2020,2041,2028,2024,2006,2034,1196
1279,1716363715725012544,2076,2072,2041,2022,2114,2078,1196
1280,1716363715735007964,2031,2056,2041,2040,1999,2029,1195
1281,1716363715745019314,2075,2053,2066,2082,2124,2086,1195
1282,1716363715755006198,2031,2050,2042,2064,2006,2018,1195
1283,1716363715765012378,2079,2050,2043,2075,2136,2104,1196
1284,1716363715775010212,2021,2041,2027,2068,2002,2028,1192
1285,1716363715785015721,2079,2062,2062,2082,2126,2084,1196
1286,1716363715795017272,2028,2055,2040,2051,2001,2043,1195
1287,1716363715805016850,2074,2054,2056,2088,2126,2080,1197
1288,1716363715815010246,2028,2049,2045,2048,2009,2035,1193
1289,1716363715825012779,2072,2046,2052,2066,2119,2074,1196
1290,1716363715835016073,2026,2049,2045,2029,1993,2021,1196
1291,1716363715845019618,2077,2056,2084,2070,2124,2084,1197
1292,1716363715855009949,2024,2047,2049,2043,1997,2027,1195
1293,1716363715865012632,2079,2056,2067,2084,2128,2090,1196
1294,1716363715875012480,2019,2052,2047,2026,1994,2028,1194
1295,1716363715885012679,2078,2058,2075,2071,2128,2088,1197
1296,1716363715895015232,2025,2047,2060,2010,2002,2033,1193
1297,1716363715905012495,2077,2053,2063,2025,2115,2088,1196
1298,1716363715915012965,2027,2045,2036,2037,2001,2026,1194
1299,1716363715925013464,2075,2050,2074,2072,2118,2094,1194
1300,1716363715935013743,2025,2064,2054,2042,2019,2037,1193
1301,1716363715945016978,2081,2064,2070,2094,2128,2094,1194
1302,1716363715955012387,2024,2042,2036,2053,2020,2020,1194
1303,1716363715965015512,2070,2060,2063,2089,2090,2047,1194
1304,1716363715975014478,2034,2057,2044,2029,2020,2043,1193
1305,1716363715985022371,2072,2049,2064,2117,2102,2081,1196
1306,1716363715995020015,2034,2054,2037,2020,2022,2026,1195
1307,1716363716005016126,2076,2058,2068,2081,2101,2073,1197
1308,1716363716015017046,2028,2042,2037,2071,2028,2044,1194
1309,1716363716025017986,2073,2056,2056,2073,2104,2079,1196
1310,1716363716035018035,2026,2026,2045,2057,2033,2047,1193
1311,1716363716045021871,2072,2056,2063,2056,2101,2069,1196
1312,1716363716055016779,2030,2043,2039,2070,2023,2037,1195
1313,1716363716065019723,2073,2056,2060,2088,2099,2069,1198
1314,1716363716075018359,2033,2048,2032,2040,2018,2029,1195
1315,1716363716085020351,2071,2060,2070,2085,2104,2063,1196
1316,1716363716095018496,2032,2045,2038,2047,2042,2044,1193
1317,1716363716105017834,2081,2072,2074,2074,2096,2083,1196
1318,1716363716115020728,2038,2047,2050,2024,2033,2048,1196
1319,1716363716125003624,2077,2070,2133,2089,2101,2071,1197
1320,1716363716135020614,2033,2042,2029,2038,2023,2040,1195
1321,1716363716145023909,2077,2059,2056,2074,2098,2062,1199
1322,1716363716155019028,2025,2041,2034,2044,2035,2045,1194
1323,1716363716165003748,2076,2060,2068,2069,2092,2069,1197
1324,1716363716175005179,2024,2045,2030,1997,2020,2015,1195
1325,1716363716185024454,2073,2064,2053,2088,2086,2060,1196
1326,1716363716195022950,2029,2039,2027,2041,2020,2028,1195
1327,1716363716205022497,2084,2065,2083,2072,2093,2075,1198
1328,1716363716215004792,2034,2046,2033,2053,2027,2055,1197
1329,1716363716225005392,2080,2066,2065,2085,2112,2084,1195
1330,1716363716235004308,2030,2040,2035,2057,2018,2040,1194
1331,1716363716245004156,2082,2061,2074,2093,2097,2097,1196
1332,1716363716255002942,2029,2041,2034,2044,2024,2050,1198
1333,1716363716265007490,2077,2068,2070,2081,2102,2073,1197
1334,1716363716275008810,2027,2040,2023,2045,2021,2033,1194
1335,1716363716285006775,2081,2074,2060,2080,2108,2072,1196
1336,1716363716295005541,2032,2039,2012,2026,2029,2070,1196
1337,1716363716305005460,2074,2054,2051,2072,2104,2069,1195
1338,1716363716315008042,2027,2048,2068,2058,2034,2047,1194
1339,1716363716325006849,2076,2056,2063,2085,2108,2085,1196
1340,1716363716335009272,2027,2047,2033,2036,2017,2034,1193
1341,1716363716345009281,2079,2052,2062,2057,2095,2069,1198
1342,1716363716355011393,2028,2045,2018,2045,2022,2036,1193
1343,1716363716365009738,2077,2072,2073,2076,2096,2073,1194
1344,1716363716375009436,2025,2041,2029,2026,2010,2040,1192
1345,1716363716385005798,2079,2061,2089,2106,2104,2077,1195
1346,1716363716395011296,2028,2042,2032,2040,2020,2033,1193
1347,1716363716405021555,2072,2053,2071,2005,2101,2082,1198
1348,1716363716415012075,2025,2041,2037,2048,2030,2040,1196
1349,1716363716425009949,2080,2056,2064,2090,2109,2084,1197
1350,1716363716435008064,2028,2032,2026,2046,2032,2070,1200
1351,1716363716445008232,2072,2057,2092,2074,2108,2076,1197
1352,1716363716455008372,2038,2049,2045,2040,2018,2036,1194
1353,1716363716465013770,2079,2054,2068,2090,2116,2081,1198
1354,1716363716475010643,2020,2043,2047,2041,2010,2022,1196
1355,1716363716485009519,2077,2057,2068,2066,2116,2084,1199
1356,1716363716495007895,2026,2038,2028,2042,2022,2041,1192
1357,1716363716505040674,2080,2056,2069,2092,2124,2093,1195
1358,1716363716515006288,2021,2040,2021,2068,2011,2033,1195
1359,1716363716525004323,2079,2065,2073,2079,2120,2084,1195
1360,1716363716535011475,2025,2041,2033,2056,2012,2037,1194
1361,1716363716545009730,2081,2056,2070,2100,2125,2085,1196
1362,1716363716555009698,2023,2044,2031,2018,2009,2038,1193
1363,1716363716565014005,2081,2053,2068,2075,2132,2088,1196
1364,1716363716575004545,2018,2041,2027,2027,2008,2028,1194
1365,1716363716585006257,2084,2061,2122,2072,2137,2091,1198
1366,1716363716595010293,2026,2047,2066,2048,2014,2041,1196
1367,1716363716605023376,2081,2057,2069,2080,2128,2092,1198
1368,1716363716615003287,2023,2039,2040,2036,2004,2037,1193
1369,1716363716625002303,2076,2055,2068,2053,2122,2085,1196
1370,1716363716635004215,2018,2054,2034,2036,2008,2023,1196
1371,1716363716645011197,2080,2059,2068,2080,2108,2074,1197
1372,1716363716655004192,2024,2040,2030,2056,2018,2027,1194
1373,1716363716664987329,2076,2052,2061,2077,2116,2061,1195
1374,1716363716675007165,2026,2045,2029,2056,2024,2033,1195
1375,1716363716685010690,2081,2060,2063,2075,2115,2082,1198
1376,1716363716695007843,2030,2058,2045,2036,2024,2035,1192
1377,1716363716705027449,2074,2057,2066,2083,2124,2094,1196
1378,1716363716715007039,2028,2045,2061,2031,2021,2027,1196
1379,1716363716725012407,2080,2068,2122,2072,2097,2068,1198
1380,1716363716735010382,2026,2038,2037,2041,2024,2040,1195
1381,1716363716745014688,2080,2058,2084,2081,2099,2056,1195
1382,1716363716755009136,2024,2040,2030,2041,2020,2027,1196
1383,1716363716765006720,2082,2080,2072,2060,2102,2069,1198
1384,1716363716775003473,2025,2043,2038,2044,2033,2049,1196
1385,1716363716785008621,2079,2058,2070,2072,2101,2080,1197
1386,1716363716795013969,2027,2045,2041,2044,2033,2052,1198
1387,1716363716805010652,2086,2064,2065,2085,2113,2097,1198
1388,1716363716815009468,2025,2043,2031,2039,2018,2038,1194
1389,1716363716825008775,2080,2062,2070,2018,2096,2073,1198
1390,1716363716835007661,2025,2041,2036,2047,2028,2038,1194
1391,1716363716845009263,2078,2064,2066,2088,2110,2078,1197
1392,1716363716855009111,2032,2046,2041,2050,2026,2050,1196
1393,1716363716865027775,2079,2058,2075,2062,2093,2068,1196
1394,1716363716875010020,2029,2047,2037,2044,2030,2043,1195
1395,1716363716885009076,2077,2057,2067,2073,2106,2078,1196
1396,1716363716895012732,2028,2043,2036,2039,2034,2036,1192
1397,1716363716905012790,2082,2067,2104,2056,2089,2084,1196
1398,1716363716915009302,2026,2060,2042,2040,2029,2044,1194
1399,1716363716925007848,2084,2069,2071,2072,2103,2072,1197
1400,1716363716935008477,2024,2038,2031,2041,2026,2040,1195
1401,1716363716945012754,2075,2051,2061,2066,2088,2065,1195
1402,1716363716955008103,2029,2040,2033,2051,2032,2037,1195
1403,1716363716965011268,2075,2060,2070,2058,2091,2070,1197
1404,1716363716975005986,2026,2046,2027,2042,2028,2041,1196
1405,1716363716985009211,2084,2070,2085,2068,2098,2080,1197
1406,1716363716995009059,2026,2037,2040,2033,2025,2041,1194
1407,1716363717005005661,2076,2056,2049,2067,2100,2072,1196
1408,1716363717015015538,2030,2057,2050,2044,2030,2043,1194
1409,1716363717024996601,2080,2069,2111,2076,2096,2089,1196
1410,1716363717035008812,2030,2047,2039,2044,2029,2036,1195
1411,1716363717045011947,2080,2056,2076,2073,2093,2074,1197
1412,1716363717055008799,2032,2040,2040,2043,2024,2021,1194
1413,1716363717065008357,2081,2057,2063,2068,2100,2075,1196
1414,1716363717075006623,2020,2044,2032,2042,2026,2044,1195
1415,1716363717085007613,2082,2068,2092,2075,2096,2076,1197
1416,1716363717095007391,2032,2048,2041,2041,2028,2043,1192
1417,1716363717105007409,2082,2060,2082,2061,2096,2074,1198
1418,1716363717115004502,2023,2039,2035,2053,2032,2048,1197
1419,1716363717125010853,2077,2048,2063,2065,2089,2064,1194
1420,1716363717135004870,2029,2045,2062,2046,2028,2048,1198
1421,1716363717145011451,2077,2056,2058,2056,2096,2074,1198
1422,1716363717155004616,2023,2040,2036,2047,2024,2051,1196
1423,1716363717165006679,2081,2056,2068,2074,2101,2070,1195
1424,1716363717175005515,2021,2043,2043,2040,2036,2060,1196
1425,1716363717185007968,2080,2068,2078,2072,2101,2076,1196
1426,1716363717195012876,2029,2045,2040,2027,2027,2053,1197
1427,1716363717205005671,2080,2067,2096,2077,2096,2072,1197
1428,1716363717215005980,2024,2054,2041,2041,2038,2043,1194
1429,1716363717225070951,2080,2067,2049,2067,2099,2081,1196
1430,1716363717235008212,2023,2052,2048,2045,2033,2037,1193
1431,1716363717245011616,2081,2060,2068,2082,2100,2065,1197
1432,1716363717255010974,2025,2039,2030,2017,2013,2029,1193
1433,1716363717265005052,2085,2084,2104,2055,2096,2075,1197
1434,1716363717275011492,2020,2037,2029,2041,2028,2037,1195
1435,1716363717285009767,2081,2057,2068,2069,2096,2077,1196
1436,1716363717295009505,2028,2049,2052,2040,2036,2054,1195
1437,1716363717305009784,2084,2060,2064,2080,2098,2069,1196
1438,1716363717315010394,2028,2048,2040,2051,2037,2036,1194
1439,1716363717325009210,2080,2064,2068,2071,2096,2091,1194
1440,1716363717335008577,2018,2036,2018,2043,2019,2041,1193
1441,1716363717345012193,2080,2053,2072,2074,2100,2077,1198
1442,1716363717355009206,2024,2033,2038,2026,2019,2034,1195
1443,1716363717365009334,2080,2055,2052,2061,2090,2062,1196
1444,1716363717375006928,2025,2046,2041,2042,2041,2052,1197
1445,1716363717385016154,2080,2061,2068,2086,2096,2076,1195
1446,1716363717395013427,2026,2040,2031,2047,2033,2068,1197
1447,1716363717405014328,2081,2064,2077,2069,2095,2090,1196
1448,1716363717415028112,2027,2052,2064,2044,2037,2041,1194
1449,1716363717425013683,2077,2056,2083,2072,2093,2070,1195
1450,1716363717435013692,2028,2040,2034,2034,2030,2038,1195
1451,1716363717445012809,2085,2064,2073,2083,2104,2092,1197
1452,1716363717455012006,2020,2035,2028,2029,2031,2036,1193
1453,1716363717465012385,2076,2060,2058,2066,2092,2069,1198
1454,1716363717475017954,2019,2036,2023,2023,2028,2036,1194
1455,1716363717485013303,2082,2056,2067,2059,2093,2102,1196
1456,1716363717495012912,2031,2045,2060,2028,2025,2041,1192
1457,1716363717505013201,2078,2056,2052,2059,2083,2069,1194
1458,1716363717515026765,2024,2042,2029,2048,2044,2056,1196
1459,1716363717525017747,2080,2061,2069,2072,2085,2069,1196
1460,1716363717535012866,2027,2041,2028,2032,2026,2036,1194
1461,1716363717545015429,2077,2064,2075,2049,2093,2077,1197
1462,1716363717555015528,2025,2049,2072,2061,2038,2048,1194
1463,1716363717565015426,2080,2057,2071,2058,2081,2056,1197
1464,1716363717575016837,2030,2032,2031,2045,2041,2040,1193
1465,1716363717585016585,2081,2060,2057,2065,2092,2073,1195
1466,1716363717595017345,2019,2034,2033,2042,2034,2040,1196
1467,1716363717605016622,2086,2061,2069,2072,2088,2066,1197
1468,1716363717615017172,2026,2042,2036,2037,2031,2046,1193
1469,1716363717625018222,2081,2064,2068,2056,2094,2072,1194
1470,1716363717635017309,2023,2040,2028,2030,2041,2072,1196
1471,1716363717645018310,2085,2067,2088,2067,2101,2079,1196
1472,1716363717655018468,2028,2057,2085,2044,2030,2047,1196
1473,1716363717665018837,2079,2057,2065,2073,2100,2075,1196
1474,1716363717675019657,2021,2039,2034,2040,2032,2032,1194
1475,1716363717685019576,2088,2073,2082,2078,2097,2078,1198
1476,1716363717695019645,2020,2039,2020,2032,2032,2044,1192
1477,1716363717705037176,2077,2062,2073,2074,2093,2047,1193
1478,1716363717715021195,2024,2050,2034,2019,2018,2040,1193
1479,1716363717725021754,2077,2060,2060,2061,2082,2061,1197
1480,1716363717735021482,2018,2038,2032,2032,2033,2041,1192
1481,1716363717745022322,2090,2060,2070,2065,2077,2049,1198
1482,1716363717755021569,2031,2042,2038,2041,2041,2050,1195
1483,1716363717765019084,2081,2064,2093,2073,2088,2066,1197
1484,1716363717775006337,2025,2046,2032,2040,2044,2049,1197
1485,1716363717785023058,2081,2064,2061,2069,2091,2059,1197
1486,1716363717795022816,2025,2030,2040,2034,2038,2033,1194
1487,1716363717805010682,2083,2052,2042,2048,2100,2066,1197
1488,1716363717815013285,2021,2043,2039,2030,2034,2040,1196
1489,1716363717825008204,2075,2058,2067,2064,2093,2069,1198
1490,1716363717835010637,2034,2040,2032,2052,2049,2072,1198
1491,1716363717845011557,2085,2072,2088,2077,2093,2074,1197
1492,1716363717855010914,2024,2039,2038,2036,2034,2041,1192
1493,1716363717865009009,2088,2067,2095,2095,2090,2061,1197
1494,1716363717875023455,2021,2030,2027,2037,2038,2050,1197
1495,1716363717885013054,2088,2076,2104,2076,2090,2068,1194
1496,1716363717895008053,2019,2037,2039,2043,2045,2053,1195
1497,1716363717905013502,2086,2069,2095,2072,2100,2074,1194
1498,1716363717915011827,2026,2040,2034,2040,2041,2044,1197
1499,1716363717925014080,2088,2063,2069,2070,2089,2068,1197
1500,1716363717935010301,2022,2047,2035,2040,2029,2047,1194
1501,1716363717945014918,2080,2058,2072,2066,2095,2072,1196
1502,1716363717955007844,2024,2060,2046,2044,2035,2017,1194
1503,1716363717965009024,2088,2064,2086,2074,2094,2073,1197
1504,1716363717975007670,2018,2034,2024,2050,2041,2053,1198
1505,1716363717985008560,2087,2061,2064,2063,2093,2074,1197
1506,1716363717995032124,2022,2040,2033,2051,2038,2050,1198
1507,1716363718005013768,2081,2064,2061,2074,2092,2084,1198
1508,1716363718015011231,2022,2047,2035,2041,2048,2064,1197
1509,1716363718025012021,2084,2061,2068,2059,2100,2085,1197
1510,1716363718035010748,2017,2036,2026,2039,2037,2038,1194
1511,1716363718045013591,2081,2058,2060,2066,2087,2076,1198
1512,1716363718055008831,2014,2031,2024,2018,2042,2037,1194
1513,1716363718065007236,2084,2072,2076,2080,2090,2069,1197
1514,1716363718075005682,2023,2033,2037,2037,2050,2059,1198
1515,1716363718085009498,2079,2061,2087,2065,2076,2045,1193
1516,1716363718095015738,2022,2035,2052,2043,2058,2052,1194
1517,1716363718105009776,2082,2068,2067,2066,2073,2067,1196
1518,1716363718115013381,2024,2042,2032,2037,2051,2043,1194
1519,1716363718125013931,2084,2047,2064,2077,2089,2061,1196
1520,1716363718135010934,2024,2031,2019,2015,2040,2042,1193
1521,1716363718145014048,2085,2061,2061,2064,2080,2064,1195
1522,1716363718155009598,2033,2042,2022,2047,2055,2052,1196
1523,1716363718165009466,2091,2069,2069,2068,2088,2082,1194
1524,1716363718175007431,2026,2043,2044,2047,2050,2056,1197
1525,1716363718185011728,2084,2068,2096,2066,2078,2048,1197
1526,1716363718195016766,2024,2041,2050,2044,2031,2071,1198
1527,1716363718205011274,2084,2062,2072,2068,2068,2043,1197
1528,1716363718215014128,2022,2038,2036,2044,2076,2042,1197
1529,1716363718225052550,2084,2067,2080,2083,2068,2064,1197
1530,1716363718235011981,2024,2041,2039,2042,2040,2045,1196
1531,1716363718245030936,2084,2062,2097,2072,2080,2065,1197
1532,1716363718255010586,2021,2046,2040,2041,2047,2073,1196
1533,1716363718265008520,2086,2060,2064,2066,2085,2080,1196
1534,1716363718275008519,2028,2045,2040,2072,2056,2053,1197
1535,1716363718285008167,2079,2062,2072,2050,2071,2087,1196
1536,1716363718295014417,2024,2046,2042,2045,2047,2045,1195
1537,1716363718305009486,2077,2060,2047,2064,2077,2066,1195
1538,1716363718315014915,2021,2034,2034,2039,2056,2047,1194
1539,1716363718325011027,2085,2060,2060,2072,2069,2044,1194
1540,1716363718335009663,2024,2033,2024,2047,2050,2052,1196
1541,1716363718345013879,2088,2053,2069,2061,2077,2066,1197
1542,1716363718355009069,2028,2037,2088,2037,2059,2064,1196
1543,1716363718365012313,2082,2058,2068,2057,2077,2072,1196
1544,1716363718375015227,2025,2045,2052,2047,2051,2053,1197
1545,1716363718385009465,2084,2063,2062,2057,2077,2061,1197
1546,1716363718395016327,2024,2040,2037,2041,2046,2049,1198
1547,1716363718405010053,2089,2068,2088,2073,2089,2083,1197
1548,1716363718415024339,2024,2056,2068,2048,2047,2056,1199
1549,1716363718425005091,2087,2076,2073,2068,2079,2080,1196
1550,1716363718435015720,2025,2039,2030,2032,2053,2051,1197
1551,1716363718445011210,2078,2065,2092,2075,2085,2087,1197
1552,1716363718455008173,2024,2037,2024,2044,2050,2040,1195
1553,1716363718465012660,2085,2065,2057,2065,2074,2060,1197
1554,1716363718475009943,2022,2036,2021,2040,2050,2049,1197
1555,1716363718485005754,2084,2077,2061,2064,2074,2061,1197
1556,1716363718495006985,2028,2050,2050,2042,2056,2050,1194
1557,1716363718505005550,2083,2060,2065,2072,2068,2076,1195
1558,1716363718515005850,2025,2036,2020,2047,2057,2056,1196
1559,1716363718525018653,2084,2064,2066,2070,2053,2027,1193
1560,1716363718535006919,2021,2041,2032,2054,2060,2056,1195
1561,1716363718545010204,2085,2059,2072,2068,2080,2068,1196
1562,1716363718555025291,2028,2040,2034,2052,2056,2054,1197
1563,1716363718565006384,2083,2062,2071,2067,2072,2068,1196
1564,1716363718575007224,2021,2041,2056,2049,2049,2045,1194
1565,1716363718585022251,2088,2066,2080,2092,2079,2062,1193
1566,1716363718595011209,2026,2046,2061,2038,2047,2053,1200
1567,1716363718605008491,2082,2061,2056,2068,2072,2058,1197
1568,1716363718615010635,2025,2050,2037,2031,2052,2072,1198
1569,1716363718625008489,2090,2070,2080,2084,2072,2056,1198
1570,1716363718635010772,2023,2038,2032,2050,2064,2057,1197
1571,1716363718645024066,2086,2062,2069,2075,2080,2072,1198
1572,1716363718655007844,2023,2042,2064,2056,2060,2056,1196
1573,1716363718665004826,2083,2068,2073,2068,2074,2047,1194
1574,1716363718675010806,2018,2039,2036,2034,2044,2044,1194
1575,1716363718685010735,2084,2072,2074,2061,2066,2064,1196
1576,1716363718695011294,2027,2061,2075,2058,2064,2052,1196
1577,1716363718705006634,2088,2068,2060,2074,2074,2064,1195
1578,1716363718715009849,2027,2056,2024,2056,2061,2060,1199
1579,1716363718725011190,2084,2071,2078,2069,2078,2057,1199
1580,1716363718735010788,2023,2034,2033,2045,2054,2064,1200
1581,1716363718745023430,2084,2064,2074,2072,2068,2054,1196
1582,1716363718755009042,2021,2042,2037,2033,2056,2046,1195
1583,1716363718765008429,2087,2065,2068,2066,2074,2055,1198
1584,1716363718775008938,2021,2035,2037,2052,2066,2062,1196
1585,1716363718785007053,2086,2074,2086,2069,2075,2070,1198
1586,1716363718795003715,2026,2036,2021,2047,2061,2058,1195
1587,1716363718805007882,2082,2065,2070,2069,2071,2060,1198
1588,1716363718815004775,2028,2035,2032,2047,2050,2036,1195
1589,1716363718825008231,2091,2076,2074,2072,2074,2062,1198
1590,1716363718835006305,2022,2051,2037,2043,2060,2056,1195
1591,1716363718845021412,2086,2068,2078,2065,2066,2058,1197
1592,1716363718855009819,2017,2033,2025,2051,2054,2052,1194
1593,1716363718865007804,2090,2070,2063,2065,2068,2061,1196
1594,1716363718875008493,2021,2033,2024,2042,2054,2047,1195
1595,1716363718885007219,2092,2064,2066,2067,2063,2059,1196
1596,1716363718895003361,2032,2058,2053,2044,2060,2047,1195
1597,1716363718905008359,2084,2063,2058,2069,2068,2064,1198
1598,1716363718915008498,2026,2042,2040,2045,2060,2056,1197
1599,1716363718925006243,2085,2069,2069,2066,2066,2057,1196
1600,1716363718935008054,2029,2040,2034,2044,2072,2058,1197
1601,1716363718945019995,2086,2065,2075,2069,2065,2047,1195
1602,1716363718955011308,2014,2034,2040,2059,2056,2036,1195
1603,1716363718965006467,2085,2060,2070,2069,2074,2064,1196
1604,1716363718975007287,2027,2043,2064,2050,2069,2046,1194
1605,1716363718985008418,2088,2073,2077,2088,2083,2078,1199
1606,1716363718995005781,2017,2032,2034,2050,2061,2055,1197
1607,1716363719005007964,2081,2064,2068,2064,2069,2062,1198
1608,1716363719015015407,2020,2034,2034,2049,2056,2038,1194
1609,1716363719025023972,2084,2070,2104,2061,2069,2085,1195
1610,1716363719035011336,2024,2040,2057,2042,2068,2058,1197
1611,1716363719045030381,2087,2068,2072,2062,2064,2068,1195
1612,1716363719055008518,2025,2057,2046,2047,2070,2065,1198
1613,1716363719065007014,2089,2074,2097,2068,2070,2068,1197
1614,1716363719075012333,2021,2041,2045,2047,2054,2037,1196
1615,1716363719085007002,2084,2061,2056,2060,2053,2044,1196
1616,1716363719095004335,2025,2037,2032,2053,2072,2060,1194
1617,1716363719105006417,2092,2072,2095,2065,2062,2065,1195
1618,1716363719115010003,2018,2031,2023,2041,2067,2052,1197
1619,1716363719125008018,2094,2065,2080,2074,2063,2056,1197
1620,1716363719135008227,2026,2034,2029,2044,2069,2061,1196
1621,1716363719145008455,2084,2062,2056,2058,2066,2056,1195
1622,1716363719155003214,2028,2044,2036,2033,2057,2061,1196
1623,1716363719165006630,2090,2076,2115,2072,2085,2068,1195
1624,1716363719175010035,2020,2033,2024,2069,2071,2062,1196
1625,1716363719185007188,2089,2071,2089,2097,2075,2065,1196
1626,1716363719195013097,2021,2041,2051,2050,2062,2059,1197
1627,1716363719205007976,2092,2064,2053,2054,2079,2068,1198
1628,1716363719215011241,2017,2028,2028,2046,2064,2058,1199
1629,1716363719225005510,2090,2066,2058,2064,2065,2064,1197
1630,1716363719235013653,2024,2037,2034,2053,2062,2058,1198
1631,1716363719245006749,2089,2069,2094,2074,2069,2059,1195
1632,1716363719255009282,2016,2024,2030,2049,2062,2045,1195
1633,1716363719265009331,2089,2069,2100,2064,2068,2058,1196
1634,1716363719275006965,2022,2025,2044,2021,2059,2047,1197
1635,1716363719285009469,2082,2067,2074,2058,2065,2069,1197
1636,1716363719295013806,2029,2040,2036,2056,2078,2067,1198
1637,1716363719305030967,2092,2077,2076,2072,2064,2054,1197
1638,1716363719315008563,2028,2044,2038,2052,2073,2064,1195
1639,1716363719325007329,2090,2056,2045,2064,2057,2065,1196
1640,1716363719335010073,2026,2040,2022,2056,2076,2066,1196
1641,1716363719345007718,2080,2070,2082,2068,2072,2064,1198
1642,1716363719355010381,2024,2039,2040,2054,2065,2048,1195
1643,1716363719365059222,2087,2072,2077,2073,2069,2058,1195
1644,1716363719375008555,2026,2037,2025,2043,2074,2066,1199
1645,1716363719385009214,2090,2068,2058,2066,2059,2049,1195
1646,1716363719395009744,2026,2048,2031,2047,2072,2068,1197
1647,1716363719405021144,2085,2069,2077,2067,2058,2061,1197
1648,1716363719415016705,2022,2037,2038,2056,2072,2049,1197
1649,1716363719425008448,2086,2073,2089,2068,2063,2066,1196
1650,1716363719435009088,2024,2038,2040,2050,2071,2064,1195
1651,1716363719445008064,2082,2064,2084,2081,2059,2058,1196
1652,1716363719455007241,2016,2028,2057,2034,2065,2052,1198
1653,1716363719465008301,2086,2062,2072,2064,2055,2064,1197
1654,1716363719475013390,2022,2034,2040,2042,2065,2063,1196
1655,1716363719485013810,2084,2062,2064,2064,2060,2057,1195
1656,1716363719495010372,2024,2035,2028,2053,2074,2062,1195
1657,1716363719505006523,2085,2065,2075,2067,2056,2051,1196
1658,1716363719515011060,2022,2037,2037,2040,2080,2066,1197
1659,1716363719525008955,2088,2061,2091,2091,2065,2041,1192
1660,1716363719535008493,2020,2033,2026,2056,2074,2061,1196
1661,1716363719545008682,2085,2058,2059,2075,2065,2057,1197
1662,1716363719555009232,2026,2036,2029,2064,2077,2064,1197
1663,1716363719565009871,2086,2069,2078,2064,2051,2052,1195
1664,1716363719575011663,2030,2043,2042,2044,2072,2065,1198
1665,1716363719585010570,2081,2054,2057,2066,2041,2048,1195
1666,1716363719595011571,2027,2036,2035,2052,2068,2051,1196
1667,1716363719605011750,2081,2066,2072,2077,2053,2049,1199
1668,1716363719615014483,2032,2040,2040,2056,2080,2074,1196
1669,1716363719625011867,2085,2075,2090,2077,2054,2050,1196
1670,1716363719635013358,2021,2036,2034,2052,2077,2080,1197
1671,1716363719645013417,2083,2049,2067,2059,2053,2054,1195
1672,1716363719655012434,2029,2041,2058,2048,2068,2060,1197
1673,1716363719665014186,2084,2068,2056,2075,2049,2060,1197
1674,1716363719675014976,2028,2037,2028,2046,2064,2061,1196
1675,1716363719685015536,2088,2067,2070,2065,2053,2065,1196
1676,1716363719695013921,2024,2038,2041,2038,2059,2052,1197
1677,1716363719705014701,2085,2080,2070,2065,2056,2056,1196
1678,1716363719715014670,2024,2034,2027,2040,2080,2089,1197
1679,1716363719725012003,2079,2061,2061,2052,2053,2057,1197
1680,1716363719735016651,2032,2036,2020,2052,2084,2060,1197
1681,1716363719745015448,2088,2081,2080,2036,2032,2045,1196
1682,1716363719755015937,2025,2031,2026,2053,2080,2069,1196
1683,1716363719765020404,2082,2080,2072,2051,2046,2036,1193
1684,1716363719775018008,2026,2040,2042,2064,2084,2067,1197
1685,1716363719785018137,2080,2062,2064,2073,2058,2050,1196
1686,1716363719795018086,2030,2050,2044,2048,2080,2073,1195
1687,1716363719805018475,2085,2062,2065,2062,2047,2061,1196
1688,1716363719815019435,2027,2044,2034,2048,2065,2051,1197
1689,1716363719825015416,2077,2058,2064,2064,2070,2050,1196
1690,1716363719835019372,2021,2025,2011,2045,2057,2053,1197
1691,1716363719845020152,2092,2072,2077,2079,2060,2042,1195
1692,1716363719855020262,2023,2040,2035,2049,2063,2057,1200
1693,1716363719865038715,2090,2071,2065,2065,2056,2057,1196
1694,1716363719875020940,2020,2034,2030,2048,2064,2060,1197
1695,1716363719885021590,2088,2068,2074,2066,2070,2068,1197
1696,1716363719895021027,2018,2035,2038,2049,2060,2051,1197
1697,1716363719905002300,2094,2072,2074,2074,2078,2061,1196
1698,1716363719915022267,2016,2034,2033,2042,2052,2037,1194
1699,1716363719925022376,2090,2074,2097,2068,2074,2062,1196
1700,1716363719935005362,2019,2020,2022,2060,2066,2059,1198
1701,1716363719945010270,2100,2072,2123,2076,2072,2068,1193
1702,1716363719955003837,2020,2037,2036,2073,2075,2057,1198
1703,1716363719965004877,2087,2069,2075,2059,2057,2056,1197
1704,1716363719975005698,2028,2049,2061,2053,2091,2064,1198
1705,1716363719985004714,2085,2065,2077,2058,2050,2056,1196
1706,1716363719995006637,2025,2045,2046,2056,2069,2046,1196
1707,1716363720005006024,2091,2071,2061,2065,2054,2050,1200
1708,1716363720015007806,2028,2033,2024,2052,2068,2062,1198
1709,1716363720025025929,2089,2070,2065,2064,2061,2064,1198
1710,1716363720035008124,2029,2043,2037,2053,2074,2062,1197
1711,1716363720045008374,2086,2068,2077,2068,2050,2060,1197
1712,1716363720055008643,2027,2041,2047,2047,2072,2061,1199
1713,1716363720065009072,2141,2013,2096,2197,2933,2427,1197
1714,1716363720075008780,1875,2029,1976,1953,1534,1833,1193
1715,1716363720085009770,2248,2065,2146,2181,2836,2382,1197
1716,1716363720095008527,1852,2038,1965,1936,1397,1782,1192
1717,1716363720105011291,2234,2060,2120,2180,2815,2370,1198
1718,1716363720115012031,1851,2028,1962,1940,1401,1781,1193
1719,1716363720125012010,2233,2052,2116,2175,2836,2375,1195
1720,1716363720135009564,1848,2028,1972,1937,1410,1776,1193
1721,1716363720145009433,2234,2056,2127,2172,2825,2379,1197
1722,1716363720155009401,1849,2030,1969,1937,1400,1798,1194
1723,1716363720164998880,2226,2053,2124,2178,2825,2390,1197
1724,1716363720175011603,1856,2039,1969,1928,1327,1752,1193
1725,1716363720185009588,2221,2028,2108,2184,2847,2376,1196
1726,1716363720195007873,1870,2040,1966,1930,1335,1750,1194
1727,1716363720205009224,2119,2085,2120,2098,2140,2105,1196
1728,1716363720215010114,2030,2040,2037,2048,2061,2056,1195
1729,1716363720225053605,2080,2069,2070,2056,2027,2048,1196
1730,1716363720235012486,2025,2038,2038,2056,2081,2072,1196
1731,1716363720245008297,2083,2088,2085,2064,2042,2044,1193
1732,1716363720255010270,2029,2040,2032,2051,2088,2065,1197
1733,1716363720265009547,2087,2078,2076,2064,2038,2038,1193
1734,1716363720275011520,2028,2037,2030,2052,2086,2070,1197
1735,1716363720285009064,2084,2068,2067,2074,2038,2065,1195
1736,1716363720295013330,2026,2034,2030,2060,2095,2078,1194
1737,1716363720305010363,2078,2054,2058,2066,2039,2044,1193
1738,1716363720315013969,2029,2036,2046,2053,2083,2061,1197
1739,1716363720325010441,2089,2064,2062,2060,2047,2061,1197
1740,1716363720335006763,2026,2044,2040,2048,2085,2063,1196
1741,1716363720345009767,2084,2070,2061,2065,2048,2048,1194
1742,1716363720355010998,2024,2038,2058,2041,2081,2063,1198
1743,1716363720365008722,2089,2070,2064,2052,2048,2050,1194
1744,1716363720375009613,2022,2037,2033,2046,2076,2065,1196
1745,1716363720385010203,2092,2077,2080,2067,2056,2040,1194
1746,1716363720395007847,2025,2040,2040,2042,2074,2065,1198
1747,1716363720405010551,2089,2064,2064,2058,2058,2050,1198
1748,1716363720415007544,2025,2042,2014,2061,2074,2061,1196
1749,1716363720425007954,2092,2066,2060,2061,2065,2061,1195
1750,1716363720435016458,2024,2060,2060,2056,2073,2064,1195
1751,1716363720445013241,2096,2077,2060,2067,2044,2054,1196
1752,1716363720455012628,2017,2028,2017,2053,2076,2069,1197
1753,1716363720465010493,2092,2072,2090,2059,2043,2028,1193
1754,1716363720475011213,2021,2041,2032,2044,2080,2065,1194
1755,1716363720485035057,2091,2077,2075,2068,2042,2048,1196
1756,1716363720495011831,2023,2041,2053,2060,2088,2068,1193
1757,1716363720505011940,2089,2071,2076,2060,2026,2050,1195
1758,1716363720515008412,2029,2031,2033,2055,2094,2074,1195
1759,1716363720525010856,2084,2072,2103,2066,2027,2044,1194
1760,1716363720535010694,2028,2036,2029,2057,2089,2059,1196
1761,1716363720545015832,2080,2064,2064,2060,2017,2021,1194
1762,1716363720555013667,1865,2060,1992,1944,1282,1728,1192
1763,1716363720565009408,2244,2061,2122,2180,2806,2364,1198
1764,1716363720575009256,1845,2026,1978,1930,1501,1829,1195
1765,1716363720585011970,2240,2068,2139,2185,2781,2356,1196
1766,1716363720595008382,1849,2015,1962,1960,1525,1829,1193
1767,1716363720605011867,2237,2060,2128,2176,2788,2368,1200
1768,1716363720615009501,1849,2022,1964,1953,1527,1834,1194
1769,1716363720625011003,2244,2071,2145,2176,2780,2354,1197
1770,1716363720635011202,1848,2017,1971,1960,1521,1812,1191
1771,1716363720645011331,2246,2063,2135,2169,2769,2361,1198
1772,1716363720655009336,1848,2021,1961,1938,1521,1832,1193
1773,1716363720665012561,2237,2060,2129,2162,2777,2353,1197
1774,1716363720675058516,1853,2020,1963,1947,1523,1837,1193
1775,1716363720685013049,2244,2062,2132,2177,2764,2361,1197
1776,1716363720695008720,1849,2021,1964,1932,1512,1823,1190
1777,1716363720705009781,2240,2060,2132,2145,2761,2345,1198
1778,1716363720715009348,1850,2029,1958,1946,1522,1817,1194
1779,1716363720725007313,2236,2057,2128,2216,2794,2347,1195
1780,1716363720735014175,1856,2028,1976,1982,1510,1824,1194
1781,1716363720745011979,2242,2061,2134,2170,2782,2341,1194
1782,1716363720755002029,1852,2019,1962,1952,1544,1824,1193
1783,1716363720765004833,2246,2068,2154,2153,2780,2360,1197
1784,1716363720775027865,1849,2021,1967,1936,1516,1836,1195
1785,1716363720785006804,2241,2063,2132,2174,2765,2340,1195
1786,1716363720795008406,1847,2017,1976,1972,1545,1834,1193
1787,1716363720805004448,2237,2056,2139,2185,2769,2340,1198
1788,1716363720815005959,1845,2016,1966,1930,1505,1824,1194
1789,1716363720825003864,2243,2064,2133,2204,2792,2352,1195
1790,1716363720835006397,1849,2018,1962,1949,1536,1849,1192
1791,1716363720845004392,2242,2057,2135,2178,2773,2357,1196
1792,1716363720855004862,1856,2018,1962,1952,1540,1844,1193
1793,1716363720865007706,2234,2056,2122,2170,2764,2348,1197
1794,1716363720875009117,1852,2022,1964,1964,1558,1848,1195
1795,1716363720885009706,2241,2062,2125,2169,2769,2312,1197
1796,1716363720895009124,1859,2032,1982,1952,1554,1865,1193
1797,1716363720905007911,2242,2063,2134,2176,2772,2360,1198
1798,1716363720915015334,1852,2020,1968,1974,1552,1835,1195
1799,1716363720925004391,2240,2076,2172,2174,2770,2338,1196
1800,1716363720935006845,1858,2024,1966,1947,1534,1848,1194
1801,1716363720945005802,2239,2056,2124,2159,2754,2353,1197
1802,1716363720955006752,1850,2015,1956,1949,1533,1850,1193
1803,1716363720965007612,2244,2066,2132,2182,2765,2354,1196
1804,1716363720975009345,1853,2021,1964,1961,1538,1856,1195
1805,1716363720985006148,2242,2068,2156,2180,2764,2350,1196
1806,1716363720995008480,1853,2022,1965,1969,1553,1855,1194
1807,1716363721005012206,2236,2059,2130,2169,2763,2344,1197
1808,1716363721015008508,1856,2024,1993,1964,1549,1835,1193
1809,1716363721025011101,2237,2059,2129,2166,2762,2344,1196
1810,1716363721035011671,1849,2021,1988,1956,1552,1869,1194
1811,1716363721045007803,2240,2074,2137,2176,2757,2360,1196
1812,1716363721055011920,1853,2021,1985,1956,1560,1850,1192
1813,1716363721065016177,2238,2060,2129,2169,2776,2351,1197
1814,1716363721075016365,1856,2028,1965,1966,1562,1844,1195
1815,1716363721085010954,2235,2060,2130,2176,2761,2341,1197
1816,1716363721095011614,1856,2029,2001,1958,1545,1830,1193
1817,1716363721105007615,2241,2065,2128,2171,2761,2364,1196
1818,1716363721115011511,1851,2018,1959,1953,1567,1837,1194
1819,1716363721125020206,2237,2061,2126,2176,2756,2338,1195
1820,1716363721135012761,1860,2020,1965,1962,1562,1848,1194
1821,1716363721145010406,2233,2056,2128,2172,2760,2353,1195
1822,1716363721155013310,1858,2024,1966,1945,1560,1847,1192
1823,1716363721165013529,2240,2058,2136,2187,2762,2353,1194
1824,1716363721175014800,1853,2016,1965,1957,1564,1835,1194
1825,1716363721185010952,2236,2060,2116,2163,2739,2341,1196
1826,1716363721195012984,1853,2018,1955,1955,1569,1857,1194
1827,1716363721205009576,2237,2064,2137,2175,2756,2349,1198
1828,1716363721215009445,1857,2024,1986,1969,1557,1853,1194
1829,1716363721225022238,2234,2059,2129,2176,2753,2342,1196
1830,1716363721235010314,1857,2029,1973,1964,1560,1839,1195
1831,1716363721245010874,2232,2064,2130,2171,2760,2345,1196
1832,1716363721255010792,1853,2015,1957,1958,1569,1861,1194
1833,1716363721265011763,2241,2070,2150,2178,2760,2338,1197
1834,1716363721275011772,1852,2020,1973,1961,1563,1854,1192
1835,1716363721285014746,2236,2064,2130,2168,2734,2328,1196
1836,1716363721295012320,1856,2020,1972,1969,1580,1860,1193
1837,1716363721305013131,2240,2066,2153,2184,2748,2318,1194
1838,1716363721315013751,1856,2021,1968,1952,1580,1852,1194
1839,1716363721325012628,2237,2065,2134,2170,2749,2353,1196
1840,1716363721335013478,1853,2013,1960,1972,1579,1866,1194
1841,1716363721345031901,2238,2056,2111,2169,2748,2340,1196
1842,1716363721355020489,1856,2024,1964,1950,1570,1864,1194
1843,1716363721365014516,2236,2076,2126,2157,2739,2338,1197
1844,1716363721375011770,1860,2026,1974,1950,1587,1868,1193
1845,1716363721385015555,2238,2060,2124,2183,2753,2353,1196
1846,1716363721395015705,1858,2019,1965,1964,1582,1869,1193
1847,1716363721405016285,2236,2056,2120,2168,2736,2324,1197
1848,1716363721415019629,1854,2009,1948,1961,1576,1852,1193
1849,1716363721425020249,2237,2056,2120,2158,2742,2345,1197
1850,1716363721435020188,1854,2017,1953,1971,1588,1861,1193
1851,1716363721445071234,2233,2061,2148,2160,2742,2339,1197
1852,1716363721455020797,1864,2020,1969,1980,1581,1861,1197
1853,1716363721465060430,2235,2061,2150,2162,2730,2333,1198
1854,1716363721475061271,1857,2029,1970,1957,1579,1865,1195
1855,1716363721485009352,2236,2065,2126,2174,2744,2353,1197
1856,1716363721495068452,1864,2030,2003,1973,1584,1878,1193
1857,1716363721505008677,2233,2053,2113,2163,2728,2329,1196
1858,1716363721515008366,1856,2020,1969,1972,1585,1860,1193
1859,1716363721525010419,2240,2072,2146,2181,2742,2340,1198
1860,1716363721535057075,1858,2013,1957,1954,1583,1869,1195
1861,1716363721545064137,2239,2069,2144,2170,2746,2352,1197
1862,1716363721555011957,1860,2014,1960,1970,1569,1849,1195
1863,1716363721565005194,2240,2061,2125,2168,2747,2349,1198
1864,1716363721575069884,1861,2016,1965,1966,1577,1851,1195
1865,1716363721585010842,2238,2072,2129,2168,2736,2334,1196
1866,1716363721595015480,1858,2018,1972,1960,1576,1848,1193
1867,1716363721605007142,2238,2077,2128,2180,2746,2340,1198
1868,1716363721615011219,1861,2024,1968,1963,1561,1847,1196
1869,1716363721625052546,2236,2065,2140,2162,2738,2330,1195
1870,1716363721635006307,1856,2020,1965,1968,1573,1853,1194
1871,1716363721645063394,2236,2061,2113,2185,2734,2340,1197
1872,1716363721655047533,1853,2018,1963,1969,1586,1857,1195
1873,1716363721665047612,2234,2076,2126,2149,2729,2339,1195
1874,1716363721675048813,1860,2021,1964,1967,1582,1886,1193
1875,1716363721685048771,2232,2056,2121,2163,2731,2341,1196
1876,1716363721695047989,1854,2024,1985,1974,1578,1857,1190
1877,1716363721705044421,2233,2058,2120,2177,2728,2325,1196
1878,1716363721715044530,1858,2025,1967,1963,1565,1846,1192
1879,1716363721725044929,2234,2052,2106,2188,2733,2334,1194
1880,1716363721735063713,1861,2022,1969,1967,1590,1864,1193
1881,1716363721745051549,2234,2061,2126,2150,2712,2322,1194
1882,1716363721755042641,1856,2011,1959,1965,1598,1864,1194
1883,1716363721765043471,2232,2062,2125,2172,2721,2342,1197
1884,1716363721775042438,1856,2013,1979,1977,1617,1872,1194
1885,1716363721785042988,2235,2064,2140,2169,2728,2332,1198
1886,1716363721795041484,1868,2024,1974,1966,1612,1881,1196
1887,1716363721805041542,2234,2059,2122,2160,2717,2329,1199
1888,1716363721815039718,1859,2017,1974,1963,1603,1865,1196
1889,1716363721825039336,2238,2064,2128,2168,2704,2321,1197
1890,1716363721835040206,1856,2013,1964,1964,1605,1867,1193
1891,1716363721845044673,2236,2063,2128,2169,2720,2336,1196
1892,1716363721855043050,1862,2027,1976,1970,1610,1872,1193
1893,1716363721865036977,2237,2064,2152,2170,2720,2332,1196
1894,1716363721875044209,1864,2022,1966,1952,1586,1850,1193
1895,1716363721885035442,2232,2056,2118,2158,2708,2278,1196
1896,1716363721895034889,1863,2026,1956,1969,1604,1866,1192
1897,1716363721905034798,2237,2064,2144,2162,2725,2338,1196
1898,1716363721915034185,1866,2028,1979,1964,1608,1864,1194
1899,1716363721925033243,2231,2058,2125,2180,2731,2342,1194
1900,1716363721935033371,1869,2033,2004,1974,1616,1880,1193
1901,1716363721945044832,2233,2057,2111,2164,2716,2324,1196
1902,1716363721955031906,1856,2009,1945,1960,1601,1872,1195
1903,1716363721965031825,2235,2075,2137,2165,2712,2328,1196
1904,1716363721975029860,1860,2024,1961,1968,1617,1872,1195
1905,1716363721985029658,2237,2072,2130,2170,2723,2333,1197
1906,1716363721995030488,1859,2020,1970,1972,1623,1873,1195
1907,1716363722005027261,2235,2064,2140,2160,2708,2339,1198
1908,1716363722015028332,1865,2028,1983,1985,1628,1877,1196
1909,1716363722025028631,2228,2056,2138,2163,2713,2324,1196
1910,1716363722035027107,1866,2031,2010,1975,1625,1885,1194
1911,1716363722045039469,2237,2072,2129,2162,2708,2324,1196
1912,1716363722055025232,1860,2014,1969,1977,1628,1873,1194
1913,1716363722065024810,2233,2060,2120,2165,2709,2324,1197
1914,1716363722075024167,1864,2018,1968,1955,1617,1858,1194
1915,1716363722085023174,2228,2061,2152,2170,2713,2316,1196
1916,1716363722095023173,1860,2028,1973,1965,1629,1876,1192
1917,1716363722105023913,2235,2070,2149,2164,2709,2323,1195
1918,1716363722115021838,1868,2024,1960,1988,1642,1885,1193
1919,1716363722125021567,2232,2060,2121,2167,2712,2329,1198
1920,1716363722135020192,1863,2017,1984,1977,1631,1884,1195
1921,1716363722145019369,2235,2053,2138,2173,2701,2322,1195
1922,1716363722155020300,1864,2018,1962,1966,1640,1877,1194
1923,1716363722165018786,2231,2058,2116,2157,2701,2344,1197
1924,1716363722175019356,1866,2027,1969,1977,1632,1882,1196
1925,1716363722185018384,2242,2066,2146,2150,2689,2321,1196
1926,1716363722195021638,1865,2019,1970,1966,1641,1886,1195
1927,1716363722205029011,2241,2066,2128,2169,2706,2330,1198
1928,1716363722215019482,1865,2026,1969,1983,1636,1880,1195
1929,1716363722225016435,2230,2060,2120,2182,2686,2310,1197
1930,1716363722235018267,1863,2005,1965,1965,1637,1892,1193
1931,1716363722245017615,2228,2057,2127,2161,2697,2314,1197
1932,1716363722255017614,1864,2023,1952,1969,1644,1886,1194
1933,1716363722265026439,2233,2060,2151,2152,2694,2309,1197
1934,1716363722275019936,1868,2033,1989,1969,1637,1899,1194
1935,1716363722285019574,2237,2061,2118,2152,2695,2320,1195
1936,1716363722295027908,1865,2022,1968,1974,1636,1884,1194
1937,1716363722305031715,2232,2061,2128,2167,2694,2324,1197
1938,1716363722315019911,1869,2029,1988,1976,1644,1881,1197
1939,1716363722325020471,2228,2055,2113,2158,2688,2328,1196
1940,1716363722335019748,1861,2019,1970,1976,1646,1883,1195
1941,1716363722345019617,2232,2064,2119,2164,2691,2328,1197
1942,1716363722355018143,1864,2022,1981,1969,1642,1881,1193
1943,1716363722365018662,2233,2065,2124,2162,2697,2312,1196
1944,1716363722375017770,1868,2025,1970,1978,1642,1861,1193
1945,1716363722385023069,2232,2059,2123,2161,2692,2328,1197
1946,1716363722395024280,1866,2024,1975,1971,1656,1891,1193
1947,1716363722405024449,2232,2057,2121,2155,2682,2329,1201
1948,1716363722415019889,1864,2019,1960,1965,1650,1870,1193
1949,1716363722425017834,2228,2052,2112,2150,2682,2324,1197
1950,1716363722435021009,1861,2022,1976,1976,1648,1882,1195
1951,1716363722445018513,2233,2061,2124,2161,2689,2321,1197
1952,1716363722455034212,1865,2026,1972,1977,1659,1889,1196
1953,1716363722465022198,2232,2062,2115,2136,2688,2322,1197
1954,1716363722475021595,1861,2018,1967,1981,1649,1899,1194
1955,1716363722485016975,2235,2060,2132,2178,2692,2328,1197
1956,1716363722495026212,1867,2016,1966,1978,1659,1892,1190
1957,1716363722505018867,2238,2086,2151,2168,2698,2325,1195
1958,1716363722515021380,1861,2018,1969,1961,1646,1912,1192
1959,1716363722524997735,2232,2061,2119,2158,2681,2322,1194
1960,1716363722535022300,1868,2023,1984,1976,1661,1890,1193
1961,1716363722545017629,2233,2061,2134,2160,2678,2316,1196
1962,1716363722555019772,1864,2017,1961,1973,1662,1887,1195
1963,1716363722565020733,2236,2064,2120,2164,2675,2315,1196
1964,1716363722575020702,1866,2019,1988,1992,1652,1893,1194
1965,1716363722585042112,2233,2068,2124,2153,2677,2320,1193
1966,1716363722595018285,1866,2022,1973,1989,1661,1864,1193
1967,1716363722605019346,2234,2064,2149,2169,2688,2318,1198
1968,1716363722615021739,1867,2010,1949,1981,1659,1888,1195
1969,1716363722625017209,2228,2056,2117,2160,2667,2321,1197
1970,1716363722635018291,1869,2021,1976,1987,1668,1890,1196
1971,1716363722645019001,2232,2060,2130,2160,2675,2317,1197
1972,1716363722655019480,1864,2019,1967,2009,1671,1904,1194
1973,1716363722665021352,2237,2081,2176,2157,2677,2324,1197
1974,1716363722675019338,1865,2018,1976,1970,1658,1914,1194
1975,1716363722685020018,2229,2080,2132,2161,2680,2320,1197
1976,1716363722695022661,1868,2018,1972,1976,1664,1884,1194
1977,1716363722705020347,2231,2060,2128,2156,2676,2318,1196
1978,1716363722715017570,1871,2011,1957,1974,1663,1892,1195
1979,1716363722725022458,2233,2057,2115,2152,2669,2312,1195
1980,1716363722735020593,1869,2018,1948,1986,1663,1882,1196
1981,1716363722745035610,2234,2064,2132,2122,2667,2320,1195
1982,1716363722755020941,1869,2008,1965,1967,1664,1900,1195
1983,1716363722765019478,2229,2058,2139,2153,2672,2330,1197
1984,1716363722775020378,1870,2024,1984,1982,1660,1892,1194
1985,1716363722785020647,2228,2056,2113,2137,2668,2316,1196
1986,1716363722795020326,1866,2012,1955,1975,1662,1893,1196
1987,1716363722805018471,2234,2067,2143,2156,2678,2320,1199
1988,1716363722815019531,1869,2018,1968,1980,1664,1892,1194
1989,1716363722825019039,2229,2056,2106,2172,2671,2317,1197
1990,1716363722835050979,1872,2032,1987,2006,1681,1905,1195
1991,1716363722845047691,2224,2053,2119,2157,2668,2314,1197
1992,1716363722855048312,1868,2019,1975,1986,1677,1877,1194
1993,1716363722865028032,2231,2065,2128,2164,2670,2315,1197
1994,1716363722875047908,1862,2017,1962,1980,1664,1879,1195
1995,1716363722885046895,2225,2056,2114,2126,2664,2310,1197
1996,1716363722895042866,1872,2021,1978,1980,1673,1898,1191
1997,1716363722905045410,2232,2060,2155,2162,2667,2312,1194
1998,1716363722915009211,1869,2024,1971,1978,1670,1890,1196
1999,1716363722925043534,2228,2055,2124,2155,2668,2321,1196
2000,1716363722935043553,1868,2025,1971,1983,1672,1897,1196
2001,1716363722945039614,2228,2055,2120,2136,2662,2335,1197
2002,1716363722955039994,1872,2020,1980,1972,1680,1914,1193
2003,1716363722965039612,2230,2068,2141,2165,2672,2312,1195
2004,1716363722975037948,1869,2018,1998,1988,1669,1886,1193
2005,1716363722985040953,2232,2065,2122,2164,2672,2320,1197
2006,1716363722995036332,1867,2024,2006,1990,1677,1896,1195
2007,1716363723005038886,2225,2058,2114,2153,2664,2318,1197
2008,1716363723015039506,1873,2020,2004,1992,1688,1897,1194
2009,1716363723025035457,2229,2060,2124,2159,2656,2324,1195
2010,1716363723035037440,1869,2016,1952,1972,1680,1894,1195
2011,1716363723045036417,2225,2056,2122,2156,2662,2306,1196
2012,1716363723055036065,1871,2029,1986,2001,1684,1912,1193
2013,1716363723065036125,2224,2056,2111,2161,2661,2312,1197
2014,1716363723075033949,1867,2015,1962,1963,1677,1904,1195
2015,1716363723085034288,2229,2065,2155,2155,2661,2316,1197
2016,1716363723095037493,1866,2015,1981,1972,1688,1903,1192
2017,1716363723105032863,2228,2060,2121,2162,2670,2330,1197
2018,1716363723115032953,1880,2028,1974,1992,1697,1925,1195
2019,1716363723125033473,2227,2057,2123,2161,2672,2320,1197
2020,1716363723135030686,1876,2028,1981,1984,1694,1905,1196
2021,1716363723145031286,2228,2064,2119,2145,2664,2318,1198
2022,1716363723155046193,1874,2013,1981,1976,1692,1896,1194
2023,1716363723165029420,2232,2064,2128,2162,2661,2312,1196
2024,1716363723175030301,1861,2014,1974,1983,1694,1904,1196
2025,1716363723185027975,2227,2060,2136,2162,2657,2308,1197
2026,1716363723195030369,1876,2022,1976,1973,1691,1906,1195
2027,1716363723205023525,2224,2061,2160,2154,2654,2309,1197
2028,1716363723215048341,1869,2014,1958,1966,1678,1883,1195
2029,1716363723225024184,2223,2036,2108,2159,2671,2340,1196
2030,1716363723235025395,1877,2017,1976,1988,1709,1920,1195
2031,1716363723245019843,2228,2059,2132,2146,2650,2312,1196
2032,1716363723255023379,1872,2025,1980,1981,1692,1908,1195
2033,1716363723265023608,2222,2056,2113,2132,2655,2312,1197
2034,1716363723275024278,1869,2018,1983,1989,1704,1914,1196
2035,1716363723285024207,2222,2049,2129,2131,2648,2309,1200
2036,1716363723295023505,1871,2021,1964,1985,1700,1916,1193
2037,1716363723305036058,2228,2056,2129,2166,2653,2306,1197
2038,1716363723315020447,1879,2020,1989,1993,1706,1908,1194
2039,1716363723325020947,2225,2060,2128,2171,2661,2317,1196
2040,1716363723335015365,1873,2020,1972,1984,1707,1904,1194
2041,1716363723345015474,2229,2063,2128,2141,2653,2308,1195
2042,1716363723355016395,1868,2008,1976,1989,1705,1912,1195
2043,1716363723365013678,2228,2062,2126,2156,2644,2310,1196
2044,1716363723375057130,1873,2021,1978,1979,1707,1914,1194
2045,1716363723385011492,2232,2057,2122,2137,2652,2316,1196
2046,1716363723395010639,1872,2022,1974,1997,1709,1912,1194
2047,1716363723405012703,2223,2052,2113,2149,2649,2304,1196
2048,1716363723415012150,1874,2024,1985,2006,1708,1914,1194
2049,1716363723425013271,2227,2081,2145,2148,2647,2304,1194
2050,1716363723435016616,1877,2026,1991,1994,1716,1923,1194
2051,1716363723445013158,2226,2061,2141,2152,2650,2306,1196
2052,1716363723455013037,1875,2020,1973,1982,1710,1884,1194
2053,1716363723465013477,2226,2065,2138,2140,2636,2285,1194
2054,1716363723475013797,1873,2012,1986,1989,1706,1909,1192
2055,1716363723485020719,2226,2058,2105,2144,2641,2307,1197
2056,1716363723495014856,1872,2016,1968,1985,1721,1916,1194
2057,1716363723505053097,2229,2058,2114,2147,2645,2301,1195
2058,1716363723515015576,1883,2022,2026,1997,1715,1925,1195
2059,1716363723525015835,2218,2060,2115,2156,2651,2306,1195
2060,1716363723535016014,1877,2023,1986,1971,1706,1914,1196
2061,1716363723545016123,2225,2057,2117,2143,2649,2312,1197
2062,1716363723555022745,1875,2024,1980,1992,1710,1912,1195
2063,1716363723565041579,2228,2058,2121,2162,2654,2307,1196
2064,1716363723575045646,1877,2021,1965,1961,1712,1916,1194
2065,1716363723585019174,2224,2063,2137,2154,2640,2303,1196
2066,1716363723595018452,1874,2014,1966,1989,1716,1925,1196
2067,1716363723605018561,2232,2060,2112,2152,2642,2296,1196
2068,1716363723615020604,1884,2028,1998,2004,1722,1918,1196
2069,1716363723625018920,2224,2061,2118,2160,2651,2307,1197
2070,1716363723635019319,1880,2018,1969,1980,1711,1928,1195
2071,1716363723645019749,2224,2059,2132,2149,2644,2309,1196
2072,1716363723655020048,1872,2016,1974,1985,1721,1925,1197
2073,1716363723665020008,2227,2060,2116,2141,2650,2305,1195
2074,1716363723675020627,1873,2021,1972,2000,1722,1917,1193
2075,1716363723685057215,2221,2058,2117,2147,2636,2298,1197
2076,1716363723695048448,1875,2016,1959,1976,1716,1922,1192
2077,1716363723705029881,2219,2065,2121,2150,2636,2301,1196
2078,1716363723715024220,1885,2027,1996,1986,1725,1915,1194
2079,1716363723725005513,2227,2068,2115,2144,2637,2321,1195
2080,1716363723735051960,1877,2021,1975,1989,1730,1926,1194
2081,1716363723745034727,2226,2057,2120,2146,2636,2304,1196
2082,1716363723755035336,1876,2025,1988,1983,1724,1915,1194
2083,1716363723765007622,2223,2056,2120,2152,2640,2306,1197
2084,1716363723775049661,1876,2024,2009,1992,1722,1914,1195
2085,1716363723785007570,2222,2057,2113,2147,2632,2294,1198
2086,1716363723795027156,1876,2028,2005,1993,1725,1920,1194
2087,1716363723805010544,2220,2056,2110,2158,2641,2304,1198
2088,1716363723815032495,1877,2020,1980,1988,1728,1920,1193
2089,1716363723825009600,2225,2062,2124,2148,2640,2300,1198
2090,1716363723835055045,1881,2018,1981,2000,1728,1924,1196
2091,1716363723845011461,2228,2065,2133,2165,2635,2304,1196
2092,1716363723855010869,1878,2021,1980,1988,1721,1915,1194
2093,1716363723865035023,2227,2065,2128,2148,2633,2302,1194
2094,1716363723875029211,1878,2022,1979,1981,1729,1928,1196
2095,1716363723885012028,2232,2071,2146,2149,2632,2312,1196
2096,1716363723895004953,1882,2024,2001,1990,1732,1923,1193
2097,1716363723905029569,2233,2072,2140,2148,2634,2301,1196
2098,1716363723915045237,1875,2014,1967,1991,1732,1913,1194
2099,1716363723925010079,2225,2064,2122,2152,2630,2299,1196
2100,1716363723935007193,1878,2012,1981,1989,1735,1926,1194
2101,1716363723945008284,2228,2065,2114,2150,2630,2287,1196
2102,1716363723955007892,1871,2015,1973,1972,1702,1909,1194
2103,1716363723965008733,2225,2059,2117,2151,2640,2308,1196
2104,1716363723975031254,1878,2025,1993,2004,1733,1926,1194
2105,1716363723985009993,2225,2064,2139,2142,2642,2298,1195
2106,1716363723995010442,1876,2015,1960,1990,1737,1918,1196
2107,1716363724005033085,2220,2052,2106,2144,2634,2304,1197
2108,1716363724015010571,1885,2021,1968,1993,1735,1916,1195
2109,1716363724025009237,2223,2058,2120,2149,2640,2304,1196
2110,1716363724035013294,1881,2029,2047,2010,1740,1915,1192
2111,1716363724045007531,2220,2058,2118,2162,2636,2302,1197
2112,1716363724055008192,1881,2031,1985,1992,1741,1929,1195
2113,1716363724065006618,2227,2059,2124,2146,2626,2293,1197
2114,1716363724075011015,1878,2017,1974,1993,1740,1931,1195
2115,1716363724085008119,2220,2075,2121,2153,2634,2297,1195
2116,1716363724095011945,1882,2021,1982,1982,1739,1933,1193
2117,1716363724105009990,2225,2062,2120,2150,2630,2298,1193
2118,1716363724115009929,1872,2012,1972,1981,1733,1926,1194
2119,1716363724125009928,2229,2070,2121,2152,2626,2296,1196
2120,1716363724135012001,1880,2014,1973,1996,1739,1928,1193
2121,1716363724145010577,2229,2076,2112,2156,2638,2285,1196
2122,1716363724155009915,1877,2018,1967,1987,1738,1930,1195
2123,1716363724165009283,2224,2062,2120,2159,2636,2303,1194
2124,1716363724175012207,1880,2024,1980,1989,1749,1938,1194
2125,1716363724185009831,2220,2057,2115,2160,2636,2313,1197
2126,1716363724195045809,1878,2017,1981,1988,1742,1922,1196
2127,1716363724205018005,2225,2050,2116,2154,2632,2293,1197
2128,1716363724215011982,1877,2017,1979,1981,1732,1942,1195
2129,1716363724225010078,2223,2066,2192,2160,2637,2321,1195
2130,1716363724235010568,1883,2024,1984,1980,1741,1933,1195
2131,1716363724245011118,2221,2056,2112,2154,2629,2289,1195
2132,1716363724255012670,1882,2024,1980,1990,1739,1912,1194
2133,1716363724265012218,2224,2061,2122,2154,2633,2298,1196
2134,1716363724275010724,1886,2027,1983,1990,1744,1930,1196
2135,1716363724285009050,2227,2069,2120,2152,2632,2296,1195
2136,1716363724295010421,1878,2014,1977,1992,1740,1930,1193
2137,1716363724305012835,2220,2060,2117,2150,2622,2289,1196
2138,1716363724315011000,1882,2021,1979,1991,1746,1933,1193
2139,1716363724325011591,2221,2057,2121,2147,2620,2309,1197
2140,1716363724335012411,1876,2004,1960,1978,1747,1935,1192
2141,1716363724345011828,2221,2063,2113,2144,2624,2298,1198
2142,1716363724355017528,1885,2025,2036,1995,1743,1932,1194
2143,1716363724365006807,2221,2058,2121,2157,2635,2297,1196
2144,1716363724375007206,1882,2025,1978,1998,1735,1920,1196
2145,1716363724385011584,2224,2070,2137,2149,2619,2294,1197
2146,1716363724395011923,1878,2018,1972,1992,1724,1923,1193
2147,1716363724405012413,2226,2064,2117,2152,2629,2297,1198
2148,1716363724415012032,1885,2025,1980,1986,1724,1924,1193
2149,1716363724425010007,2220,2058,2107,2153,2636,2310,1198
2150,1716363724435012551,1880,2008,1967,1984,1708,1912,1197
2151,1716363724445013101,2223,2060,2123,2152,2634,2292,1197
2152,1716363724455012318,1886,2038,1988,1988,1707,1912,1194
2153,1716363724465006907,2216,2054,2118,2148,2628,2296,1196
2154,1716363724475009420,1879,2024,1984,1978,1688,1905,1196
2155,1716363724485011243,2213,2054,2122,2149,2628,2312,1197
2156,1716363724495010731,1882,2023,1977,1985,1693,1906,1194
2157,1716363724505004818,2220,2058,2120,2149,2620,2309,1196
2158,1716363724515004758,1880,2017,1976,1993,1701,1903,1193
2159,1716363724525002341,2222,2062,2133,2148,2626,2302,1195
2160,1716363724535004965,1888,2033,1984,1992,1731,1932,1193
2161,1716363724545005385,2221,2060,2117,2148,2608,2298,1195
2162,1716363724555008540,1880,2016,1969,1992,1741,1899,1197
2163,1716363724565005574,2218,2050,2122,2153,2604,2311,1198
2164,1716363724575007216,1887,2027,1985,1995,1758,1932,1193
2165,1716363724585004339,2221,2058,2124,2154,2600,2292,1194
2166,1716363724595007394,1883,2021,1997,1997,1759,1925,1194
2167,1716363724605004878,2221,2053,2112,2154,2594,2288,1196
2168,1716363724615010568,1882,2024,1979,1997,1768,1944,1195
2169,1716363724625008513,2222,2061,2140,2154,2596,2294,1197
2170,1716363724635004955,1881,2016,1959,2006,1784,1942,1194
2171,1716363724645010665,2220,2059,2120,2161,2591,2306,1198
2172,1716363724655011846,1877,2013,1973,1997,1773,1958,1193
2173,1716363724665004411,2224,2057,2114,2144,2581,2289,1198
2174,1716363724675007105,1881,2022,1957,1996,1774,1961,1194
2175,1716363724685004849,2225,2069,2149,2152,2585,2290,1196
2176,1716363724695007453,1883,2032,1976,1995,1771,1940,1192
2177,1716363724705011390,2225,2069,2122,2152,2584,2296,1195
2178,1716363724715011148,1886,2022,1970,1997,1782,1946,1193
2179,1716363724725012360,2221,2067,2130,2147,2584,2293,1197
2180,1716363724735011126,1880,2013,1982,2005,1784,1944,1195
2181,1716363724745000756,2221,2060,2119,2147,2578,2319,1195
2182,1716363724755007969,1878,2013,1970,1991,1782,1948,1194
2183,1716363724765007978,2224,2055,2115,2141,2571,2284,1197
2184,1716363724775009890,1881,2007,1973,1993,1779,1957,1194
2185,1716363724785009919,2227,2081,2171,2155,2572,2290,1195
2186,1716363724795011441,1885,2028,1990,1992,1772,1944,1197
2187,1716363724805009587,2219,2056,2117,2138,2568,2283,1197
2188,1716363724815005457,1889,2021,1976,2001,1790,1960,1194
2189,1716363724825006217,2219,2062,2125,2145,2573,2292,1196
2190,1716363724835008902,1882,2013,1983,1997,1781,1944,1195
2191,1716363724845006576,2220,2061,2117,2150,2563,2282,1195
2192,1716363724855010533,1882,2007,1980,1997,1787,1934,1196
2193,1716363724865007265,2221,2052,2116,2141,2564,2275,1194
2194,1716363724875009358,1882,2016,1976,1999,1783,1949,1196
2195,1716363724885007814,2220,2056,2114,2137,2563,2288,1196
2196,1716363724895008615,1883,2015,1968,1999,1786,1952,1194
2197,1716363724905010508,2224,2065,2117,2143,2566,2294,1196
2198,1716363724915010637,1880,2015,1976,1997,1781,1947,1194
2199,1716363724925010746,2226,2066,2114,2142,2564,2277,1194
2200,1716363724935011106,1884,2017,1984,2004,1789,1978,1195
2201,1716363724945011245,2223,2052,2125,2139,2562,2274,1196
2202,1716363724955012646,1882,2005,1961,1995,1775,1944,1197
2203,1716363724965010231,2224,2062,2113,2140,2561,2275,1195
2204,1716363724975012614,1884,2020,1974,1998,1780,1942,1195
2205,1716363724985011010,2228,2080,2159,2143,2562,2289,1195
2206,1716363724995013263,1881,2005,1969,1997,1788,1960,1197
2207,1716363725005009515,2220,2060,2120,2141,2560,2284,1197
2208,1716363725015013552,1881,2030,1982,2002,1792,1950,1196
2209,1716363725025014272,2224,2064,2104,2148,2556,2281,1193
2210,1716363725035014742,1881,2014,1964,2000,1784,1966,1196
2211,1716363725045014581,2217,2062,2117,2137,2560,2296,1196
2212,1716363725055016514,1886,2015,1972,2000,1795,1980,1194
