seq,time,data[0],data[1],data[2],data[3],data[4],data[5],data[6]
201,1713856543333554838,1998,2096,2101,1993,2036,1889,1194
202,1713856543343552982,2126,2032,2065,2145,2100,2105,1197
203,1713856543353554507,1986,2056,2015,1964,1995,1953,1194
204,1713856543363547939,2112,2034,2066,2127,2074,2112,1197
205,1713856543373553313,1992,2084,2065,1964,2008,1997,1195
206,1713856543383560533,2107,2033,2046,2091,2069,2095,1196
207,1713856543393558417,1995,2083,2025,1988,2027,1971,1194
208,1713856543403600542,2126,2047,2091,2128,2084,2117,1198
209,1713856543413552913,1983,2069,2031,1993,2024,2084,1196
210,1713856543423551107,2127,2064,2121,2124,2077,2112,1195
211,1713856543433554417,2000,2085,2069,1970,2024,1979,1194
212,1713856543443558638,2107,2032,2049,2128,2096,2116,1197
213,1713856543453560915,1986,2051,1989,1958,2004,1976,1192
214,1713856543463552772,2116,2043,2089,2148,2106,2114,1197
215,1713856543473554397,1986,2056,1999,1993,2049,1982,1192
216,1713856543483552502,2112,2047,2092,2144,2106,2138,1196
217,1713856543493554898,1996,2058,2003,1972,2041,2008,1193
218,1713856543503549915,2112,2024,2041,2115,2017,2137,1194
219,1713856543513553755,1996,2072,2040,1984,2035,1984,1193
220,1713856543523547298,2111,2050,2116,2139,2078,2109,1197
221,1713856543533554016,1978,2062,2060,1990,2058,2017,1194
222,1713856543543566690,2085,2025,2062,2126,2075,2101,1197
223,1713856543553550096,1978,2063,2007,1975,2006,1974,1193
224,1713856543563550046,2112,2061,2093,2135,2104,2120,1198
225,1713856543573553254,2002,2077,2050,1959,2006,1967,1194
226,1713856543583550176,2088,2042,2091,2128,2096,2134,1198
227,1713856543593568907,1986,2057,2007,1960,2008,1997,1194
228,1713856543603553746,2084,2036,2059,2120,2072,2098,1198
229,1713856543613553826,1992,2060,1997,1977,2025,1946,1192
230,1713856543623551761,2108,2027,2032,2109,2064,2100,1197
231,1713856543633554117,1989,2076,2151,2073,2017,1957,1192
232,1713856543643551520,2112,2045,2040,2120,2072,2108,1196
233,1713856543653559101,1963,2043,1993,1973,2010,1977,1193
234,1713856543663552473,2140,2097,2169,2129,2059,2154,1196
235,1713856543673554097,2003,2093,2043,1968,2034,1978,1194
236,1713856543683554509,2110,2033,2070,2124,2085,2103,1196
237,1713856543693565378,2009,2069,2037,1990,2045,1989,1193
238,1713856543703547911,2104,2042,2076,2119,2081,2115,1196
239,1713856543713553747,1988,2053,1991,1950,2008,1960,1193
240,1713856543723549465,2124,2076,2205,2124,2078,2132,1199
241,1713856543733553386,1997,2059,2006,1974,2037,1976,1194
242,1713856543743558409,2114,2034,2032,2117,2065,2109,1197
243,1713856543753585062,1993,2062,2039,1960,2041,1993,1193
244,1713856543763551140,2113,2032,2064,2121,2081,2075,1197
245,1713856543773555232,2000,2090,2084,1976,2011,1972,1196
246,1713856543783551671,2093,2019,2016,2140,2088,2099,1200
247,1713856543793552955,2023,2125,2178,2000,2034,1989,1193
248,1713856543803553938,2093,2032,2057,2130,2088,2093,1196
249,1713856543813552293,1996,2080,2053,1984,2020,1986,1192
250,1713856543823550629,2092,2009,2006,2135,2097,2093,1198
251,1713856543833558942,1994,2061,2027,1992,2018,1992,1193
252,1713856543843548593,2077,2024,2050,2105,2070,2104,1196
253,1713856543853553718,1998,2069,2024,1975,2012,1972,1193
254,1713856543863551832,2119,2036,2108,2152,2091,2107,1198
255,1713856543873553648,1994,2057,2024,1969,2046,1990,1194
256,1713856543883554630,2117,2039,2088,2117,2113,2105,1197
257,1713856543893562451,2008,2088,2096,1994,2037,2002,1194
258,1713856543903555062,2102,2028,2040,2104,2073,2097,1197
259,1713856543913553948,1992,2054,2031,1964,2008,1960,1194
260,1713856543923551161,2089,2030,2056,2129,2093,2098,1199
261,1713856543933553206,2002,2089,2110,1999,2040,2005,1196
262,1713856543943551562,2108,2065,2207,2134,2074,2114,1197
263,1713856543953556756,2006,2064,2017,2004,2042,1984,1193
264,1713856543963550690,2120,2050,2097,2112,2057,2138,1196
265,1713856543973553819,2001,2068,2024,1982,2031,1998,1194
266,1713856543983562723,2117,2040,2072,2125,2077,2120,1196
267,1713856543993574133,2007,2117,2170,2005,2057,2007,1194
268,1713856544003552021,2092,2014,1993,2112,2089,2117,1200
269,1713856544013554493,1989,2055,2020,1961,2035,1999,1191
270,1713856544023551769,2089,1998,2023,2106,2085,2105,1197
271,1713856544033554891,2008,2064,1981,1963,2031,1986,1193
272,1713856544043551537,2107,2044,2068,2113,2072,2090,1193
273,1713856544053554208,1997,2064,2033,1973,2031,1977,1193
274,1713856544063551666,2102,2043,2048,2125,2043,2098,1198
275,1713856544073551399,2013,2062,2019,1974,2013,1985,1196
276,1713856544083555283,2091,2009,1970,2088,2053,2093,1197
277,1713856544093551978,1998,2053,2014,1979,2013,2030,1194
278,1713856544103552805,2076,2025,2045,2088,2072,2098,1197
279,1713856544113553280,2007,2068,2058,1960,2020,1975,1194
280,1713856544123554127,2122,2064,2056,2128,2045,2090,1197
281,1713856544133561310,1986,2052,1983,1982,2008,2013,1195
282,1713856544143550635,2097,2028,2025,2113,2091,2108,1197
283,1713856544153553277,2004,2063,2010,1962,2020,1968,1192
284,1713856544163551707,2102,2088,2121,2140,2100,2104,1197
285,1713856544173553285,2007,2052,1980,1960,2021,1991,1193
286,1713856544183556397,2125,2086,2118,2152,2042,2099,1194
287,1713856544193564804,2004,2060,2014,1986,2102,1996,1192
288,1713856544203552887,2104,2036,2080,2123,2065,2089,1198
289,1713856544213557332,2002,2065,2030,1976,2045,1989,1192
290,1713856544223565057,2112,2056,2100,2146,2069,2120,1196
291,1713856544233574677,1992,2047,1989,1968,2024,1985,1195
292,1713856544243581199,2088,2037,2063,2129,2068,2104,1196
293,1713856544253615165,2017,2064,2010,2001,2047,1999,1192
294,1713856544263552259,2096,2017,1985,2104,2078,2100,1198
295,1713856544273557959,1993,2062,2089,2000,2030,1976,1193
296,1713856544283563076,2096,2024,2040,2107,2059,2097,1197
297,1713856544293570159,1985,2064,2033,1977,2034,1956,1193
298,1713856544303556207,2096,2046,2065,2098,2076,2138,1195
299,1713856544313554706,2013,2077,2089,1979,2053,2002,1193
300,1713856544323563785,2099,2047,2086,2133,2068,2109,1195
301,1713856544333569093,1994,2065,2005,1993,2057,1981,1194
302,1713856544343576006,2098,2044,2063,2130,2078,2118,1197
303,1713856544353583220,2000,2077,2060,1994,2015,1999,1196
304,1713856544363594063,2101,2032,2025,2117,2092,2099,1198
305,1713856544373554260,2001,2063,2026,1981,2030,1992,1195
306,1713856544383549852,2100,2059,2082,2119,2065,2103,1196
307,1713856544393562180,2005,2061,2015,1990,2040,2009,1194
308,1713856544403550292,2122,2094,2157,2138,2096,2107,1197
309,1713856544413553153,2029,2072,2090,1970,2009,2004,1192
310,1713856544423551012,2088,2028,2072,2104,2069,2105,1196
311,1713856544433560220,2008,2069,2065,1989,2040,2020,1192
312,1713856544443553677,2094,2022,2024,2101,2064,2104,1195
313,1713856544453554835,2014,2077,2028,1992,2056,2024,1195
314,1713856544463550697,2092,2046,2093,2101,2065,2108,1196
315,1713856544473554261,2008,2048,1980,1988,2036,1992,1194
316,1713856544483556982,2088,2038,2062,2109,2044,2103,1197
317,1713856544493583639,1997,2074,2040,1979,2016,1976,1192
318,1713856544503553482,2104,2070,2066,2096,2056,2093,1197
319,1713856544513557617,2016,2078,2101,1989,2021,2014,1194
320,1713856544523551434,2092,2020,2007,2120,2100,2094,1197
321,1713856544533555970,1997,2082,2073,1989,2027,2000,1195
322,1713856544543550640,2087,2033,2066,2112,2049,2093,1197
323,1713856544553554304,2041,2102,2088,2015,2033,2019,1195
324,1713856544563551130,2094,2032,2053,2108,2077,2120,1198
325,1713856544573553279,2008,2065,2002,1982,2035,2003,1195
326,1713856544583575112,2104,2062,2095,2124,2090,2123,1195
327,1713856544593551122,1989,2052,1994,1976,2072,1977,1193
328,1713856544603553031,2093,2051,2100,2136,2090,2110,1196
329,1713856544613555602,2011,2052,2018,1980,2049,2026,1192
330,1713856544623550783,2089,2036,2064,2130,2066,2092,1196
331,1713856544633554246,1997,2057,2036,1958,2041,1988,1193
332,1713856544643562984,2089,2032,2049,2111,2077,2129,1197
333,1713856544653552821,2005,2080,2094,1996,2029,1976,1193
334,1713856544663550870,2089,2024,2048,2100,2064,2100,1196
335,1713856544673555737,2017,2074,2067,2013,2047,2015,1193
336,1713856544683551269,2095,2040,2061,2121,2053,2105,1196
337,1713856544693554372,2004,2053,1992,1980,2058,2035,1193
338,1713856544703551659,2096,2072,2125,2128,2060,2098,1194
339,1713856544713551342,2012,2068,2035,1982,2027,2003,1192
340,1713856544723552238,2093,2040,2059,2081,2044,2102,1195
341,1713856544733559492,2023,2062,2024,1979,2025,1982,1194
342,1713856544743551755,2096,2060,2104,2125,2059,2093,1194
343,1713856544753554527,2012,2083,2018,1984,1984,1997,1193
344,1713856544763550771,2095,2038,2060,2132,2068,2109,1196
345,1713856544773554244,1995,2069,2034,1996,2055,1980,1192
346,1713856544783554479,2093,2043,2056,2116,2066,2104,1197
347,1713856544793560089,1995,2064,2017,1987,2052,2007,1191
348,1713856544803549364,2104,2046,2059,2100,2094,2106,1196
349,1713856544813575177,2006,2080,2058,1990,2030,1982,1194
350,1713856544823552169,2096,2030,2033,2104,2073,2113,1195
351,1713856544833556916,2032,2081,2024,1976,2026,1985,1193
352,1713856544843568411,2096,2041,2036,2120,2070,2108,1196
353,1713856544853550568,2016,2072,2067,1962,2046,2009,1193
354,1713856544863554512,2091,2038,2047,2095,2065,2076,1196
355,1713856544873555398,2021,2064,2077,1951,2022,1988,1193
356,1713856544883561078,2107,2067,2107,2136,2061,2101,1198
357,1713856544893551336,2019,2064,2048,1984,2050,2008,1196
358,1713856544903549896,2068,2037,2056,2126,2087,2100,1195
359,1713856544913551856,2023,2071,2053,2016,2026,1957,1194
360,1713856544923552611,2079,2028,2057,2107,2078,2088,1197
361,1713856544933552565,2018,2071,2042,2002,2050,1990,1194
362,1713856544943550835,2120,2054,2089,2107,2074,2133,1197
363,1713856544953555141,1997,2067,2037,1972,2039,1995,1194
364,1713856544963549770,2102,2033,2078,2120,2069,2076,1196
365,1713856544973556873,2016,2069,2045,1986,2028,2006,1193
366,1713856544983551373,2099,2052,2098,2104,2067,2112,1195
367,1713856544993552661,2013,2062,2025,1992,2040,1982,1193
368,1713856545003552804,2104,2044,2066,2093,2069,2097,1198
369,1713856545013551576,2012,2069,2039,2012,2037,1988,1192
370,1713856545023552504,2095,2037,2068,2118,2073,2150,1195
371,1713856545033559919,2016,2069,2044,1994,2053,1997,1192
372,1713856545043550409,2096,2045,2051,2088,2041,2092,1197
373,1713856545053553342,2009,2056,2028,1987,2016,2009,1192
374,1713856545063550169,2089,2038,2057,2126,2066,2088,1197
375,1713856545073553073,2011,2065,2071,1983,2023,1966,1193
376,1713856545083553600,2084,2024,2030,2112,2056,2051,1195
377,1713856545093574943,2017,2072,2034,1997,2070,2017,1192
378,1713856545103551495,2094,2033,2050,2091,2076,2124,1197
379,1713856545113551742,2005,2068,1992,1994,2047,2002,1193
380,1713856545123550784,2086,2018,2045,2093,2069,2083,1196
381,1713856545133554821,2008,2052,2024,1986,2045,1997,1195
382,1713856545143551888,2106,2054,2089,2128,2094,2113,1197
383,1713856545153554571,2008,2056,1955,1988,2086,2036,1193
384,1713856545163583714,2108,2080,2177,2112,2051,2101,1197
385,1713856545173554362,2015,2066,2028,1968,2012,2000,1194
386,1713856545183568956,2085,2026,2048,2105,2064,2091,1195
387,1713856545193571087,2027,2092,2097,2000,1993,2005,1193
388,1713856545203551059,2088,2037,2052,2121,2066,2106,1200
389,1713856545213553762,2001,2062,2028,2002,2052,2019,1192
390,1713856545223549115,2092,2022,2070,2123,2062,2084,1197
391,1713856545233552690,2001,2057,2026,1985,2046,2024,1193
392,1713856545243556686,2096,2035,2074,2110,2069,2109,1197
393,1713856545253565656,2015,2056,2000,1988,2027,2000,1194
394,1713856545263548175,2100,2044,2036,2108,2059,2113,1197
395,1713856545273551840,2006,2076,2032,2024,2034,1999,1192
396,1713856545283550743,2091,2028,2049,2122,2089,2109,1197
397,1713856545293554799,2002,2056,2033,2010,2075,2009,1193
398,1713856545303550192,2076,2036,2042,2097,2041,2076,1197
399,1713856545313550719,2012,2064,2016,1987,2044,2018,1193
400,1713856545323550504,2093,2048,2091,2117,2074,2080,1197
401,1713856545333556164,2010,2073,2055,2003,2044,2015,1193
402,1713856545343561274,2089,2075,2140,2102,2077,2093,1196
403,1713856545353553900,2017,2061,2024,1992,2027,1986,1194
404,1713856545363549584,2087,2054,2089,2085,2061,2113,1200
405,1713856545373552969,2025,2065,2025,2008,2032,2012,1194
406,1713856545383548642,2096,2034,2064,2104,2072,2101,1198
407,1713856545393569764,2016,2085,2080,2004,2049,2020,1193
408,1713856545403563102,2088,2033,2075,2116,2060,2106,1196
409,1713856545413551075,2025,2076,2032,1998,2047,2026,1193
410,1713856545423549968,2084,2021,2019,2100,2054,2078,1198
411,1713856545433550806,2010,2072,2050,2009,2064,1992,1193
412,1713856545443550391,2089,2041,2057,2130,2069,2092,1197
413,1713856545453552963,2014,2068,2029,1974,2053,1994,1196
414,1713856545463549108,2108,2051,2048,2100,2077,2104,1197
415,1713856545473552162,2009,2046,2020,1988,2034,1998,1194
416,1713856545483549921,2082,2030,2022,2106,2074,2104,1196
417,1713856545493557878,2020,2073,2058,1998,2043,1984,1194
418,1713856545503549892,2088,2036,2045,2105,2038,2092,1194
419,1713856545513550699,2025,2085,2066,2002,2045,1996,1192
420,1713856545523549462,2104,2045,2101,2113,2080,2124,1199
421,1713856545533551152,2020,2066,2036,2001,2030,2004,1193
422,1713856545543551248,2094,2037,2056,2111,2072,2084,1196
423,1713856545553575929,2016,2090,2108,2009,2046,2017,1193
424,1713856545563582963,2080,2032,2045,2113,2073,2099,1196
425,1713856545573550813,2026,2090,2073,2009,2060,1989,1194
426,1713856545583558439,2092,2034,2044,2126,2068,2112,1196
427,1713856545593564500,2008,2059,2030,1993,2041,1999,1195
428,1713856545603585191,2081,2049,2110,2096,2055,2112,1197
429,1713856545613576815,2009,2077,2105,2002,2054,1999,1195
430,1713856545623582937,2100,2052,2079,2113,2064,2100,1196
431,1713856545633554978,2020,2069,2057,2009,2037,1997,1194
432,1713856545643555234,2096,2041,2065,2103,2071,2108,1196
433,1713856545653562138,2002,2065,2053,1983,2025,2002,1194
434,1713856545663556538,2116,2094,2208,2142,2074,2114,1197
435,1713856545673562860,2020,2059,2001,1976,2030,2008,1194
436,1713856545683561873,2089,2018,2064,2122,2063,2104,1197
437,1713856545693582343,2005,2049,2017,1989,2052,2004,1193
438,1713856545703568442,2089,2035,2061,2109,2057,2095,1196
439,1713856545713573261,2040,2066,2007,2003,2040,2020,1195
440,1713856545723583463,2088,2060,2116,2108,2065,2079,1195
441,1713856545733589184,2017,2070,2070,1984,2060,2005,1194
442,1713856545743551750,2093,2036,2053,2104,2064,2088,1197
443,1713856545753551906,2013,2097,2120,1996,2047,1978,1194
444,1713856545763552041,2079,2008,2012,2101,2054,2109,1197
445,1713856545773552909,2010,2058,2050,1986,2032,2008,1195
446,1713856545783551300,2085,2035,2060,2106,2068,2102,1197
447,1713856545793552238,2025,2066,2049,1995,2029,2015,1194
448,1713856545803560517,2097,2057,2043,2105,2053,2098,1195
449,1713856545813550565,2024,2072,2062,2008,2057,2003,1192
450,1713856545823552165,2085,2034,2056,2098,2049,2096,1196
451,1713856545833550015,2029,2095,2156,2001,2049,2009,1194
452,1713856545843550642,2078,2030,2057,2104,2045,2104,1196
453,1713856545853552502,2019,2064,2028,2003,2046,1996,1191
454,1713856545863563216,2089,2040,2056,2104,2059,2100,1197
455,1713856545873549284,2032,2101,2112,2034,2038,2014,1192
456,1713856545883549771,2073,2020,1985,2092,2036,2089,1197
457,1713856545893547672,2015,2064,2042,1994,2032,1989,1196
458,1713856545903551357,2076,2038,2060,2116,2085,2092,1195
459,1713856545913560116,2022,2079,2042,2030,2071,2048,1198
460,1713856545923513577,2106,2042,2069,2101,2044,2092,1199
461,1713856545933556287,2020,2064,2032,2000,2046,2000,1194
462,1713856545943550406,2097,2034,2040,2084,2036,2090,1197
463,1713856545953555786,2036,2103,2125,2024,2067,2028,1192
464,1713856545963569618,2089,2045,2034,2083,2077,2096,1197
465,1713856545973554203,2024,2066,2050,1977,2037,2004,1195
466,1713856545983566342,2092,2072,2149,2137,2049,2100,1197
467,1713856545993553112,2023,2060,2016,2003,2069,2024,1193
468,1713856546003548976,2082,2037,2045,2113,2070,2077,1197
469,1713856546013555454,2020,2062,2047,2018,2075,2000,1191
470,1713856546023552060,2094,2030,2039,2121,2056,2100,1196
471,1713856546033567916,2014,2068,2034,2000,2046,2021,1192
472,1713856546043549762,2084,2036,2069,2088,2072,2089,1197
473,1713856546053552323,2005,2056,2055,1980,2029,2001,1193
474,1713856546063548737,2081,2037,2032,2100,2054,2077,1197
475,1713856546073552973,2017,2063,2033,1988,2044,2009,1194
476,1713856546083549738,2098,2033,2054,2122,2085,2093,1196
477,1713856546093551116,2015,2067,2040,2000,2047,2004,1194
478,1713856546103550699,2078,2037,2039,2112,2089,2085,1196
479,1713856546113556479,2014,2074,2101,2008,2014,1985,1193
480,1713856546123566368,2102,2040,2064,2104,2046,2099,1198
481,1713856546133552226,2018,2061,2040,2027,2034,2005,1192
482,1713856546143549803,2089,2041,2077,2125,2059,2077,1196
483,1713856546153554529,2018,2057,2009,1980,2046,2024,1193
484,1713856546163549942,2084,2043,2068,2097,2045,2079,1196
485,1713856546173557234,2028,2069,2042,1990,2041,2018,1193
486,1713856546183553769,2100,2041,2063,2100,2041,2080,1198
487,1713856546193552199,2018,2070,2050,2013,2056,2019,1193
488,1713856546203563122,2096,2041,2075,2096,2053,2080,1197
489,1713856546213552779,2026,2058,2008,2014,1990,2010,1191
490,1713856546223552021,2099,2015,2028,2090,2045,2091,1197
491,1713856546233551514,2011,2057,2044,2015,2045,2015,1191
492,1713856546243550486,2096,2038,2065,2100,2078,2090,1196
493,1713856546253550540,2008,2068,2048,2019,2040,2025,1193
494,1713856546263550744,2100,2060,2080,2092,2052,2052,1196
495,1713856546273557426,2019,2035,2004,1990,2019,2044,1193
496,1713856546283548396,2089,2028,2058,2124,2072,2088,1196
497,1713856546293553413,2021,2067,2037,2008,2035,2016,1193
498,1713856546303549247,2082,2028,2022,2107,2101,2073,1196
499,1713856546313551055,2039,2091,2100,2014,2045,2036,1194
500,1713856546323552182,2089,2021,2015,2096,2084,2101,1196
501,1713856546333561060,2015,2051,1988,2033,2065,2028,1193
502,1713856546343548862,2073,2031,1997,2106,2046,2075,1196
503,1713856546353555935,2021,2092,2078,2025,2056,2017,1193
504,1713856546363549291,2088,2038,2056,2100,2068,2132,1197
505,1713856546373551561,2027,2076,2101,2028,2045,2018,1192
506,1713856546383547795,2072,2047,2084,2101,2063,2082,1196
507,1713856546393551299,2038,2112,2218,2036,2050,2025,1193
508,1713856546403551995,2085,2054,2132,2108,2093,2101,1197
509,1713856546413550525,2022,2061,2042,2002,2020,2018,1192
510,1713856546423552013,2088,2036,2056,2088,2046,2089,1195
511,1713856546433558996,2011,2066,2081,2015,2053,2012,1195
512,1713856546443550256,2092,2036,2026,2092,2039,2078,1197
513,1713856546453560176,2024,2067,2032,1999,2004,2028,1195
514,1713856546463544169,2085,2060,2084,2101,2041,2088,1195
515,1713856546473550599,2024,2069,2069,1990,2036,2041,1192
516,1713856546483550904,2088,2040,2040,2110,2050,2099,1195
517,1713856546493572275,2039,2089,2064,2029,2065,2029,1193
518,1713856546503548446,2100,2076,2124,2115,2082,2131,1198
519,1713856546513550054,2026,2062,2041,2002,2049,2027,1194
520,1713856546523547802,2090,2042,2085,2112,2065,2101,1198
521,1713856546533552569,2042,2088,2080,2003,2040,2019,1194
522,1713856546543552062,2104,2050,2081,2085,2070,2096,1196
523,1713856546553558894,2025,2069,2045,2032,2069,2031,1193
524,1713856546563545272,2082,2040,2047,2096,2046,2097,1196
525,1713856546573547773,2028,2063,2041,2018,2031,2017,1195
526,1713856546583552971,2079,2034,2048,2092,2049,2085,1195
527,1713856546593560133,2025,2053,2028,2021,2051,2019,1192
528,1713856546603583219,2083,2056,2129,2125,2063,2073,1197
529,1713856546613553795,2013,2046,2018,2015,2037,2022,1192
530,1713856546623551232,2076,2024,2037,2078,2061,2078,1196
531,1713856546633560250,2038,2102,2080,2030,2054,2012,1193
532,1713856546643551792,2080,2027,2024,2038,2095,2063,1196
533,1713856546653561832,2034,2083,2133,2013,2004,2010,1194
534,1713856546663549364,2076,2037,2049,2064,2047,2107,1195
535,1713856546673552606,2044,2076,2078,2009,2026,2013,1194
536,1713856546683551748,2104,2078,2123,2098,2058,2093,1197
537,1713856546693562792,2031,2056,2035,2020,2048,2027,1196
538,1713856546703553561,2090,2038,2058,2102,2056,2070,1195
539,1713856546713552523,2032,2068,2126,2017,2043,2020,1193
540,1713856546723549278,2074,2037,2045,2105,2068,2086,1196
541,1713856546733551166,2026,2078,2075,2000,2046,2021,1193
542,1713856546743553728,2082,2024,2054,2096,2066,2086,1198
543,1713856546753561301,2029,2064,2067,2018,2097,2046,1195
544,1713856546763550637,2080,2049,2100,2120,2076,2092,1195
545,1713856546773554813,2034,2065,2047,2012,2053,2033,1195
546,1713856546783551257,2071,2041,2061,2085,2068,2059,1195
547,1713856546793572417,2052,2078,2116,2028,2080,2058,1198
548,1713856546803553481,2082,2031,2044,2096,2056,2077,1197
549,1713856546813559592,2030,2059,2039,1992,2043,2028,1193
550,1713856546823557771,2088,2047,2054,2107,2065,2093,1196
551,1713856546833553855,2055,2088,2121,1986,2025,1992,1193
552,1713856546843550139,2072,2023,2009,2085,2031,2074,1195
553,1713856546853555778,2034,2063,2049,2024,2040,2019,1193
554,1713856546863551571,2084,2038,2058,2105,2060,2080,1196
555,1713856546873552296,2033,2068,2044,2015,2046,2025,1192
556,1713856546883551649,2085,2066,2047,2108,2068,2085,1197
557,1713856546893554160,2068,2125,2164,2088,2151,2052,1198
558,1713856546903555337,2092,2061,2078,2101,2049,2059,1196
559,1713856546913562751,2018,2056,2044,2006,2048,2038,1194
560,1713856546923552738,2072,2050,2061,2101,2056,2082,1199
561,1713856546933553765,2034,2070,2050,2009,2045,2024,1193
562,1713856546943549508,2090,2053,2068,2066,2040,2072,1196
563,1713856546953569525,2033,2062,2045,2056,2065,2029,1191
564,1713856546963550078,2069,2035,2052,2088,2052,2114,1197
565,1713856546973558584,2028,2068,2042,2008,2049,2029,1195
566,1713856546983550116,2077,2048,2060,2083,2060,2073,1196
567,1713856546993553319,2045,2069,2049,2016,2058,2039,1194
568,1713856547003558035,2087,2054,2072,2088,2050,2048,1196
569,1713856547013553219,2033,2070,2062,2032,2045,2031,1192
570,1713856547023566312,2085,2047,2068,2088,2066,2085,1198
571,1713856547033573320,2022,2065,2069,2011,2046,2022,1194
572,1713856547043579236,2074,2049,2095,2102,2056,2069,1195
573,1713856547053584017,2014,2050,2001,2027,2054,2014,1192
574,1713856547063554660,2082,2045,2085,2093,2056,2084,1196
575,1713856547073562169,2014,2058,2045,2009,2047,2024,1193
576,1713856547083553857,2085,2056,2112,2110,2075,2091,1197
577,1713856547093584838,2031,2065,2047,2011,2050,2024,1193
578,1713856547103554738,2065,2032,2050,2080,2072,2085,1196
579,1713856547113558137,2036,2058,2041,2004,2052,2029,1192
580,1713856547123557484,2080,2044,2051,2076,2051,2081,1197
581,1713856547133565164,2029,2063,2045,2036,2095,2029,1193
582,1713856547143568653,2086,2045,2035,2079,2040,2088,1196
583,1713856547153576403,2030,2060,2021,1997,2035,2005,1195
584,1713856547163581787,2076,2060,2121,2093,2068,2074,1196
585,1713856547173588554,2031,2056,2026,2009,2052,2039,1195
586,1713856547183550273,2077,2054,2082,2104,2029,2096,1196
587,1713856547193553250,2030,2048,1995,2024,2101,2025,1194
588,1713856547203548538,2097,2068,2086,2107,2067,2117,1196
589,1713856547213551806,2024,2060,2032,2017,2040,2012,1193
590,1713856547223552868,2083,2032,2020,2075,2059,2085,1195
591,1713856547233558783,2015,2046,2013,2014,2040,2032,1194
592,1713856547243549237,2076,2044,2068,2086,2044,2054,1197
593,1713856547253551543,2029,2060,2041,2014,2034,2008,1193
594,1713856547263547522,2080,2040,2049,2092,2039,2071,1198
595,1713856547273550609,2029,2058,2013,2021,2059,2028,1194
596,1713856547283549887,2093,2095,2168,2138,2086,2101,1196
597,1713856547293558278,2033,2065,2076,2019,2030,2023,1194
598,1713856547303552353,2074,2036,2037,2095,2054,2074,1193
599,1713856547313553675,2041,2065,2039,2019,2048,2010,1196
600,1713856547323551619,2078,2066,2111,2108,2071,2088,1197
601,1713856547333554938,2027,2076,2096,2005,2052,2037,1194
602,1713856547343552130,2086,2044,2077,2104,2066,2108,1197
603,1713856547353554466,2032,2050,2001,2047,2040,2025,1193
604,1713856547363549081,2096,2053,2057,2088,2051,2075,1196
605,1713856547373555147,2041,2062,2024,2036,2041,2019,1194
606,1713856547383555928,2074,2036,2064,2102,2065,2097,1197
607,1713856547393557311,2043,2080,2047,2026,2047,2014,1193
608,1713856547403572080,2069,2036,2041,2108,2108,2082,1195
609,1713856547413555736,2026,2060,2036,2013,2054,2025,1193
610,1713856547423551796,2085,2041,2038,2080,2051,2071,1196
611,1713856547433554222,2028,2056,2029,1995,2056,2027,1191
612,1713856547443552296,2077,2052,2056,2097,2064,2089,1197
613,1713856547453556627,2014,2042,2046,2013,2043,2028,1193
614,1713856547463569440,2086,2068,2096,2083,2052,2068,1194
615,1713856547473551553,2033,2064,2040,2008,2029,2009,1193
616,1713856547483550760,2084,2045,2054,2099,2062,2080,1194
617,1713856547493556676,2039,2068,2041,2027,2056,2031,1192
618,1713856547503552905,2068,2053,2066,2088,2047,2076,1195
619,1713856547513554708,2026,2044,1986,2015,2039,2021,1194
620,1713856547523549936,2101,2077,2125,2108,2031,2072,1196
621,1713856547533554748,2038,2064,2025,2025,2046,2036,1194
622,1713856547543550457,2088,2037,2044,2095,2046,2088,1197
623,1713856547553555619,2041,2072,2065,2008,2036,2025,1192
624,1713856547563563329,2080,2043,2037,2092,2072,2088,1195
625,1713856547573552189,2036,2065,2044,2024,2041,1994,1193
626,1713856547583547286,2092,2076,2107,2107,2060,2113,1196
627,1713856547593554755,2033,2050,2024,2006,2058,2019,1194
628,1713856547603572702,2077,2030,2019,2098,2043,2066,1194
629,1713856547613555867,2042,2072,2024,2043,2060,2020,1190
630,1713856547623561612,2071,2046,2036,2088,2043,2068,1194
631,1713856547633567667,2050,2100,2140,2045,2069,2029,1193
632,1713856547643550361,2072,2043,2094,2077,2084,2054,1196
633,1713856547653550612,2035,2066,2025,2022,2052,2012,1190
634,1713856547663548796,2070,2045,2074,2098,2068,2099,1197
635,1713856547673551052,2052,2094,2114,2026,2056,2035,1193
636,1713856547683550701,2076,2032,2038,2070,2056,2080,1195
637,1713856547693571455,2032,2058,2041,2012,2048,2019,1195
638,1713856547703546739,2083,2042,2053,2095,2060,2075,1198
639,1713856547713556374,2028,2062,2050,2025,2049,2029,1195
640,1713856547723560324,2069,2040,2050,2099,2076,2078,1198
641,1713856547733550217,2039,2070,2063,2002,2049,2025,1194
642,1713856547743551319,2077,2042,2069,2088,2053,2077,1197
643,1713856547753552492,2031,2040,2009,2018,2047,2018,1193
644,1713856547763553163,2086,2061,2123,2098,2078,2086,1197
645,1713856547773554255,2035,2042,2039,2030,2057,2011,1193
646,1713856547783559569,2064,2046,2045,2104,2072,2076,1195
647,1713856547793569925,2046,2056,2025,2010,2058,2022,1192
648,1713856547803548670,2082,2045,2061,2092,2046,2088,1197
649,1713856547813551937,2032,2040,1961,2010,2050,2024,1191
650,1713856547823553320,2073,2049,2069,2095,2058,2080,1197
651,1713856547833567668,2024,2080,2029,2032,2044,2014,1193
652,1713856547843571778,2075,2045,2086,2100,2057,2085,1194
653,1713856547853554713,2029,2059,2042,2014,2058,2024,1193
654,1713856547863557851,2075,2052,2079,2094,2056,2073,1197
655,1713856547873553739,2020,2037,2005,2014,2033,2025,1193
656,1713856547883558411,2072,2041,2047,2085,2050,2073,1195
657,1713856547893572237,2052,2076,2100,2038,2049,2013,1193
658,1713856547903548595,2068,2028,2016,2114,2094,2058,1195
659,1713856547913554861,2040,2074,2038,2005,2046,2024,1191
660,1713856547923549025,2066,2052,2081,2079,2037,2061,1194
661,1713856547933570541,2026,2053,2017,2020,2059,2027,1195
662,1713856547943571613,2076,2038,2035,2082,2054,2075,1196
663,1713856547953562469,2042,2072,2064,2012,2063,2048,1196
664,1713856547963549313,2072,2051,2064,2086,2063,2064,1195
665,1713856547973570299,2043,2060,2038,2021,2038,2024,1195
666,1713856547983550927,2075,2057,2074,2094,2072,2088,1194
667,1713856547993549263,2034,2057,2077,2019,2060,2040,1192
668,1713856548003548921,2065,2050,2092,2095,2055,2068,1193
669,1713856548013551114,2028,2056,2037,2015,2059,2031,1194
670,1713856548023549372,2076,2045,2061,2088,2050,2079,1194
671,1713856548033550797,2037,2061,2040,2027,2050,2036,1193
672,1713856548043555280,2082,2052,2078,2092,2077,2076,1196
673,1713856548053562090,2040,2076,2050,2040,2050,2031,1193
674,1713856548063551464,2074,2027,2021,2094,2045,2096,1195
675,1713856548073566575,2033,2073,2060,2018,2037,2024,1192
676,1713856548083547918,2075,2058,2078,2088,2045,2070,1196
677,1713856548093550466,2035,2056,2034,2020,2056,2019,1192
678,1713856548103552924,2063,2035,2044,2079,2043,2069,1194
679,1713856548113563985,2040,2072,2093,2025,2060,2002,1192
680,1713856548123552316,2064,2032,2018,2081,2037,2067,1194
681,1713856548133551105,2033,2044,2011,2009,2012,2007,1193
682,1713856548143568341,2097,2078,2144,2110,2065,2085,1196
683,1713856548153551218,2021,2056,2027,2025,2061,2024,1192
684,1713856548163549505,2080,2034,2025,2078,2056,2077,1196
685,1713856548173571384,2062,2117,2110,2034,2057,2044,1192
686,1713856548183547473,2075,2033,2024,2070,2060,2088,1195
687,1713856548193553631,2038,2059,2042,1999,2030,2030,1195
688,1713856548203548860,2084,2057,2055,2101,2093,2072,1197
689,1713856548213556713,2047,2115,2259,2044,2062,2043,1192
690,1713856548223547440,2062,2054,2066,2073,2042,2072,1196
691,1713856548233553327,2045,2061,2058,2033,2045,2041,1192
692,1713856548243549509,2074,2044,2057,2082,2056,2083,1195
693,1713856548253553802,2040,2097,2103,2019,2034,2020,1196
694,1713856548263549532,2075,2034,2031,2056,2045,2056,1196
695,1713856548273553595,2036,2067,2039,2009,2038,2021,1193
696,1713856548283563301,2077,2057,2092,2072,2053,2096,1196
697,1713856548293553337,2034,2064,2065,2049,2096,2042,1194
698,1713856548303551294,2066,2018,2000,2080,2052,2062,1194
699,1713856548313555336,2037,2085,2093,2030,2067,2032,1192
700,1713856548323553864,2076,2040,2052,2069,2051,2066,1195
701,1713856548333574188,2048,2061,2057,2028,2052,2030,1194
702,1713856548343549425,2088,2039,2042,2094,2042,2084,1197
703,1713856548353551753,2029,2038,1981,2016,2012,2017,1193
704,1713856548363551234,2072,2046,2042,2075,2057,2064,1197
705,1713856548373549952,2047,2076,2063,2039,2034,2038,1194
706,1713856548383557273,2061,2048,2097,2114,2096,2072,1195
707,1713856548393547559,2039,2080,2066,2042,2076,2045,1193
708,1713856548403545886,2062,2042,2088,2084,2078,2072,1195
709,1713856548413551914,2049,2057,2062,2024,2044,2030,1190
710,1713856548423556728,2070,2042,2058,2068,2047,2067,1195
711,1713856548433550142,2058,2096,2181,2057,2052,2041,1192
712,1713856548443562988,2073,2047,2045,2084,2051,2072,1194
713,1713856548453560112,2036,2060,2053,2013,2034,2045,1192
714,1713856548463567473,2076,2042,2058,2092,2090,2069,1195
715,1713856548473553608,2044,2047,2034,2018,2049,2057,1196
716,1713856548483552467,2068,2046,2070,2088,2048,2070,1196
717,1713856548493554775,2033,2036,1984,2035,2049,2036,1192
718,1713856548503550144,2063,2034,2026,2078,2035,2058,1197
719,1713856548513554968,2033,2056,2020,2044,2052,2023,1194
720,1713856548523563803,2064,2037,1994,2075,2086,2070,1195
721,1713856548533567745,2042,2074,2076,2064,2089,2045,1196
722,1713856548543578314,2080,2043,2050,2088,2056,2064,1198
723,1713856548553580622,2041,2050,2037,2016,2050,1998,1192
724,1713856548563568221,2085,2068,2072,2083,2064,2067,1196
725,1713856548573555821,2035,2056,2033,2025,2049,2030,1194
726,1713856548583555441,2068,2029,2016,2080,2056,2065,1195
727,1713856548593556165,2059,2100,2114,2043,2064,2064,1196
728,1713856548603558603,2070,2040,2037,2088,2074,2072,1196
729,1713856548613559838,2048,2069,2037,2014,2026,2033,1193
730,1713856548623570648,2073,2063,2142,2076,2034,2053,1195
731,1713856548633557756,2042,2061,2056,2027,2050,2027,1194
732,1713856548643566440,2088,2046,2084,2050,2064,2068,1196
733,1713856548653573280,2041,2053,2027,2040,2066,2048,1197
734,1713856548663590446,2075,2036,2039,2092,2073,2076,1197
735,1713856548673584232,2047,2060,2073,2060,2080,2032,1195
736,1713856548683552220,2066,2029,2047,2085,2071,2083,1195
737,1713856548693554909,2042,2061,2049,2022,2044,2024,1192
738,1713856548703552895,2080,2040,2024,2072,2032,2041,1195
739,1713856548713554992,2048,2061,2035,2036,2069,2038,1196
740,1713856548723563305,2057,2037,2025,2088,2068,2080,1197
741,1713856548733552649,2042,2066,2076,2038,2046,2028,1194
742,1713856548743550796,2078,2061,2052,2070,2056,2063,1195
743,1713856548753552593,2042,2064,2054,2040,2053,2032,1192
744,1713856548763572516,2072,2047,2060,2067,2056,2084,1197
745,1713856548773553408,2037,2069,2068,2041,2086,2032,1195
746,1713856548783561882,2074,2048,2047,2069,2053,2077,1196
747,1713856548793552559,2048,2060,2047,2028,2040,2019,1195
748,1713856548803549282,2084,2061,2109,2113,2077,2140,1197
749,1713856548813572765,2044,2046,2020,2028,2064,2024,1192
750,1713856548823549957,2073,2052,2056,2080,2061,2088,1194
751,1713856548833556476,2031,2055,2020,2032,2027,2022,1193
752,1713856548843552558,2065,2054,2070,2021,2014,2057,1197
753,1713856548853555196,2037,2052,2043,2043,2044,2025,1193
754,1713856548863570558,2070,2046,2039,2080,2058,2077,1193
755,1713856548873553926,2051,2072,2059,2035,2056,2090,1196
756,1713856548883557678,2069,2048,2045,2079,2051,2075,1197
757,1713856548893563535,2041,2058,2052,2040,2054,2036,1195
758,1713856548903550412,2068,2046,2057,2070,2033,2062,1196
759,1713856548913553582,2046,2042,2054,2014,2069,2031,1193
760,1713856548923550045,2067,2045,2055,2064,2038,2093,1196
761,1713856548933551951,2049,2064,2052,2048,2050,2032,1194
762,1713856548943554008,2062,2044,2056,2092,2049,2075,1196
763,1713856548953561329,2041,2045,2051,2029,2030,2030,1194
764,1713856548963551284,2074,2048,2058,2080,2048,2078,1194
765,1713856548973553131,2037,2056,2051,2029,2048,2025,1193
766,1713856548983550355,2070,2049,2061,2077,2066,2081,1198
767,1713856548993553946,2045,2062,2052,2042,2047,2021,1193
768,1713856549003551575,2072,2056,2072,2075,2066,2082,1197
769,1713856549013556849,2043,2066,2044,2013,2043,2011,1192
770,1713856549023549159,2061,2047,2056,2083,2064,2053,1194
771,1713856549033552979,2038,2057,2056,2033,2047,2020,1193
772,1713856549043550794,2066,2041,2036,2077,2069,2074,1197
773,1713856549053561763,2041,2092,2185,2038,2084,2037,1193
774,1713856549063564249,2068,2009,1978,2072,2047,2028,1193
775,1713856549073583209,2021,2015,1943,2010,2031,2002,1194
776,1713856549083550925,2056,2036,2030,2058,2052,2056,1195
777,1713856549093551899,2049,2070,2064,2021,2069,2033,1193
778,1713856549103549122,2068,2044,2058,2072,2045,2073,1196
779,1713856549113556290,2044,2035,2032,2051,2056,2037,1196
780,1713856549123560983,2064,2037,2050,2061,2049,2077,1195
781,1713856549133552381,2047,2052,2050,2047,2051,2025,1193
782,1713856549143550015,2060,2026,2017,2090,2047,2042,1194
783,1713856549153554367,2044,2054,1992,2037,2065,2026,1195
784,1713856549163549785,2068,2044,2045,2092,2052,2078,1198
785,1713856549173570429,2040,2072,2052,2026,2060,2010,1194
786,1713856549183548974,2058,2063,2153,2089,2073,2077,1197
787,1713856549193553425,2039,2058,2037,2021,2052,2017,1192
788,1713856549203549897,2073,2044,2060,2082,2060,2086,1197
789,1713856549213551612,2046,2064,2059,2030,2044,2022,1192
790,1713856549223556234,2069,2052,2060,2102,2075,2082,1196
791,1713856549233561829,2053,2063,2053,2037,2057,2025,1193
792,1713856549243550780,2070,2050,2058,2085,2068,2085,1197
793,1713856549253552917,2046,2061,2060,2028,2048,2033,1196
794,1713856549263550601,2069,2041,2059,2089,2050,2069,1197
795,1713856549273570241,2039,2060,2057,2032,2068,2030,1196
796,1713856549283550922,2065,2047,2061,2083,2056,2088,1196
797,1713856549293581702,2040,2066,2047,2012,2056,2025,1194
798,1713856549303553530,2069,2050,2060,2080,2053,2086,1197
799,1713856549313554292,2041,2080,2058,2028,2048,2025,1194
800,1713856549323548908,2077,2051,2061,2095,2050,2076,1195
801,1713856549333551927,2042,2052,2049,2046,2020,2016,1194
802,1713856549343546984,2074,2061,2073,2115,2062,2092,1196
803,1713856549353554343,2042,2057,2047,2010,2056,2036,1192
804,1713856549363551446,2070,2044,2056,2098,2056,2084,1197
805,1713856549373570816,2042,2057,2052,2045,2080,2029,1195
806,1713856549383547557,2080,2068,2059,2043,2034,2081,1197
807,1713856549393553843,2053,2062,2049,2058,2039,2028,1195
808,1713856549403561303,2066,2043,2064,2129,2087,2124,1197
809,1713856549413551117,2042,2057,2049,2004,2044,2026,1192
810,1713856549423554295,2069,2047,2068,2115,2096,2088,1196
811,1713856549433551689,2042,2062,2052,2013,2048,2018,1194
812,1713856549443552000,2074,2053,2067,2109,2049,2081,1196
813,1713856549453552702,2050,2074,2045,2121,2056,2021,1192
814,1713856549463557495,2064,2051,2056,2122,2049,2085,1196
815,1713856549473574159,2030,2057,2047,2052,2044,2015,1192
816,1713856549483550728,2072,2065,2066,2066,2045,2085,1196
817,1713856549493552643,2049,2068,2028,1996,2065,2028,1193
818,1713856549503553225,2073,2049,2054,2089,2093,2080,1195
819,1713856549513554829,2041,2053,2010,2032,2085,2029,1196
820,1713856549523553426,2065,2030,1996,2077,2047,2083,1197
821,1713856549533554359,2042,2056,2038,1947,2045,2021,1194
822,1713856549543550679,2066,2045,2054,2101,2064,2087,1196
823,1713856549553552746,2044,2059,2053,2009,2068,2029,1192
824,1713856549563554460,2077,2046,2051,2085,2052,2079,1196
825,1713856549573572627,2035,2053,2048,1971,2047,2031,1194
826,1713856549583548626,2064,2039,2045,2090,2040,2073,1196
827,1713856549593551543,2048,2061,2060,1961,2042,2019,1194
828,1713856549603558301,2070,2050,2060,2130,2083,2084,1194
829,1713856549613554763,2034,2068,2053,2029,2030,2021,1191
830,1713856549623550502,2074,2048,2080,1951,2044,2077,1194
831,1713856549633556358,2040,2057,2046,1993,2052,2023,1194
832,1713856549643548588,2070,2057,2085,2116,2071,2078,1195
833,1713856549653572369,2041,2064,2062,2021,2047,2028,1194
834,1713856549663551636,2064,2049,2060,2066,2077,2089,1194
835,1713856549673555356,2036,2056,2040,2036,2067,2022,1195
836,1713856549683551837,2069,2050,2068,2105,2059,2084,1197
837,1713856549693610329,2040,2057,2037,2026,2044,2022,1193
838,1713856549703550875,2072,2044,2023,2107,2053,2072,1193
839,1713856549713552881,2034,2058,2031,2022,2081,2030,1193
840,1713856549723551337,2084,2048,2044,2151,2065,2088,1195
841,1713856549733571359,2046,2062,2045,2024,2036,2028,1193
842,1713856549743557053,2070,2056,2056,2124,2069,2088,1196
843,1713856549753566257,2041,2048,2024,2010,2042,2024,1193
844,1713856549763551760,2070,2046,2041,2073,2090,2082,1196
845,1713856549773553485,2034,2056,2036,2013,2058,2028,1194
846,1713856549783554136,2060,2029,2048,2100,2088,2084,1197
847,1713856549793557656,2041,2060,2048,2012,2057,2024,1193
848,1713856549803550949,2064,2043,2059,2079,2064,2080,1197
849,1713856549813563381,2041,2057,2052,2035,2050,2019,1192
850,1713856549823584326,2076,2053,2082,2098,2065,2092,1195
851,1713856549833554278,2034,2054,2041,2017,2054,2018,1193
852,1713856549843557146,2069,2052,2061,2084,2022,2078,1195
853,1713856549853547171,2040,2062,2050,2035,2050,2021,1194
854,1713856549863551422,2069,2045,2058,2128,2061,2085,1196
855,1713856549873553388,2038,2064,2050,2032,1998,2013,1193
856,1713856549883549708,2085,2066,2080,2091,2055,2087,1196
857,1713856549893552295,2038,2058,2042,2028,2046,2020,1194
858,1713856549903552637,2077,2047,2077,2093,2044,2082,1196
859,1713856549913589211,2042,2061,2050,2030,2078,2024,1193
860,1713856549923548958,2064,2044,2053,2098,2064,2087,1198
861,1713856549933554713,2053,2076,2053,2009,2049,2024,1196
862,1713856549943545238,2066,2041,2047,2088,2077,2088,1195
863,1713856549953548097,2041,2055,2034,2052,2039,2021,1192
864,1713856549963552829,2064,2041,2061,2092,2056,2084,1195
865,1713856549973552979,2034,2058,2043,1990,2026,2019,1195
866,1713856549983560720,2072,2050,2071,2123,2073,2090,1196
867,1713856549993560760,2045,2073,2044,2002,2042,2032,1194
868,1713856550003547271,2072,2045,2049,2089,2055,2074,1198
869,1713856550013551587,2036,2063,2049,2046,2056,2025,1193
870,1713856550023549346,2076,2049,2069,2117,2060,2088,1196
871,1713856550033551718,2035,2057,2033,1987,2057,2014,1193
872,1713856550043616910,2072,2049,2068,2093,2065,2084,1198
873,1713856550053553212,2042,2069,2082,2026,2047,2022,1194
874,1713856550063551353,2080,2043,2058,2096,2073,2089,1195
875,1713856550073553202,2033,2060,2044,2033,2051,2027,1195
876,1713856550083560496,2069,2047,2061,2105,2057,2088,1197
877,1713856550093567520,2040,2064,2052,1993,2047,2020,1193
878,1713856550103569560,2069,2044,2060,2096,2056,2083,1198
879,1713856550113578398,2040,2064,2058,2028,2060,2018,1195
880,1713856550123582393,2070,2046,2072,2084,2054,2081,1197
881,1713856550133588174,2031,2061,2047,2033,2054,2022,1192
882,1713856550143553530,2075,2056,2089,2080,2054,2092,1197
883,1713856550153557285,2036,2047,2058,2022,2039,2016,1193
884,1713856550163568299,2082,2054,2059,2093,2060,2085,1197
885,1713856550173556794,2036,2056,2037,2025,2056,2023,1194
886,1713856550183554283,2075,2045,2052,2080,2045,2091,1196
887,1713856550193559111,2036,2060,2052,2015,2056,2020,1193
888,1713856550203553401,2073,2038,2041,2096,2059,2078,1194
889,1713856550213560074,2032,2056,2048,2017,2033,2026,1192
890,1713856550223569633,2071,2048,2061,2097,2080,2089,1198
891,1713856550233574661,2042,2061,2040,2035,2074,2030,1192
892,1713856550243578657,2072,2035,2039,2082,2065,2085,1195
893,1713856550253586272,2033,2057,2052,2020,2050,2029,1193
894,1713856550263595651,2072,2043,2058,2092,2065,2072,1196
895,1713856550273602053,2030,2056,2037,2035,2058,2017,1192
896,1713856550283550445,2072,2044,2059,2101,2056,2086,1195
897,1713856550293559585,2027,2058,2047,2004,2040,2026,1192
898,1713856550303550897,2070,2041,2044,2098,2046,2088,1195
899,1713856550313549749,2040,2072,2029,2016,2036,2030,1193
900,1713856550323552031,2076,2053,2094,2112,2056,2085,1195
901,1713856550333562011,2032,2056,2040,2018,2044,2026,1193
902,1713856550343547510,2082,2053,2104,2117,2056,2084,1196
903,1713856550353546492,2028,2049,2032,2032,2058,2034,1194
904,1713856550363550608,2071,2056,2115,2089,2033,2078,1197
905,1713856550373551927,2038,2060,2047,2005,2056,2029,1193
906,1713856550383555100,2072,2049,2068,2088,2062,2078,1197
907,1713856550393557723,2031,2057,2038,2024,2038,2028,1194
908,1713856550403546920,2075,2045,2059,2096,2060,2088,1197
909,1713856550413552980,2041,2064,2050,2020,2047,2028,1191
910,1713856550423551683,2072,2044,2055,2093,2045,2073,1197
911,1713856550433551266,2034,2046,2060,2019,2046,2032,1192
912,1713856550443558390,2074,2040,2032,2080,2053,2080,1195
913,1713856550453546074,2044,2064,2058,2010,2030,2024,1194
914,1713856550463550400,2076,2042,2058,2090,2052,2076,1195
915,1713856550473552010,2040,2068,2072,2040,2078,2024,1194
916,1713856550483550461,2080,2046,2074,2088,2055,2080,1197
917,1713856550493551558,2034,2053,2050,2030,2048,2028,1192
918,1713856550503556096,2077,2057,2058,2084,2038,2076,1196
919,1713856550513560241,2037,2070,2047,2026,2044,2025,1196
920,1713856550523554432,2085,2050,2092,2085,2057,2072,1196
921,1713856550533549615,2041,2076,2088,1997,2042,2028,1194
922,1713856550543552959,2076,2043,2056,2094,2036,2072,1198
923,1713856550553557736,2038,2060,2056,2005,2033,2033,1194
924,1713856550563549831,2076,2059,2056,2090,2052,2079,1195
925,1713856550573549897,2028,2065,2045,2026,2072,2024,1193
926,1713856550583549130,2073,2048,2084,2096,2064,2084,1198
927,1713856550593549024,2037,2078,2078,2043,2057,2027,1194
928,1713856550603574816,2072,2041,2048,2097,2073,2076,1197
929,1713856550613557567,2039,2060,2052,2004,2046,2033,1193
930,1713856550623560961,2076,2043,2058,2093,2069,2084,1196
931,1713856550633568646,2038,2068,2074,2026,2051,2030,1193
932,1713856550643550033,2081,2044,2056,2073,2056,2080,1197
933,1713856550653571755,2036,2062,2064,2013,2053,2026,1195
934,1713856550663549352,2073,2036,2052,2092,2057,2085,1195
935,1713856550673554460,2024,2056,2042,2032,2053,2033,1194
936,1713856550683556511,2072,2042,2088,2068,2044,2074,1196
937,1713856550693565730,2035,2053,2048,2013,2037,2044,1193
938,1713856550703553534,2068,2040,2061,2086,2051,2077,1197
939,1713856550713556507,2037,2059,2049,2024,2041,2031,1194
940,1713856550723549213,2076,2048,2085,2076,2066,2084,1197
941,1713856550733554382,2040,2060,2022,2017,2052,2029,1196
942,1713856550743549855,2080,2046,2053,2096,2058,2073,1198
943,1713856550753551867,2037,2069,2078,2040,2051,2040,1195
944,1713856550763548894,2078,2040,2056,2084,2079,2079,1197
945,1713856550773550433,2023,2040,2039,2013,2047,2040,1193
946,1713856550783549466,2069,2035,2046,2088,2058,2074,1197
947,1713856550793555727,2040,2060,2046,2041,2051,2026,1196
948,1713856550803562490,2069,2045,2080,2085,2044,2074,1198
949,1713856550813573383,2037,2060,2045,2022,2053,2033,1193
950,1713856550823550309,2076,2045,2054,2092,2056,2067,1197
951,1713856550833557473,2041,2062,2053,2020,2057,2032,1192
952,1713856550843551583,2070,2041,2055,2090,2066,2069,1196
953,1713856550853553492,2037,2048,2040,1988,2016,2040,1194
954,1713856550863571805,2077,2045,2059,2093,2064,2081,1196
955,1713856550873564321,2044,2074,2047,2023,2052,2022,1194
956,1713856550883552115,2081,2063,2121,2100,2051,2076,1196
957,1713856550893552772,2037,2063,2065,2023,2050,2027,1195
958,1713856550903550461,2079,2049,2095,2092,2046,2076,1195
959,1713856550913555951,2042,2058,2030,2052,2069,2035,1195
960,1713856550923553148,2069,2037,2037,2072,2052,2071,1195
961,1713856550933552392,2047,2073,2089,2020,2047,2031,1194
962,1713856550943552818,2079,2045,2069,2086,2058,2077,1196
963,1713856550953553746,2044,2058,2048,2006,2068,2039,1195
964,1713856550963550714,2079,2037,2062,2094,2061,2069,1197
965,1713856550973557716,2034,2064,2036,2050,2064,2034,1194
966,1713856550983546172,2072,2036,2044,2088,2046,2072,1195
967,1713856550993550589,2044,2084,2090,2024,2032,2034,1194
968,1713856551003549687,2072,2040,2047,2075,2063,2071,1198
969,1713856551013551217,2034,2053,2036,2027,2055,2026,1193
970,1713856551023550342,2088,2061,2072,2072,2054,2068,1195
971,1713856551033550950,2031,2056,2036,2022,2044,2019,1194
972,1713856551043555868,2078,2066,2138,2080,2024,2078,1194
973,1713856551053564636,2046,2072,2042,2011,2031,2033,1194
974,1713856551063551289,2073,2044,2056,2096,2053,2092,1197
975,1713856551073575717,2046,2056,2036,2040,2085,2034,1196
976,1713856551083549437,2056,2030,2024,2072,2066,2075,1195
977,1713856551093552240,2060,2086,2104,2029,2070,2052,1197
978,1713856551103554552,2074,2040,2053,2081,2057,2032,1194
979,1713856551113553847,2036,2057,2036,2028,2053,2018,1194
980,1713856551123550555,2088,2064,2085,2102,2050,2063,1196
981,1713856551133552235,2040,2077,2059,2033,2057,2052,1198
982,1713856551143548612,2074,2044,2046,2080,2061,2082,1194
983,1713856551153555215,2044,2060,2042,2022,2037,2036,1193
984,1713856551163562680,2071,2047,2051,2045,2000,2042,1192
985,1713856551173579750,2037,2056,2029,2028,2036,2027,1193
986,1713856551183550663,2077,2061,2094,2123,2124,2049,1197
987,1713856551193553005,2040,2044,2021,2050,2044,2034,1195
988,1713856551203548520,2077,2068,2107,2085,2049,2065,1194
989,1713856551213551974,2042,2060,2040,2038,2058,2040,1192
990,1713856551223556121,2065,2037,2043,2067,2041,2070,1196
991,1713856551233564409,2050,2050,2027,2044,2065,2055,1196
992,1713856551243540745,2068,2053,2056,2082,2064,2064,1197
993,1713856551253550406,2040,2050,2037,2051,2101,2044,1196
994,1713856551263550813,2070,2065,2153,2084,2063,2063,1196
995,1713856551273574550,2040,2066,2054,2018,2041,2037,1196
996,1713856551283547988,2065,2038,2045,2070,2035,2052,1195
997,1713856551293552384,2038,2061,2061,2041,2064,2034,1192
998,1713856551303549934,2077,2026,2014,2074,2053,2070,1195
999,1713856551313552748,2037,2074,2052,2050,2083,2032,1193
1000,1713856551323548764,2081,2058,2088,2078,2061,2072,1196
1001,1713856551333554094,2024,2045,2024,2029,2074,2033,1194
1002,1713856551343561088,2081,2065,2093,2104,2064,2066,1196
1003,1713856551353568313,2040,2052,2024,2029,2052,2030,1195
1004,1713856551363549932,2074,2044,2074,2075,2045,2073,1195
1005,1713856551373568124,2044,2053,2028,2027,2047,2036,1193
1006,1713856551383545934,2074,2051,2060,2080,2086,2069,1194
1007,1713856551393550071,2047,2062,2042,2024,2069,2050,1197
1008,1713856551403554750,2072,2047,2059,2085,2055,2048,1197
1009,1713856551413561754,2049,2058,2047,2033,2059,2047,1192
1010,1713856551423548567,2074,2055,2137,2088,2059,2066,1195
1011,1713856551433555110,2037,2057,2064,2036,2049,2029,1192
1012,1713856551443549872,2084,2047,2060,2093,2068,2093,1197
1013,1713856551453554480,2030,2056,2045,2041,2060,2026,1193
1014,1713856551463548411,2070,2058,2075,2060,2048,2056,1196
1015,1713856551473567395,2046,2072,2104,2045,2045,2027,1192
1016,1713856551483553938,2076,2036,2041,2072,2065,2061,1196
1017,1713856551493551538,2040,2068,2080,2024,2056,2040,1194
1018,1713856551503549930,2069,2050,2053,2067,2060,2080,1195
1019,1713856551513551862,2046,2070,2092,2050,2085,2053,1198
1020,1713856551523558754,2074,2053,2083,2078,2064,2069,1195
1021,1713856551533548394,2045,2057,2036,2036,2041,2045,1196
1022,1713856551543546777,2065,2045,2056,2053,2073,2056,1194
1023,1713856551553552939,2045,2064,2058,2017,2033,2036,1193
1024,1713856551563549597,2068,2056,2074,2092,2053,2040,1194
1025,1713856551573554205,2052,2073,2091,2041,2071,2084,1197
1026,1713856551583555053,2068,2040,2047,2089,2049,2061,1199
1027,1713856551593560714,2056,2070,2052,2044,2064,2046,1192
1028,1713856551603580871,2068,2048,2075,2069,2024,2038,1193
1029,1713856551613556736,2032,2060,2044,2045,2048,2033,1192
1030,1713856551623547328,2068,2041,2040,2070,2049,2065,1196
1031,1713856551633548658,2030,2065,2051,2033,2052,2057,1196
1032,1713856551643553667,2066,2043,2041,2078,2052,2044,1193
1033,1713856551653551007,2044,2060,2094,2014,2036,2057,1195
1034,1713856551663552898,2072,2056,2051,2073,2049,2068,1194
1035,1713856551673553375,2040,2083,2056,2034,2061,2045,1193
1036,1713856551683548870,2072,2044,2050,2057,2066,2068,1197
1037,1713856551693580226,2045,2076,2120,2046,2056,2053,1195
1038,1713856551703557905,2067,2041,2025,2089,2079,2078,1196
1039,1713856551713564960,2035,2045,2028,2046,2047,2036,1194
1040,1713856551723571864,2072,2045,2065,2072,2070,2050,1196
1041,1713856551733556772,2046,2058,2024,2044,2048,2037,1193
1042,1713856551743561490,2066,2067,2094,2064,2033,2086,1195
1043,1713856551753560002,2037,2042,2015,2052,2076,2053,1196
1044,1713856551763572400,2068,2052,2054,2066,2044,2056,1195
1045,1713856551773577990,2052,2057,2052,2034,2053,2045,1193
1046,1713856551783602489,2074,2042,2061,2076,2088,2056,1196
1047,1713856551793609503,2047,2060,2058,2040,2030,2052,1196
1048,1713856551803554440,2073,2063,2093,2077,2042,2051,1194
1049,1713856551813554757,2043,2068,2069,2047,2049,2088,1194
1050,1713856551823552006,2061,2040,2045,2065,2058,2061,1193
1051,1713856551833556192,2043,2050,2044,2034,2043,2073,1196
1052,1713856551843552329,2069,2061,2052,2064,2050,2084,1196
1053,1713856551853556415,2046,2050,2038,2022,2045,2038,1195
1054,1713856551863556131,2062,2054,2053,2088,2080,2065,1196
1055,1713856551873561451,2052,2051,2053,2041,2056,2048,1196
1056,1713856551883569297,2065,2046,2056,2065,2065,2046,1194
1057,1713856551893571319,2056,2078,2102,2047,2045,2055,1196
1058,1713856551903579085,2064,2029,2032,2068,2060,2064,1194
1059,1713856551913584133,2048,2057,2066,2055,2056,2025,1195
1060,1713856551923550003,2080,2058,2049,2072,2057,2047,1194
1061,1713856551934541472,2060,2043,2006,2018,2037,2038,1195
1062,1713856551943550988,2076,2053,2060,2067,2063,2074,1195
1063,1713856551953557230,2046,2047,2005,2052,2066,2050,1196
1064,1713856551963550971,2064,2042,2026,2061,2049,2040,1195
1065,1713856551973550336,2050,2088,2087,2053,2040,2073,1197
1066,1713856551983549990,2069,2040,2026,2065,2050,2059,1196
1067,1713856551993572424,2065,2087,2063,2042,2062,2061,1197
1068,1713856552003551908,2086,2069,2110,2052,2081,2070,1195
1069,1713856552013551140,2034,2050,2026,2052,2044,2072,1194
1070,1713856552023549118,2072,2058,2080,2082,2077,2065,1194
1071,1713856552033555909,2044,2051,2028,2035,2053,2051,1195
1072,1713856552043551671,2060,2043,2046,2058,2039,2054,1196
1073,1713856552053553348,2047,2061,2052,2037,2043,2069,1195
1074,1713856552063555277,2071,2049,2031,2058,2058,2032,1194
1075,1713856552073560503,2055,2080,2111,2065,2072,2049,1194
1076,1713856552083549939,2064,2049,2042,2069,2060,2045,1192
1077,1713856552093551677,2052,2066,2095,2040,2057,2068,1196
1078,1713856552103549735,2073,2062,2101,2057,2036,2034,1194
1079,1713856552113552967,2045,2056,2048,2044,2041,2058,1197
1080,1713856552123564298,2064,2050,2037,2056,2054,2056,1193
1081,1713856552133556040,2046,2050,2035,2060,2040,2060,1195
1082,1713856552143563653,2065,2060,2049,2068,2065,2105,1196
1083,1713856552153555315,2054,2046,2030,2060,2042,2066,1195
1084,1713856552163549744,2060,2046,2024,2073,2062,2080,1197
1085,1713856552173553567,2058,2074,2088,2073,2058,2074,1195
1086,1713856552183553721,2064,2048,2053,2058,2041,2054,1195
1087,1713856552193570446,2049,2058,2061,2053,2042,2061,1197
1088,1713856552203551151,2060,2065,2072,2065,2052,2048,1196
1089,1713856552213549339,2049,2061,2070,2058,2069,2050,1194
1090,1713856552223553643,2044,2027,2026,2054,2051,2036,1193
1091,1713856552233553426,2042,2052,2073,2049,2072,2046,1194
1092,1713856552243552907,2053,2044,2028,2076,2069,2062,1197
1093,1713856552253556299,2043,2057,2074,2065,2036,2041,1193
1094,1713856552263546649,2064,2052,2076,2062,2059,2042,1196
1095,1713856552273551995,2038,2052,2044,2035,2048,2042,1194
1096,1713856552283554023,2062,2063,2124,2080,2081,2066,1196
1097,1713856552293552984,2056,2062,2037,2062,2061,2076,1196
1098,1713856552303559333,2069,2033,2037,2061,2024,2041,1193
1099,1713856552313552499,2050,2040,1998,2050,2068,2054,1197
1100,1713856552323556462,2072,2084,2143,2062,2059,2016,1195
1101,1713856552333563924,2044,2049,2029,2043,2056,2058,1199
1102,1713856552343551165,2068,2046,2039,2049,2048,2054,1196
1103,1713856552353552713,2070,2056,2062,2044,2036,2057,1194
1104,1713856552363549697,2061,2064,2045,2053,2064,2052,1197
1105,1713856552373553080,2059,2072,2106,2085,2081,2061,1196
1106,1713856552383548631,2061,2064,2068,2064,2050,2044,1193
1107,1713856552393554138,2064,2070,2100,2072,2053,2082,1195
1108,1713856552403550102,2069,2056,2075,2069,2051,2053,1194
1109,1713856552413552260,2053,2055,2036,2074,2058,2068,1196
1110,1713856552423551160,2062,2032,2037,2066,2061,2052,1194
1111,1713856552433551164,2025,2032,2014,2042,2046,2056,1195
1112,1713856552443558214,2057,2056,2040,2048,2046,2050,1196
1113,1713856552453548383,2047,2047,2040,2053,2056,2047,1194
1114,1713856552463549940,2056,2044,2040,2052,2060,2041,1192
1115,1713856552473551146,2062,2059,2043,2062,2084,2073,1196
1116,1713856552483547781,2064,2055,2100,2056,2045,2026,1193
1117,1713856552493552707,2043,2049,2066,2045,2048,2052,1196
1118,1713856552503552469,2050,2042,2032,2035,2054,2048,1198
1119,1713856552513559400,2049,2048,2040,2064,2060,2066,1196
1120,1713856552523550921,2056,2052,2073,2064,2070,2044,1194
1121,1713856552533555857,2061,2052,2045,2052,2026,2076,1197
1122,1713856552543550206,2054,2053,2050,2052,2084,2047,1195
1123,1713856552553553408,2060,2073,2082,2056,2049,2064,1196
1124,1713856552563551445,2048,2033,2012,2060,2056,2040,1193
1125,1713856552573552512,2056,2050,2028,2047,2051,2058,1197
1126,1713856552583551281,2060,2065,2064,2056,2059,2069,1197
1127,1713856552593550853,2056,2047,2048,2064,2048,2056,1197
1128,1713856552603547418,2048,2047,2059,2066,2058,2033,1192
1129,1713856552613551662,2054,2090,2202,2068,2021,2087,1192
1130,1713856552623553991,2074,2072,2096,2032,2048,2047,1193
1131,1713856552633559007,2045,2053,2088,2043,2021,2054,1196
1132,1713856552643549466,2060,2044,2006,2046,2040,2024,1193
1133,1713856552653548025,2061,2078,2097,2082,2054,2081,1196
1134,1713856552663549262,2058,2059,2064,2062,2092,2040,1192
1135,1713856552673552322,2050,2068,2064,2034,2037,2041,1193
1136,1713856552683550070,2068,2102,2181,2025,2031,2062,1196
1137,1713856552693556791,2057,2086,2125,2076,2032,2047,1194
1138,1713856552703559089,2045,2043,2042,2049,2033,2028,1192
1139,1713856552713551854,2058,2056,2046,2071,2043,2083,1195
1140,1713856552723549501,2061,2060,2070,2056,2045,2047,1193
1141,1713856552733552091,2062,2038,2017,2046,2049,2055,1196
1142,1713856552743550651,2066,2093,2150,2064,2051,2035,1193
1143,1713856552753549973,2047,2034,1992,2060,2038,2055,1194
1144,1713856552763550236,2059,2068,2113,2057,2066,2036,1194
1145,1713856552773550781,2048,2035,2074,2059,2049,2059,1197
1146,1713856552783548809,2054,2042,2014,2047,2072,2091,1197
1147,1713856552793572672,2045,2034,2016,2044,2067,2089,1195
1148,1713856552803549196,2064,2076,2057,2063,2061,2040,1194
1149,1713856552813555455,2048,2050,2030,2053,2062,2084,1194
1150,1713856552823565353,2056,2043,2038,2040,2056,2039,1192
1151,1713856552833552013,2062,2083,2169,2065,2078,2072,1194
1152,1713856552843551805,2048,2052,2038,2059,2049,2037,1193
1153,1713856552853551859,2053,2058,2094,2070,2037,2036,1195
1154,1713856552863549767,2047,2040,2036,2030,2049,2056,1194
1155,1713856552873550802,2057,2042,2004,2057,2052,2064,1196
1156,1713856552883555136,2056,2058,2048,2065,2098,2041,1193
1157,1713856552893562017,2048,2056,2035,2067,2048,2072,1197
1158,1713856552903551323,2056,2049,2027,2044,2064,2042,1193
1159,1713856552913551948,2053,2052,2021,2066,2040,2077,1197
1160,1713856552923549916,2062,2052,2071,2036,2059,2036,1193
1161,1713856552933552195,2046,2026,1944,2074,2045,2064,1198
1162,1713856552943548970,2040,2040,2036,2040,2053,2025,1194
1163,1713856552953557605,2050,2056,2057,2064,2046,2074,1197
1164,1713856552963549287,2060,2052,2072,2040,2058,2045,1194
1165,1713856552973550253,2061,2088,2040,2069,2047,2062,1196
1166,1713856552983548110,2057,2070,2066,2049,2054,2040,1193
1167,1713856552993554249,2064,2050,2050,2062,2049,2068,1196
1168,1713856553003557912,2045,2040,1991,2035,2059,2042,1193
1169,1713856553013564663,2068,2053,2057,2056,2044,2094,1196
1170,1713856553023551175,2056,2046,2027,2044,2059,2045,1193
1171,1713856553033551481,2054,2046,2045,2056,2045,2056,1194
1172,1713856553043545843,2049,2048,2050,2037,2056,2056,1197
1173,1713856553053550059,2041,2049,2062,2068,2047,2058,1196
1174,1713856553063546847,2049,2051,2040,2046,2059,2038,1192
1175,1713856553073555655,2062,2045,2050,2066,2060,2093,1196
1176,1713856553083561996,2052,2037,2008,2039,2064,2055,1195
1177,1713856553093551496,2061,2048,2056,2067,2047,2067,1193
1178,1713856553103549918,2051,2046,2028,2047,2049,2044,1192
1179,1713856553113554384,2060,2066,2059,2061,2048,2072,1196
1180,1713856553123547303,2061,2064,2045,2055,2060,2037,1194
1181,1713856553133551209,2062,2047,2050,2071,2061,2064,1197
1182,1713856553143550272,2073,2060,2020,2057,2084,2073,1196
1183,1713856553153558599,2058,2057,2080,2068,2034,2061,1196
1184,1713856553163547968,2044,2053,2053,2045,2067,2042,1194
1185,1713856553173563182,2063,2066,2044,2042,2056,2070,1196
1186,1713856553183549894,2060,2068,2078,2078,2064,2061,1197
1187,1713856553193556487,2060,2056,2052,2073,2053,2080,1196
1188,1713856553203545675,2052,2049,2052,2037,2059,2043,1194
1189,1713856553213552087,2057,2036,1983,2077,2047,2065,1196
1190,1713856553223546870,2040,2029,1982,2018,2053,2040,1194
1191,1713856553233553251,2057,2044,2030,2072,2052,2061,1196
1192,1713856553243550119,2069,2099,2094,2058,2061,2061,1196
1193,1713856553253553263,2055,2049,2044,2064,2044,2068,1197
1194,1713856553263554893,2045,2056,2048,2040,2048,2036,1193
1195,1713856553273560503,2060,2042,2038,2089,2056,2061,1197
1196,1713856553283549702,2058,2070,2120,2056,2056,2058,1194
1197,1713856553293553026,2054,2045,2036,2047,2046,2061,1197
1198,1713856553303549102,2056,2062,2089,2046,2045,1995,1194
1199,1713856553313554582,2061,2056,2070,2066,2050,2068,1197
1200,1713856553323546387,2061,2066,2032,2068,2083,2045,1192
1201,1713856553333550734,2067,2050,2037,2068,2050,2068,1198
1202,1713856553343549416,2056,2080,2158,2064,2066,2056,1198
1203,1713856553353549933,2065,2068,2052,2057,2039,2076,1192
1204,1713856553363550771,2047,2040,1996,2021,2054,2032,1193
1205,1713856553373677304,2053,2037,2018,2066,2042,2068,1196
1206,1713856553383555464,2047,2052,2034,2051,2049,2040,1194
1207,1713856553393561545,2062,2047,2052,2069,2053,2068,1195
1208,1713856553403551766,2055,2084,2047,2056,2074,2022,1194
1209,1713856553413550369,2046,2040,2038,2063,2052,2069,1195
1210,1713856553423548671,2044,2054,2052,2029,2066,2030,1193
1211,1713856553433552706,2061,2057,2057,2073,2048,2056,1196
1212,1713856553443575419,2037,2056,2053,2049,2049,2037,1193
1213,1713856553453554383,2064,2050,2048,2068,2046,2064,1195
1214,1713856553463560894,2044,2028,1983,2009,2038,2038,1194
1215,1713856553473552549,2063,2046,2033,2065,2044,2060,1195
1216,1713856553483557347,2044,2051,2035,2038,2058,2045,1192
1217,1713856553493562376,2058,2051,2052,2065,2045,2068,1195
1218,1713856553503565018,2050,2053,2046,2034,2068,2050,1195
1219,1713856553513571059,2054,2041,2025,2088,2068,2088,1196
1220,1713856553523582593,2040,2070,2093,2058,2054,2037,1193
1221,1713856553533585055,2059,2040,2033,2086,2065,2089,1197
1222,1713856553543583096,2044,2052,2045,2033,2050,2034,1194
1223,1713856553553557428,2065,2047,2052,2062,2045,2065,1199
1224,1713856553563553804,2057,2058,2060,2045,2056,2041,1193
1225,1713856553573555364,2070,2048,2047,2076,2050,2068,1196
1226,1713856553583560573,2049,2052,2015,2036,2056,2038,1195
1227,1713856553593552929,2057,2051,2031,2074,2037,2071,1196
1228,1713856553603553417,2044,2052,2058,2032,2062,2034,1195
1229,1713856553613553994,2051,2033,2046,2080,2065,2075,1196
1230,1713856553623558090,2043,2045,2032,2046,2063,2031,1192
1231,1713856553633564983,2064,2056,2046,2057,2049,2043,1194
1232,1713856553643571064,2052,2067,2096,2045,2051,2033,1192
1233,1713856553653575261,2073,2062,2080,2080,2043,2065,1195
1234,1713856553663588650,2041,2046,2018,2018,2045,2020,1194
1235,1713856553673586681,2062,2045,2044,2079,2061,2069,1197
1236,1713856553683551508,2053,2061,2033,2045,2053,2033,1195
1237,1713856553693556747,2057,2043,2032,2092,2044,2072,1197
1238,1713856553703551450,2050,2061,2052,2034,2072,2040,1193
1239,1713856553713552679,2062,2050,2032,2069,2056,2070,1196
1240,1713856553723546799,2048,2058,2052,2035,2057,2037,1193
1241,1713856553733552600,2059,2047,2071,2073,2050,2074,1197
1242,1713856553743550761,2043,2056,2025,2047,2056,2040,1194
1243,1713856553753554727,2060,2022,2036,2068,2056,2072,1195
1244,1713856553763553179,2044,2052,2051,2038,2054,2036,1192
1245,1713856553773567742,2073,2056,2065,2083,2056,2077,1197
1246,1713856553783549150,2038,2049,2048,2049,2047,2032,1193
1247,1713856553793552726,2084,2056,2055,2100,2068,2071,1196
1248,1713856553803552411,2040,2053,2032,2027,2054,2037,1193
1249,1713856553813553168,2068,2052,2053,2083,2045,2070,1194
1250,1713856553823549906,2045,2062,2044,2041,2058,2036,1193
1251,1713856553833551064,2064,2052,2088,2086,2061,2073,1193
1252,1713856553843557797,2051,2062,2066,2037,2061,2044,1193
1253,1713856553853564971,2057,2051,2052,2072,2052,2063,1195
1254,1713856553863548174,2047,2082,2060,2045,2050,2063,1195
1255,1713856553873570135,2078,2064,2101,2078,2062,2069,1197
1256,1713856553883548096,2048,2041,2018,2020,2039,2039,1195
1257,1713856553893554247,2084,2075,2140,2078,2057,2088,1197
1258,1713856553903551687,2042,2045,2031,2046,2052,2031,1193
1259,1713856553913553617,2057,2045,2056,2080,2057,2072,1196
1260,1713856553923550054,2041,2071,2060,2047,2069,2027,1193
1261,1713856553933550361,2052,2037,2044,2075,2041,2074,1197
1262,1713856553943550657,2045,2064,2029,2032,2068,2028,1193
1263,1713856553953554503,2053,2018,1997,2084,2049,2056,1195
1264,1713856553963558850,2053,2054,2000,2033,2061,2033,1193
1265,1713856553973564570,2054,2042,2052,2072,2049,2059,1197
1266,1713856553983550500,2053,2064,2052,2036,2056,2035,1194
1267,1713856553993552521,2060,2049,2056,2081,2052,2076,1195
1268,1713856554003551995,2031,2048,2037,2037,2053,2032,1192
1269,1713856554013554442,2069,2079,2191,2104,2076,2076,1194
1270,1713856554023549403,2031,2036,1997,2019,2052,2032,1191
1271,1713856554033555042,2065,2046,2053,2070,2051,2077,1195
1272,1713856554043548439,2043,2056,2061,2024,2029,2061,1195
1273,1713856554053555852,2082,2047,2045,2080,2072,2066,1196
1274,1713856554063551886,2020,2042,2050,2024,2040,2020,1192
1275,1713856554073552602,2128,2076,2066,2079,2053,2081,1195
1276,1713856554083550129,2046,2065,2064,2029,2048,2038,1193
1277,1713856554093552740,2074,2038,2066,2072,2042,2080,1196
1278,1713856554103557245,2047,2054,2022,2040,2057,2039,1195
1279,1713856554113555976,2059,2046,2067,2094,2052,2054,1198
1280,1713856554123549885,2050,2054,2036,2034,2064,2046,1193
1281,1713856554133549638,2062,2047,2057,2066,2034,2076,1196
1282,1713856554143551276,2046,2061,2051,2029,2065,2040,1193
1283,1713856554153555351,2078,2069,2152,2085,2053,2079,1196
1284,1713856554163561159,2054,2057,2044,2034,2047,2040,1193
1285,1713856554173565885,2061,2038,2028,2079,2046,2066,1197
1286,1713856554183547202,2040,2063,2039,2041,2057,2030,1194
1287,1713856554193553602,2072,2058,2055,2109,2079,2118,1197
1288,1713856554203547951,2041,2039,2004,2027,2059,2031,1196
1289,1713856554213552176,2060,2036,2047,2076,2052,2078,1195
1290,1713856554223551679,2040,2052,2036,2029,2055,2034,1195
1291,1713856554233556545,2065,2035,2040,2077,2050,2068,1195
1292,1713856554243550494,2056,2056,2081,2032,2068,2037,1193
1293,1713856554253556072,2077,2047,2056,2079,2052,2100,1195
1294,1713856554263550883,2044,2069,2096,2030,2043,2028,1194
1295,1713856554273551548,2072,2060,2076,2091,2050,2076,1195
1296,1713856554283549417,2058,2081,2121,2060,2043,2051,1196
1297,1713856554293549592,2066,2051,2051,2082,2062,2070,1196
1298,1713856554303549195,2040,2037,2056,2032,2045,2042,1193
1299,1713856554313563514,2078,2044,2039,2089,2068,2081,1197
1300,1713856554323550295,2027,2058,2049,2026,2052,2031,1196
1301,1713856554333551512,2077,2056,2026,2081,2061,2074,1197
1302,1713856554343549171,2050,2072,2098,2026,2050,2038,1193
1303,1713856554353556092,2065,2047,2034,2084,2058,2078,1197
1304,1713856554363561720,2044,2048,2024,2035,2047,2036,1195
1305,1713856554373550466,2072,2046,2076,2088,2067,2080,1198
1306,1713856554383550891,2048,2072,2096,2031,2057,2037,1191
1307,1713856554393549200,2077,2054,2052,2083,2060,2069,1197
1308,1713856554403549976,2032,2045,2049,2022,2056,2045,1194
1309,1713856554413551433,2072,2036,2046,2096,2053,2075,1195
1310,1713856554423556360,2050,2054,2054,2028,2051,2048,1195
1311,1713856554433556424,2060,2032,2036,2078,2044,2085,1196
1312,1713856554443552298,2047,2046,2005,2017,2055,2029,1193
1313,1713856554453553033,2069,2048,2063,2081,2063,2072,1195
1314,1713856554463550511,2046,2068,2077,2022,2042,2026,1193
1315,1713856554473551418,2071,2045,2067,2067,2044,2072,1197
1316,1713856554483551311,2032,2057,2052,2026,2052,2028,1193
1317,1713856554493551365,2068,2048,2062,2092,2057,2080,1198
1318,1713856554503551349,2047,2054,2028,2026,2057,2026,1194
1319,1713856554513551905,2068,2047,2022,2094,2092,2073,1196
1320,1713856554523551769,2041,2052,2034,2022,2045,2035,1193
1321,1713856554533560484,2084,2050,2034,2101,2060,2077,1198
1322,1713856554543550784,2041,2058,2038,2008,2049,2045,1192
1323,1713856554553557605,2072,2044,2080,2093,2049,2081,1196
1324,1713856554563564005,2035,2052,2028,2012,2047,2026,1194
1325,1713856554573554625,2068,2043,2043,2096,2056,2069,1196
1326,1713856554583549075,2038,2063,2092,2043,2058,2041,1194
1327,1713856554593553149,2076,2041,2046,2094,2059,2086,1197
1328,1713856554603551409,2038,2062,2055,2019,2053,2041,1196
1329,1713856554613557257,2080,2049,2064,2095,2061,2077,1194
1330,1713856554623552991,2040,2056,2020,2030,2047,2028,1193
1331,1713856554633559922,2084,2110,2209,2118,2050,2070,1196
1332,1713856554643570512,2048,2058,2032,2023,2024,2023,1193
1333,1713856554653551048,2077,2047,2052,2090,2057,2076,1198
1334,1713856554663547182,2038,2048,2037,2020,2040,2020,1192
1335,1713856554673551497,2081,2090,2203,2104,2058,2072,1197
1336,1713856554683549637,2033,2050,2046,2012,2046,2029,1193
1337,1713856554693553781,2074,2031,2037,2092,2056,2072,1196
1338,1713856554703546838,2037,2044,2020,2020,2047,2024,1193
1339,1713856554713552005,2074,2056,2073,2092,2069,2080,1196
1340,1713856554723549903,2036,2060,2041,2026,2044,2030,1195
1341,1713856554733552654,2074,2042,2054,2077,2054,2076,1196
1342,1713856554743552799,2045,2079,2112,2037,2054,2024,1194
1343,1713856554753560271,2070,2047,2056,2092,2053,2080,1196
1344,1713856554763549156,2040,2042,2003,2015,2058,2026,1192
1345,1713856554773553602,2084,2088,2144,2116,2070,2075,1194
1346,1713856554783549054,2049,2097,2112,2030,2056,2040,1195
1347,1713856554793555404,2074,2041,2043,2089,2067,2096,1196
1348,1713856554803554937,2037,2060,2042,2040,2040,2006,1193
1349,1713856554813551312,2074,2045,2042,2086,2060,2073,1196
1350,1713856554823559316,2032,2054,2036,2012,2046,2036,1192
1351,1713856554833562939,2080,2068,2133,2110,2060,2078,1195
1352,1713856554843549239,2037,2045,2005,2022,2044,2032,1191
1353,1713856554853554546,2081,2043,2060,2099,2056,2082,1197
1354,1713856554863548866,2045,2088,2148,2050,2064,2044,1194
1355,1713856554873552078,2076,2046,2057,2102,2067,2100,1197
1356,1713856554883551330,2040,2062,2056,2021,2048,2021,1193
1357,1713856554893556176,2079,2050,2096,2118,2066,2083,1197
1358,1713856554903546366,2043,2064,2041,2034,2072,2024,1195
1359,1713856554913550220,2076,2048,2060,2094,2040,2090,1197
1360,1713856554923550224,2036,2061,2045,2031,2046,2019,1194
1361,1713856554933553867,2080,2056,2074,2081,2060,2088,1197
1362,1713856554943554702,2032,2051,2037,2018,2046,2026,1195
1363,1713856554953561623,2072,2040,2049,2084,2050,2079,1197
1364,1713856554963549346,2044,2073,2127,2028,2050,2036,1193
1365,1713856554973550032,2084,2054,2041,2094,2067,2086,1198
1366,1713856554983549615,2035,2058,2050,1998,2052,2033,1194
1367,1713856554993552396,2076,2044,2059,2091,2058,2070,1197
1368,1713856555003548781,2037,2057,2074,2025,2049,2033,1193
1369,1713856555013552669,2075,2055,2088,2098,2064,2093,1196
1370,1713856555023555112,2037,2061,2046,2029,2037,2025,1192
1371,1713856555033563852,2078,2045,2064,2096,2060,2075,1195
1372,1713856555043569995,2039,2086,2108,2033,2051,2031,1193
1373,1713856555053552829,2076,2057,2121,2097,2058,2075,1197
1374,1713856555063549589,2030,2056,2024,2006,2043,2017,1192
1375,1713856555073549837,2069,2044,2053,2097,2074,2084,1196
1376,1713856555083552350,2038,2059,2045,1999,2009,2024,1193
1377,1713856555093553251,2072,2047,2061,2082,2057,2081,1196
1378,1713856555103550010,2052,2068,2047,2024,2035,2021,1192
1379,1713856555113550529,2076,2042,2047,2096,2058,2082,1197
1380,1713856555123547730,2030,2056,2017,2026,2049,2032,1193
1381,1713856555133552919,2070,2056,2037,2088,2065,2077,1198
1382,1713856555143554501,2032,2054,2049,2011,2056,2035,1195
1383,1713856555153559431,2074,2049,2050,2103,2067,2084,1197
1384,1713856555163572300,2050,2057,2024,2018,2045,2028,1195
1385,1713856555173547105,2099,2100,2188,2121,2072,2089,1197
1386,1713856555183549730,2036,2056,2039,2013,2041,2037,1194
1387,1713856555193552363,2085,2052,2066,2106,2048,2070,1197
1388,1713856555203550496,2044,2058,2053,2026,2044,2041,1194
1389,1713856555213565842,2084,2046,2065,2114,2067,2074,1197
1390,1713856555223552997,2032,2049,1994,2011,2046,2028,1194
1391,1713856555233562238,2089,2058,2100,2112,2027,2067,1196
1392,1713856555243547458,2041,2059,2062,2024,2042,2024,1194
1393,1713856555253551476,2072,2043,2063,2097,2066,2088,1198
1394,1713856555263559423,2030,2057,2033,2012,2036,2023,1195
1395,1713856555273567912,2082,2045,2053,2092,2056,2078,1196
1396,1713856555283548541,2036,2058,2049,2017,2039,2037,1195
1397,1713856555293551085,2076,2048,2056,2086,2049,2084,1197
1398,1713856555303587493,2040,2064,2039,2017,2037,2017,1193
1399,1713856555313561776,2078,2044,2066,2097,2058,2075,1196
1400,1713856555323552241,2041,2062,2048,2017,2046,2029,1193
1401,1713856555333557691,2076,2046,2062,2072,2061,2079,1197
1402,1713856555343564195,2042,2069,2053,2032,2063,2034,1193
1403,1713856555353577235,2078,2041,2058,2101,2069,2086,1197
1404,1713856555363572891,2036,2062,2082,2008,2069,2030,1192
1405,1713856555373574764,2084,2047,2085,2095,2064,2089,1199
1406,1713856555383584726,2032,2061,2041,2025,2036,2037,1195
1407,1713856555393562648,2082,2044,2056,2083,2070,2081,1196
1408,1713856555403565974,2042,2088,2124,2028,2040,2033,1194
1409,1713856555413553251,2070,2043,2056,2098,2056,2078,1195
1410,1713856555423558982,2036,2058,2042,2030,2043,2020,1193
1411,1713856555433563792,2083,2060,2116,2092,2068,2088,1195
1412,1713856555443553383,2034,2056,2044,2038,2046,2027,1193
1413,1713856555453555937,2076,2063,2072,2107,2068,2092,1195
1414,1713856555463552346,2041,2056,2036,2033,2047,2046,1192
1415,1713856555473556814,2088,2045,2060,2106,2063,2080,1196
1416,1713856555483561784,2037,2058,2047,2017,2049,2029,1193
1417,1713856555493565792,2076,2043,2061,2088,2054,2076,1197
1418,1713856555503570330,2036,2063,2056,2045,2064,2044,1192
1419,1713856555513579179,2081,2046,2062,2098,2044,2079,1198
1420,1713856555523581844,2038,2057,2064,2021,2040,2023,1195
1421,1713856555533587304,2090,2043,2049,2090,2069,2072,1196
1422,1713856555543551153,2033,2067,2060,2028,2057,2037,1194
1423,1713856555553556073,2077,2042,2080,2092,2058,2073,1196
1424,1713856555563545153,2036,2076,2066,2014,2024,2025,1194
1425,1713856555573551205,2072,2042,2048,2088,2061,2082,1197
1426,1713856555583548596,2037,2062,2054,2032,2088,2032,1193
1427,1713856555593566728,2079,2047,2059,2097,2069,2089,1194
1428,1713856555603547148,2036,2060,2053,2038,2036,2026,1193
1429,1713856555613555114,2081,2042,2064,2106,2097,2097,1193
1430,1713856555623552035,2034,2058,2034,2007,2031,2025,1190
1431,1713856555633559040,2075,2043,2064,2104,2081,2096,1197
1432,1713856555643549965,2050,2072,2094,2021,2060,2034,1191
1433,1713856555653552719,2077,2038,2048,2088,2062,2075,1195
1434,1713856555663569278,2030,2062,2049,2016,2041,2029,1191
1435,1713856555673550328,2079,2051,2051,2100,2060,2081,1197
1436,1713856555683548882,2032,2056,2030,2020,2038,2025,1193
1437,1713856555693551607,2088,2049,2059,2101,2074,2088,1194
1438,1713856555703547453,2040,2050,2010,2024,2030,2017,1192
1439,1713856555713566408,2080,2050,2060,2091,2069,2086,1197
1440,1713856555723548350,2036,2062,2047,2014,2079,2036,1192
1441,1713856555733549441,2078,2046,2058,2096,2077,2091,1197
1442,1713856555743549388,2030,2059,2037,2024,2045,2026,1193
1443,1713856555753555120,2077,2044,2052,2113,2068,2076,1196
1444,1713856555763581462,2036,2067,2052,2022,2037,2018,1194
1445,1713856555773568428,2082,2044,2064,2095,2056,2082,1197
1446,1713856555783549749,2041,2062,2061,2024,2036,2017,1194
1447,1713856555793553496,2082,2038,2053,2106,2085,2088,1195
1448,1713856555803548561,2045,2061,2049,2024,2047,2036,1191
1449,1713856555813610702,2070,2046,2059,2088,2075,2073,1195
1450,1713856555823548616,2036,2062,2049,2021,2033,2021,1193
1451,1713856555833556554,2074,2037,2052,2095,2081,2095,1195
1452,1713856555843547729,2036,2061,2034,2004,2008,2017,1196
1453,1713856555853552158,2080,2049,2057,2100,2088,2081,1197
1454,1713856555863561799,2027,2062,2041,2019,2038,2024,1191
1455,1713856555873548042,2080,2039,2055,2088,2054,2081,1195
1456,1713856555883551087,2037,2062,2025,2006,2047,2032,1194
1457,1713856555893553571,2085,2069,2108,2103,2074,2086,1196
1458,1713856555903548385,2028,2055,2020,2003,2029,2027,1194
1459,1713856555913576363,2076,2046,2058,2089,2069,2089,1196
1460,1713856555923548721,2037,2065,2056,2008,2032,2028,1194
1461,1713856555933551887,2092,2049,2053,2096,2069,2088,1196
1462,1713856555943548897,2036,2062,2040,2001,2052,2034,1195
1463,1713856555953553565,2083,2056,2069,2114,2060,2085,1197
1464,1713856555963572921,2042,2057,2036,1997,2049,2024,1194
1465,1713856555973602833,2069,2041,2064,2094,2052,2070,1198
1466,1713856555983549498,2039,2061,2061,2014,2042,2032,1196
1467,1713856555993551220,2077,2046,2053,2107,2069,2093,1195
1468,1713856556003548823,2033,2082,2074,2026,2051,2028,1194
1469,1713856556013560628,2082,2040,2077,2084,2073,2084,1193
1470,1713856556023549787,2035,2096,2116,2025,2033,2013,1192
1471,1713856556033553413,2076,2033,2073,2101,2064,2082,1194
1472,1713856556043560837,2045,2053,2044,1976,2010,2018,1193
1473,1713856556053557726,2081,2042,2068,2099,2068,2078,1195
1474,1713856556063547908,2041,2071,2052,2037,2045,2019,1194
1475,1713856556073549007,2080,2040,2060,2104,2081,2090,1199
1476,1713856556083550276,2040,2065,2048,2002,2024,2017,1193
1477,1713856556093549821,2072,2044,2067,2101,2076,2104,1197
1478,1713856556103559050,2036,2062,2040,2011,1999,2009,1194
1479,1713856556113550696,2082,2041,2061,2117,2093,2090,1197
1480,1713856556123550461,2033,2078,2142,2017,2033,2032,1193
1481,1713856556133552713,2070,2040,2064,2097,2050,2081,1199
1482,1713856556143551196,2035,2058,2044,2002,2040,2034,1194
1483,1713856556153550420,2071,2037,2036,2104,2060,2074,1197
1484,1713856556163558416,2032,2058,2032,2037,2053,2017,1193
1485,1713856556173562001,2073,2041,2052,2080,2066,2106,1196
1486,1713856556183547231,2032,2064,2053,2030,2058,2019,1192
1487,1713856556193581311,2080,2043,2061,2109,2082,2108,1195
1488,1713856556203545238,2032,2068,2062,2020,2049,2020,1193
1489,1713856556213548803,2080,2046,2060,2102,2069,2090,1196
1490,1713856556223546674,2045,2080,2077,2000,2026,2035,1195
1491,1713856556233551372,2075,2035,2041,2122,2069,2082,1196
1492,1713856556243555238,2036,2058,2068,2006,2060,2023,1193
1493,1713856556253561028,2104,2112,2302,2140,2074,2097,1197
1494,1713856556263555741,2025,2053,2025,2026,2046,2025,1192
1495,1713856556273549452,2072,2037,2052,2085,2061,2074,1195
1496,1713856556283550912,2036,2057,2043,2020,2085,2026,1193
1497,1713856556293551660,2083,2033,2024,2114,2095,2079,1196
1498,1713856556303551275,2036,2068,2052,2018,2044,2021,1194
1499,1713856556313564875,2079,2043,2053,2120,2072,2076,1198
1500,1713856556323550044,2032,2064,2079,2021,2038,2030,1193
1501,1713856556333552647,2075,2042,2074,2102,2054,2080,1197
1502,1713856556343549937,2029,2056,2026,2004,2047,2036,1194
1503,1713856556353569772,2076,2020,2046,2089,2070,2081,1196
1504,1713856556363571662,2029,2053,2030,2006,2039,2012,1194
1505,1713856556373558637,2072,2040,2072,2115,2081,2088,1200
1506,1713856556383546794,2046,2065,2046,2011,2034,2039,1194
1507,1713856556393550820,2080,2043,2072,2118,2079,2065,1197
1508,1713856556403550565,2033,2064,2041,2018,2042,2023,1195
1509,1713856556413550642,2077,2042,2064,2116,2072,2072,1196
1510,1713856556423550297,2029,2065,2052,1982,2030,2020,1195
1511,1713856556433567596,2090,2052,2062,2103,2061,2086,1197
1512,1713856556443550811,2042,2074,2071,2026,2032,2020,1195
1513,1713856556453554857,2087,2035,2041,2096,2054,2084,1197
1514,1713856556463549199,2039,2068,2068,2061,2053,2015,1192
1515,1713856556473549536,2082,2031,2037,2099,2057,2096,1197
1516,1713856556483546465,2024,2064,2039,2012,2085,2025,1193
1517,1713856556493550190,2074,2036,2042,2106,2058,2076,1193
1518,1713856556503548743,2028,2059,2040,2013,2040,2037,1192
1519,1713856556513550243,2076,2032,2042,2104,2068,2078,1195
1520,1713856556523551232,2024,2052,2018,2005,2037,2012,1196
1521,1713856556533560841,2102,2092,2168,2130,2082,2076,1195
1522,1713856556543549309,2032,2057,2018,1997,2048,2029,1193
1523,1713856556553552493,2085,2045,2057,2108,2047,2088,1195
1524,1713856556563550214,2020,2059,2047,2032,2053,2016,1195
1525,1713856556573553809,2088,2053,2056,2122,2083,2085,1196
1526,1713856556583558698,2037,2072,2056,2015,2057,2017,1192
1527,1713856556593546844,2082,2042,2042,2094,2051,2095,1196
1528,1713856556603554520,2036,2101,2161,2026,2044,2035,1193
1529,1713856556613556420,2080,2031,2015,2078,2060,2099,1194
1530,1713856556623550091,2022,2063,2046,2005,2023,2026,1192
1531,1713856556633553756,2087,2041,2065,2096,2058,2076,1197
1532,1713856556643551227,2045,2085,2124,1987,1994,2011,1192
1533,1713856556653553017,2095,2052,2140,2098,2072,2093,1194
1534,1713856556663559790,2033,2062,2041,2020,2046,2027,1192
1535,1713856556673569861,2107,2051,2072,2116,2079,2094,1195
1536,1713856556683547402,2024,2053,2023,2013,2042,2029,1192
1537,1713856556693553172,2073,2048,2108,2096,2069,2091,1196
1538,1713856556703549790,2022,2051,2000,1997,2038,2025,1194
1539,1713856556713548804,2104,2069,2201,2148,2062,2084,1195
1540,1713856556723549241,2017,2040,1986,2008,2060,2014,1194
1541,1713856556733552306,2074,2036,2052,2077,2058,2080,1197
1542,1713856556743549715,2021,2058,2052,2009,2056,2025,1196
1543,1713856556753550464,2074,2018,2008,2108,2055,2088,1198
1544,1713856556763549637,2020,2057,2025,1999,2025,2001,1194
1545,1713856556773550877,2076,2040,2056,2107,2080,2090,1195
1546,1713856556783553579,2036,2066,2034,2009,2032,2021,1193
1547,1713856556793558498,2084,2053,2096,2112,2072,2079,1197
1548,1713856556803547156,2019,2057,2042,2024,2094,2029,1194
1549,1713856556813549719,2100,2046,2080,2088,2060,2070,1195
1550,1713856556823549955,2038,2101,2176,2013,2039,2028,1194
1551,1713856556833550604,2082,2024,2024,2088,2076,2080,1197
1552,1713856556843546890,2036,2056,2031,1975,2056,2002,1193
1553,1713856556853553253,2093,2042,2047,2117,2041,2080,1198
1554,1713856556863554150,2030,2063,2042,1998,2032,2024,1192
1555,1713856556873560563,2080,2044,2055,2077,2054,2093,1197
1556,1713856556883548710,2041,2064,2048,2017,2028,2014,1195
1557,1713856556893553448,2081,2040,2059,2100,2064,2078,1195
1558,1713856556903550477,2030,2067,2052,2006,2045,2018,1193
1559,1713856556913553791,2082,2044,2075,2106,2061,2072,1195
1560,1713856556923551051,2040,2056,2045,2014,2040,2024,1195
1561,1713856556933551909,2082,2049,2056,2120,2072,2089,1198
1562,1713856556943549650,2038,2064,2047,2019,2046,2018,1193
1563,1713856556953549706,2080,2040,2064,2100,2096,2082,1197
1564,1713856556963548028,2032,2067,2045,2013,2042,2026,1193
1565,1713856556973554630,2085,2046,2062,2105,2078,2090,1197
1566,1713856556983548792,2036,2050,2007,2003,2040,2002,1193
1567,1713856556993571484,2088,2041,2075,2121,2067,2092,1195
1568,1713856557003560485,2035,2061,2045,2005,2070,2008,1194
1569,1713856557013548416,2081,2044,2068,2120,2058,2079,1195
1570,1713856557023548956,2028,2060,2031,2002,2040,2024,1193
1571,1713856557033552295,2091,2076,2162,2112,2072,2095,1196
1572,1713856557043549588,2021,2058,2040,1991,2045,2022,1192
1573,1713856557053551543,2088,2033,2046,2097,2053,2087,1194
1574,1713856557063550169,2028,2078,2082,2024,2077,2043,1192
1575,1713856557073553598,2073,2036,2061,2101,2058,2095,1195
1576,1713856557083560274,2024,2062,2044,2001,2040,2017,1192
1577,1713856557093550460,2074,2042,2062,2116,2069,2092,1197
1578,1713856557103549107,2020,2062,2052,2008,2064,2014,1192
1579,1713856557113551894,2092,2056,2070,2113,2072,2074,1196
1580,1713856557123548405,2032,2065,2041,2005,2043,2030,1193
1581,1713856557133553618,2078,2026,2002,2091,2058,2090,1199
1582,1713856557143548004,2040,2082,2061,2020,2041,2037,1192
1583,1713856557153553527,2077,2027,2038,2100,2064,2075,1198
1584,1713856557163548866,2032,2065,2044,2002,2029,2012,1193
1585,1713856557173550239,2080,2035,2054,2122,2078,2081,1197
1586,1713856557183548114,2036,2068,2047,1998,2034,2010,1194
1587,1713856557193562299,2080,2034,2034,2116,2052,2090,1196
1588,1713856557203552766,2037,2104,2109,2012,2040,2022,1194
1589,1713856557213557508,2090,2036,2037,2101,2077,2083,1195
1590,1713856557223547242,2020,2062,2028,1971,2037,2020,1194
1591,1713856557233570028,2092,2071,2139,2120,2090,2096,1195
1592,1713856557243548966,2026,2057,2059,2040,2058,1992,1194
1593,1713856557253551542,2096,2038,2067,2113,2068,2090,1196
1594,1713856557263547713,2024,2066,2072,1999,2038,2001,1192
1595,1713856557273551312,2086,2049,2075,2089,2072,2130,1196
1596,1713856557283556946,2027,2065,2054,1989,1984,2008,1193
1597,1713856557293559953,2075,2033,2054,2096,2049,2088,1196
1598,1713856557303566950,2015,2056,2017,2008,2064,2025,1192
1599,1713856557313568113,2089,2048,2040,2120,2096,2107,1198
1600,1713856557323571140,2021,2067,2092,2022,2117,2044,1193
1601,1713856557333576764,2100,2041,2044,2117,2106,2104,1198
1602,1713856557343583882,2021,2056,2043,2101,2199,2031,1194
1603,1713856557353588202,2080,2037,2066,2100,2072,2081,1198
1604,1713856557363551773,2030,2066,2059,2026,1981,2012,1193
1605,1713856557373554830,2083,2044,2058,2081,1964,2070,1200
1606,1713856557383552505,2029,2065,2047,2005,2040,2016,1192
1607,1713856557393556014,2090,2043,2064,2081,2066,2095,1196
1608,1713856557403554249,2024,2069,2045,1986,2048,2024,1193
1609,1713856557413555182,2088,2037,2080,2114,2088,2084,1196
1610,1713856557423555993,2024,2065,2040,2010,2015,2028,1193
1611,1713856557433561035,2088,2034,2053,2105,2045,2072,1196
1612,1713856557443556244,2024,2084,2048,1990,2002,2025,1193
1613,1713856557453561356,2096,2062,2096,2120,2068,2090,1195
1614,1713856557463567020,2040,2060,2025,2017,2044,2032,1196
1615,1713856557473570649,2085,2040,2022,2085,2043,2063,1196
1616,1713856557483577075,2029,2087,2092,2037,2048,2052,1196
1617,1713856557493583220,2074,2040,2038,2093,2040,2074,1197
1618,1713856557503587129,2016,2056,2037,2013,2043,2023,1192
1619,1713856557513591420,2092,2060,2154,2102,2080,2104,1197
1620,1713856557523550139,2029,2059,2046,1993,2050,2010,1194
1621,1713856557533553587,2089,2048,2063,2094,2068,2093,1197
1622,1713856557543551342,2034,2059,1992,1982,1998,2019,1192
1623,1713856557553551281,2084,2039,2038,2092,2027,2052,1195
1624,1713856557563548354,2025,2090,2097,2010,2014,2034,1192
1625,1713856557573551261,2088,2032,2040,2076,2072,2093,1196
1626,1713856557583549607,2031,2064,2042,2018,2038,2014,1195
1627,1713856557593550640,2073,2033,2047,2118,2068,2079,1196
1628,1713856557603551552,2020,2082,2056,2033,2053,2028,1193
1629,1713856557613550259,2088,2032,2019,2069,2082,2085,1195
1630,1713856557623548685,2026,2065,2035,2004,1992,2009,1193
1631,1713856557633553055,2064,2029,2020,2067,2059,2084,1196
1632,1713856557643561185,2011,2065,2038,2011,2034,2010,1193
1633,1713856557653548524,2097,2048,2047,2107,2091,2088,1197
1634,1713856557663549978,2039,2058,2019,2014,2045,2024,1193
1635,1713856557673550650,2074,2030,2074,2080,2060,2084,1197
1636,1713856557683564153,2009,2046,2007,1982,2008,2012,1193
1637,1713856557693554680,2078,2043,2064,2104,2052,2088,1195
1638,1713856557703548916,2010,2065,2074,2012,2062,2047,1195
1639,1713856557713562439,2081,2043,2048,2073,2083,2105,1197
1640,1713856557723559100,2018,2059,2047,1994,2034,2024,1193
1641,1713856557733548935,2080,2045,2058,2084,2044,2088,1196
1642,1713856557743549978,2017,2062,2060,1980,2024,2003,1193
1643,1713856557753551913,2089,2042,2056,2108,2076,2077,1196
1644,1713856557763548504,2011,2051,2037,1988,2040,2018,1194
1645,1713856557773551011,2082,2016,2002,2088,2064,2080,1197
1646,1713856557783550098,2038,2116,2224,2012,2059,2022,1194
1647,1713856557793552564,2092,2041,2044,2116,2037,2075,1194
1648,1713856557803550720,2020,2060,2046,2009,2046,2005,1194
1649,1713856557813551763,2094,2072,2161,2112,2081,2081,1194
1650,1713856557823550550,2021,2056,2039,1987,2043,2019,1194
1651,1713856557833549297,2086,2037,2025,2110,2074,2082,1197
1652,1713856557843552044,2034,2093,2093,2008,2049,2040,1195
1653,1713856557853559171,2077,2041,2056,2091,2055,2072,1196
1654,1713856557863547633,2004,2049,2015,1988,2016,2009,1192
1655,1713856557873552796,2100,2041,2006,2098,2105,2120,1193
1656,1713856557883550790,2020,2069,2054,1985,2031,2008,1192
1657,1713856557893551793,2100,2037,2045,2102,2083,2096,1197
1658,1713856557903550780,2036,2094,2120,2026,2058,2040,1193
1659,1713856557913553878,2075,1997,1946,2085,2078,2090,1198
1660,1713856557923550460,2013,2047,2045,2017,2032,2035,1195
1661,1713856557933555883,2090,2058,2120,2145,2051,2089,1198
1662,1713856557943548715,2024,2049,1998,2002,2036,2013,1195
1663,1713856557953549628,2102,2050,2048,2118,2102,2096,1194
1664,1713856557963552103,2024,2067,2033,1997,2047,2014,1195
1665,1713856557973550761,2084,2040,2046,2146,2076,2093,1198
1666,1713856557983549998,2017,2053,2041,1973,2034,2016,1193
1667,1713856557993552354,2088,2030,2033,2120,2068,2053,1198
1668,1713856558003551552,2026,2094,2120,2010,2025,2017,1195
1669,1713856558013570160,2077,2033,2054,2126,2064,2100,1195
1670,1713856558023549959,2016,2056,2031,1986,2040,2012,1193
1671,1713856558033551692,2097,2049,2093,2120,2066,2104,1195
1672,1713856558043549074,2027,2062,2026,1992,2035,2060,1195
1673,1713856558053549374,2100,2032,2015,2126,2097,2106,1195
1674,1713856558063555357,2020,2058,2052,2009,2047,2056,1196
1675,1713856558073560418,2085,2038,2050,2096,2064,2104,1196
1676,1713856558083548938,2030,2084,2100,1990,2008,1994,1193
1677,1713856558093549929,2105,2080,2133,2124,2036,2088,1196
1678,1713856558103550409,2012,2057,2034,1970,2015,2012,1193
1679,1713856558113551811,2097,2032,2051,2100,2065,2089,1199
1680,1713856558123580570,2022,2065,2053,2001,2026,2022,1192
1681,1713856558133567857,2090,2040,2056,2108,2067,2083,1195
1682,1713856558143552579,2015,2064,2053,2005,2021,2002,1195
1683,1713856558153559885,2084,2024,1977,2094,2065,2061,1197
1684,1713856558163548275,2036,2090,2116,2044,2072,2028,1196
1685,1713856558173554449,2088,2037,2021,2099,2081,2085,1197
1686,1713856558183550007,2024,2061,2034,2020,2026,2028,1193
1687,1713856558193552602,2093,2056,2100,2106,2077,2083,1196
1688,1713856558203548601,2021,2040,2004,2008,2033,2026,1194
1689,1713856558213549612,2091,2036,2062,2088,2078,2121,1196
1690,1713856558223548718,2015,2040,2004,2001,2029,2014,1193
1691,1713856558233572033,2093,2049,2047,2113,2076,2078,1197
1692,1713856558243550120,2026,2064,2052,2009,2026,2030,1193
1693,1713856558253553747,2083,2031,2045,2093,2056,2031,1193
1694,1713856558263549886,2021,2066,2044,1994,2019,1997,1194
1695,1713856558273550145,2082,2033,2049,2089,2081,2090,1196
1696,1713856558283556128,2017,2056,2037,2005,2025,2005,1193
1697,1713856558293561389,2097,2040,2058,2116,2080,2080,1196
1698,1713856558303549790,1994,2028,1966,1998,2020,1989,1192
1699,1713856558313551573,2106,2126,2161,2147,2096,2082,1196
1700,1713856558323554368,2029,2048,2008,1987,1992,2010,1192
1701,1713856558333569263,2096,2045,2056,2108,2093,2082,1197
1702,1713856558343552561,2033,2072,2032,2026,2039,2012,1198
1703,1713856558353552910,2088,2042,2074,2119,2094,2108,1197
1704,1713856558363553350,2026,2071,2046,2008,2032,2031,1194
1705,1713856558373576385,2112,2053,2068,2084,2081,2123,1197
1706,1713856558383547363,2002,2068,2075,1997,2033,2008,1192
1707,1713856558393553978,2098,2056,2069,2130,2084,2138,1196
1708,1713856558403550738,2030,2064,2014,1989,1989,2012,1195
1709,1713856558413552952,2098,2038,2052,2116,2037,2108,1195
1710,1713856558423548310,2013,2065,2047,2000,2040,2030,1194
1711,1713856558433551406,2100,2041,2064,2144,2092,2085,1195
1712,1713856558443548778,2007,2065,2047,1972,2036,2021,1193
1713,1713856558453551744,2080,2042,2056,2079,2067,2098,1195
1714,1713856558463551372,2012,2067,2051,2006,2076,2031,1195
1715,1713856558473564261,2090,2036,2031,2094,2073,2080,1197
1716,1713856558483549123,2028,2059,2001,1994,2008,1998,1194
1717,1713856558493554085,2097,2041,2047,2114,2096,2084,1195
1718,1713856558503556369,2020,2069,2034,1995,2020,2011,1194
1719,1713856558513561349,2094,2042,2054,2105,2089,2162,1195
1720,1713856558523549850,2032,2056,2008,1984,2043,2046,1194
1721,1713856558533553056,2090,2034,2001,2105,2088,2078,1197
1722,1713856558543548944,2020,2036,1960,1978,2027,2009,1193
1723,1713856558553551721,2081,2036,2052,2098,2025,2061,1195
1724,1713856558563548922,2060,2105,2197,2056,2040,2017,1194
1725,1713856558573561241,2072,2038,2049,2109,2041,2072,1197
1726,1713856558583559395,2013,2066,2041,2009,1996,2002,1195
1727,1713856558593559624,2072,2034,2033,2096,2028,2059,1197
1728,1713856558603550279,2020,2072,2045,2012,2047,1958,1193
1729,1713856558613549908,2082,2026,2026,2095,2067,2056,1196
1730,1713856558623549385,2019,2058,2021,2000,2068,2048,1194
1731,1713856558633551870,2105,2060,2121,2107,2072,2107,1196
1732,1713856558643553542,1972,1996,1892,1956,2001,1988,1192
1733,1713856558653550203,2080,2033,1975,2056,2046,2092,1197
1734,1713856558663547454,2020,2041,2015,2026,2017,2005,1192
1735,1713856558673551824,2100,2056,2069,2100,2073,2084,1196
1736,1713856558683549207,2025,2069,2046,2014,2040,2002,1193
1737,1713856558693554528,2081,2034,2057,2100,2076,2066,1197
1738,1713856558703550948,2018,2052,2075,2008,2017,2001,1192
1739,1713856558713550685,2072,2020,2018,2106,2090,2084,1199
1740,1713856558723556769,2009,2051,2020,1996,2028,2013,1195
1741,1713856558733561659,2097,2080,2170,2122,2057,2083,1198
1742,1713856558743550391,2020,2052,2009,1979,2030,2014,1194
1743,1713856558753551192,2104,2040,2046,2110,2082,2062,1200
1744,1713856558763550548,2029,2100,2104,2025,2047,2009,1194
1745,1713856558773553434,2098,2054,2061,2100,2062,2072,1197
1746,1713856558783548390,2025,2068,2064,2010,2036,2025,1192
1747,1713856558793552108,2096,2050,2049,2109,2069,2088,1198
1748,1713856558803553039,2019,2098,2112,2024,2060,2040,1193
1749,1713856558813558782,2083,2021,2014,2100,2079,2101,1195
1750,1713856558823549558,2011,2043,1965,2013,2039,1987,1192
1751,1713856558833550348,2082,2036,2062,2112,2076,2084,1195
1752,1713856558843546096,2010,2051,1995,2010,2036,2004,1197
1753,1713856558853552661,2103,2055,2096,2092,2083,2094,1197
1754,1713856558863547377,2024,2066,2049,1976,2046,2025,1192
1755,1713856558873550714,2090,2041,2090,2108,2060,2068,1196
1756,1713856558883552818,2036,2061,2076,2008,2046,2025,1192
1757,1713856558893553588,2076,2037,2031,2059,2088,2097,1195
1758,1713856558903556764,2029,2062,2047,1999,2027,2018,1194
1759,1713856558913567228,2100,2044,2099,2118,2106,2085,1197
1760,1713856558923549264,2023,2053,2053,2020,2028,2011,1193
1761,1713856558933558555,2085,2040,2072,2104,2076,2111,1198
1762,1713856558943557701,2021,2061,2074,2012,2058,2044,1194
1763,1713856558953562221,2086,2040,2046,2110,2078,2091,1195
1764,1713856558963549719,2010,2061,2037,2008,2040,2011,1192
1765,1713856558973551582,2097,2052,2067,2120,2069,2088,1196
1766,1713856558983550047,2013,2049,2014,1993,2020,2006,1192
1767,1713856558993552331,2072,2056,2083,2137,2069,2149,1196
1768,1713856559003549583,2008,2047,2017,2003,2033,2008,1193
1769,1713856559013549275,2098,2044,2051,2095,2077,2090,1194
1770,1713856559023554611,2011,2068,2046,2026,2035,2021,1195
1771,1713856559033559054,2083,2023,2072,2122,2064,2080,1196
1772,1713856559043548209,2024,2086,2144,2032,2021,2016,1193
1773,1713856559053550156,2085,2035,2028,2104,2064,2085,1197
1774,1713856559063548393,2014,2063,2045,1987,2021,2002,1192
1775,1713856559073551302,2085,2034,2049,2098,2074,2086,1199
1776,1713856559083549711,2024,2064,2018,2003,2036,2012,1194
1777,1713856559093550685,2086,2026,2032,2113,2062,2076,1196
1778,1713856559103551910,2024,2052,2013,1999,2040,2005,1194
1779,1713856559113549256,2094,2033,2012,2086,2068,2092,1197
1780,1713856559123548867,2020,2068,2088,1996,2031,1999,1196
1781,1713856559133551364,2081,2027,2018,2064,2072,2094,1199
1782,1713856559143549622,2006,2052,2024,1994,2033,2015,1193
1783,1713856559153549655,2092,2049,2038,2122,2093,2121,1196
1784,1713856559163554769,2015,2064,2005,1984,2012,1998,1194
1785,1713856559173560665,2090,2043,2072,2119,2112,2093,1197
1786,1713856559183548548,2008,2059,2034,1969,2014,1993,1193
1787,1713856559193548820,2092,2036,2052,2100,2066,2096,1196
1788,1713856559203555819,2021,2061,2053,1984,1996,2024,1195
1789,1713856559213547732,2092,2045,2115,2117,2071,2105,1194
1790,1713856559223548426,2018,2057,2019,1960,2042,2008,1193
1791,1713856559233548678,2096,2057,2140,2131,2098,2104,1198
1792,1713856559243551597,2024,2061,2048,2011,2034,1989,1193
1793,1713856559253556902,2075,2009,1988,2077,2061,2067,1196
1794,1713856559263547070,2013,2042,2025,2019,2040,2004,1193
1795,1713856559273547824,2079,2029,2060,2097,2076,2080,1194
1796,1713856559283550543,2019,2064,2046,2002,2043,2005,1193
1797,1713856559293558363,2084,2044,2066,2129,2077,2101,1197
1798,1713856559303547639,2019,2068,2047,2008,2013,2016,1193
1799,1713856559313548433,2078,2042,2061,2120,2064,2096,1198
1800,1713856559323549037,2022,2068,2044,1982,2033,2018,1193
1801,1713856559333547866,2082,2044,2065,2120,2079,2101,1197
1802,1713856559343549953,2029,2071,2048,1997,2002,2015,1194
1803,1713856559353549133,2088,2043,2068,2103,2076,2093,1197
1804,1713856559363552914,2026,2064,2040,2001,2010,1994,1192
1805,1713856559373561647,2092,2058,2107,2118,2088,2104,1195
1806,1713856559383564656,2017,2057,2033,1979,2022,1996,1192
1807,1713856559393572568,2098,2035,2062,2095,2082,2120,1196
1808,1713856559403568911,2015,2061,2028,1983,2008,1998,1192
1809,1713856559413574586,2090,2050,2092,2124,2062,2094,1195
1810,1713856559423580462,2032,2081,2049,1989,2028,2003,1194
1811,1713856559433582830,2092,2026,2035,2106,2043,2090,1196
1812,1713856559443556499,2024,2056,2013,2011,2031,1993,1193
1813,1713856559453555879,2097,2070,2134,2116,2101,2128,1197
1814,1713856559463552383,2018,2054,2029,2009,2071,2013,1194
1815,1713856559473557788,2093,2040,2060,2129,2080,2097,1194
1816,1713856559483563233,2017,2069,2037,1991,2052,2010,1192
1817,1713856559493581839,2090,2049,2088,2116,2072,2061,1195
1818,1713856559503551278,2033,2068,2050,1989,2026,2014,1190
1819,1713856559513553696,2094,2034,2042,2106,2073,2104,1199
1820,1713856559523554600,2020,2064,2048,1994,2022,1992,1194
1821,1713856559533554662,2082,2025,2040,2108,2079,2078,1198
1822,1713856559543560358,2060,2115,2202,2021,2010,2007,1193
1823,1713856559553562184,2086,2017,2044,2121,2069,2090,1195
1824,1713856559563568311,2017,2058,2036,1989,2008,1998,1192
1825,1713856559573572754,2094,2055,2084,2124,2076,2090,1197
1826,1713856559583575924,2026,2072,2048,1969,2028,2008,1194
1827,1713856559593581308,2094,2044,2074,2127,2071,2094,1197
1828,1713856559603613168,2024,2063,2041,1993,2019,2005,1194
1829,1713856559613594995,2080,2039,2064,2120,2072,2094,1196
1830,1713856559623602084,2018,2068,2054,1978,2042,2028,1192
1831,1713856559633607109,2094,2054,2120,2152,2085,2101,1198
1832,1713856559643551126,2033,2067,2017,2003,2033,1988,1194
1833,1713856559653555999,2088,2026,2042,2134,2080,2097,1196
1834,1713856559663548323,2037,2072,2053,2002,2029,2004,1192
1835,1713856559673553888,2089,2035,2032,2107,2070,2091,1194
1836,1713856559683552587,2025,2065,2031,2008,2042,1984,1192
1837,1713856559693556499,2104,2040,2028,2130,2079,2075,1195
1838,1713856559703582964,2026,2077,2034,1986,2048,2020,1193
1839,1713856559713583588,2077,2035,2052,2128,2085,2105,1196
1840,1713856559723548846,2015,2045,2056,1982,2026,2017,1192
1841,1713856559733551704,2088,2040,2038,2124,2089,2099,1197
1842,1713856559743552178,2016,2058,2012,2003,2029,2013,1194
1843,1713856559753553794,2099,2042,2025,2168,2144,2113,1196
1844,1713856559763570306,2022,2072,2097,2020,2044,1948,1194
1845,1713856559773556524,2092,2038,2053,2112,2082,2108,1196
1846,1713856559783578259,2024,2065,2025,2003,2043,2011,1193
1847,1713856559793554092,2080,2040,2076,2094,2088,2088,1200
1848,1713856559803551548,2023,2069,2082,1996,2039,2009,1194
1849,1713856559813565414,2091,2051,2056,2121,2106,2104,1194
1850,1713856559823548435,2026,2055,2005,1982,2004,2001,1193
1851,1713856559833552306,2084,2040,2069,2137,2066,2002,1192
1852,1713856559843560929,2013,2064,2056,2011,2067,2029,1193
1853,1713856559853564329,2101,2037,2065,2118,2071,2084,1195
1854,1713856559863550036,2028,2077,2060,2015,2058,2007,1194
1855,1713856559873553748,2092,2036,2045,2120,2086,2118,1197
1856,1713856559883548988,2010,2064,2015,1986,2050,2010,1192
1857,1713856559893552729,2082,2032,2045,2119,2051,2149,1198
1858,1713856559903552250,2026,2089,2137,2006,2018,2016,1193
1859,1713856559913555640,2097,2039,2033,2134,2084,2105,1198
1860,1713856559923557146,2021,2072,2026,2004,2041,2004,1193
1861,1713856559933560727,2085,2029,2008,2124,2076,2088,1198
1862,1713856559943551777,2019,2055,2012,1999,2026,2017,1192
1863,1713856559953555447,2090,2033,2069,2128,2073,2097,1197
1864,1713856559963551460,2012,2064,2009,1983,2024,2010,1195
1865,1713856559973551171,2089,2044,2071,2133,2077,2090,1197
1866,1713856559983549810,2012,2059,2017,2012,2028,2004,1192
1867,1713856559993550444,2092,2040,1996,2112,2067,2089,1196
1868,1713856560003550766,2013,2074,2037,1951,2035,2010,1192
1869,1713856560013550787,2104,2034,2056,2118,2088,2095,1194
1870,1713856560023554346,2020,2078,2083,1988,2044,1987,1194
1871,1713856560033550978,2081,2039,2056,2137,2092,2114,1195
1872,1713856560043551248,2021,2073,2042,1985,2028,2008,1191
1873,1713856560053550877,2093,2038,2059,2130,2074,2096,1195
1874,1713856560063555358,2009,2077,2052,1984,2020,2014,1191
1875,1713856560073560871,2099,2032,2068,2120,2079,2136,1197
1876,1713856560083547699,2014,2065,2040,2001,2022,2016,1192
1877,1713856560093552851,2082,2028,2060,2124,2069,2085,1197
1878,1713856560103552340,2014,2087,2106,1979,2031,2010,1194
1879,1713856560113552651,2093,2030,2045,2119,2068,2094,1195
1880,1713856560123552130,2022,2068,2040,1987,2052,2030,1194
1881,1713856560133553483,2084,2040,2064,2120,2076,2097,1197
1882,1713856560143556109,2019,2073,2039,1977,2025,1995,1193
1883,1713856560153555948,2092,2053,2103,2115,2089,2085,1196
1884,1713856560163563346,2013,2072,2027,1986,2023,2014,1192
1885,1713856560173566915,2090,2038,2060,2127,2114,2083,1197
1886,1713856560183550686,2009,2061,2042,1985,2014,2000,1192
1887,1713856560193559928,2095,2044,2077,2148,2094,2099,1198
1888,1713856560203550686,2016,2074,2024,2003,2015,2002,1193
1889,1713856560213552741,2092,2043,2084,2116,2076,2129,1194
1890,1713856560223553492,2017,2079,2040,1970,2018,2024,1194
1891,1713856560233550785,2090,2037,2068,2105,2072,2079,1195
1892,1713856560243550264,2013,2078,2079,1988,2027,2015,1194
1893,1713856560253550705,2086,2030,2047,2118,2077,2085,1195
1894,1713856560263549873,2020,2078,2099,1985,2028,2020,1191
1895,1713856560273557932,2090,2037,2069,2136,2067,2108,1196
1896,1713856560283553011,2013,2072,2040,1989,2030,2016,1194
1897,1713856560293554725,2096,2053,2038,2136,2109,2092,1194
1898,1713856560303560970,2011,2064,2039,1988,2036,2011,1194
1899,1713856560313566433,2089,2036,2070,2112,2100,2106,1195
1900,1713856560323550755,2015,2060,2019,1978,2018,2013,1192
1901,1713856560333553471,2097,2042,2058,2124,2072,2092,1196
1902,1713856560343552870,2021,2056,2012,2002,2018,2005,1193
1903,1713856560353580436,2096,2031,2040,2108,2078,2073,1197
1904,1713856560363551777,2012,2078,2080,1984,2024,2027,1193
1905,1713856560373554814,2089,2033,2057,2121,2062,2092,1197
1906,1713856560383554303,2018,2076,2051,1992,2015,2001,1195
1907,1713856560393560839,2088,2041,2101,2124,2085,2072,1197
1908,1713856560403551576,2022,2065,2050,2005,2061,2001,1193
1909,1713856560413549040,2098,2044,2032,2120,2088,2085,1194
1910,1713856560423551285,2026,2072,2056,1972,2027,1995,1192
1911,1713856560433548218,2100,2044,2100,2116,2085,2090,1196
1912,1713856560443547206,2029,2066,2034,1964,2030,2008,1195
1913,1713856560453548579,2104,2040,2080,2117,2078,2089,1195
1914,1713856560463550022,2024,2096,2059,2000,2029,2012,1192
1915,1713856560473551475,2097,2047,2106,2122,2096,2082,1197
1916,1713856560483549270,2028,2060,2058,1984,2020,2024,1194
1917,1713856560493548398,2086,2030,2058,2127,2094,2075,1196
1918,1713856560503551636,2022,2061,2041,1995,2033,2020,1191
1919,1713856560513552417,2098,2030,2056,2120,2044,2076,1197
1920,1713856560523556447,2036,2089,2049,1985,2029,2010,1193
1921,1713856560533559906,2094,2026,2061,2127,2093,2097,1198
1922,1713856560543546553,2024,2068,2051,1974,2032,1985,1196
1923,1713856560553550061,2098,2033,2037,2114,2049,2129,1196
1924,1713856560563550603,2028,2076,2011,1998,2049,2024,1192
1925,1713856560573552327,2092,2026,2044,2101,2069,2081,1195
1926,1713856560583550582,2020,2088,2040,1972,2025,2016,1193
1927,1713856560593549130,2102,2035,2089,2136,2115,2091,1198
1928,1713856560603554221,2021,2088,2040,1993,2031,1988,1193
1929,1713856560613555795,2094,2022,2060,2123,2052,2084,1196
1930,1713856560623570330,2019,2088,2050,1964,2003,2041,1194
1931,1713856560633564105,2110,2052,2124,2109,2073,2105,1196
1932,1713856560643546763,2027,2103,2033,1986,2029,2018,1196
1933,1713856560653547865,2096,2021,2104,2104,2066,2092,1197
1934,1713856560663549910,2023,2088,2069,1996,2061,2033,1196
1935,1713856560673549500,2098,2034,2108,2112,2061,2070,1196
1936,1713856560683569507,2021,2107,2074,1977,2020,2011,1194
1937,1713856560693585646,2082,2009,1997,2126,2090,2083,1196
1938,1713856560703541520,2020,2097,2058,2015,2091,2047,1194
1939,1713856560713542974,2082,2015,2052,2116,2061,2084,1198
1940,1713856560723543905,2026,2095,2060,1989,2041,2028,1195
1941,1713856560733543213,2094,2008,2029,2109,2064,2084,1197
1942,1713856560743545750,2020,2097,2008,1960,2024,2021,1196
1943,1713856560753551383,2090,2022,2024,2108,2066,2081,1198
1944,1713856560763539655,2031,2100,2056,2004,2022,2002,1193
1945,1713856560773543284,2096,2016,2056,2106,2061,2081,1196
1946,1713856560783546652,2012,2074,1989,2018,2047,2021,1192
1947,1713856560793549107,2088,2014,2048,2122,2082,2085,1195
1948,1713856560803544918,2022,2113,2040,1989,2028,2026,1193
1949,1713856560813547434,2104,2028,2041,2117,2077,2089,1192
1950,1713856560823549458,2033,2092,2057,1990,2020,2027,1193
1951,1713856560833548345,2093,2035,2072,2096,2061,2081,1194
1952,1713856560843550992,2003,2074,2038,1974,2023,2017,1194
1953,1713856560853555723,2084,2018,2012,2108,2071,2093,1195
1954,1713856560863546942,2024,2084,2036,2004,2056,2012,1194
1955,1713856560873548906,2103,2024,2047,2126,2052,2073,1197
1956,1713856560883545628,1998,2069,2027,1978,2028,1984,1192
1957,1713856560893548886,2113,2093,2270,2131,2083,2121,1195
1958,1713856560903544556,2009,2062,2013,1954,2025,2021,1192
1959,1713856560913547112,2089,2026,2056,2109,2066,2080,1197
1960,1713856560923543814,2022,2086,2049,1996,2017,2021,1195
1961,1713856560933548254,2096,2024,2056,2113,2102,2058,1198
1962,1713856560943547643,2008,2060,1995,1994,2040,2017,1194
1963,1713856560953546982,2093,2032,2052,2118,2110,2129,1198
1964,1713856560963546039,2012,2102,2102,1993,2051,2029,1193
1965,1713856560973548434,2081,2026,2056,2106,2066,2039,1193
1966,1713856560983551512,2005,2057,2039,1969,2032,2024,1195
1967,1713856560993554810,2092,2043,2100,2124,2063,2081,1196
1968,1713856561003541337,2026,2059,1995,2002,2039,2080,1198
1969,1713856561013544177,2090,2027,2008,2123,2077,2099,1194
1970,1713856561023543578,2015,2099,2062,2006,2064,2021,1194
1971,1713856561033545636,2105,2043,2034,2112,2066,2093,1196
1972,1713856561043542721,2019,2050,2005,1990,2045,1998,1192
1973,1713856561053545039,2092,2037,2056,2108,2072,2069,1197
1974,1713856561063550875,1996,2068,2063,1999,2039,1995,1194
1975,1713856561073545775,2100,2048,2072,2093,2072,2073,1196
1976,1713856561083553075,1995,2046,2021,1996,2034,2016,1194
1977,1713856561093556024,2095,2045,2077,2113,2077,2136,1195
1978,1713856561103542864,2008,2073,2042,2000,2018,2013,1192
1979,1713856561113544321,2096,2029,2086,2106,2080,2080,1195
1980,1713856561123544473,2002,2053,2027,1995,2024,2002,1196
1981,1713856561133546290,2090,2049,2067,2121,2081,2090,1198
1982,1713856561143545029,2025,2061,2090,2006,2042,2009,1194
1983,1713856561153544109,2092,2059,2050,2113,2073,2092,1197
1984,1713856561163542809,2035,2052,2052,1997,2057,2052,1196
1985,1713856561173544765,2089,2048,2069,2129,2132,2091,1196
1986,1713856561183543846,2022,2050,2066,1992,2028,2013,1193
1987,1713856561193545532,2100,2063,2060,2110,2059,2074,1197
1988,1713856561203543740,2012,2034,2025,1997,2035,2021,1196
1989,1713856561213545487,2088,2061,2041,2100,2078,2090,1194
1990,1713856561223551934,2001,2033,2029,1957,2046,2028,1194
1991,1713856561233556527,2088,2081,2096,2114,2078,2080,1198
1992,1713856561243543760,2022,2033,1983,2012,2032,2018,1193
1993,1713856561253545115,2094,2080,2051,2100,2066,2074,1196
1994,1713856561263542631,2013,2040,2029,2008,2036,2040,1193
1995,1713856561273542674,2090,2074,2052,2118,2066,2083,1194
1996,1713856561283543899,2025,2046,2047,2001,2043,2012,1194
1997,1713856561293543360,2101,2060,2050,2092,2074,2090,1197
1998,1713856561303542901,2016,2043,2029,1993,2035,2010,1193
1999,1713856561313546492,2104,2091,2037,2109,2035,2080,1197
2000,1713856561323555276,2016,2013,2072,1998,2020,2043,1195
2001,1713856561333543580,2084,2026,2058,2085,2098,2057,1196
2002,1713856561343541226,2011,2037,2040,2002,2043,2034,1195
2003,1713856561353544256,2089,2036,2041,2113,2066,2081,1197
2004,1713856561363542985,2018,2071,2018,2000,2029,2018,1194
2005,1713856561373545995,2087,2050,2073,2097,2066,2094,1195
2006,1713856561383543431,2022,2052,2049,1988,2026,2013,1193
2007,1713856561393546219,2086,2044,2042,2116,2078,2083,1197
2008,1713856561403541682,2014,2041,2009,1957,2021,2016,1193
2009,1713856561413543227,2088,2039,2042,2096,2085,2117,1194
2010,1713856561423542227,2012,2059,2048,1993,2033,2036,1192
2011,1713856561433544395,2092,2038,2050,2121,2061,2081,1195
2012,1713856561443543184,2020,2058,2079,2004,2022,2018,1194
2013,1713856561453547126,2104,2060,2115,2102,2068,2082,1196
2014,1713856561463553193,2018,2064,2010,2009,2069,2031,1193
2015,1713856561473540534,2094,2044,2072,2116,2068,2097,1195
2016,1713856561483543705,2018,2066,2049,1994,2038,2011,1194
2017,1713856561493545962,2072,2050,2044,2101,2044,2082,1198
2018,1713856561503543669,2025,2069,2073,1987,2038,2027,1194
2019,1713856561513541857,2097,2034,2042,2112,2066,2081,1198
2020,1713856561523541528,2018,2046,2043,1982,2032,2031,1194
2021,1713856561533549199,2086,2040,2048,2104,2059,2088,1197
2022,1713856561543543598,2019,2066,2066,1986,2000,2010,1192
2023,1713856561553548031,2101,2044,2060,2105,2075,2080,1195
2024,1713856561563553727,2010,2062,2029,2006,2031,2032,1193
2025,1713856561573544748,2108,2051,2040,2108,2088,2077,1195
2026,1713856561583544219,2016,2052,2049,1980,2044,2019,1192
2027,1713856561593545825,2088,2052,2117,2102,2066,2092,1197
2028,1713856561603555650,2008,2058,2030,1997,2040,2025,1194
2029,1713856561613557448,2084,2039,2037,2097,2074,2090,1194
2030,1713856561623564717,2025,2062,2060,1999,2038,2016,1194
2031,1713856561633565761,2085,2043,2055,2105,2064,2067,1197
2032,1713856561643572330,2024,2065,2045,1990,2030,2024,1193
2033,1713856561653592340,2088,2044,2060,2109,2064,2081,1196
2034,1713856561663578188,2015,2073,2041,2019,2041,2020,1193
2035,1713856561673584696,2090,2060,2081,2101,2070,2072,1196
2036,1713856561683593820,2021,2060,2045,1990,2036,2017,1194
2037,1713856561693558819,2088,2025,2020,2092,2077,2140,1198
2038,1713856561703558170,2015,2040,1967,1984,2030,2020,1194
2039,1713856561713564136,2090,2037,2044,2108,2065,2088,1198
2040,1713856561723577701,2025,2072,2053,1999,2029,2010,1195
2041,1713856561733558036,2098,2064,2174,2106,2079,2077,1199
2042,1713856561743554530,2030,2053,2027,1978,2036,2016,1193
2043,1713856561753556968,2107,2080,2156,2128,2088,2118,1198
2044,1713856561763554424,2024,2070,2048,1999,2039,2025,1192
2045,1713856561773555089,2084,2044,2056,2106,2070,2077,1197
2046,1713856561783560634,2025,2058,2027,1992,2036,2021,1194
2047,1713856561793562571,2093,2078,2130,2108,2053,2084,1197
2048,1713856561803567736,2008,2046,2025,1995,2038,2009,1193
2049,1713856561813593910,2093,2045,2059,2093,2033,2041,1194
2050,1713856561823575068,2024,2061,2050,1977,2057,2011,1194
2051,1713856561833583570,2092,2042,2056,2115,2057,2085,1196
2052,1713856561843586178,2024,2068,2093,2005,2036,2015,1194
2053,1713856561853590191,2088,2044,2056,2106,2064,2069,1193
2054,1713856561863605961,2027,2069,2045,2000,2034,2014,1194
2055,1713856561873550630,2069,2037,2058,2104,2094,2100,1195
2056,1713856561883551987,2011,2060,2045,2025,2074,1997,1193
2057,1713856561893554043,2080,2046,2065,2103,2035,2079,1199
2058,1713856561903555209,2036,2071,2051,2022,2024,2014,1193
2059,1713856561913555291,2088,2038,2054,2101,2044,2074,1198
2060,1713856561923562160,2015,2065,2050,1993,2022,2015,1196
2061,1713856561933552710,2097,2045,2064,2091,2055,2079,1198
2062,1713856561943558867,2018,2064,2049,2019,2061,2071,1195
2063,1713856561953557266,2088,2044,2060,2120,2087,2084,1197
2064,1713856561963552637,2015,2063,2043,2005,2037,2021,1194
2065,1713856561973558633,2094,2048,2092,2112,2032,2068,1196
2066,1713856561983546697,2007,2066,2050,1984,2040,2009,1192
2067,1713856561993553836,2080,2045,2064,2098,2066,2075,1196
2068,1713856562003550089,2026,2060,2043,2000,2047,2015,1193
2069,1713856562013553987,2089,2044,2059,2092,2045,2055,1195
2070,1713856562023561303,2020,2064,2041,1994,2032,2024,1192
2071,1713856562033559348,2084,2053,2087,2100,2060,2076,1196
2072,1713856562043549072,2012,2068,2072,1994,2037,2011,1193
2073,1713856562053551326,2072,2040,2038,2109,2072,2073,1196
2074,1713856562063549291,2015,2056,2028,1954,2013,2028,1193
2075,1713856562073567282,2096,2047,2061,2089,2046,2068,1195
2076,1713856562083549690,2020,2065,2056,1990,2041,2036,1192
2077,1713856562093551323,2092,2047,2079,2107,2059,2073,1197
2078,1713856562103551662,2017,2057,2047,1999,2045,2019,1194
2079,1713856562113561254,2088,2039,2056,2109,2088,2075,1197
2080,1713856562123554577,2018,2065,2046,1990,2040,2018,1192
2081,1713856562133554155,2088,2045,2061,2105,2050,2073,1196
2082,1713856562143550816,2031,2064,2042,2019,2027,2014,1193
2083,1713856562153554615,2090,2049,2072,2098,2062,2094,1195
2084,1713856562163551205,2026,2068,2045,2012,2051,2032,1194
2085,1713856562173567362,2082,2051,2065,2110,2045,2074,1196
2086,1713856562183559432,2030,2064,2044,2012,2038,2021,1194
2087,1713856562193564474,2093,2044,2057,2098,2073,2090,1196
2088,1713856562203549176,2022,2064,2049,2016,2060,2034,1195
2089,1713856562213552293,2077,2037,2057,2107,2098,2093,1194
2090,1713856562223550938,2021,2053,2028,2005,2057,2021,1194
2091,1713856562233553944,2086,2054,2072,2118,2066,2074,1195
2092,1713856562243556810,2029,2062,2045,2004,2044,2028,1193
2093,1713856562253552820,2095,2047,2063,2092,2054,2112,1195
2094,1713856562263553070,2028,2072,2049,2018,2032,2015,1195
2095,1713856562273566070,2090,2040,2064,2098,2041,2085,1194
2096,1713856562283562820,2028,2059,2039,1985,2037,2024,1193
2097,1713856562293552525,2075,2045,2072,2088,2041,2077,1194
2098,1713856562313582213,2008,2059,2038,1988,2028,2003,1192
2099,1713856562323550327,2086,2037,2046,2093,2056,2086,1197
2100,1713856562333552471,2027,2062,2051,1996,2041,2022,1193
2101,1713856562343552299,2092,2056,2067,2106,2066,2076,1197
2102,1713856562353552819,2012,2062,2047,2010,2045,2037,1195
2103,1713856562363551666,2076,2051,2068,2089,2052,2074,1198
2104,1713856562373569798,2018,2060,2040,2005,2047,2026,1193
2105,1713856562383551363,2084,2044,2060,2130,2077,2094,1196
2106,1713856562393552083,2020,2066,2047,1992,2036,2004,1193
2107,1713856562403548233,2077,2044,2059,2098,2056,2076,1195
2108,1713856562413551059,2028,2066,2045,1997,2045,2056,1195
2109,1713856562423554937,2080,2047,2060,2094,2070,2069,1195
2110,1713856562433559578,2024,2060,2042,1998,2041,2015,1193
2111,1713856562443548811,2088,2052,2057,2106,2053,2075,1195
2112,1713856562453550894,2019,2063,2044,2008,2049,2018,1192
2113,1713856562463549069,2100,2042,2048,2128,2065,2084,1193
2114,1713856562473566129,2018,2062,2050,2018,2085,2035,1193
2115,1713856562483548957,2097,2045,2054,2101,2053,2081,1198
2116,1713856562493551162,2030,2059,2044,1989,2036,2020,1193
2117,1713856562503558939,2092,2043,2067,2100,2065,2081,1196
2118,1713856562513554306,1999,2056,2042,2004,2053,2012,1192
2119,1713856562523559257,2085,2040,2064,2099,2054,2080,1197
2120,1713856562533563436,2036,2064,2050,2000,2050,2024,1192
2121,1713856562543549793,2091,2047,2058,2090,2034,2060,1197
2122,1713856562553548449,2000,2053,2048,1994,2037,2016,1194
2123,1713856562563548047,2098,2053,2060,2100,2058,2082,1196
2124,1713856562573569857,1993,2060,2045,2010,2064,2024,1194
2125,1713856562583547654,2068,2037,2053,2096,2044,2064,1196
2126,1713856562593549998,1991,2063,2050,2000,2045,2022,1194
2127,1713856562603559279,2104,2040,2049,2128,2079,2114,1198
2128,1713856562613553806,2033,2067,2047,1996,2043,2021,1194
2129,1713856562623549905,2092,2045,2062,2081,2047,2081,1196
2130,1713856562633553312,2010,2078,2064,2000,2053,2025,1193
2131,1713856562643551046,2107,2049,2056,2084,2050,2072,1198
2132,1713856562653550975,2014,2061,2037,2000,2052,2044,1193
2133,1713856562663554181,2081,2040,2053,2084,2050,2080,1197
2134,1713856562673558481,2019,2063,2041,1981,2049,2027,1196
2135,1713856562683546591,2112,2050,2050,2110,2060,2073,1196
2136,1713856562693551411,2027,2066,2056,2008,2077,2044,1193
2137,1713856562703549686,2098,2039,2057,2101,2060,2056,1195
2138,1713856562713548242,1991,2068,2053,1997,2062,2024,1194
2139,1713856562723549494,2078,2036,2057,2105,2047,2068,1197
2140,1713856562733549764,2011,2057,2036,2002,2054,2031,1192
2141,1713856562743548570,2090,2056,2080,2093,2034,2069,1195
2142,1713856562753552327,2018,2063,2047,2005,2037,2032,1195
2143,1713856562763558551,2100,2049,2062,2116,2060,2080,1197
2144,1713856562773562650,2015,2065,2042,1985,2012,2024,1193
2145,1713856562783550370,2095,2044,2056,2117,2050,2076,1196
2146,1713856562793552424,2024,2060,2046,2019,2056,2025,1193
2147,1713856562803547902,2094,2048,2064,2101,2061,2085,1198
2148,1713856562813549805,2008,2058,2048,2006,2056,2012,1195
2149,1713856562823549303,2106,2047,2060,2099,2062,2072,1196
2150,1713856562833553372,2028,2062,2053,1992,2044,2025,1193
2151,1713856562843552449,2089,2052,2056,2092,2048,2081,1197
2152,1713856562853549661,1999,2064,2047,1998,2038,2022,1194
2153,1713856562863549129,2091,2042,2053,2104,2063,2076,1195
2154,1713856562873551613,2019,2059,2047,2010,2053,2034,1194
2155,1713856562883550640,2098,2042,2057,2107,2064,2097,1198
2156,1713856562893552544,2020,2055,2042,2009,2053,2026,1192
2157,1713856562903551801,2088,2044,2060,2108,2057,2088,1197
2158,1713856562913558406,2009,2066,2052,2024,2045,2041,1194
2159,1713856562923562164,2098,2044,2058,2085,2022,2068,1197
2160,1713856562933549392,2030,2066,2060,1995,2058,2032,1193
2161,1713856562943555877,2085,2049,2061,2123,2086,2073,1196
2162,1713856562953551014,2024,2060,2045,1994,2016,2005,1193
2163,1713856562963548357,2100,2055,2068,2092,2052,2074,1196
2164,1713856562973558781,2015,2076,2057,2018,2058,2020,1192
2165,1713856562983548766,2089,2044,2052,2098,2058,2069,1197
2166,1713856562993548674,2018,2065,2053,2008,2052,2016,1194
2167,1713856563003555827,2086,2046,2065,2102,2062,2100,1197
2168,1713856563013560458,2001,2057,2044,1998,2060,2044,1193
2169,1713856563023550294,2080,2046,2056,2079,2049,2074,1197
2170,1713856563033553401,2028,2060,2049,2026,2057,2022,1193
2171,1713856563043558232,2086,2053,2072,2100,2085,2085,1196
2172,1713856563053552017,2023,2056,2045,1985,2053,2033,1195
2173,1713856563063549190,2098,2043,2053,2078,2038,2069,1198
2174,1713856563073551415,2014,2061,2053,2001,2031,2012,1193
2175,1713856563083548779,2080,2046,2058,2074,2039,2065,1197
2176,1713856563093553520,2012,2067,2054,1993,2042,2020,1195
2177,1713856563103549370,2076,2046,2058,2110,2068,2094,1195
2178,1713856563113551344,2020,2075,2059,1992,2057,2030,1192
2179,1713856563123549590,2092,2047,2062,2102,2032,2080,1198
2180,1713856563133554862,2001,2058,2048,1992,1983,2046,1192
2181,1713856563143550001,2097,2060,2073,2074,2145,2081,1197
2182,1713856563153554302,2032,2063,2050,1988,2013,2034,1193
2183,1713856563163559193,2077,2035,2051,2101,2066,2070,1195
2184,1713856563173563603,2006,2068,2051,2027,2105,2014,1194
2185,1713856563183548247,2100,2053,2064,2123,2086,2058,1196
2186,1713856563193578869,2021,2069,2053,2000,2059,2021,1195
2187,1713856563203548276,2082,2044,2051,2143,2101,2074,1197
2188,1713856563213550672,2013,2060,2049,2003,2059,2029,1193
2189,1713856563223549168,2073,2049,2064,2128,2079,2093,1196
2190,1713856563233560023,2036,2062,2050,2004,2052,2037,1195
2191,1713856563243552566,2096,2052,2067,2133,2062,2078,1195
2192,1713856563253556184,1988,2052,2047,1998,2072,2025,1195
2193,1713856563263566187,2105,2052,2062,2148,2034,2060,1197
2194,1713856563273547643,2004,2060,2038,2003,1947,2043,1194
2195,1713856563283549097,2104,2040,2053,2169,2114,2106,1198
2196,1713856563293553407,1999,2065,2038,2002,2064,2014,1192
2197,1713856563303551612,2075,2037,2050,2112,2088,2083,1198
2198,1713856563313558909,2023,2061,2048,1991,2076,2008,1193
2199,1713856563323550028,2074,2039,2061,2074,2031,2067,1197
2200,1713856563333553787,2022,2052,2051,1992,2034,2016,1194
2201,1713856563343549547,2099,2040,2064,2104,2047,2070,1198
2202,1713856563353551020,2013,2056,2044,1982,2046,2018,1195
2203,1713856563363547882,2076,2040,2054,2094,2037,2104,1196
2204,1713856563373551370,2023,2056,2041,1994,2044,2034,1195
2205,1713856563383550368,2081,2047,2058,2082,2058,2074,1197
2206,1713856563393552061,2017,2053,2044,1991,2047,2029,1195
2207,1713856563403554226,2080,2046,2057,2093,2040,2085,1198
2208,1713856563413558446,2026,2067,2050,1993,2050,2021,1193
2209,1713856563423544874,2108,2065,2073,2106,2050,2071,1195
2210,1713856563433552251,2004,2045,2038,2000,2061,2017,1193
2211,1713856563443550036,2090,2051,2068,2101,2029,2064,1196
2212,1713856563453552441,2038,2068,2053,2004,2047,2025,1193
