seq,time,data[0],data[1],data[2],data[3],data[4],data[5],data[6]
201,1713856093360369063,2045,2040,2033,2065,2024,2050,1195
202,1713856093370354883,2064,2079,2056,2052,2060,2053,1198
203,1713856093380374765,2044,2051,2062,2069,2041,2050,1196
204,1713856093390356726,2058,2041,2049,2044,2070,2054,1196
205,1713856093400362638,2059,2078,2101,2077,2041,2051,1195
206,1713856093410354330,2052,2035,2020,2014,2077,2056,1195
207,1713856093420357477,2045,2038,2052,2062,2032,2050,1194
208,1713856093430355202,2048,2032,2016,2039,2075,2064,1196
209,1713856093440358148,2050,2045,2038,2069,2021,2041,1192
210,1713856093450357245,2061,2074,2102,2041,2077,2057,1195
211,1713856093460361033,2041,2044,2080,2064,2033,2050,1196
212,1713856093470353426,2058,2094,2186,2042,2075,2056,1196
213,1713856093480356713,2058,2033,2015,2073,2025,2046,1193
214,1713856093490356422,2049,2042,2042,2058,2068,2057,1197
215,1713856093500359508,2069,2073,2032,2072,2043,2057,1195
216,1713856093510362695,2049,2043,2036,2036,2062,2046,1196
217,1713856093520365851,2058,2049,2060,2028,2020,2051,1196
218,1713856093530367184,2068,2083,2111,2036,2061,2057,1196
219,1713856093540357092,2053,2060,2061,2066,2046,2050,1195
220,1713856093550357483,2056,2069,2081,2043,2077,2061,1193
221,1713856093560356431,2047,2076,2104,2065,2036,2049,1195
222,1713856093570356451,2065,2093,2108,2044,2072,2068,1196
223,1713856093580358795,2054,2062,2035,2061,2044,2053,1196
224,1713856093590356400,2066,2077,2045,2045,2074,2048,1195
225,1713856093600356249,2045,2040,2037,2056,2027,2060,1197
226,1713856093610356289,2064,2077,2070,2061,2081,2056,1197
227,1713856093620357612,2070,2074,2077,2079,2041,2052,1194
228,1713856093630355166,2042,2023,2024,2053,2069,2052,1195
229,1713856093640356920,2051,2042,2032,2071,2039,2048,1195
230,1713856093650358533,2065,2060,2040,2040,2068,2056,1195
231,1713856093660356658,2063,2047,2042,2067,2033,2045,1192
232,1713856093670356648,2057,2040,2040,2042,2073,2057,1194
233,1713856093680359814,2057,2061,2025,2077,2049,2047,1192
234,1713856093690375518,2069,2053,2034,2036,2072,2056,1195
235,1713856093700356527,2048,2047,2052,2072,2037,2048,1196
236,1713856093710356156,2041,2026,2040,2040,2057,2052,1196
237,1713856093720357999,2044,2044,2037,2102,2043,2048,1195
238,1713856093730356265,2047,2044,2035,2036,2063,2054,1197
239,1713856093740358770,2059,2073,2053,2069,2033,2052,1195
240,1713856093750356335,2058,2047,2023,2032,2042,2042,1194
241,1713856093760357196,2052,2058,2053,2068,2041,2047,1194
242,1713856093770357256,2049,2034,2021,2056,2081,2053,1196
243,1713856093780358709,2065,2059,2059,2069,2049,2058,1196
244,1713856093790372117,2066,2064,2110,2044,2067,2052,1194
245,1713856093800364601,2047,2058,2056,2067,2026,2050,1193
246,1713856093810366865,2050,2035,2029,2022,2072,2057,1194
247,1713856093820380394,2048,2037,2028,2082,2042,2048,1197
248,1713856093830355540,2057,2061,2085,2044,2089,2056,1196
249,1713856093840358035,2062,2065,2070,2085,2035,2046,1194
250,1713856093850356412,2054,2044,2041,2047,2068,2053,1196
251,1713856093860355600,2053,2052,2052,2079,2019,2037,1193
252,1713856093870353395,2057,2073,2106,2049,2110,2064,1196
253,1713856093880355829,2050,2046,2043,2079,2064,2056,1197
254,1713856093890357272,2030,2011,2017,2047,2073,2054,1196
255,1713856093900357322,2053,2026,2034,2068,2025,2053,1197
256,1713856093910362433,2056,2058,2052,2039,2064,2057,1196
257,1713856093920355588,2051,2048,2060,2057,2041,2052,1196
258,1713856093930357421,2050,2037,2040,2080,2068,2060,1196
259,1713856093940366661,2040,2042,2040,2096,2039,2052,1197
260,1713856093950359796,2054,2046,2037,2041,2068,2055,1194
261,1713856093960361679,2046,2052,2056,2065,2050,2051,1196
262,1713856093970365196,2054,2056,2058,2038,2096,2056,1196
263,1713856093980367772,2060,2065,2056,2064,2026,2040,1193
264,1713856093990356619,2056,2050,2071,2055,2084,2064,1194
265,1713856094000366529,2052,2048,2028,2066,2021,2049,1194
266,1713856094010355225,2056,2053,2101,2041,2068,2052,1193
267,1713856094020358042,2065,2090,2100,2079,2047,2056,1197
268,1713856094030357992,2059,2065,2079,2044,2074,2062,1193
269,1713856094040358765,2064,2042,2021,2063,2032,2050,1195
270,1713856094050359728,2049,2017,2034,2044,2070,2056,1196
271,1713856094060356342,2058,2056,2032,2064,2044,2047,1193
272,1713856094070356783,2052,2046,1996,2047,2068,2068,1196
273,1713856094080360452,2060,2057,2041,2072,2056,2060,1194
274,1713856094090359210,2069,2062,2035,2049,2068,2052,1197
275,1713856094100367950,2064,2070,2081,2108,2029,2051,1196
276,1713856094110355113,2059,2052,2080,2047,2075,2059,1197
277,1713856094120359634,2059,2038,2017,2066,2024,2047,1194
278,1713856094130354053,2073,2084,2108,2045,2074,2052,1197
279,1713856094140358884,2057,2073,2031,2065,2016,2057,1197
280,1713856094150360538,2046,2045,2047,2038,2074,2047,1194
281,1713856094160357623,2047,2032,2038,2076,2043,2041,1195
282,1713856094170355129,2054,2024,2013,2034,2042,2051,1198
283,1713856094180357976,2041,2025,2008,2056,2025,2044,1194
284,1713856094190359319,2069,2047,2056,2060,2075,2061,1193
285,1713856094200355512,2064,2098,2176,2066,2030,2052,1196
286,1713856094210352958,2053,2052,2045,2059,2074,2053,1196
287,1713856094220356696,2058,2056,2056,2071,2041,2053,1195
288,1713856094230355144,2066,2072,2060,2045,2078,2065,1195
289,1713856094240368764,2056,2078,2100,2074,2053,2059,1197
290,1713856094250361660,2061,2093,2129,2068,2080,2059,1198
291,1713856094260383046,2041,2062,2067,2069,2029,2052,1194
292,1713856094270370281,2057,2088,2130,2056,2089,2063,1195
293,1713856094280370723,2056,2052,2076,2056,2031,2040,1192
294,1713856094290349308,2053,2052,2071,2047,2070,2056,1194
295,1713856094300358498,2039,2044,2084,2066,2027,2040,1193
296,1713856094310357728,2066,2061,2114,2064,2098,2072,1198
297,1713856094320357167,2049,2060,2059,2046,2037,2040,1194
298,1713856094330358391,2061,2025,2009,2030,2056,2047,1195
299,1713856094340356478,2045,2050,2052,2073,2034,2049,1196
300,1713856094350375299,2040,2037,2038,2044,2056,2047,1193
301,1713856094360358384,2047,2042,2052,2056,2046,2054,1197
302,1713856094370358364,2056,2045,2051,2031,2084,2053,1194
303,1713856094380380793,2060,2049,2018,2076,2037,2038,1193
304,1713856094390358737,2052,2045,2034,2042,2071,2051,1192
305,1713856094400361864,2054,2077,2070,2086,2039,2057,1194
306,1713856094410358608,2075,2061,2010,2022,2073,2058,1196
307,1713856094420368831,2051,2046,2038,2061,2026,2044,1193
308,1713856094430390588,2054,2034,2037,2037,2063,2050,1196
309,1713856094440364003,2078,2122,2165,2084,2048,2056,1198
310,1713856094450370076,2051,2044,2037,2048,2069,2058,1196
311,1713856094460370809,2057,2061,2064,2065,2027,2042,1193
312,1713856094470357531,2077,2096,2192,2049,2072,2057,1196
313,1713856094480356400,2056,2088,2115,2074,2064,2052,1198
314,1713856094490355499,2060,2063,2137,2054,2081,2060,1198
315,1713856094500355670,2058,2076,2101,2072,2032,2049,1197
316,1713856094510356232,2047,2034,2024,2048,2070,2057,1197
317,1713856094520355993,2063,2075,2080,2068,2028,2047,1193
318,1713856094530378090,2036,2038,2060,2041,2066,2057,1195
319,1713856094540358501,2061,2053,2055,2069,2037,2049,1196
320,1713856094550360055,2056,2054,2055,2047,2067,2055,1195
321,1713856094560360397,2075,2121,2157,2077,2042,2060,1194
322,1713856094570357792,2050,2042,2042,2039,2066,2060,1197
323,1713856094580370460,2047,2011,1980,2066,2037,2042,1193
324,1713856094590355329,2040,2018,2007,2019,2064,2066,1195
325,1713856094600356582,2049,2054,2059,2072,2032,2052,1197
326,1713856094610359018,2065,2064,2056,2050,2073,2059,1195
327,1713856094620356343,2056,2072,2028,2077,2053,2061,1194
328,1713856094630365624,2050,2029,1981,2032,2068,2055,1194
329,1713856094640356075,2052,2054,2052,2074,2036,2045,1193
330,1713856094650357138,2076,2138,2158,2054,2098,2075,1196
331,1713856094660356908,2045,2048,2042,2069,2036,2047,1193
332,1713856094670358382,2053,2061,2072,2044,2058,2053,1196
333,1713856094680366550,2059,2094,2205,2108,2045,2052,1197
334,1713856094690361951,2045,2044,2034,2043,2066,2053,1197
335,1713856094700355779,2056,2077,2088,2071,2034,2044,1194
336,1713856094710361713,2049,2052,2058,2066,2072,2059,1198
337,1713856094720361283,2061,2046,2105,2030,2008,2042,1195
338,1713856094730363318,2045,2020,1999,2048,2072,2053,1195
339,1713856094740365373,2054,2053,2024,2063,2028,2047,1193
340,1713856094750368170,2052,2073,2106,2038,2093,2072,1194
341,1713856094760370676,2045,2047,2057,2056,2022,2049,1197
342,1713856094770373062,2046,2060,2060,2039,2061,2047,1194
343,1713856094780358262,2060,2071,2109,2056,2025,2046,1194
344,1713856094790355446,2090,2104,2076,2022,2060,2053,1195
345,1713856094800358945,2056,2047,2052,2061,2034,2046,1195
346,1713856094810358115,2052,2052,2081,2043,2066,2053,1197
347,1713856094820366233,2060,2065,2070,2072,2039,2050,1195
348,1713856094830359089,2056,2042,2065,2049,2076,2059,1198
349,1713856094840353949,2044,2056,2073,2064,2031,2041,1193
350,1713856094850358509,2057,2048,2037,2029,2064,2057,1199
351,1713856094860390929,2057,2068,2058,2098,2056,2052,1196
352,1713856094870353330,2056,2056,2077,2041,2067,2059,1196
353,1713856094880357841,2057,2051,2054,2092,2027,2051,1197
354,1713856094890356258,2050,2034,2039,2044,2086,2062,1200
355,1713856094900379719,2057,2064,2060,2068,2029,2048,1197
356,1713856094910364207,2056,2052,2053,2033,2065,2057,1198
357,1713856094920364158,2043,2054,2069,2065,2029,2042,1195
358,1713856094930366734,2068,2080,2114,2047,2074,2061,1197
359,1713856094940373219,2060,2061,2051,2088,2041,2056,1197
360,1713856094950358869,2050,2045,2050,2013,2062,2054,1197
361,1713856094960354871,2060,2073,2080,2064,2033,2047,1193
362,1713856094970358590,2054,2058,2122,2054,2074,2063,1196
363,1713856094980356867,2040,2038,2045,2089,2042,2046,1195
364,1713856094990356287,2062,2056,2053,2037,2057,2050,1196
365,1713856095000354915,2075,2181,2270,2062,2052,2059,1198
366,1713856095010356731,2046,2036,2040,2057,2074,2051,1195
367,1713856095020356957,2054,2058,2061,2068,2034,2048,1196
368,1713856095030357664,2052,2056,2060,2015,2072,2056,1197
369,1713856095040359473,2059,2080,2121,2068,2033,2056,1196
370,1713856095050357285,2066,2080,2106,2040,2068,2057,1196
371,1713856095060369646,2046,2039,2044,2088,2037,2049,1199
372,1713856095070357807,2046,2019,2000,2064,2072,2043,1195
373,1713856095080357452,2059,2056,2070,2145,2044,2060,1198
374,1713856095090356585,2060,2062,2045,2054,2070,2058,1197
375,1713856095100356080,2048,2042,2041,2036,2046,2047,1195
376,1713856095110353519,2048,2044,2088,2051,2075,2060,1198
377,1713856095120361923,2041,2073,2030,2080,2041,2050,1196
378,1713856095130354773,2047,2040,2065,2038,2067,2061,1197
379,1713856095140355160,2058,2047,2042,2074,2029,2044,1194
380,1713856095150354314,2050,2036,2038,2043,2067,2050,1195
381,1713856095160358247,2054,2047,2086,2079,2037,2051,1195
382,1713856095170358404,2056,2038,2007,2093,2070,2046,1195
383,1713856095180375023,2047,2056,2041,2061,2041,2052,1196
384,1713856095190355568,2032,2041,2046,2039,2061,2058,1196
385,1713856095200357668,2040,2036,2049,2080,2025,2040,1193
386,1713856095210360119,2051,2047,2052,2056,2088,2068,1197
387,1713856095220363522,2068,2109,2113,2073,2036,2049,1194
388,1713856095230365521,2058,2052,2046,2041,2067,2056,1194
389,1713856095240366630,2048,2040,2032,2048,2036,2046,1193
390,1713856095250370774,2052,2048,2061,2037,2069,2057,1196
391,1713856095260355156,2046,2056,2058,2113,2043,2052,1195
392,1713856095270357217,2049,2046,2056,2043,2068,2054,1195
393,1713856095280357402,2068,2085,2125,2077,2034,2047,1194
394,1713856095290355223,2044,2042,2042,2060,2075,2055,1196
395,1713856095300353756,2057,2046,2045,2081,2047,2056,1195
396,1713856095310355595,2047,2017,2005,2065,2058,2043,1195
397,1713856095320356673,2059,2045,2038,2078,2036,2045,1191
398,1713856095330355746,2065,2053,2052,2048,2064,2056,1198
399,1713856095340356504,2059,2070,2098,2081,2042,2055,1195
400,1713856095350355897,2060,2053,2058,2037,2070,2064,1196
401,1713856095360355302,2054,2068,2067,2067,2029,2047,1196
402,1713856095370356040,2050,2028,2017,2040,2075,2056,1197
403,1713856095380369062,2067,2100,2113,2079,2046,2059,1195
404,1713856095390358165,2056,2050,2045,2045,2056,2049,1194
405,1713856095400358902,2049,2040,2025,2077,2030,2046,1193
406,1713856095410363267,2056,2092,2192,2049,2059,2058,1195
407,1713856095420363343,2046,2054,2066,2068,2049,2054,1194
408,1713856095430367376,2051,2038,2049,2057,2082,2058,1194
409,1713856095440357000,2074,2082,2096,2092,2042,2056,1197
410,1713856095450356033,2053,2040,2011,2042,2064,2056,1195
411,1713856095460356530,2071,2090,2113,2069,2035,2049,1196
412,1713856095470364763,2042,2029,2000,2052,2075,2068,1197
413,1713856095480354006,2052,2025,2024,2060,2035,2042,1193
414,1713856095490354513,2056,2068,2056,2050,2072,2056,1199
415,1713856095500353717,2056,2083,2137,2072,2039,2054,1198
416,1713856095510354814,2065,2077,2136,2050,2074,2058,1198
417,1713856095520355943,2051,2052,2048,2065,2037,2043,1194
418,1713856095530355927,2052,2051,2056,2042,2069,2056,1196
419,1713856095540358268,2060,2056,2028,2078,2038,2047,1192
420,1713856095550357121,2046,2033,2019,2048,2068,2057,1197
421,1713856095560361927,2052,2043,2036,2058,2030,2052,1197
422,1713856095570358365,2057,2031,1976,2044,2068,2057,1195
423,1713856095580358050,2046,2041,2037,2068,2029,2050,1196
424,1713856095590356222,2080,2057,2043,2040,2065,2056,1196
425,1713856095600358342,2049,2047,2034,2068,2051,2056,1197
426,1713856095610356764,2052,2029,2003,2040,2068,2056,1196
427,1713856095620353974,2061,2076,2094,2065,2037,2056,1197
428,1713856095630355903,2047,2046,2046,2040,2064,2052,1195
429,1713856095640356841,2049,2044,2037,2061,2037,2048,1194
430,1713856095650356866,2053,2043,2041,2040,2066,2053,1197
431,1713856095660355749,2050,2036,1993,2069,2033,2049,1196
432,1713856095670356597,2041,2036,2025,2037,2060,2048,1195
433,1713856095680357143,2063,2117,2165,2076,2044,2061,1196
434,1713856095690359905,2031,2033,2024,2041,2060,2053,1197
435,1713856095700357645,2057,2070,2064,2077,2040,2046,1194
436,1713856095710361028,2050,2040,2043,2040,2069,2055,1196
437,1713856095720362427,2057,2078,2114,2069,2041,2052,1196
438,1713856095730365038,2038,2054,2075,2040,2070,2059,1196
439,1713856095740367900,2050,2059,2082,2065,2031,2046,1194
440,1713856095750352953,2043,2031,2036,2036,2068,2053,1196
441,1713856095760356857,2073,2040,2010,2077,2038,2058,1197
442,1713856095770357785,2058,2069,2038,2044,2058,2052,1195
443,1713856095780356257,2052,2052,2052,2075,2042,2052,1196
444,1713856095790359019,2049,2056,2032,2040,2069,2057,1196
445,1713856095800356208,2041,2037,2036,2066,2038,2046,1195
446,1713856095810375605,2056,2045,2048,2043,2064,2058,1196
447,1713856095820356319,2053,2060,2076,2072,2037,2047,1194
448,1713856095830356806,2048,2072,2040,2064,2080,2065,1193
449,1713856095840359367,2056,2070,2081,2076,2038,2056,1195
450,1713856095850357348,2050,2039,2025,2048,2066,2055,1198
451,1713856095860356101,2064,2041,2018,2074,2047,2048,1195
452,1713856095870356006,2050,2040,2040,2048,2076,2053,1195
453,1713856095880356763,2056,2053,2060,2071,2034,2052,1196
454,1713856095890358954,2056,2045,2058,2037,2070,2056,1195
455,1713856095900361033,2052,2044,1997,2084,2049,2054,1195
456,1713856095910364998,2033,2024,2035,2040,2068,2058,1197
457,1713856095920368140,2062,2113,2157,2090,2044,2049,1196
458,1713856095930371252,2047,2046,2045,2027,2060,2047,1195
459,1713856095940358150,2065,2106,2147,2080,2036,2053,1197
460,1713856095950357774,2053,2063,2064,2042,2068,2059,1198
461,1713856095960359945,2057,2068,2081,2072,2042,2052,1196
462,1713856095970357294,2051,2038,2052,2040,2059,2048,1200
463,1713856095980361850,2052,2054,2058,2069,2040,2047,1193
464,1713856095990356464,2069,2061,2052,2036,2073,2051,1196
465,1713856096000356940,2052,2053,2056,2064,2038,2057,1196
466,1713856096010356668,2057,2055,2058,2040,2066,2047,1195
467,1713856096020356822,2057,2060,2028,2067,2040,2054,1194
468,1713856096030356294,2058,2091,2121,2043,2075,2056,1194
469,1713856096040362601,2024,2007,2044,2061,2036,2050,1197
470,1713856096050357183,2052,2066,2042,2042,2072,2058,1196
471,1713856096060368119,2066,2094,2093,2084,2046,2051,1196
472,1713856096070357279,2047,2038,2034,2048,2064,2052,1196
473,1713856096080356742,2077,2120,2251,2083,2044,2057,1196
474,1713856096090355794,2059,2040,2029,2038,2054,2057,1197
475,1713856096100354034,2039,2033,2028,2063,2033,2046,1193
476,1713856096110375202,2054,2048,2042,2026,2066,2058,1198
477,1713856096120357137,2051,2045,2043,2072,2045,2052,1196
478,1713856096130357250,2048,2037,2036,2059,2062,2051,1196
479,1713856096140358687,2058,2052,2046,2073,2037,2047,1194
480,1713856096150356746,2047,2045,2011,2047,2069,2064,1196
481,1713856096160356329,2046,2050,2034,2066,2028,2045,1194
482,1713856096170356563,2047,2034,2045,2036,2062,2054,1198
483,1713856096180357638,2049,2058,2013,2074,2041,2052,1198
484,1713856096190359065,2049,2038,2046,2042,2068,2054,1194
485,1713856096200359670,2049,2076,2109,2073,2036,2048,1194
486,1713856096210362048,2024,2016,2043,2047,2063,2042,1194
487,1713856096220364477,2053,2065,2072,2069,2047,2060,1196
488,1713856096230367306,2064,2059,2053,2036,2068,2053,1196
489,1713856096240369213,2035,2025,2034,2069,2044,2045,1192
490,1713856096250386012,2064,2066,2061,2049,2060,2056,1196
491,1713856096260357386,2056,2062,2059,2069,2046,2050,1197
492,1713856096270357851,2049,2046,2045,2041,2064,2055,1196
493,1713856096280357323,2044,2065,2033,2072,2034,2053,1196
494,1713856096290356585,2048,2066,2085,2037,2069,2058,1197
495,1713856096300358432,2045,2035,2033,2077,2042,2045,1193
496,1713856096310368817,2059,2034,2015,2044,2078,2055,1198
497,1713856096320363309,2058,2052,2050,2064,2037,2051,1197
498,1713856096330357340,2044,2037,2030,2044,2061,2052,1197
499,1713856096340359007,2042,2049,2060,2068,2040,2052,1197
500,1713856096350356565,2076,2086,2148,2049,2070,2060,1194
501,1713856096360366078,2062,2021,1952,2069,2037,2047,1196
502,1713856096370351401,2059,2075,2100,2044,2070,2057,1196
503,1713856096380356085,2054,2064,2052,2072,2041,2049,1198
504,1713856096390351649,2036,2036,2000,2040,2066,2058,1193
505,1713856096400360050,2047,2049,2028,2074,2046,2056,1196
506,1713856096410367028,2040,2032,2040,2045,2057,2049,1195
507,1713856096420361379,2048,2056,2057,2074,2045,2048,1195
508,1713856096430373258,2060,2044,2020,2046,2070,2064,1195
509,1713856096440365906,2053,2050,2034,2069,2041,2050,1195
510,1713856096450352641,2047,2038,2029,2038,2069,2057,1197
511,1713856096460349759,2058,2074,2090,2080,2046,2061,1195
512,1713856096470356968,2060,2048,2065,2043,2067,2058,1195
513,1713856096480357923,2054,2049,2033,2069,2040,2047,1193
514,1713856096490355121,2057,2029,1996,2052,2068,2057,1196
515,1713856096500369965,2080,2104,2132,2072,2041,2052,1197
516,1713856096510352472,2051,2057,2129,2044,2071,2054,1195
517,1713856096520358708,2052,2056,2061,2072,2043,2053,1195
518,1713856096530357429,2044,2052,2067,2043,2061,2056,1197
519,1713856096540355970,2053,2067,2037,2071,2040,2054,1198
520,1713856096550349460,2029,2008,2004,2037,2064,2053,1197
521,1713856096560349452,2072,2081,2096,2074,2043,2052,1196
522,1713856096570355429,2050,2048,2057,2042,2068,2058,1196
523,1713856096580359260,2079,2065,2026,2074,2037,2047,1195
524,1713856096590367201,2046,2055,2040,2041,2066,2056,1195
525,1713856096600359438,2048,2056,2051,2069,2041,2047,1193
526,1713856096610359962,2063,2064,2053,2048,2070,2060,1195
527,1713856096620358562,2058,2106,2166,2073,2047,2057,1195
528,1713856096630356241,2050,2049,2044,2040,2065,2050,1195
529,1713856096640356625,2044,2034,1971,2072,2044,2044,1194
530,1713856096650357251,2043,2024,2031,2036,2060,2056,1195
531,1713856096660341451,2056,2073,2062,2065,2043,2050,1194
532,1713856096670354622,2044,2042,2053,2039,2069,2056,1195
533,1713856096680359556,2052,2058,2059,2073,2045,2049,1195
534,1713856096690360270,2064,2040,2040,2040,2064,2051,1197
535,1713856096700357849,2038,2037,2031,2064,2036,2047,1195
536,1713856096710355507,2053,2077,2073,2062,2073,2066,1198
537,1713856096720358557,2057,2056,2045,2065,2041,2052,1196
538,1713856096730360615,2050,2050,2061,2040,2067,2056,1195
539,1713856096740363564,2061,2077,2105,2077,2045,2050,1195
540,1713856096750364901,2081,2052,2034,2041,2061,2059,1195
541,1713856096760367761,2042,2040,2047,2068,2032,2050,1195
542,1713856096770351730,2058,2060,2016,2042,2068,2055,1196
543,1713856096780355311,2074,2100,2109,2077,2042,2049,1195
544,1713856096790353781,2076,2065,2050,2040,2066,2060,1195
545,1713856096800379799,2047,2034,2032,2061,2036,2046,1192
546,1713856096810351603,2046,2044,2030,2040,2061,2058,1196
547,1713856096820355836,2067,2087,2091,2067,2038,2052,1196
548,1713856096830352082,2050,2054,2065,2043,2061,2051,1197
549,1713856096840357306,2072,2098,2116,2084,2044,2052,1197
550,1713856096850354273,2056,2053,2080,2043,2066,2052,1196
551,1713856096860356632,2061,2076,2058,2073,2049,2052,1196
552,1713856096870352106,2066,2069,2047,2045,2068,2057,1192
553,1713856096880357731,2067,2064,2041,2072,2038,2051,1196
554,1713856096890353305,2056,2046,2092,2037,2064,2045,1194
555,1713856096900370053,2045,2041,2042,2079,2042,2061,1196
556,1713856096910354424,2053,2045,2028,2033,2060,2049,1197
557,1713856096920357424,2056,2056,2056,2070,2039,2050,1198
558,1713856096930361677,2072,2078,2058,2040,2072,2056,1196
559,1713856096940363634,2050,2037,2013,2078,2047,2054,1197
560,1713856096950368327,2047,2050,2065,2046,2058,2058,1197
561,1713856096960367619,2053,2062,2068,2072,2048,2050,1194
562,1713856096970355808,2060,2065,2103,2041,2067,2058,1196
563,1713856096980358096,2056,2052,2041,2066,2040,2052,1195
564,1713856096990353500,2048,2038,2033,2041,2064,2050,1193
565,1713856097000367733,2045,2033,2037,2070,2034,2053,1195
566,1713856097010353141,2049,2047,2055,2041,2064,2056,1196
567,1713856097020357915,2049,2052,2056,2074,2043,2050,1194
568,1713856097030357789,2064,2056,2044,2047,2064,2056,1196
569,1713856097040361041,2059,2037,2028,2063,2043,2050,1195
570,1713856097050357468,2048,2041,2049,2043,2068,2052,1197
571,1713856097060357733,2040,2043,2047,2069,2054,2053,1195
572,1713856097070357497,2067,2062,2056,2044,2069,2065,1198
573,1713856097080360348,2057,2059,2044,2072,2046,2050,1195
574,1713856097090355051,2050,2059,2040,2047,2063,2056,1198
575,1713856097100389288,2084,2094,2126,2080,2039,2054,1197
576,1713856097110352876,2052,2061,2058,2036,2072,2056,1195
577,1713856097120359044,2028,2021,2035,2072,2046,2049,1199
578,1713856097130354628,2057,2056,2056,2041,2063,2052,1197
579,1713856097140362119,2050,2044,2016,2072,2038,2047,1194
580,1713856097150354918,2047,2040,2028,2039,2065,2061,1199
581,1713856097160368311,2071,2053,2041,2066,2038,2046,1194
582,1713856097170356090,2056,2059,2050,2045,2068,2056,1196
583,1713856097180359452,2068,2094,2070,2074,2052,2051,1196
584,1713856097190356961,2047,2037,2042,2040,2072,2056,1194
585,1713856097200362838,2082,2114,2092,2068,2037,2048,1195
586,1713856097210364857,2080,2112,2180,2053,2071,2061,1195
587,1713856097220357877,2064,2061,2050,2074,2045,2056,1197
588,1713856097230367441,2054,2042,2042,2045,2069,2056,1198
589,1713856097240359448,2058,2044,2024,2064,2042,2046,1196
590,1713856097250375427,2052,2066,2048,2042,2068,2062,1195
591,1713856097260361231,2055,2064,2057,2064,2041,2052,1196
592,1713856097270364313,2046,2043,2051,2038,2069,2052,1195
593,1713856097280366702,2064,2060,2072,2069,2044,2056,1197
594,1713856097290350493,2054,2041,2033,2041,2069,2056,1198
595,1713856097300376441,2052,2052,2061,2072,2036,2050,1197
596,1713856097310376998,2056,2046,2047,2037,2067,2054,1199
597,1713856097320377833,2053,2053,2040,2069,2040,2052,1198
598,1713856097330355452,2062,2056,2028,2047,2062,2058,1198
599,1713856097340383364,2067,2053,2052,2063,2036,2048,1196
600,1713856097350371905,2050,2043,2049,2037,2064,2060,1197
601,1713856097360389586,2049,2042,2058,2066,2044,2045,1193
602,1713856097370355580,2041,2026,2037,2045,2076,2068,1195
603,1713856097380359914,2066,2053,2051,2072,2041,2050,1196
604,1713856097390351892,2046,2043,2078,2039,2059,2057,1194
605,1713856097400366657,2064,2036,2049,2076,2045,2050,1197
606,1713856097410359386,2060,2061,2079,2040,2074,2061,1194
607,1713856097420356906,2057,2066,2066,2068,2040,2047,1193
608,1713856097430356990,2065,2091,2200,2043,2066,2060,1197
609,1713856097440358919,2057,2072,2080,2075,2043,2052,1197
610,1713856097450354835,2055,2046,2046,2040,2060,2056,1195
611,1713856097460363257,2043,2033,2020,2072,2040,2048,1195
612,1713856097470360927,2061,2067,2089,2038,2070,2065,1197
613,1713856097480364930,2057,2049,2054,2072,2049,2051,1197
614,1713856097490379003,2069,2114,2124,2048,2068,2061,1198
615,1713856097500363536,2058,2047,1992,2068,2036,2046,1193
616,1713856097510363921,2035,2041,2036,2044,2078,2064,1198
617,1713856097520368776,2066,2089,2088,2074,2042,2053,1196
618,1713856097530369722,2041,2057,2064,2040,2060,2053,1195
619,1713856097540370158,2064,2099,2141,2073,2048,2048,1196
620,1713856097550384071,2064,2088,2033,2052,2076,2064,1197
621,1713856097560372212,2051,2034,2030,2061,2038,2045,1193
622,1713856097570373699,2060,2072,2084,2044,2061,2058,1195
623,1713856097580375267,2040,2042,2056,2065,2041,2052,1196
624,1713856097590374009,2059,2074,2092,2037,2062,2054,1195
625,1713856097600390999,2058,2058,2043,2068,2034,2045,1192
626,1713856097610376663,2040,2043,2143,2042,2066,2063,1196
627,1713856097620379584,2052,2038,2032,2075,2038,2047,1193
628,1713856097630384088,2068,2052,2049,2040,2061,2051,1196
629,1713856097640382700,2056,2056,2058,2070,2043,2050,1195
630,1713856097650387144,2045,2027,2014,2037,2064,2054,1198
631,1713856097660384462,2053,2055,2044,2072,2042,2054,1197
632,1713856097670387023,2050,2042,2048,2037,2065,2058,1196
633,1713856097680387808,2057,2053,2056,2068,2033,2047,1194
634,1713856097690387884,2046,2048,2071,2045,2068,2065,1196
635,1713856097700393299,2029,2020,2062,2064,2037,2042,1192
636,1713856097710390789,2051,2053,2049,2038,2060,2051,1195
637,1713856097720395573,2054,2056,2062,2069,2041,2045,1194
638,1713856097730361076,2050,2038,2040,2044,2064,2062,1195
639,1713856097740363916,2056,2049,2058,2070,2047,2047,1195
640,1713856097750357518,2046,2020,2019,2041,2059,2056,1196
641,1713856097760360668,2052,2061,2074,2071,2041,2052,1196
642,1713856097770358809,2053,2037,2036,2041,2066,2064,1198
643,1713856097780367101,2055,2056,2053,2070,2042,2052,1197
644,1713856097790361234,2048,2046,2048,2036,2061,2056,1195
645,1713856097800367541,2059,2067,2052,2074,2040,2054,1194
646,1713856097810363397,2049,2050,2040,2040,2064,2058,1196
647,1713856097820366257,2081,2074,2054,2068,2040,2052,1195
648,1713856097830357864,2048,2059,2071,2038,2062,2056,1195
649,1713856097840356887,2035,2028,2009,2069,2046,2048,1196
650,1713856097850359497,2077,2059,2022,2037,2065,2056,1197
651,1713856097860359181,2058,2056,2047,2072,2037,2048,1196
652,1713856097870360287,2058,2061,2026,2047,2068,2060,1194
653,1713856097880362347,2066,2065,2052,2070,2046,2052,1194
654,1713856097890359846,2046,2025,2028,2038,2064,2057,1196
655,1713856097900358508,2051,2044,2053,2076,2040,2048,1196
656,1713856097910359805,2062,2062,2039,2040,2068,2057,1199
657,1713856097920364209,2052,2049,2051,2060,2032,2048,1197
658,1713856097930358972,2047,2045,2046,2041,2060,2053,1197
659,1713856097940365270,2060,2080,2078,2066,2042,2050,1199
660,1713856097950361045,2054,2060,2080,2049,2069,2056,1200
661,1713856097960361582,2048,2037,2036,2072,2050,2050,1197
662,1713856097970371156,2052,2038,2014,2040,2057,2052,1197
663,1713856097980359988,2069,2090,2072,2064,2049,2048,1197
664,1713856097990361635,2056,2040,2028,2035,2060,2059,1195
665,1713856098000364305,2049,2050,2018,2066,2047,2047,1192
666,1713856098010366730,2048,2037,2024,2043,2061,2049,1196
667,1713856098020374245,2046,2044,2047,2066,2046,2050,1197
668,1713856098030371397,2046,2042,2051,2041,2061,2053,1195
669,1713856098040362938,2056,2081,2076,2071,2048,2047,1193
670,1713856098050372287,2057,2045,2056,2045,2068,2056,1195
671,1713856098060365341,2062,2077,2084,2068,2045,2050,1196
672,1713856098070371533,2040,2033,2037,2045,2064,2056,1194
673,1713856098080367382,2059,2056,2056,2062,2045,2049,1197
674,1713856098090368624,2040,2041,2050,2043,2060,2060,1197
675,1713856098100371499,2048,2033,2029,2070,2042,2052,1195
676,1713856098110371507,2062,2058,2063,2045,2061,2059,1196
677,1713856098120376587,2056,2052,2037,2065,2041,2048,1197
678,1713856098130371955,2045,2024,2032,2050,2067,2060,1196
679,1713856098140373788,2056,2059,2072,2069,2051,2053,1197
680,1713856098150377375,2055,2040,2043,2044,2064,2053,1195
681,1713856098160380219,2053,2054,2058,2064,2052,2052,1198
682,1713856098170379176,2078,2091,2120,2046,2064,2056,1197
683,1713856098180379515,2062,2064,2041,2070,2052,2057,1196
684,1713856098190426301,2070,2084,2095,2043,2067,2058,1196
685,1713856098200383651,2053,2060,2046,2068,2045,2052,1198
686,1713856098210389812,2049,2035,2016,2041,2066,2056,1198
687,1713856098220382627,2081,2100,2105,2062,2044,2054,1196
688,1713856098230387426,2070,2087,2069,2046,2069,2059,1197
689,1713856098240387634,2057,2036,2013,2072,2048,2053,1195
690,1713856098250389437,2044,2032,2027,2044,2057,2056,1197
691,1713856098260396751,2053,2042,2027,2064,2042,2050,1196
692,1713856098270399315,2055,2038,2033,2046,2066,2052,1194
693,1713856098280391388,2047,2040,2037,2064,2045,2048,1196
694,1713856098290393520,2053,2053,2064,2048,2050,2057,1196
695,1713856098300395323,2047,2049,2049,2072,2048,2056,1197
696,1713856098310395202,2056,2056,2055,2046,2059,2054,1196
697,1713856098320403237,2068,2082,2069,2069,2045,2051,1198
698,1713856098330354354,2039,2050,2060,2048,2062,2060,1196
699,1713856098340358822,2060,2064,2056,2068,2040,2050,1196
700,1713856098350361296,2042,2016,2020,2039,2060,2054,1196
701,1713856098360401659,2053,2046,2020,2067,2048,2057,1196
702,1713856098370411447,2066,2088,2086,2048,2056,2055,1197
703,1713856098380404983,2051,2039,2032,2053,2048,2050,1197
704,1713856098390406885,2052,2035,2009,2042,2053,2054,1194
705,1713856098400409861,2066,2093,2113,2069,2047,2048,1196
706,1713856098410354344,2050,2053,2046,2042,2064,2057,1197
707,1713856098420360585,2042,2041,2044,2067,2046,2057,1196
708,1713856098430356025,2062,2050,2057,2040,2063,2057,1197
709,1713856098440421520,2051,2042,2036,2064,2040,2051,1195
710,1713856098450363728,2053,2033,2032,2043,2060,2056,1197
711,1713856098460357514,2053,2042,2006,2059,2052,2051,1196
712,1713856098470360559,2049,2044,2060,2045,2057,2056,1195
713,1713856098480359466,2053,2046,2040,2064,2043,2046,1194
714,1713856098490356759,2067,2062,2074,2046,2061,2063,1198
715,1713856098500353440,2052,2055,2076,2062,2049,2047,1195
716,1713856098510354111,2075,2113,2203,2057,2065,2057,1197
717,1713856098520354019,2053,2054,2051,2068,2049,2055,1198
718,1713856098530350020,2061,2054,2037,2050,2060,2055,1197
719,1713856098540356442,2056,2065,2094,2068,2048,2052,1197
720,1713856098550350177,2058,2033,2016,2050,2066,2055,1195
721,1713856098560359346,2056,2043,2000,2066,2051,2056,1197
722,1713856098570361699,2050,2038,2038,2044,2061,2053,1197
723,1713856098580364113,2062,2086,2153,2069,2047,2056,1196
724,1713856098590372810,2047,2054,2105,2043,2061,2058,1198
725,1713856098600368218,2060,2072,2093,2057,2050,2053,1197
726,1713856098610354479,2056,2064,2044,2043,2050,2056,1198
727,1713856098620356072,2053,2056,2045,2064,2060,2050,1196
728,1713856098630353995,2064,2055,2052,2046,2059,2057,1196
729,1713856098640353764,2078,2090,2060,2068,2041,2050,1194
730,1713856098650353511,2041,2040,2059,2044,2064,2058,1197
731,1713856098660360525,2040,2050,2054,2064,2049,2052,1195
732,1713856098670353630,2064,2088,2083,2049,2060,2056,1196
733,1713856098680355753,2056,2076,2084,2071,2046,2055,1197
734,1713856098690357916,2044,2029,2017,2047,2061,2056,1197
735,1713856098700356311,2052,2029,2019,2064,2056,2054,1198
736,1713856098710351039,2063,2053,2044,2050,2052,2056,1199
737,1713856098720357862,2043,2053,2029,2066,2056,2054,1198
738,1713856098730357039,2056,2055,2070,2047,2061,2058,1196
739,1713856098740356938,2050,2046,2050,2064,2053,2046,1195
740,1713856098750351846,2053,2039,2024,2047,2052,2056,1197
741,1713856098760368208,2052,2040,2034,2064,2043,2052,1196
742,1713856098770359239,2056,2064,2059,2053,2065,2058,1198
743,1713856098780356792,2065,2062,2018,2069,2044,2053,1198
744,1713856098790353605,2057,2052,2088,2052,2057,2060,1196
745,1713856098800356961,2045,2036,2033,2059,2053,2052,1196
746,1713856098810355285,2050,2081,2076,2051,2061,2057,1195
747,1713856098820357218,2056,2052,2047,2065,2053,2051,1194
748,1713856098830355133,2052,2056,2068,2045,2054,2053,1197
749,1713856098840360583,2058,2056,2069,2060,2047,2052,1197
750,1713856098850370993,2061,2085,2107,2051,2058,2061,1197
751,1713856098860368807,2053,2058,2067,2065,2053,2052,1198
752,1713856098870354516,2054,2068,2091,2053,2064,2058,1200
753,1713856098880359777,2072,2058,2055,2061,2050,2053,1197
754,1713856098890357259,2072,2109,2132,2053,2064,2057,1197
755,1713856098900366388,2056,2043,2036,2062,2056,2052,1197
756,1713856098910360574,2045,2043,2064,2047,2056,2058,1197
757,1713856098920368680,2073,2069,2090,2061,2050,2050,1197
758,1713856098930363548,2056,2040,2038,2049,2058,2057,1197
759,1713856098940365811,2056,2053,2050,2061,2049,2049,1195
760,1713856098950350689,2053,2049,2044,2049,2062,2054,1197
761,1713856098960352401,2062,2067,2085,2068,2053,2056,1197
762,1713856098970354003,2040,2040,2066,2052,2064,2058,1195
763,1713856098980359724,2053,2034,2020,2061,2045,2052,1195
764,1713856098990356695,2047,2025,2026,2049,2056,2052,1193
765,1713856099000358719,2045,2047,2043,2060,2048,2052,1198
766,1713856099010355992,2053,2048,2054,2052,2050,2054,1195
767,1713856099020358052,2062,2045,2034,2061,2056,2049,1197
768,1713856099030355453,2045,2036,2042,2048,2056,2056,1194
769,1713856099040358044,2056,2053,2048,2071,2053,2055,1193
770,1713856099050356467,2046,2035,2034,2045,2046,2050,1196
771,1713856099060356543,2055,2047,2036,2060,2046,2051,1198
772,1713856099070353843,2056,2047,2032,2049,2065,2053,1195
773,1713856099080363550,2086,2088,2083,2065,2050,2051,1194
774,1713856099090356922,2060,2082,2104,2052,2057,2056,1196
775,1713856099100358601,2046,2040,2031,2056,2047,2052,1197
776,1713856099110356974,2062,2055,2034,2049,2053,2053,1199
777,1713856099120357610,2061,2042,2024,2068,2046,2053,1196
778,1713856099130363419,2057,2057,2064,2049,2058,2057,1197
779,1713856099140362422,2060,2075,2113,2064,2053,2054,1196
780,1713856099150366366,2061,2049,2037,2047,2060,2052,1197
781,1713856099160369178,2047,2034,2039,2060,2050,2054,1197
782,1713856099170354554,2088,2077,2088,2052,2058,2057,1198
783,1713856099180364590,2046,2056,2060,2064,2050,2048,1196
784,1713856099190356289,2063,2089,2125,2059,2068,2062,1195
785,1713856099200359251,2056,2057,2068,2065,2063,2060,1195
786,1713856099210356191,2062,2049,2052,2047,2057,2056,1197
787,1713856099220356277,2060,2069,2079,2064,2052,2053,1196
788,1713856099230358277,2057,2059,2045,2045,2049,2053,1197
789,1713856099240358544,2076,2069,2049,2067,2056,2053,1196
790,1713856099250358690,2052,2042,2045,2038,2052,2056,1194
791,1713856099260357674,2056,2047,2056,2062,2051,2050,1198
792,1713856099270356688,2050,2044,2031,2049,2054,2056,1195
793,1713856099280366383,2060,2080,2073,2073,2051,2055,1195
794,1713856099290354736,2060,2047,2052,2048,2059,2057,1198
795,1713856099300354912,2047,2074,2085,2067,2056,2056,1196
796,1713856099310354637,2058,2054,2032,2049,2054,2054,1197
797,1713856099320354593,2049,2040,2028,2060,2046,2050,1196
798,1713856099330356603,2060,2057,2132,2048,2057,2060,1197
799,1713856099340354224,2046,2050,2083,2061,2049,2053,1198
800,1713856099350356134,2049,2044,2037,2045,2056,2056,1196
801,1713856099360355488,2050,2047,2047,2063,2052,2051,1196
802,1713856099370357068,2072,2072,2026,2048,2058,2061,1196
803,1713856099380365241,2051,2052,2039,2064,2049,2056,1196
804,1713856099390360186,2057,2076,2081,2047,2058,2056,1194
805,1713856099400359240,2054,2046,2021,2059,2052,2052,1197
806,1713856099410358033,2053,2050,2049,2052,2060,2060,1196
807,1713856099420357428,2056,2049,2054,2064,2060,2054,1196
808,1713856099430353566,2062,2067,2094,2052,2058,2054,1194
809,1713856099440359484,2036,2032,2036,2060,2050,2051,1197
810,1713856099450357637,2034,2026,2034,2045,2053,2054,1195
811,1713856099460359967,2057,2062,2078,2062,2053,2052,1196
812,1713856099470355904,2048,2041,2053,2043,2049,2053,1197
813,1713856099480357975,2054,2051,2062,2061,2052,2052,1196
814,1713856099490359574,2056,2053,2057,2050,2057,2056,1195
815,1713856099500378860,2055,2056,2049,2068,2052,2050,1197
816,1713856099510364576,2059,2044,2029,2044,2058,2056,1195
817,1713856099520366817,2055,2052,2036,2065,2052,2050,1195
818,1713856099530351872,2059,2046,2034,2047,2060,2054,1196
819,1713856099540371178,2050,2043,2044,2056,2050,2050,1195
820,1713856099550356183,2064,2076,2098,2054,2062,2059,1195
821,1713856099560357812,2056,2059,2075,2061,2050,2052,1197
822,1713856099570356044,2056,2061,2074,2056,2061,2056,1197
823,1713856099580359728,2068,2070,2048,2064,2051,2056,1193
824,1713856099590355756,2057,2072,2100,2056,2052,2059,1195
825,1713856099600363587,2047,2056,2057,2063,2050,2052,1195
826,1713856099610354986,2060,2076,2101,2050,2056,2058,1197
827,1713856099620358819,2042,2027,2026,2059,2054,2049,1194
828,1713856099630355458,2033,2028,2031,2053,2054,2054,1197
829,1713856099640363691,2054,2051,2054,2058,2059,2054,1197
830,1713856099650357644,2048,2034,2048,2045,2052,2052,1196
831,1713856099660358733,2065,2071,2033,2065,2050,2052,1195
832,1713856099670356344,2056,2053,2037,2043,2050,2056,1195
833,1713856099680358534,2080,2096,2120,2066,2054,2056,1196
834,1713856099690358019,2044,2033,2043,2047,2053,2052,1196
835,1713856099700355761,2050,2048,2046,2062,2053,2051,1195
836,1713856099710357220,2056,2049,2052,2042,2057,2058,1196
837,1713856099720360653,2057,2058,2064,2068,2054,2055,1196
838,1713856099730363234,2056,2044,2042,2045,2062,2056,1195
839,1713856099740368301,2060,2059,2061,2060,2058,2052,1196
840,1713856099750367575,2051,2040,2045,2054,2053,2056,1197
841,1713856099760370526,2057,2053,2058,2057,2049,2050,1195
842,1713856099770353778,2060,2053,2056,2044,2056,2053,1196
843,1713856099780355788,2057,2047,2047,2067,2061,2057,1196
844,1713856099790362598,2053,2024,2042,2049,2048,2051,1192
845,1713856099800356682,2052,2040,2054,2065,2048,2053,1196
846,1713856099810356908,2051,2045,2052,2041,2057,2056,1196
847,1713856099820357645,2053,2040,2031,2064,2045,2053,1197
848,1713856099830359204,2062,2041,2021,2043,2052,2052,1195
849,1713856099840356705,2073,2089,2072,2065,2057,2052,1195
850,1713856099850356431,2048,2044,2054,2041,2049,2050,1196
851,1713856099860364523,2064,2062,2056,2060,2056,2053,1196
852,1713856099870353948,2046,2044,2038,2046,2054,2056,1195
853,1713856099880359705,2060,2064,2058,2061,2052,2050,1196
854,1713856099890358318,2051,2037,2030,2051,2058,2056,1197
855,1713856099900356601,2056,2065,2106,2067,2052,2056,1198
856,1713856099910359162,2045,2040,2036,2042,2054,2053,1199
857,1713856099920356242,2055,2042,2042,2059,2048,2052,1196
858,1713856099930356809,2047,2040,2041,2046,2051,2053,1199
859,1713856099940355332,2056,2050,2064,2068,2058,2054,1196
860,1713856099950355688,2054,2045,2050,2048,2052,2050,1196
861,1713856099960354322,2049,2047,2041,2064,2056,2056,1197
862,1713856099970353866,2052,2040,2040,2046,2060,2056,1197
863,1713856099980361859,2064,2079,2096,2066,2052,2056,1196
864,1713856099990355311,2054,2063,2056,2053,2060,2056,1195
865,1713856100000355538,2045,2037,2047,2059,2048,2053,1196
866,1713856100010355687,2053,2050,2017,2056,2054,2057,1197
867,1713856100020356605,2054,2051,2054,2058,2054,2051,1196
868,1713856100030355138,2049,2044,2049,2050,2054,2054,1196
869,1713856100040357609,2070,2044,2025,2062,2062,2054,1195
870,1713856100050354248,2059,2068,2037,2046,2055,2046,1194
871,1713856100060364395,2053,2056,2064,2053,2056,2056,1197
872,1713856100070354731,2047,2058,2056,2045,2057,2051,1196
873,1713856100080362062,2056,2067,2073,2061,2054,2060,1195
874,1713856100090361377,2067,2084,2084,2054,2059,2056,1196
875,1713856100100364038,2060,2070,2080,2063,2047,2053,1196
876,1713856100110366268,2053,2062,2047,2053,2058,2056,1197
877,1713856100120371124,2050,2050,2053,2061,2056,2052,1196
878,1713856100130350348,2058,2056,2064,2048,2054,2051,1194
879,1713856100140372279,2056,2046,2047,2059,2060,2054,1195
880,1713856100150355280,2056,2047,2044,2049,2056,2050,1196
881,1713856100160357701,2060,2070,2073,2063,2056,2052,1196
882,1713856100170355543,2052,2040,2029,2046,2053,2053,1195
883,1713856100180368275,2060,2074,2090,2065,2055,2047,1192
884,1713856100190357939,2054,2036,2002,2046,2052,2058,1194
885,1713856100200358316,2065,2053,2041,2061,2060,2054,1194
886,1713856100210374385,2052,2051,2060,2051,2050,2051,1196
887,1713856100220359791,2058,2068,2066,2066,2056,2054,1194
888,1713856100230353094,2056,2041,2033,2051,2056,2056,1196
889,1713856100240359002,2057,2043,2024,2060,2048,2052,1197
890,1713856100250354728,2049,2038,2019,2050,2056,2057,1197
891,1713856100260356729,2049,2036,2017,2065,2047,2057,1197
892,1713856100270357697,2060,2060,2051,2058,2057,2054,1197
893,1713856100280367233,2054,2057,2084,2061,2054,2049,1197
894,1713856100290350765,2076,2101,2116,2051,2056,2061,1196
895,1713856100300357835,2050,2038,2014,2064,2057,2053,1196
896,1713856100310360227,2056,2056,2057,2050,2059,2055,1197
897,1713856100320361665,2056,2061,2083,2056,2056,2052,1196
898,1713856100330362873,2056,2044,2042,2046,2053,2058,1197
899,1713856100340364974,2068,2067,2057,2062,2050,2053,1196
900,1713856100350366513,2053,2058,2072,2048,2051,2054,1196
901,1713856100360370127,2053,2050,2049,2060,2045,2053,1198
902,1713856100370359421,2047,2026,2016,2044,2053,2052,1198
903,1713856100380370299,2057,2040,2028,2062,2061,2060,1195
904,1713856100390358089,2064,2073,2059,2060,2058,2052,1195
905,1713856100400359309,2058,2049,2039,2065,2056,2052,1196
906,1713856100410359895,2054,2052,2056,2050,2050,2054,1196
907,1713856100420360102,2058,2067,2056,2064,2057,2053,1196
908,1713856100430353865,2075,2091,2112,2053,2059,2052,1196
909,1713856100440358140,2045,2042,2052,2058,2049,2054,1197
910,1713856100450356954,2056,2034,2022,2045,2052,2052,1196
911,1713856100460359014,2052,2045,2047,2062,2056,2051,1195
912,1713856100470359240,2056,2047,2045,2046,2058,2050,1196
913,1713856100480360058,2062,2064,2046,2061,2056,2052,1197
914,1713856100490355444,2057,2053,2053,2052,2056,2054,1196
915,1713856100500358016,2045,2046,2033,2060,2056,2055,1196
916,1713856100510357541,2062,2090,2070,2046,2059,2053,1196
917,1713856100520362146,2057,2077,2132,2068,2060,2056,1196
918,1713856100530356962,2057,2039,2020,2047,2045,2052,1196
919,1713856100540359744,2066,2101,2126,2064,2061,2057,1195
920,1713856100550356332,2052,2048,2053,2045,2056,2053,1195
921,1713856100560358473,2057,2044,2037,2065,2053,2051,1196
922,1713856100570355743,2052,2044,2031,2046,2052,2052,1195
923,1713856100580368656,2055,2053,2021,2069,2056,2058,1193
924,1713856100590359152,2052,2044,2028,2045,2054,2053,1194
925,1713856100600362194,2056,2049,2053,2060,2052,2052,1194
926,1713856100610355827,2056,2045,2064,2049,2049,2057,1197
927,1713856100620356985,2061,2043,2042,2061,2051,2052,1198
928,1713856100630359907,2045,2031,2017,2047,2054,2056,1196
929,1713856100640356547,2053,2046,2059,2061,2053,2052,1195
930,1713856100650354539,2053,2054,2045,2047,2052,2051,1196
931,1713856100660359545,2052,2045,2049,2064,2054,2053,1196
932,1713856100670355533,2062,2076,2120,2057,2060,2057,1195
933,1713856100680356621,2082,2142,2179,2071,2061,2059,1197
934,1713856100690358972,2058,2060,2080,2053,2061,2057,1197
935,1713856100700361272,2059,2052,2056,2059,2058,2053,1196
936,1713856100710363333,2058,2061,2064,2049,2048,2053,1199
937,1713856100720365323,2050,2054,2080,2058,2053,2056,1195
938,1713856100730370109,2050,2044,2056,2052,2053,2053,1196
939,1713856100740370626,2058,2062,2047,2057,2050,2054,1195
940,1713856100750354418,2062,2069,2059,2050,2052,2061,1196
941,1713856100760355987,2058,2056,2070,2062,2056,2056,1193
942,1713856100770359531,2049,2052,2064,2049,2056,2059,1195
943,1713856100780358896,2056,2044,2028,2064,2056,2054,1196
944,1713856100790380797,2050,2032,2025,2048,2052,2052,1192
945,1713856100800357535,2044,2033,1984,2057,2056,2051,1197
946,1713856100810357702,2051,2048,2056,2048,2049,2056,1196
947,1713856100820357838,2056,2046,2043,2059,2058,2056,1195
948,1713856100830355288,2064,2060,2081,2051,2059,2055,1194
949,1713856100840358340,2062,2048,2042,2061,2057,2047,1193
950,1713856100850357014,2066,2092,2138,2051,2052,2056,1197
951,1713856100860362301,2054,2062,2065,2067,2057,2053,1193
952,1713856100870355884,2056,2035,2025,2050,2049,2056,1195
953,1713856100880356340,2053,2044,2042,2060,2052,2056,1196
954,1713856100890357729,2056,2056,2064,2047,2055,2054,1195
955,1713856100900357484,2057,2054,2053,2058,2056,2049,1194
956,1713856100910358964,2064,2071,2089,2053,2061,2056,1196
957,1713856100920357397,2053,2064,2049,2069,2060,2057,1196
958,1713856100930360279,2060,2074,2110,2056,2051,2052,1197
959,1713856100940362710,2054,2054,2034,2067,2062,2053,1196
960,1713856100950364600,2053,2044,2043,2057,2045,2055,1196
961,1713856100960366710,2056,2065,2066,2060,2054,2051,1195
962,1713856100970373690,2053,2065,2117,2049,2048,2059,1194
963,1713856100980354917,2065,2071,2062,2060,2059,2056,1195
964,1713856100990356998,2053,2049,2044,2046,2049,2049,1195
965,1713856101000357254,2057,2052,2044,2058,2058,2057,1195
966,1713856101010354440,2056,2049,2065,2056,2047,2052,1196
967,1713856101020357635,2061,2046,2031,2061,2049,2056,1194
968,1713856101030355920,2044,2050,2097,2049,2064,2056,1196
969,1713856101040355098,2056,2065,2064,2061,2056,2055,1197
970,1713856101050353834,2053,2054,2060,2050,2049,2052,1197
971,1713856101060358352,2048,2041,2032,2060,2060,2057,1196
972,1713856101070353721,2081,2113,2155,2049,2054,2056,1196
973,1713856101080355525,2053,2042,2058,2062,2060,2054,1196
974,1713856101090357497,2067,2090,2115,2060,2062,2061,1196
975,1713856101100355933,2057,2058,2040,2064,2053,2051,1195
976,1713856101110357055,2058,2045,2018,2044,2054,2052,1197
977,1713856101120355931,2057,2045,2020,2062,2055,2055,1196
978,1713856101130354396,2056,2059,2064,2052,2050,2052,1197
979,1713856101140357001,2073,2061,2029,2062,2057,2052,1196
980,1713856101150357551,2058,2041,2019,2052,2047,2059,1198
981,1713856101160358722,2057,2067,2064,2064,2053,2055,1196
982,1713856101170363430,2053,2041,2034,2046,2052,2049,1195
983,1713856101180359061,2053,2046,2028,2061,2061,2052,1196
984,1713856101190354831,2040,2027,2040,2048,2056,2051,1194
985,1713856101200359379,2069,2081,2083,2068,2060,2056,1194
986,1713856101210355911,2046,2036,2022,2051,2054,2051,1195
987,1713856101220359176,2057,2056,2041,2049,2048,2052,1195
988,1713856101230353964,2056,2047,2045,2048,2055,2053,1194
989,1713856101240358943,2056,2053,2062,2061,2056,2052,1197
990,1713856101250359774,2049,2038,2005,2052,2052,2054,1196
991,1713856101260357458,2040,2029,2034,2057,2060,2052,1196
992,1713856101270357216,2050,2044,2054,2048,2050,2057,1195
993,1713856101280367497,2057,2041,2032,2058,2056,2054,1197
994,1713856101290358447,2052,2038,2020,2047,2049,2054,1195
995,1713856101300357203,2054,2053,2021,2058,2059,2054,1193
996,1713856101310358786,2052,2041,2016,2051,2052,2047,1194
997,1713856101320359636,2058,2049,2050,2060,2052,2047,1192
998,1713856101330361068,2069,2066,2063,2052,2044,2058,1196
999,1713856101340362179,2058,2066,2058,2060,2054,2056,1196
1000,1713856101350364824,2047,2030,2029,2051,2052,2052,1196
1001,1713856101360366997,2063,2069,2084,2064,2060,2053,1194
1002,1713856101370350702,2052,2066,2082,2051,2050,2052,1195
1003,1713856101380353948,2057,2056,2056,2068,2059,2058,1196
1004,1713856101390367024,2052,2049,2053,2050,2047,2051,1193
1005,1713856101400358434,2053,2072,2114,2061,2061,2057,1195
1006,1713856101410377844,2054,2054,2059,2049,2042,2049,1195
1007,1713856101420357050,2049,2051,2125,2061,2056,2054,1197
1008,1713856101430357119,2046,2042,2034,2046,2045,2052,1196
1009,1713856101440357829,2052,2036,2012,2053,2057,2058,1197
1010,1713856101450355433,2052,2046,2078,2050,2053,2054,1197
1011,1713856101460358117,2056,2050,2058,2054,2057,2056,1196
1012,1713856101470357184,2069,2090,2086,2056,2052,2057,1196
1013,1713856101480358667,2045,2056,2079,2060,2064,2060,1195
1014,1713856101490362633,2046,2044,2044,2052,2059,2055,1199
1015,1713856101500357862,2061,2094,2090,2058,2060,2056,1195
1016,1713856101510355948,2043,2044,2061,2052,2057,2054,1197
1017,1713856101520360786,2052,2047,2042,2058,2062,2054,1195
1018,1713856101530353550,2054,2041,2046,2052,2045,2059,1196
1019,1713856101540357527,2073,2117,2161,2064,2056,2058,1194
1020,1713856101550357136,2036,2026,2017,2052,2049,2054,1196
1021,1713856101560360772,2057,2037,2058,2052,2056,2049,1197
1022,1713856101570365500,2061,2074,2099,2059,2064,2059,1197
1023,1713856101580365850,2057,2068,2057,2056,2057,2053,1195
1024,1713856101590363474,2050,2047,2051,2049,2049,2051,1195
1025,1713856101600366178,2058,2041,2037,2059,2060,2053,1196
1026,1713856101610368793,2056,2053,2062,2051,2048,2053,1194
1027,1713856101620354563,2057,2054,2029,2059,2060,2059,1197
1028,1713856101630359171,2052,2043,2021,2048,2044,2050,1195
1029,1713856101640364911,2039,2033,2048,2057,2052,2053,1194
1030,1713856101650351694,2052,2042,2028,2049,2049,2050,1196
1031,1713856101660361632,2056,2036,2001,2058,2061,2053,1195
1032,1713856101670353725,2047,2024,2000,2044,2045,2046,1192
1033,1713856101680358304,2056,2056,2042,2060,2053,2052,1195
1034,1713856101690360337,2058,2065,2084,2050,2047,2048,1194
1035,1713856101700356527,2062,2060,2065,2064,2061,2057,1196
1036,1713856101710354442,2052,2046,2047,2052,2050,2052,1196
1037,1713856101720356646,2064,2069,2061,2062,2062,2056,1196
1038,1713856101730352686,2054,2049,2054,2053,2051,2053,1197
1039,1713856101740358206,2049,2037,2037,2056,2052,2050,1197
1040,1713856101750353917,2053,2030,2047,2056,2045,2053,1196
1041,1713856101760358004,2052,2041,2026,2056,2056,2050,1196
1042,1713856101770352702,2050,2036,2034,2036,2046,2054,1197
1043,1713856101780357682,2059,2050,2036,2061,2058,2056,1195
1044,1713856101790360366,2058,2053,2043,2058,2044,2054,1193
1045,1713856101800358861,2048,2040,2023,2049,2057,2051,1195
1046,1713856101810356635,2050,2039,2027,2051,2050,2053,1194
1047,1713856101820359300,2064,2069,2081,2058,2057,2053,1195
1048,1713856101830355421,2056,2042,2036,2054,2046,2052,1196
1049,1713856101840365941,2053,2047,2064,2048,2058,2052,1194
1050,1713856101850371943,2053,2044,2016,2046,2037,2048,1196
1051,1713856101860359606,2047,2062,2076,2064,2063,2053,1196
1052,1713856101870357170,2046,2041,2069,2052,2049,2051,1197
1053,1713856101880355706,2051,2058,2042,2057,2058,2053,1197
1054,1713856101890360685,2052,2037,2012,2050,2054,2052,1195
1055,1713856101900359692,2052,2049,2068,2060,2057,2056,1197
1056,1713856101910363007,2049,2040,2047,2039,2047,2050,1196
1057,1713856101920357656,2064,2051,2045,2060,2058,2056,1195
1058,1713856101930358676,2076,2094,2140,2051,2037,2053,1195
1059,1713856101940372453,2057,2068,2026,2056,2060,2053,1194
1060,1713856101950359346,2057,2042,2047,2054,2044,2052,1198
1061,1713856101960361028,2057,2074,2077,2058,2058,2057,1195
1062,1713856101970362209,2057,2053,2056,2054,2049,2058,1196
1063,1713856101980364734,2054,2053,2049,2057,2062,2054,1197
1064,1713856101990366506,2070,2074,2057,2057,2052,2053,1193
1065,1713856102000368348,2060,2060,2056,2052,2061,2054,1196
1066,1713856102010354766,2055,2053,2075,2052,2047,2054,1196
1067,1713856102020372216,2052,2046,2026,2057,2065,2053,1195
1068,1713856102030357000,2046,2037,2053,2053,2048,2048,1196
1069,1713856102040357775,2053,2046,2068,2057,2059,2054,1194
1070,1713856102050370156,2060,2049,2040,2050,2045,2056,1196
1071,1713856102060390191,2053,2049,2047,2058,2064,2056,1195
1072,1713856102070356436,2045,2051,2056,2056,2043,2052,1196
1073,1713856102080358455,2060,2076,2061,2061,2064,2062,1196
1074,1713856102090369072,2052,2049,2034,2050,2050,2052,1197
1075,1713856102100357402,2066,2068,1997,2060,2062,2056,1197
1076,1713856102110354601,2056,2050,2045,2050,2043,2056,1197
1077,1713856102120358614,2060,2064,2062,2053,2057,2057,1195
1078,1713856102130356503,2040,2033,2048,2053,2050,2052,1195
1079,1713856102140363532,2058,2062,2052,2060,2064,2056,1196
1080,1713856102150354769,2054,2046,2026,2056,2053,2056,1196
1081,1713856102160359623,2053,2048,2056,2056,2064,2058,1196
1082,1713856102170355570,2053,2053,2068,2058,2054,2053,1196
1083,1713856102180363350,2041,2034,2056,2058,2060,2056,1195
1084,1713856102190357041,2064,2046,2069,2054,2053,2050,1195
1085,1713856102200360844,2057,2072,2096,2058,2069,2068,1197
1086,1713856102210360328,2047,2037,2026,2050,2040,2052,1195
1087,1713856102220361464,2052,2052,2100,2057,2066,2058,1196
1088,1713856102230362010,2052,2049,2047,2053,2046,2049,1195
1089,1713856102240365943,2060,2053,2048,2058,2064,2054,1196
1090,1713856102250367160,2064,2053,2063,2054,2051,2054,1197
1091,1713856102260369489,2056,2038,2039,2055,2057,2053,1197
1092,1713856102270355956,2052,2028,2014,2052,2044,2054,1196
1093,1713856102280358114,2056,2044,2044,2057,2060,2055,1195
1094,1713856102290356586,2062,2069,2086,2053,2048,2053,1196
1095,1713856102300358645,2054,2064,2072,2056,2057,2053,1196
1096,1713856102310354120,2056,2054,2059,2057,2052,2057,1197
1097,1713856102320360216,2057,2071,2078,2060,2060,2054,1193
1098,1713856102330351473,2054,2023,2002,2050,2044,2052,1196
1099,1713856102340354835,2053,2049,2026,2057,2061,2052,1195
1100,1713856102350351612,2057,2049,2037,2056,2043,2052,1193
1101,1713856102360358982,2057,2054,2052,2056,2062,2056,1195
1102,1713856102370354919,2053,2041,2078,2056,2052,2056,1196
1103,1713856102380358500,2035,2012,2010,2052,2056,2051,1195
1104,1713856102390355118,2041,2041,2056,2053,2045,2049,1194
1105,1713856102400358179,2056,2050,2056,2057,2057,2056,1194
1106,1713856102410355938,2050,2038,2046,2055,2048,2053,1195
1107,1713856102420359109,2069,2100,2088,2064,2068,2059,1197
1108,1713856102430352711,2055,2052,2054,2052,2052,2056,1194
1109,1713856102440355891,2053,2042,2056,2051,2063,2049,1196
1110,1713856102450352479,2060,2034,2078,2059,2047,2053,1198
1111,1713856102460359048,2057,2038,2024,2056,2060,2057,1197
1112,1713856102470352859,2047,2034,2018,2049,2045,2046,1193
1113,1713856102480354537,2052,2047,2040,2058,2060,2052,1197
1114,1713856102490356786,2073,2117,2145,2060,2049,2058,1196
1115,1713856102500356791,2058,2056,2010,2057,2063,2056,1195
1116,1713856102510353128,2052,2047,2045,2054,2036,2051,1195
1117,1713856102520355648,2037,2019,2024,2054,2059,2052,1197
1118,1713856102530354961,2053,2041,2075,2056,2045,2053,1196
1119,1713856102540356187,2053,2041,2021,2053,2059,2055,1197
1120,1713856102550356052,2057,2077,2094,2059,2045,2055,1197
1121,1713856102560357078,2072,2075,2065,2058,2058,2052,1196
1122,1713856102570354247,2044,2042,2053,2050,2045,2053,1197
1123,1713856102580360975,2086,2101,2064,2059,2064,2054,1196
1124,1713856102590353084,2052,2044,2032,2056,2045,2051,1196
1125,1713856102600357717,2052,2046,2042,2056,2060,2052,1194
1126,1713856102610356460,2056,2062,2122,2056,2045,2054,1196
1127,1713856102620357627,2059,2057,2044,2053,2060,2054,1197
1128,1713856102630359625,2047,2032,2052,2052,2045,2056,1196
1129,1713856102640362696,2048,2045,2046,2056,2056,2052,1194
1130,1713856102650363993,2050,2050,2081,2051,2045,2052,1195
1131,1713856102660367324,2053,2033,1987,2054,2061,2051,1196
1132,1713856102670368251,2044,2017,1988,2051,2041,2052,1196
1133,1713856102680370741,2064,2085,2112,2058,2062,2056,1196
1134,1713856102690354060,2052,2047,2052,2053,2045,2053,1195
1135,1713856102700352913,2053,2057,2120,2058,2066,2061,1195
1136,1713856102710356565,2082,2132,2224,2070,2056,2056,1197
1137,1713856102720357581,2058,2056,2064,2064,2069,2056,1196
1138,1713856102730355812,2058,2057,2036,2056,2045,2054,1197
1139,1713856102740354154,2050,2045,2030,2055,2060,2054,1195
1140,1713856102750351893,2040,2037,2062,2052,2039,2052,1197
1141,1713856102760358391,2058,2072,2080,2053,2060,2052,1198
1142,1713856102770353005,2067,2061,2056,2054,2047,2053,1197
1143,1713856102780357428,2052,2034,2017,2058,2064,2057,1196
1144,1713856102790353915,2069,2076,2080,2057,2046,2056,1194
1145,1713856102800370494,2053,2047,2048,2052,2065,2054,1196
1146,1713856102810352230,2039,2038,2052,2052,2043,2052,1195
1147,1713856102820365713,2062,2060,2045,2057,2069,2056,1197
1148,1713856102830354054,2056,2050,2027,2052,2039,2053,1196
1149,1713856102840357675,2052,2046,2046,2056,2068,2057,1195
1150,1713856102850354022,2039,2037,2032,2056,2044,2048,1195
1151,1713856102860358536,2064,2045,2009,2056,2062,2057,1193
1152,1713856102870355425,2050,2052,2052,2056,2046,2052,1195
1153,1713856102880359437,2044,2036,2035,2054,2057,2053,1197
1154,1713856102890361616,2052,2013,2014,2056,2040,2050,1197
1155,1713856102900366180,2051,2046,2021,2053,2063,2053,1196
1156,1713856102910363539,2060,2056,2030,2060,2041,2054,1196
1157,1713856102920367612,2054,2042,2025,2054,2066,2056,1197
1158,1713856102930355512,2051,2038,2052,2058,2041,2054,1197
1159,1713856102940370637,2052,2050,2057,2056,2064,2055,1196
1160,1713856102950352495,2056,2046,2042,2060,2049,2049,1197
1161,1713856102960359073,2065,2050,2044,2057,2065,2061,1197
1162,1713856102970353375,2055,2049,2052,2052,2045,2050,1197
1163,1713856102980355344,2061,2074,2064,2058,2068,2056,1196
1164,1713856102990352082,2056,2056,2085,2059,2041,2052,1194
1165,1713856103000366686,2049,2037,2050,2052,2065,2056,1197
1166,1713856103010355919,2055,2056,2098,2057,2042,2052,1196
1167,1713856103020359949,2048,2055,2057,2056,2068,2055,1195
1168,1713856103030352167,2058,2074,2130,2060,2042,2056,1196
1169,1713856103040359343,2067,2069,2065,2057,2064,2052,1198
1170,1713856103050353294,2051,2049,2076,2057,2040,2051,1196
1171,1713856103060360411,2047,2028,2054,2050,2064,2053,1197
1172,1713856103070357828,2051,2048,2038,2052,2043,2054,1195
1173,1713856103080354434,2059,2072,2160,2062,2059,2058,1197
1174,1713856103090353956,2053,2051,2072,2057,2045,2052,1197
1175,1713856103100358699,2052,2040,2027,2049,2057,2056,1197
1176,1713856103110353611,2053,2032,1992,2061,2060,2056,1197
1177,1713856103120358654,2051,2036,2028,2052,2064,2057,1197
1178,1713856103130352985,2057,2060,2031,2062,2036,2051,1195
1179,1713856103140355383,2057,2065,2117,2051,2072,2063,1197
1180,1713856103150354935,2056,2056,2013,2061,2037,2052,1197
1181,1713856103160360769,2056,2039,1993,2136,2082,2056,1196
1182,1713856103170354619,2048,2045,2046,2052,2038,2051,1197
1183,1713856103180355113,2052,2052,2056,2065,2065,2056,1197
1184,1713856103190353442,2061,2066,2061,2060,2044,2062,1194
1185,1713856103200358716,2057,2064,2067,2058,2050,2053,1196
1186,1713856103210378199,2048,2052,2075,2052,2037,2048,1195
1187,1713856103220363010,2056,2065,2047,2059,2068,2058,1196
1188,1713856103230357753,2043,2031,2033,2061,2036,2051,1196
1189,1713856103240359018,2046,2052,2040,2054,2077,2058,1194
1190,1713856103250355624,2042,2029,1992,2048,2018,2049,1195
1191,1713856103260359555,2050,2064,2040,2047,2062,2053,1195
1192,1713856103270352774,2056,2065,2136,2059,2049,2061,1195
1193,1713856103280359299,2052,2049,2045,2047,2068,2052,1195
1194,1713856103290356868,2057,2050,2036,2051,2034,2045,1194
1195,1713856103300340847,2059,2076,2086,2052,2075,2064,1196
1196,1713856103310360710,2037,2027,2008,2046,2040,2042,1195
1197,1713856103320361635,2056,2069,2076,2058,2071,2058,1197
1198,1713856103330363161,2056,2039,2008,2049,2042,2050,1196
1199,1713856103340364997,2050,2042,2059,2052,2062,2050,1196
1200,1713856103350350320,2068,2056,2039,2055,2033,2056,1198
1201,1713856103360369152,2050,2036,2025,2051,2077,2055,1197
1202,1713856103370352941,2057,2058,2056,2046,2040,2055,1195
1203,1713856103380373646,2070,2108,2139,2058,2065,2068,1197
1204,1713856103390355201,2052,2038,1990,2066,2044,2056,1195
1205,1713856103400360785,2056,2060,2168,2049,2061,2056,1196
1206,1713856103410353323,2052,2053,2073,2060,2041,2057,1196
1207,1713856103420356903,2066,2066,2117,2052,2044,2050,1196
1208,1713856103430354460,2050,2064,2070,2054,2043,2049,1197
1209,1713856103440356848,2057,2061,2068,2061,2072,2052,1200
1210,1713856103450353264,2045,2042,2020,2052,2040,2052,1199
1211,1713856103460356643,2047,2030,2000,2060,2058,2052,1198
1212,1713856103470360444,2050,2035,2036,2052,2026,2046,1193
1213,1713856103480356248,2060,2044,2014,2056,2068,2051,1197
1214,1713856103490355840,2068,2094,2033,2060,2046,2056,1195
1215,1713856103500363308,2053,2056,2052,2044,2070,2059,1196
1216,1713856103510353842,2052,2032,2032,2056,2043,2049,1197
1217,1713856103520354916,2049,2047,2008,2052,2071,2059,1199
1218,1713856103530392446,2064,2093,2104,2060,2047,2057,1196
1219,1713856103540352908,2062,2061,2054,2057,2061,2053,1197
1220,1713856103550351036,2057,2054,2041,2056,2045,2053,1198
1221,1713856103560355599,2047,2041,2000,2047,2059,2053,1198
1222,1713856103570355030,2058,2062,2086,2057,2046,2056,1196
1223,1713856103580357899,2061,2025,2025,2049,2067,2061,1195
1224,1713856103590358733,2047,2040,2034,2056,2040,2051,1195
1225,1713856103600360239,2046,2049,2065,2046,2065,2054,1195
1226,1713856103610363348,2053,2033,2030,2057,2040,2050,1197
1227,1713856103620363772,2052,2046,2037,2044,2056,2052,1196
1228,1713856103630349686,2046,2041,2008,2051,2039,2056,1196
1229,1713856103640353988,2063,2062,2027,2056,2064,2059,1196
1230,1713856103650350443,2049,2043,2038,2058,2041,2045,1194
1231,1713856103660351608,2047,2051,2102,2061,2073,2058,1196
1232,1713856103670351291,2050,2027,2031,2053,2042,2053,1197
1233,1713856103680352545,2050,2046,2045,2047,2068,2056,1196
1234,1713856103690352478,2059,2060,2086,2053,2047,2052,1198
1235,1713856103700352150,2068,2097,2115,2059,2068,2056,1195
1236,1713856103710350590,2066,2089,2094,2066,2046,2052,1196
1237,1713856103720352306,2056,2051,2107,2047,2067,2058,1197
1238,1713856103730349673,2044,2038,2044,2058,2044,2049,1196
1239,1713856103740354215,2062,2067,2101,2065,2065,2050,1196
1240,1713856103750350941,2053,2056,2106,2076,2047,2056,1198
1241,1713856103760351916,2055,2083,2118,2057,2068,2054,1196
1242,1713856103770355096,2058,2046,2047,2060,2038,2050,1197
1243,1713856103780352903,2052,2045,2033,2048,2069,2054,1196
1244,1713856103790350843,2060,2051,2060,2054,2050,2049,1194
1245,1713856103800355144,2052,2030,2024,2049,2064,2054,1195
1246,1713856103810349194,2056,2056,2094,2056,2045,2051,1197
1247,1713856103820356332,2060,2064,2039,2051,2074,2061,1194
1248,1713856103830349540,2052,2043,2043,2058,2037,2043,1192
1249,1713856103840351597,2060,2051,2053,2047,2060,2053,1197
1250,1713856103850348464,2054,2037,1982,2060,2043,2051,1197
1251,1713856103860352675,2059,2061,2041,2050,2063,2056,1196
1252,1713856103870352037,2052,2072,2145,2056,2040,2044,1194
1253,1713856103880350927,2080,2084,2066,2053,2071,2057,1197
1254,1713856103890348625,2043,2065,2109,2054,2043,2047,1193
1255,1713856103900352616,2062,2047,1998,2058,2088,2068,1197
1256,1713856103910349222,2051,2028,1992,2066,2040,2056,1200
1257,1713856103920350577,2052,2050,2021,2056,2075,2064,1195
1258,1713856103930351131,2064,2080,2129,2058,2036,2052,1196
1259,1713856103940349531,2052,2041,1996,2056,2074,2062,1197
1260,1713856103950348852,2050,2035,2026,2060,2043,2048,1197
1261,1713856103960350999,2053,2042,2030,2044,2065,2054,1196
1262,1713856103970352745,2050,2056,2104,2062,2039,2054,1197
1263,1713856103980355133,2061,2060,2112,2049,2072,2064,1195
1264,1713856103990355427,2053,2050,2058,2054,2040,2047,1188
1265,1713856104000360780,2054,2050,2041,2049,2064,2053,1193
1266,1713856104010359552,2076,2116,2232,2076,2042,2056,1196
1267,1713856104020361781,2057,2037,2025,2055,2066,2050,1197
1268,1713856104030344399,2049,2044,2046,2055,2042,2052,1197
1269,1713856104040364413,2070,2072,2066,2058,2060,2058,1196
1270,1713856104050349536,2050,2042,2042,2055,2036,2047,1195
1271,1713856104060348829,2058,2053,2057,2051,2073,2060,1196
1272,1713856104070351978,2049,2052,2033,2058,2046,2054,1198
1273,1713856104080354067,2050,2037,2041,2050,2064,2054,1199
1274,1713856104090348218,2064,2065,2073,2059,2041,2056,1197
1275,1713856104100352701,2058,2069,2183,2058,2060,2056,1197
1276,1713856104110349437,2053,2040,2040,2054,2040,2051,1198
1277,1713856104120352618,2062,2064,2110,2052,2056,2052,1194
1278,1713856104130348352,2054,2033,2042,2056,2046,2045,1192
1279,1713856104140351953,2059,2049,2003,2057,2067,2058,1196
1280,1713856104150348630,2052,2044,2002,2046,2035,2052,1194
1281,1713856104160350417,2047,2038,2028,2047,2056,2053,1195
1282,1713856104170351142,2043,2044,2059,2058,2045,2052,1196
1283,1713856104180357378,2060,2069,2105,2054,2068,2060,1194
1284,1713856104190348835,2056,2041,2056,2061,2043,2054,1196
1285,1713856104200356784,2057,2036,2003,2046,2066,2058,1194
1286,1713856104210348460,2056,2070,2128,2064,2033,2047,1194
1287,1713856104220359547,2049,2052,2056,2050,2072,2057,1195
1288,1713856104230360412,2056,2073,2076,2060,2043,2051,1196
1289,1713856104240360406,2052,2052,2064,2051,2058,2057,1193
1290,1713856104250359006,2056,2053,2050,2054,2041,2052,1196
1291,1713856104260360573,2056,2040,1988,2050,2070,2054,1195
1292,1713856104270357290,2061,2081,2076,2064,2047,2050,1193
1293,1713856104280373417,2044,2024,2019,2050,2064,2058,1196
1294,1713856104290360073,2056,2061,2058,2053,2028,2045,1194
1295,1713856104300363423,2057,2040,2003,2048,2074,2058,1196
1296,1713856104310366032,2049,2053,2037,2059,2045,2056,1195
1297,1713856104320368541,2053,2044,2038,2044,2062,2056,1196
1298,1713856104330368083,2064,2066,2042,2064,2046,2056,1196
1299,1713856104340370722,2052,2041,2044,2047,2070,2053,1197
1300,1713856104350357529,2072,2082,2024,2059,2038,2052,1197
1301,1713856104360370198,2057,2091,2124,2060,2072,2057,1196
1302,1713856104370359721,2066,2088,2099,2064,2040,2049,1196
1303,1713856104380383352,2045,2046,2052,2045,2070,2056,1197
1304,1713856104390357744,2060,2077,2156,2057,2036,2053,1194
1305,1713856104400363929,2050,2052,2062,2044,2070,2054,1194
1306,1713856104410355156,2062,2074,2089,2065,2037,2053,1196
1307,1713856104420369448,2054,2056,2044,2049,2066,2052,1195
1308,1713856104430357607,2054,2058,2082,2060,2038,2052,1194
1309,1713856104440353653,2051,2040,1998,2056,2067,2053,1194
1310,1713856104450356933,2070,2084,2093,2066,2054,2062,1195
1311,1713856104460358049,2052,2040,2034,2047,2064,2055,1196
1312,1713856104470358944,2062,2073,2122,2054,2040,2050,1195
1313,1713856104480387626,2048,2037,2080,2052,2064,2056,1196
1314,1713856104490349151,2047,2061,2071,2063,2033,2051,1197
1315,1713856104500356260,2051,2045,2044,2051,2064,2057,1194
1316,1713856104510355111,2058,2063,2060,2062,2040,2050,1197
1317,1713856104520368311,2065,2096,2109,2058,2072,2054,1197
1318,1713856104530360008,2046,2038,2026,2060,2043,2053,1196
1319,1713856104540356775,2065,2082,2096,2056,2070,2053,1194
1320,1713856104550355406,2052,2046,2056,2056,2035,2052,1197
1321,1713856104560373125,2062,2080,2084,2052,2068,2056,1197
1322,1713856104570356765,2051,2041,2051,2060,2038,2052,1197
1323,1713856104580374775,2054,2054,2054,2050,2069,2056,1195
1324,1713856104590352765,2050,2040,2050,2060,2032,2052,1194
1325,1713856104600365373,2066,2090,2098,2052,2064,2056,1195
1326,1713856104610356640,2048,2037,2032,2061,2036,2052,1197
1327,1713856104620358005,2061,2072,2056,2055,2070,2056,1195
1328,1713856104630354782,2049,2054,2056,2062,2045,2052,1196
1329,1713856104640369085,2057,2046,2064,2051,2072,2056,1196
1330,1713856104650355090,2064,2091,2124,2064,2040,2053,1196
1331,1713856104660356046,2056,2044,2038,2056,2068,2057,1195
1332,1713856104670359947,2062,2077,2126,2072,2046,2048,1195
1333,1713856104680359039,2044,2028,2024,2042,2070,2052,1197
1334,1713856104690360675,2058,2054,2036,2064,2041,2052,1197
1335,1713856104700375349,2064,2068,2060,2050,2080,2056,1197
1336,1713856104710356564,2056,2062,2058,2065,2040,2046,1193
1337,1713856104720362570,2051,2050,2045,2044,2062,2054,1196
1338,1713856104730359668,2058,2053,2035,2059,2040,2052,1195
1339,1713856104740361135,2056,2047,2020,2049,2056,2051,1194
1340,1713856104750362872,2056,2052,2036,2061,2046,2053,1196
1341,1713856104760365821,2054,2045,2030,2051,2076,2055,1196
1342,1713856104770367508,2056,2056,2057,2068,2041,2050,1196
1343,1713856104780368603,2064,2078,2105,2054,2069,2056,1196
1344,1713856104790370962,2072,2114,2154,2070,2044,2054,1195
1345,1713856104800371306,2057,2056,2073,2046,2064,2058,1195
1346,1713856104810354877,2049,2044,2042,2054,2033,2053,1193
1347,1713856104820356684,2034,2029,2044,2044,2064,2056,1195
1348,1713856104830352780,2048,2034,2033,2058,2028,2048,1196
1349,1713856104840355979,2059,2031,2037,2047,2069,2065,1196
1350,1713856104850357616,2061,2050,2051,2065,2047,2054,1195
1351,1713856104860354834,2061,2088,2124,2050,2072,2056,1196
1352,1713856104870353896,2059,2049,2038,2068,2046,2052,1195
1353,1713856104880358248,2076,2088,2045,2061,2074,2060,1195
1354,1713856104890377541,2052,2041,2047,2062,2042,2050,1196
1355,1713856104900355901,2050,2057,2093,2053,2064,2054,1196
1356,1713856104910356615,2060,2102,2115,2056,2043,2050,1196
1357,1713856104920356369,2053,2067,2074,2050,2067,2056,1197
1358,1713856104930353236,2051,2046,2065,2062,2034,2049,1195
1359,1713856104940355825,2050,2046,2064,2049,2072,2052,1197
1360,1713856104950357301,2072,2076,2072,2060,2035,2047,1192
1361,1713856104960366914,2072,2104,2088,2060,2076,2062,1196
1362,1713856104970353170,2048,2041,2006,2062,2042,2048,1198
1363,1713856104980360377,2054,2049,2051,2047,2068,2060,1197
1364,1713856104990355832,2061,2058,2060,2061,2042,2056,1195
1365,1713856105000360415,2066,2077,2073,2047,2057,2056,1194
1366,1713856105010357466,2060,2059,2040,2066,2038,2055,1195
1367,1713856105020358365,2041,2036,2034,2046,2071,2057,1196
1368,1713856105030359825,2037,2021,2008,2058,2033,2047,1192
1369,1713856105040362487,2051,2046,2068,2057,2068,2056,1195
1370,1713856105050364467,2056,2058,2069,2058,2039,2049,1195
1371,1713856105060376849,2052,2042,2031,2047,2069,2056,1196
1372,1713856105070352857,2053,2046,2043,2060,2032,2048,1195
1373,1713856105080369137,2060,2049,2043,2050,2065,2054,1193
1374,1713856105090352671,2066,2091,2063,2064,2040,2057,1195
1375,1713856105100357578,2080,2140,2250,2059,2076,2061,1195
1376,1713856105110376703,2036,2024,2040,2057,2035,2050,1197
1377,1713856105120355597,2052,2044,2058,2052,2067,2058,1196
1378,1713856105130355103,2064,2051,2042,2056,2036,2045,1193
1379,1713856105140357455,2054,2050,2080,2051,2069,2057,1194
1380,1713856105150352752,2045,2031,2011,2061,2036,2050,1194
1381,1713856105160367027,2053,2048,2009,2048,2070,2058,1197
1382,1713856105170351563,2050,2043,2048,2058,2030,2046,1192
1383,1713856105180355818,2054,2056,2051,2050,2069,2058,1196
1384,1713856105190352038,2054,2044,2024,2065,2041,2045,1190
1385,1713856105200358477,2072,2072,2064,2048,2068,2054,1194
1386,1713856105210366781,2055,2056,2060,2063,2037,2049,1196
1387,1713856105220355485,2049,2036,2043,2046,2069,2057,1196
1388,1713856105230354230,2047,2044,2045,2065,2042,2049,1196
1389,1713856105240355529,2065,2043,2040,2049,2070,2058,1195
1390,1713856105250352520,2079,2092,2111,2065,2038,2054,1196
1391,1713856105260364721,2052,2036,2040,2049,2067,2055,1196
1392,1713856105270370259,2050,2036,2017,2053,2031,2052,1195
1393,1713856105280354894,2058,2054,2081,2050,2069,2052,1197
1394,1713856105290353038,2051,2044,2042,2060,2037,2049,1196
1395,1713856105300354878,2053,2041,2021,2051,2072,2061,1196
1396,1713856105310377901,2048,2028,2026,2062,2038,2044,1193
1397,1713856105320355333,2066,2063,2017,2045,2073,2061,1196
1398,1713856105330356392,2048,2065,2080,2061,2034,2052,1197
1399,1713856105340357291,2061,2076,2135,2055,2067,2056,1195
1400,1713856105350362398,2059,2048,2037,2057,2032,2047,1194
1401,1713856105360355019,2051,2057,2125,2060,2067,2055,1193
1402,1713856105370352671,2080,2120,2186,2074,2043,2061,1197
1403,1713856105380359211,2046,2041,2061,2045,2064,2052,1194
1404,1713856105390353307,2065,2077,2220,2076,2048,2058,1192
1405,1713856105400367773,2058,2056,2120,2056,2077,2062,1195
1406,1713856105410354011,2062,2073,2144,2069,2024,2044,1193
1407,1713856105420356553,2046,2032,2040,2047,2072,2068,1196
1408,1713856105430355959,2068,2060,2047,2056,2028,2047,1193
1409,1713856105440360495,2059,2046,2029,2040,2068,2056,1196
1410,1713856105450370362,2050,2043,2013,2064,2034,2047,1191
1411,1713856105460351911,2049,2042,2020,2049,2076,2054,1194
1412,1713856105470356236,2048,2053,2057,2059,2041,2050,1196
1413,1713856105480358638,2062,2070,2072,2053,2078,2065,1196
1414,1713856105490358996,2058,2056,2059,2061,2031,2047,1193
1415,1713856105500364925,2056,2055,2046,2047,2060,2055,1196
1416,1713856105510359270,2043,2046,2041,2060,2042,2047,1193
1417,1713856105520364167,2060,2052,2051,2045,2069,2054,1196
1418,1713856105530366168,2053,2072,2089,2059,2029,2052,1193
1419,1713856105540366616,2056,2054,2056,2030,2065,2055,1194
1420,1713856105550370410,2048,2030,2042,2067,2040,2052,1197
1421,1713856105560353653,2050,2042,2080,2042,2065,2056,1195
1422,1713856105570354742,2048,2033,2009,2062,2040,2045,1195
1423,1713856105580353968,2052,2046,2029,2046,2068,2056,1196
1424,1713856105590354946,2064,2056,2038,2070,2043,2055,1194
1425,1713856105600358721,2065,2062,2072,2037,2068,2054,1195
1426,1713856105610355050,2061,2060,2026,2064,2044,2054,1196
1427,1713856105620358804,2053,2051,2064,2053,2075,2053,1196
1428,1713856105630358821,2064,2058,2052,2066,2041,2057,1195
1429,1713856105640356554,2060,2067,2093,2052,2072,2054,1195
1430,1713856105650356450,2070,2121,2100,2068,2045,2058,1195
1431,1713856105660360655,2049,2042,2064,2038,2067,2054,1195
1432,1713856105670351984,2051,2045,2043,2064,2044,2050,1196
1433,1713856105680361201,2052,2043,2021,2050,2068,2053,1197
1434,1713856105690365386,2056,2054,2049,2052,2037,2054,1194
1435,1713856105700354751,2066,2072,2089,2050,2066,2061,1196
1436,1713856105710356140,2050,2056,2052,2065,2039,2047,1194
1437,1713856105720355576,2059,2052,1998,2052,2073,2061,1196
1438,1713856105730354982,2034,2026,2035,2059,2029,2047,1193
1439,1713856105740357864,2066,2054,2064,2046,2076,2060,1196
1440,1713856105750368984,2056,2052,2056,2058,2040,2046,1194
1441,1713856105760371265,2045,2027,2024,2046,2069,2057,1197
1442,1713856105770361072,2044,2041,2027,2061,2033,2052,1196
1443,1713856105780363634,2056,2048,2044,2052,2073,2058,1195
1444,1713856105790360193,2064,2055,2018,2063,2038,2046,1189
1445,1713856105800362184,2052,2040,2036,2045,2072,2056,1194
1446,1713856105810364014,2068,2068,2060,2065,2042,2049,1194
1447,1713856105820368370,2066,2069,2061,2048,2068,2060,1195
1448,1713856105830366724,2064,2072,2071,2066,2035,2048,1197
1449,1713856105840370548,2046,2032,2032,2044,2067,2058,1196
1450,1713856105850353290,2069,2059,2048,2072,2036,2050,1194
1451,1713856105860353186,2056,2063,2030,2045,2066,2054,1195
1452,1713856105870352693,2051,2042,2022,2056,2029,2045,1194
1453,1713856105880355535,2052,2065,2064,2046,2079,2063,1196
1454,1713856105890360312,2061,2075,2080,2068,2037,2047,1193
1455,1713856105900368064,2051,2046,2076,2042,2065,2053,1196
1456,1713856105910352379,2060,2071,2061,2062,2038,2054,1196
1457,1713856105920383228,2048,2037,2044,2042,2064,2049,1197
1458,1713856105930353104,2082,2095,2067,2068,2041,2058,1197
1459,1713856105940359254,2052,2053,2069,2044,2062,2051,1196
1460,1713856105950355132,2053,2053,2054,2065,2040,2050,1195
1461,1713856105960356872,2068,2048,2036,2050,2072,2056,1195
1462,1713856105970353162,2058,2072,2076,2065,2031,2045,1192
1463,1713856105980357387,2043,2021,1966,2041,2074,2061,1197
1464,1713856105990353666,2062,2088,2088,2062,2035,2054,1194
1465,1713856106000362611,2046,2059,2100,2044,2072,2058,1195
1466,1713856106010354218,2056,2070,2084,2065,2044,2052,1196
1467,1713856106020356495,2052,2031,2004,2044,2067,2057,1196
1468,1713856106030354413,2054,2048,2021,2064,2041,2050,1197
1469,1713856106040356429,2041,2026,1984,2049,2069,2061,1196
1470,1713856106050350811,2047,2047,2058,2061,2036,2046,1192
1471,1713856106060352877,2052,2052,2056,2046,2064,2056,1195
1472,1713856106070355916,2053,2056,2072,2064,2040,2052,1198
1473,1713856106080357862,2058,2064,2075,2050,2069,2057,1197
1474,1713856106090355951,2050,2029,2009,2060,2038,2053,1196
1475,1713856106100365914,2049,2038,2034,2052,2066,2054,1196
1476,1713856106110347860,2058,2053,2052,2067,2040,2053,1199
1477,1713856106120356229,2064,2052,2053,2044,2070,2060,1197
1478,1713856106130353306,2045,2040,2039,2061,2033,2050,1197
1479,1713856106140357446,2069,2096,2162,2058,2076,2057,1195
1480,1713856106150353841,2062,2064,2105,2067,2040,2053,1197
1481,1713856106160354756,2060,2044,2024,2044,2063,2058,1197
1482,1713856106170353936,2063,2068,2077,2072,2047,2056,1196
1483,1713856106180357546,2050,2046,2052,2045,2066,2054,1197
1484,1713856106190360424,2056,2056,2068,2064,2032,2049,1195
1485,1713856106200362602,2059,2080,2100,2048,2065,2057,1194
1486,1713856106210352785,2057,2040,2018,2067,2040,2052,1195
1487,1713856106220361004,2056,2051,2026,2048,2073,2056,1194
1488,1713856106230353882,2051,2056,2116,2070,2046,2051,1196
1489,1713856106240355618,2064,2058,2080,2044,2069,2056,1196
1490,1713856106250357293,2053,2053,2064,2062,2029,2049,1196
1491,1713856106260358147,2058,2054,2055,2044,2070,2052,1195
1492,1713856106270359282,2060,2060,2091,2069,2041,2053,1196
1493,1713856106280360717,2056,2045,2040,2040,2060,2055,1195
1494,1713856106290362804,2050,2047,2043,2061,2042,2051,1202
1495,1713856106300366395,2058,2049,2047,2041,2067,2059,1196
1496,1713856106310344623,2069,2109,2149,2063,2042,2051,1196
1497,1713856106320367261,2061,2097,2114,2049,2068,2058,1194
1498,1713856106330350349,2049,2039,2032,2061,2035,2048,1196
1499,1713856106340370653,2060,2068,2080,2044,2065,2052,1197
1500,1713856106350354402,2055,2044,2038,2065,2034,2049,1196
1501,1713856106360352110,2054,2049,2049,2044,2070,2056,1196
1502,1713856106370354547,2058,2056,2067,2065,2033,2049,1196
1503,1713856106380356594,2056,2070,2090,2047,2068,2057,1197
1504,1713856106390353921,2040,2039,2044,2061,2037,2056,1194
1505,1713856106400361590,2070,2067,2043,2048,2074,2058,1195
1506,1713856106410350229,2054,2072,2083,2064,2037,2044,1192
1507,1713856106420358288,2051,2050,2044,2046,2078,2058,1197
1508,1713856106430357028,2056,2056,2039,2065,2039,2052,1197
1509,1713856106440386099,2047,2040,2039,2043,2070,2055,1196
1510,1713856106450352744,2057,2055,2057,2060,2036,2048,1195
1511,1713856106460352616,2052,2047,2036,2041,2070,2056,1195
1512,1713856106470351757,2064,2047,2060,2058,2033,2052,1194
1513,1713856106480362300,2042,2029,1994,2041,2072,2058,1194
1514,1713856106490357072,2065,2072,2052,2066,2036,2050,1195
1515,1713856106500357116,2056,2058,2058,2046,2070,2057,1197
1516,1713856106510357990,2047,2032,1994,2064,2028,2048,1195
1517,1713856106520355297,2044,2050,2078,2042,2072,2059,1198
1518,1713856106530353355,2056,2054,2058,2068,2040,2048,1198
1519,1713856106540328768,2052,2047,2043,2053,2072,2060,1195
1520,1713856106550353861,2057,2050,2046,2060,2036,2050,1196
1521,1713856106560353192,2080,2132,2130,2056,2076,2060,1195
1522,1713856106570354737,2065,2059,2054,2060,2033,2044,1195
1523,1713856106580356594,2056,2057,2066,2048,2077,2061,1194
1524,1713856106590364272,2053,2057,2056,2067,2037,2052,1194
1525,1713856106600362321,2061,2073,2082,2048,2069,2057,1197
1526,1713856106610361852,2056,2052,2048,2063,2041,2051,1195
1527,1713856106620367516,2052,2056,2056,2046,2069,2054,1196
1528,1713856106630365545,2049,2055,2077,2062,2037,2049,1197
1529,1713856106640370727,2078,2180,2261,2057,2074,2066,1197
1530,1713856106650351531,2056,2054,2039,2063,2040,2049,1197
1531,1713856106660355301,2053,2042,2015,2047,2066,2057,1197
1532,1713856106670354602,2057,2073,2130,2069,2041,2055,1197
1533,1713856106680353352,2065,2056,2050,2044,2068,2055,1194
1534,1713856106690372273,2042,2046,2040,2067,2039,2055,1196
1535,1713856106700355041,2063,2091,2177,2048,2070,2062,1196
1536,1713856106710375004,2054,2044,1989,2072,2040,2049,1196
1537,1713856106720354785,2061,2066,2090,2046,2072,2061,1193
1538,1713856106730354116,2066,2064,2068,2064,2030,2048,1195
1539,1713856106740355401,2056,2045,2040,2046,2066,2058,1196
1540,1713856106750361977,2049,2040,2020,2065,2039,2050,1198
1541,1713856106760353703,2053,2034,2038,2040,2066,2053,1194
1542,1713856106770352793,2064,2073,2077,2066,2039,2050,1195
1543,1713856106780353968,2056,2060,2088,2050,2072,2060,1196
1544,1713856106790353039,2064,2064,2014,2070,2033,2049,1194
1545,1713856106800352641,2056,2050,2043,2046,2067,2060,1195
1546,1713856106810352714,2068,2108,2144,2069,2042,2054,1195
1547,1713856106820352496,2049,2037,2045,2047,2064,2056,1196
1548,1713856106830352408,2046,2019,2017,2057,2038,2053,1197
1549,1713856106840354394,2065,2056,2045,2047,2076,2060,1196
1550,1713856106850350789,2056,2061,2084,2072,2045,2054,1196
1551,1713856106860365060,2051,2053,2073,2043,2066,2050,1194
1552,1713856106870351095,2063,2086,2124,2068,2040,2056,1195
1553,1713856106880352720,2054,2042,2057,2047,2066,2056,1196
1554,1713856106890352472,2045,2033,2024,2058,2036,2048,1196
1555,1713856106900353388,2057,2037,2008,2050,2081,2060,1195
1556,1713856106910355664,2049,2062,2081,2067,2040,2050,1197
1557,1713856106920355176,2042,2044,2049,2045,2069,2057,1193
1558,1713856106930350629,2050,2044,2053,2061,2033,2050,1197
1559,1713856106940354980,2054,2050,2040,2048,2074,2057,1197
1560,1713856106950352037,2056,2057,2084,2066,2038,2052,1194
1561,1713856106960353041,2056,2057,2044,2047,2072,2057,1194
1562,1713856106970351931,2057,2050,2053,2058,2034,2049,1196
1563,1713856106980352845,2050,2050,2033,2043,2067,2058,1196
1564,1713856106990352718,2064,2085,2113,2075,2048,2053,1194
1565,1713856107000357541,2054,2041,2046,2045,2068,2056,1194
1566,1713856107010373172,2047,2057,2060,2065,2036,2046,1193
1567,1713856107020354265,2059,2070,2066,2051,2072,2058,1196
1568,1713856107030352742,2061,2051,2038,2066,2038,2052,1196
1569,1713856107040354927,2053,2044,1993,2048,2073,2061,1196
1570,1713856107050363564,2061,2059,2066,2060,2037,2051,1194
1571,1713856107060357493,2055,2050,2052,2044,2069,2057,1195
1572,1713856107070358996,2060,2064,2052,2071,2040,2049,1195
1573,1713856107080360219,2056,2052,2064,2050,2072,2064,1195
1574,1713856107090362925,2064,2093,2136,2067,2041,2047,1195
1575,1713856107100372244,2063,2071,2128,2044,2076,2058,1196
1576,1713856107110364870,2069,2120,2190,2071,2039,2049,1196
1577,1713856107120367085,2054,2048,2056,2042,2066,2056,1197
1578,1713856107130347977,2055,2044,2038,2058,2037,2046,1195
1579,1713856107140349841,2048,2033,2005,2045,2072,2058,1198
1580,1713856107150354040,2064,2076,2074,2059,2040,2053,1195
1581,1713856107160354902,2052,2042,2050,2044,2072,2056,1194
1582,1713856107170353951,2061,2072,2069,2068,2035,2052,1197
1583,1713856107180355916,2060,2046,2036,2044,2073,2060,1196
1584,1713856107190355384,2072,2094,2080,2072,2040,2055,1193
1585,1713856107200355816,2071,2060,2024,2047,2061,2057,1196
1586,1713856107210363983,2060,2081,2098,2065,2038,2052,1195
1587,1713856107220355095,2050,2045,2048,2047,2073,2059,1195
1588,1713856107230352301,2054,2049,2024,2067,2034,2052,1195
1589,1713856107240354926,2072,2088,2059,2050,2076,2061,1197
1590,1713856107250351911,2053,2047,2042,2058,2036,2045,1193
1591,1713856107260374366,2066,2076,2060,2052,2073,2064,1197
1592,1713856107270357242,2062,2074,2082,2068,2041,2053,1197
1593,1713856107280357243,2064,2047,2021,2047,2077,2056,1198
1594,1713856107290360409,2046,2032,2025,2059,2030,2045,1194
1595,1713856107300356833,2044,2010,1971,2059,2076,2062,1194
1596,1713856107310356593,2050,2044,2026,2066,2032,2048,1198
1597,1713856107320357165,2052,2045,2033,2045,2068,2057,1196
1598,1713856107330363888,2060,2089,2079,2064,2034,2048,1195
1599,1713856107340357606,2053,2048,2045,2046,2068,2059,1194
1600,1713856107350356565,2057,2052,2066,2063,2033,2046,1194
1601,1713856107360355854,2052,2032,2026,2045,2065,2054,1196
1602,1713856107370355704,2073,2124,2200,2072,2046,2058,1197
1603,1713856107380357558,2052,2040,2028,2040,2060,2056,1195
1604,1713856107390357559,2058,2058,2062,2068,2038,2052,1193
1605,1713856107400361447,2056,2064,2128,2047,2066,2055,1196
1606,1713856107410362119,2065,2074,2098,2065,2041,2055,1197
1607,1713856107420363843,2056,2054,2031,2046,2068,2056,1196
1608,1713856107430368602,2056,2060,2058,2065,2036,2047,1196
1609,1713856107440366649,2058,2060,2065,2051,2065,2054,1195
1610,1713856107450368714,2063,2077,2106,2068,2051,2054,1195
1611,1713856107460368915,2057,2056,2079,2049,2068,2058,1196
1612,1713856107470359205,2061,2064,2067,2070,2042,2047,1194
1613,1713856107480358204,2058,2050,2033,2047,2070,2058,1197
1614,1713856107490356151,2042,2030,2022,2062,2040,2049,1198
1615,1713856107500358325,2053,2049,2054,2045,2068,2052,1196
1616,1713856107510355029,2052,2061,2058,2066,2037,2049,1198
1617,1713856107520360470,2067,2060,2023,2041,2070,2056,1197
1618,1713856107530363417,2053,2056,2065,2061,2035,2045,1194
1619,1713856107540358267,2047,2022,2021,2040,2065,2056,1197
1620,1713856107550356714,2056,2041,2034,2063,2041,2050,1196
1621,1713856107560355843,2060,2057,2073,2049,2076,2059,1195
1622,1713856107570356505,2058,2049,2052,2062,2036,2049,1196
1623,1713856107580355884,2051,2045,2056,2040,2066,2052,1196
1624,1713856107590352167,2060,2061,2056,2065,2044,2056,1193
1625,1713856107600356697,2056,2063,2098,2050,2072,2056,1195
1626,1713856107610352529,2053,2053,2071,2065,2035,2047,1192
1627,1713856107620364613,2046,2047,2047,2043,2072,2060,1194
1628,1713856107630370196,2061,2062,2060,2062,2032,2042,1193
1629,1713856107640358382,2055,2078,2076,2049,2069,2057,1195
1630,1713856107650353673,2052,2048,2036,2058,2031,2044,1193
1631,1713856107660356509,2052,2056,2064,2042,2069,2056,1197
1632,1713856107670362442,2043,2039,2029,2064,2044,2057,1198
1633,1713856107680377473,2062,2085,2096,2051,2070,2062,1198
1634,1713856107690355589,2056,2050,2072,2067,2037,2048,1197
1635,1713856107700357062,2056,2056,2060,2047,2067,2059,1197
1636,1713856107710353846,2070,2117,2155,2068,2038,2049,1198
1637,1713856107720357614,2053,2051,2055,2050,2069,2053,1196
1638,1713856107730354780,2057,2063,2063,2068,2040,2048,1197
1639,1713856107740364228,2061,2061,2093,2051,2074,2057,1197
1640,1713856107750353748,2056,2048,2051,2065,2038,2056,1195
1641,1713856107760356013,2050,2028,2004,2047,2068,2057,1197
1642,1713856107770352637,2056,2050,2040,2062,2035,2045,1192
1643,1713856107780357367,2056,2034,2017,2047,2065,2060,1195
1644,1713856107790352908,2057,2060,2057,2066,2041,2052,1194
1645,1713856107800378099,2054,2051,2052,2047,2070,2055,1197
1646,1713856107810353701,2053,2046,2050,2062,2035,2047,1193
1647,1713856107820358541,2061,2068,2060,2052,2080,2063,1195
1648,1713856107830353812,2063,2065,2066,2067,2040,2052,1197
1649,1713856107840366097,2049,2043,2045,2043,2068,2060,1194
1650,1713856107850364925,2052,2053,2054,2065,2038,2046,1194
1651,1713856107860367811,2052,2031,2018,2046,2066,2060,1198
1652,1713856107870365808,2053,2037,2021,2069,2039,2048,1195
1653,1713856107880359896,2060,2044,2044,2047,2073,2058,1198
1654,1713856107890356631,2052,2052,2054,2064,2032,2051,1197
1655,1713856107900357141,2052,2044,2046,2046,2069,2059,1197
1656,1713856107910369928,2060,2036,2033,2073,2033,2052,1198
1657,1713856107920369327,2029,2016,2023,2039,2065,2054,1195
1658,1713856107930370450,2061,2089,2140,2072,2041,2056,1198
1659,1713856107940374018,2061,2081,2100,2048,2069,2058,1196
1660,1713856107950371964,2055,2056,2046,2064,2042,2053,1197
1661,1713856107960370191,2060,2058,2100,2064,2077,2060,1195
1662,1713856107970364640,2066,2064,2060,2065,2037,2047,1192
1663,1713856107980368809,2053,2051,2057,2043,2061,2056,1197
1664,1713856107990352998,2054,2057,2057,2063,2036,2054,1193
1665,1713856108000355052,2056,2053,2061,2041,2067,2061,1196
1666,1713856108010358580,2058,2044,2053,2064,2035,2050,1197
1667,1713856108020352919,2056,2050,2069,2045,2066,2056,1196
1668,1713856108030373792,2050,2050,2046,2078,2036,2047,1193
1669,1713856108040357680,2050,2036,2020,1988,2066,2052,1196
1670,1713856108050356228,2058,2052,2049,2064,2033,2048,1195
1671,1713856108060357501,2054,2048,2040,2040,2067,2057,1197
1672,1713856108070356660,2056,2054,2069,2066,2037,2050,1196
1673,1713856108080358585,2055,2059,2059,2049,2070,2057,1195
1674,1713856108090351541,2057,2078,2105,2063,2046,2054,1198
1675,1713856108100351883,2047,2037,2053,2043,2066,2057,1198
1676,1713856108110355180,2053,2048,2077,2060,2032,2047,1193
1677,1713856108120356974,2051,2041,2029,2038,2066,2053,1197
1678,1713856108130375783,2052,2065,2093,2068,2037,2047,1192
1679,1713856108140356194,2056,2040,2032,2046,2067,2057,1196
1680,1713856108150376857,2056,2052,2062,2062,2036,2050,1196
1681,1713856108160398400,2072,2069,2061,2041,2060,2056,1195
1682,1713856108170356537,2053,2043,2024,2061,2039,2051,1200
1683,1713856108180360686,2056,2040,2017,2049,2065,2058,1195
1684,1713856108190353613,2059,2073,2104,2066,2036,2050,1194
1685,1713856108200357742,2052,2046,2044,2046,2066,2056,1197
1686,1713856108210357903,2053,2039,2000,2063,2040,2050,1195
1687,1713856108220359096,2049,2038,2038,2043,2067,2056,1196
1688,1713856108230379156,2050,2042,2034,2068,2040,2054,1196
1689,1713856108240383847,2049,2036,2045,2036,2069,2054,1197
1690,1713856108250360602,2056,2052,2043,2059,2030,2049,1197
1691,1713856108260363628,2053,2052,2068,2045,2069,2058,1194
1692,1713856108270364641,2061,2074,2083,2064,2037,2050,1197
1693,1713856108280365853,2044,2047,2086,2050,2066,2055,1196
1694,1713856108290367738,2053,2064,2052,2068,2037,2054,1197
1695,1713856108300362488,2057,2070,2043,2045,2068,2051,1197
1696,1713856108310367890,2057,2074,2132,2070,2049,2056,1197
1697,1713856108320389714,2054,2046,2036,2046,2065,2056,1196
1698,1713856108330380166,2053,2048,2057,2064,2034,2050,1195
1699,1713856108340352552,2052,2048,2034,2050,2073,2056,1194
1700,1713856108350353233,2065,2102,2133,2071,2048,2048,1197
1701,1713856108360391491,2052,2044,2065,2045,2072,2060,1197
1702,1713856108370355659,2060,2066,2064,2061,2040,2051,1196
1703,1713856108380358466,2075,2100,2092,2052,2067,2059,1199
1704,1713856108390350070,2056,2046,2057,2065,2040,2053,1195
1705,1713856108400358608,2054,2048,2049,2047,2077,2056,1196
1706,1713856108410353509,2064,2075,2155,2076,2043,2056,1195
1707,1713856108420354280,2057,2061,2072,2045,2070,2060,1195
1708,1713856108430359191,2060,2048,2034,2068,2042,2047,1192
1709,1713856108440391968,2044,2045,2038,2040,2058,2057,1197
1710,1713856108450351878,2064,2082,2108,2072,2049,2056,1196
1711,1713856108460358121,2053,2059,2088,2047,2068,2056,1198
1712,1713856108470352200,2055,2060,2061,2061,2031,2049,1197
1713,1713856108480357562,2060,2062,2100,2062,2063,2053,1196
1714,1713856108490355518,2056,2056,2050,2064,2040,2047,1194
1715,1713856108500353044,2053,2066,2093,2047,2072,2052,1196
1716,1713856108510355639,2052,2052,2051,2065,2038,2050,1198
1717,1713856108520369198,2058,2051,2058,2045,2072,2056,1197
1718,1713856108530382575,2058,2047,2033,2064,2033,2045,1194
1719,1713856108540355722,2046,2037,2035,2040,2068,2060,1195
1720,1713856108550357456,2043,2031,2025,2057,2034,2050,1196
1721,1713856108560360563,2058,2088,2106,2044,2069,2056,1195
1722,1713856108570364742,2053,2064,2067,2064,2037,2052,1195
1723,1713856108580361416,2064,2056,2049,2045,2067,2056,1196
1724,1713856108590362870,2052,2057,2050,2065,2035,2052,1194
1725,1713856108600361698,2049,2048,2046,2046,2072,2056,1198
1726,1713856108610363352,2054,2056,2043,2066,2037,2052,1195
1727,1713856108620362221,2056,2046,2051,2046,2073,2059,1194
1728,1713856108630363113,2056,2048,2044,2062,2035,2054,1198
1729,1713856108640362332,2055,2053,2048,2044,2073,2052,1197
1730,1713856108650364126,2072,2098,2112,2069,2040,2053,1198
1731,1713856108660365640,2052,2020,2017,2044,2068,2057,1198
1732,1713856108670365962,2072,2070,2053,2060,2036,2050,1195
1733,1713856108680373427,2050,2050,2052,2044,2070,2056,1196
1734,1713856108690367156,2056,2044,2037,2067,2047,2052,1197
1735,1713856108700366224,2053,2045,2043,2052,2068,2056,1197
1736,1713856108710367327,2053,2037,2028,2063,2039,2050,1199
1737,1713856108720367939,2069,2050,2037,2044,2068,2056,1196
1738,1713856108730367138,2049,2047,2048,2064,2034,2047,1194
1739,1713856108740369725,2067,2108,2198,2058,2074,2062,1197
1740,1713856108750370807,2059,2054,2038,2072,2048,2049,1195
1741,1713856108760385437,2056,2059,2069,2050,2068,2054,1196
1742,1713856108770370508,2049,2047,2057,2064,2037,2050,1195
1743,1713856108780373956,2037,2024,2035,2045,2069,2056,1194
1744,1713856108790366873,2055,2040,2032,2063,2036,2047,1193
1745,1713856108800371753,2043,2022,2021,2048,2064,2056,1197
1746,1713856108810371082,2057,2081,2061,2058,2042,2052,1195
1747,1713856108820369068,2062,2083,2092,2050,2070,2053,1195
1748,1713856108830369230,2062,2064,2036,2064,2033,2052,1196
1749,1713856108840370733,2040,2029,2043,2046,2065,2058,1197
1750,1713856108850374632,2056,2042,2028,2066,2032,2054,1198
1751,1713856108860372028,2053,2037,1978,2046,2072,2056,1198
1752,1713856108870389513,2052,2044,2029,2062,2044,2050,1197
1753,1713856108880374384,2056,2057,2065,2045,2066,2058,1197
1754,1713856108890373442,2065,2091,2097,2064,2034,2047,1193
1755,1713856108900377111,2052,2040,2051,2068,2079,2058,1197
1756,1713856108910378083,2072,2088,2128,2066,2048,2054,1197
1757,1713856108920384136,2065,2116,2122,2059,2070,2060,1197
1758,1713856108930377925,2061,2052,2048,2042,2037,2047,1194
1759,1713856108940382324,2056,2055,2052,2054,2061,2057,1197
1760,1713856108950381533,2048,2019,1982,2069,2049,2046,1192
1761,1713856108960382605,2054,2048,1996,2025,2058,2051,1197
1762,1713856108970398458,2057,2054,2057,2057,2046,2049,1197
1763,1713856108980387447,2054,2056,2057,2047,2066,2054,1196
1764,1713856108990386776,2060,2056,2053,2067,2041,2056,1195
1765,1713856109000389072,2054,2054,2049,2056,2069,2056,1195
1766,1713856109010389385,2052,2053,2079,2059,2031,2043,1193
1767,1713856109020372915,2061,2053,2043,2050,2075,2059,1197
1768,1713856109030374301,2049,2033,2002,2058,2038,2047,1192
1769,1713856109040393102,2053,2056,2035,2044,2068,2053,1197
1770,1713856109050394578,2061,2050,2057,2072,2037,2052,1195
1771,1713856109060398198,2052,2045,2057,2054,2072,2053,1196
1772,1713856109070399474,2060,2057,2070,2064,2046,2050,1195
1773,1713856109080398485,2066,2094,2117,2050,2071,2062,1197
1774,1713856109090400402,2062,2060,2047,2073,2038,2050,1196
1775,1713856109100403341,2074,2087,2155,2062,2071,2054,1198
1776,1713856109110403274,2053,2047,2056,2049,2036,2052,1198
1777,1713856109120404148,2056,2052,2057,2042,2070,2053,1197
1778,1713856109130405294,2048,2046,2037,2056,2046,2056,1197
1779,1713856109140408093,2050,2040,2048,2047,2064,2057,1198
1780,1713856109150409929,2047,2031,2029,2060,2040,2047,1194
1781,1713856109160375023,2043,2028,2001,2052,2072,2061,1196
1782,1713856109170382591,2052,2060,2079,2065,2042,2054,1196
1783,1713856109180384388,2059,2062,2090,2054,2072,2054,1197
1784,1713856109190386054,2052,2065,2078,2057,2038,2053,1196
1785,1713856109200383222,2052,2053,2072,2041,2064,2058,1195
1786,1713856109210385439,2053,2052,2054,2057,2033,2047,1195
1787,1713856109220386625,2053,2068,2104,2049,2073,2063,1196
1788,1713856109230388562,2046,2040,2050,2060,2036,2054,1197
1789,1713856109240391751,2044,2036,2040,2042,2067,2053,1196
1790,1713856109250390692,2054,2060,2057,2066,2038,2051,1195
1791,1713856109260387629,2053,2057,2076,2053,2071,2057,1195
1792,1713856109270387182,2059,2063,2128,2056,2044,2052,1197
1793,1713856109280388638,2063,2050,2060,2050,2068,2061,1195
1794,1713856109290387740,2065,2084,2132,2065,2047,2060,1196
1795,1713856109300391260,2060,2078,2129,2053,2055,2052,1196
1796,1713856109310388497,2057,2060,2067,2060,2030,2052,1197
1797,1713856109320391677,2045,2039,2031,2047,2065,2056,1196
1798,1713856109330390618,2063,2068,2140,2074,2048,2058,1197
1799,1713856109340358878,2051,2046,2042,2056,2067,2053,1195
1800,1713856109350361596,2050,2056,2056,2067,2039,2054,1197
1801,1713856109360393353,2057,2057,2054,2050,2072,2054,1195
1802,1713856109370358216,2061,2041,2032,2067,2041,2056,1196
1803,1713856109380357578,2056,2065,2056,2049,2074,2062,1196
1804,1713856109390360847,2048,2053,2074,2064,2042,2053,1192
1805,1713856109400368496,2052,2044,2047,2047,2065,2056,1196
1806,1713856109410358208,2050,2032,2039,2065,2043,2048,1197
1807,1713856109420358532,2047,2036,2033,2048,2073,2052,1196
1808,1713856109430361010,2052,2033,2028,2061,2040,2053,1195
1809,1713856109440360552,2055,2050,2024,2044,2064,2056,1196
1810,1713856109450363261,2053,2056,2051,2060,2041,2047,1192
1811,1713856109460363524,2056,2056,2049,2046,2062,2056,1197
1812,1713856109470359760,2057,2057,2059,2061,2041,2049,1197
1813,1713856109480360805,2055,2053,2035,2053,2064,2052,1196
1814,1713856109490359325,2077,2092,2121,2070,2038,2051,1197
1815,1713856109500361172,2052,2048,2045,2056,2061,2057,1198
1816,1713856109510359251,2059,2060,2087,2061,2033,2051,1197
1817,1713856109520360557,2061,2024,1957,2049,2061,2052,1197
1818,1713856109530357785,2063,2061,2076,2059,2033,2048,1197
1819,1713856109540361064,2056,2050,2078,2044,2061,2055,1195
1820,1713856109550360596,2058,2061,2060,2060,2039,2048,1198
1821,1713856109560360159,2051,2045,2049,2060,2069,2058,1197
1822,1713856109570362026,2061,2056,2064,2060,2040,2050,1198
1823,1713856109580360295,2052,2061,2086,2045,2065,2052,1196
1824,1713856109590356531,2054,2048,2061,2064,2042,2053,1197
1825,1713856109600364039,2069,2057,2038,2047,2064,2053,1197
1826,1713856109610360986,2061,2045,2035,2065,2044,2052,1196
1827,1713856109620359807,2051,2043,2053,2051,2072,2056,1197
1828,1713856109630359229,2053,2048,2028,2064,2039,2047,1193
1829,1713856109640361987,2056,2043,2024,2049,2066,2050,1197
1830,1713856109650357441,2049,2034,1982,2066,2053,2058,1197
1831,1713856109660359328,2056,2061,2088,2044,2065,2056,1195
1832,1713856109670359772,2059,2066,2057,2068,2045,2055,1196
1833,1713856109680359885,2047,2046,2037,2044,2068,2054,1196
1834,1713856109690358987,2057,2048,2040,2060,2038,2052,1196
1835,1713856109700360573,2048,2039,2041,2045,2063,2052,1196
1836,1713856109710359094,2054,2043,2046,2061,2045,2052,1197
1837,1713856109720363135,2040,2034,2041,2048,2058,2045,1194
1838,1713856109730361094,2059,2037,2025,2064,2041,2053,1197
1839,1713856109740363122,2048,2034,2014,2044,2064,2054,1196
1840,1713856109750362453,2058,2071,2079,2063,2041,2052,1195
1841,1713856109760364410,2056,2053,2049,2047,2064,2057,1194
1842,1713856109770367279,2072,2065,2066,2064,2038,2052,1196
1843,1713856109780366481,2040,2049,2062,2049,2058,2056,1195
1844,1713856109790357105,2035,2026,2026,2061,2045,2056,1195
1845,1713856109800357299,2056,2037,2022,2045,2058,2049,1197
1846,1713856109810356801,2056,2054,2049,2060,2045,2060,1197
1847,1713856109820358537,2056,2062,2056,2046,2065,2053,1195
1848,1713856109830361577,2053,2050,2042,2061,2038,2050,1195
1849,1713856109840361620,2073,2065,2047,2041,2064,2056,1196
1850,1713856109850361773,2083,2146,2205,2069,2045,2058,1194
1851,1713856109860361255,2063,2059,2055,2045,2060,2054,1196
1852,1713856109870360316,2054,2057,2071,2059,2040,2052,1195
1853,1713856109880362153,2056,2061,2054,2048,2064,2059,1196
1854,1713856109890359852,2052,2056,2050,2064,2043,2049,1196
1855,1713856109900360767,2052,2056,2047,2047,2064,2052,1195
1856,1713856109910360219,2062,2077,2085,2060,2046,2056,1196
1857,1713856109920361334,2046,2030,2026,2047,2062,2051,1197
1858,1713856109930360355,2049,2030,1992,2065,2045,2053,1197
1859,1713856109940361821,2060,2089,2125,2052,2069,2060,1196
1860,1713856109950359139,2049,2050,2037,2064,2039,2051,1197
1861,1713856109960361797,2049,2045,2054,2053,2066,2054,1196
1862,1713856109970360458,2040,2044,2095,2066,2048,2056,1195
1863,1713856109980362265,2065,2084,2088,2054,2065,2054,1196
1864,1713856109990358901,2056,2045,2056,2061,2045,2059,1194
1865,1713856110000361860,2045,2022,2024,2052,2070,2060,1198
1866,1713856110010357223,2046,2040,2012,2060,2040,2053,1195
1867,1713856110020359075,2041,2025,2020,2043,2062,2056,1196
1868,1713856110030357770,2046,2056,2048,2059,2043,2050,1196
1869,1713856110040363228,2061,2066,2048,2061,2069,2060,1197
1870,1713856110050359679,2052,2044,2054,2060,2041,2052,1198
1871,1713856110060361119,2062,2075,2090,2052,2070,2058,1197
1872,1713856110070363912,2060,2082,2056,2064,2040,2050,1199
1873,1713856110080363148,2064,2066,2001,2053,2062,2054,1195
1874,1713856110090365311,2061,2056,2073,2059,2032,2042,1193
1875,1713856110100367533,2050,2065,2094,2045,2064,2058,1197
1876,1713856110110369725,2049,2032,2020,2057,2040,2054,1199
1877,1713856110120369752,2054,2036,2026,2056,2072,2051,1199
1878,1713856110130370863,2056,2056,2079,2070,2041,2047,1195
1879,1713856110140371962,2057,2069,2064,2049,2068,2058,1196
1880,1713856110150372350,2044,2041,2040,2059,2038,2050,1196
1881,1713856110160360004,2052,2022,1992,2050,2064,2056,1196
1882,1713856110170360713,2040,2028,2045,2056,2038,2047,1193
1883,1713856110180363266,2061,2056,2044,2049,2064,2054,1198
1884,1713856110190359426,2056,2058,2092,2062,2053,2052,1195
1885,1713856110200361357,2052,2048,2026,2049,2061,2058,1196
1886,1713856110210360442,2058,2045,2034,2060,2038,2046,1192
1887,1713856110220368276,2053,2042,2054,2053,2061,2056,1197
1888,1713856110230358554,2052,2047,2052,2058,2046,2052,1196
1889,1713856110240361428,2056,2049,2044,2048,2069,2053,1196
1890,1713856110250359973,2068,2050,2013,2063,2049,2055,1196
1891,1713856110260360812,2045,2045,2136,2053,2064,2056,1199
1892,1713856110270364347,2056,2049,2068,2059,2044,2056,1193
1893,1713856110280358893,2070,2088,2138,2057,2066,2062,1196
1894,1713856110290361546,2042,2011,1994,2062,2043,2047,1192
1895,1713856110300362065,2048,2034,2026,2045,2064,2057,1196
1896,1713856110310361351,2046,2042,2043,2062,2041,2060,1199
1897,1713856110320360347,2044,2034,2027,2047,2065,2054,1197
1898,1713856110330357579,2056,2046,2024,2058,2042,2054,1196
1899,1713856110340360522,2066,2101,2099,2055,2068,2056,1195
1900,1713856110350357094,2064,2066,2040,2065,2043,2054,1198
1901,1713856110360361540,2064,2051,2044,2049,2064,2060,1196
1902,1713856110370361247,2048,2045,2062,2058,2044,2048,1197
1903,1713856110380361114,2053,2058,2089,2049,2069,2060,1196
1904,1713856110390361232,2076,2093,2077,2058,2039,2048,1194
1905,1713856110400362523,2050,2044,2055,2042,2061,2057,1196
1906,1713856110410363793,2057,2057,2107,2062,2043,2056,1197
1907,1713856110420373650,2056,2040,2040,2051,2064,2054,1196
1908,1713856110430365902,2062,2046,2042,2063,2044,2051,1195
1909,1713856110440368235,2051,2039,2041,2054,2069,2054,1195
1910,1713856110450369875,2066,2070,2044,2061,2040,2049,1197
1911,1713856110460371446,2049,2037,2040,2049,2066,2057,1197
1912,1713856110470373248,2064,2072,2071,2065,2041,2055,1196
1913,1713856110480374658,2052,2050,2068,2048,2065,2058,1195
1914,1713856110490376319,2056,2057,2039,2059,2039,2050,1197
1915,1713856110500375485,2052,2043,2069,2046,2069,2056,1198
1916,1713856110510362587,2056,2063,2056,2063,2036,2049,1197
1917,1713856110520364739,2050,2044,2031,2049,2068,2060,1197
1918,1713856110530364105,2049,2041,2020,2064,2045,2050,1197
1919,1713856110540363843,2056,2032,2028,2045,2062,2050,1195
1920,1713856110550365023,2056,2045,2042,2059,2036,2050,1196
1921,1713856110560365932,2057,2040,2048,2047,2065,2054,1197
1922,1713856110570364367,2044,2046,2067,2068,2039,2050,1197
1923,1713856110580366138,2064,2078,2136,2052,2076,2058,1196
1924,1713856110590367127,2056,2052,2067,2056,2041,2050,1194
1925,1713856110600366093,2065,2049,2049,2047,2068,2052,1194
1926,1713856110610368065,2053,2040,2037,2059,2044,2053,1196
1927,1713856110620366119,2052,2045,2046,2049,2060,2057,1195
1928,1713856110630367599,2067,2074,2058,2062,2042,2054,1195
1929,1713856110640369149,2058,2059,2068,2053,2062,2051,1195
1930,1713856110650367504,2044,2048,2058,2060,2042,2053,1197
1931,1713856110660369285,2040,2034,2046,2052,2066,2056,1197
1932,1713856110670367990,2048,2052,2061,2062,2046,2051,1196
1933,1713856110680369651,2048,2043,2050,2047,2065,2057,1195
1934,1713856110690368186,2046,2037,2032,2064,2037,2048,1196
1935,1713856110700368635,2042,2018,1988,2046,2066,2055,1195
1936,1713856110710369775,2047,2034,2004,2058,2042,2048,1196
1937,1713856110720368860,2064,2043,2046,2050,2069,2059,1195
1938,1713856110730371142,2060,2048,2086,2066,2042,2045,1193
1939,1713856110740370048,2064,2073,2091,2056,2069,2060,1195
1940,1713856110750372781,2066,2098,2136,2060,2043,2051,1198
1941,1713856110760371627,2047,2040,2042,2049,2070,2062,1196
1942,1713856110770372175,2086,2166,2316,2083,2056,2057,1196
1943,1713856110780376100,2050,2056,2048,2043,2068,2056,1193
1944,1713856110790374105,2056,2068,2059,2060,2039,2050,1195
1945,1713856110800373060,2049,2040,2045,2049,2068,2054,1196
1946,1713856110810374039,2060,2067,2052,2062,2041,2050,1195
1947,1713856110820418956,2048,2040,2037,2052,2062,2056,1195
1948,1713856110830376239,2054,2050,2052,2063,2044,2052,1196
1949,1713856110840373802,2043,2034,2036,2049,2069,2058,1196
1950,1713856110850374552,2073,2102,2077,2065,2034,2052,1196
1951,1713856110860374078,2052,2053,2046,2047,2064,2056,1194
1952,1713856110870385799,2054,2058,2057,2062,2048,2050,1196
1953,1713856110880374605,2061,2067,2100,2052,2065,2059,1195
1954,1713856110890374592,2042,2044,2049,2060,2040,2050,1196
1955,1713856110900376003,2053,2052,2017,2050,2062,2053,1195
1956,1713856110910376651,2063,2085,2081,2068,2037,2050,1197
1957,1713856110920374976,2056,2056,2043,2046,2066,2057,1196
1958,1713856110930375545,2065,2072,2059,2066,2047,2056,1196
1959,1713856110940377837,2051,2044,2052,2048,2057,2056,1197
1960,1713856110950377904,2066,2112,2173,2064,2044,2056,1197
1961,1713856110960377431,2056,2057,2043,2049,2069,2058,1197
1962,1713856110970377559,2048,2060,2040,2061,2042,2048,1197
1963,1713856110980377407,2048,2033,2015,2046,2065,2053,1195
1964,1713856110990377865,2073,2068,2007,2075,2042,2056,1195
1965,1713856111000379716,2056,2042,2046,2049,2067,2056,1196
1966,1713856111010378823,2050,2045,2031,2053,2044,2051,1192
1967,1713856111020379488,2048,2036,2044,2049,2062,2052,1194
1968,1713856111030382819,2053,2057,2056,2060,2045,2056,1196
1969,1713856111040379006,2053,2061,2044,2049,2058,2053,1196
1970,1713856111050379391,2042,2036,2008,2062,2041,2052,1196
1971,1713856111060380357,2038,2017,2022,2041,2061,2056,1196
1972,1713856111070379400,2068,2052,2051,2056,2046,2051,1196
1973,1713856111080381217,2053,2067,2080,2047,2065,2052,1196
1974,1713856111090379628,2060,2058,2042,2064,2052,2053,1195
1975,1713856111100382809,2053,2052,2057,2047,2062,2054,1195
1976,1713856111110383184,2053,2053,2050,2060,2042,2059,1196
1977,1713856111120382476,2067,2105,2141,2056,2068,2056,1197
1978,1713856111130382982,2048,2035,2021,2060,2043,2058,1196
1979,1713856111140381803,2049,2039,2024,2048,2057,2049,1195
1980,1713856111150384774,2064,2061,2056,2059,2040,2051,1195
1981,1713856111160382684,2051,2042,2051,2050,2068,2059,1196
1982,1713856111170383099,2048,2048,2066,2062,2043,2052,1196
1983,1713856111180384226,2063,2038,2024,2044,2060,2052,1196
1984,1713856111190383217,2053,2053,2046,2064,2049,2056,1193
1985,1713856111200383493,2054,2044,2049,2041,2065,2052,1196
1986,1713856111210382875,2053,2055,2052,2061,2047,2050,1195
1987,1713856111220392920,2058,2065,2072,2056,2067,2056,1196
1988,1713856111230382543,2056,2048,2049,2058,2043,2053,1196
1989,1713856111240389962,2075,2089,2067,2049,2066,2052,1196
1990,1713856111250386639,2052,2043,2048,2061,2047,2054,1196
1991,1713856111260384470,2059,2050,2038,2046,2060,2046,1194
1992,1713856111270384314,2055,2054,2056,2064,2045,2056,1196
1993,1713856111280386142,2051,2034,2020,2050,2064,2059,1196
1994,1713856111290385154,2057,2064,2088,2064,2042,2048,1197
1995,1713856111300386461,2039,2038,2046,2046,2068,2053,1198
1996,1713856111310385213,2057,2064,2060,2061,2044,2052,1197
1997,1713856111320410667,2060,2064,2045,2050,2060,2050,1195
1998,1713856111330388838,2056,2057,2057,2061,2046,2056,1196
1999,1713856111340387509,2053,2042,2022,2050,2064,2054,1195
2000,1713856111350388596,2071,2073,2064,2061,2042,2051,1194
2001,1713856111360386626,2060,2064,2053,2052,2074,2063,1196
2002,1713856111370388084,2053,2043,2037,2060,2040,2053,1197
2003,1713856111380390272,2053,2056,2062,2051,2066,2054,1195
2004,1713856111390387261,2051,2053,2044,2065,2043,2052,1193
2005,1713856111400389218,2056,2042,2015,2048,2061,2054,1196
2006,1713856111410390024,2052,2059,2035,2056,2040,2052,1197
2007,1713856111420393145,2049,2038,2034,2052,2065,2056,1197
2008,1713856111430389462,2044,2037,2041,2058,2045,2051,1196
2009,1713856111440388875,2056,2030,2010,2051,2069,2059,1196
2010,1713856111450390763,2060,2056,2042,2059,2040,2052,1196
2011,1713856111460392060,2050,2040,2028,2049,2067,2051,1197
2012,1713856111470396142,2068,2056,2039,2063,2042,2049,1195
2013,1713856111480391407,2056,2054,2056,2048,2066,2052,1198
2014,1713856111490354628,2056,2046,2028,2056,2039,2052,1196
2015,1713856111500392027,2061,2058,2048,2048,2064,2054,1196
2016,1713856111510393183,2055,2056,2132,2064,2042,2055,1198
2017,1713856111520395913,2056,2051,2056,2049,2065,2056,1197
2018,1713856111530353083,2057,2043,2032,2063,2039,2052,1197
2019,1713856111540422364,2060,2045,2047,2047,2065,2060,1196
2020,1713856111550352400,2046,2061,2064,2059,2036,2050,1195
2021,1713856111560392904,2056,2076,2121,2047,2070,2057,1195
2022,1713856111570396495,2048,2043,2040,2064,2047,2056,1194
2023,1713856111580394225,2068,2101,2097,2056,2065,2057,1197
2024,1713856111590356014,2060,2090,2117,2078,2051,2052,1196
2025,1713856111600394494,2066,2053,2052,2048,2061,2054,1195
2026,1713856111610356002,2052,2057,2057,2060,2043,2052,1195
2027,1713856111620358360,2055,2045,2042,2051,2072,2053,1196
2028,1713856111630353025,2056,2047,2025,2062,2038,2052,1193
2029,1713856111640401755,2072,2088,2113,2047,2064,2057,1196
2030,1713856111650395818,2070,2082,2064,2059,2041,2052,1194
2031,1713856111660397665,2042,2048,2064,2051,2061,2052,1196
2032,1713856111670400185,2061,2064,2081,2068,2041,2057,1195
2033,1713856111680396993,2041,2051,2050,2049,2072,2058,1196
2034,1713856111690398810,2056,2056,2073,2062,2047,2055,1196
2035,1713856111700399236,2054,2052,2109,2050,2057,2054,1197
2036,1713856111710402386,2049,2035,2040,2059,2042,2048,1196
2037,1713856111720400918,2062,2066,2050,2053,2072,2058,1198
2038,1713856111730401843,2056,2052,2057,2060,2043,2053,1198
2039,1713856111740404393,2064,2060,2044,2048,2064,2052,1196
2040,1713856111750407052,2057,2051,2053,2064,2044,2048,1197
2041,1713856111760406185,2064,2083,2122,2053,2070,2059,1194
2042,1713856111770353254,2054,2052,2047,2058,2041,2047,1192
2043,1713856111780353048,2059,2052,2058,2049,2062,2050,1196
2044,1713856111790354736,2064,2068,2056,2064,2042,2052,1194
2045,1713856111800355912,2045,2047,2055,2050,2066,2058,1193
2046,1713856111810357450,2064,2073,2061,2061,2044,2056,1197
2047,1713856111820351452,2060,2060,2052,2052,2068,2055,1196
2048,1713856111830350695,2053,2042,2033,2061,2038,2053,1196
2049,1713856111840358554,2059,2068,2083,2058,2073,2057,1196
2050,1713856111850360944,2056,2032,2001,2061,2036,2044,1192
2051,1713856111860358422,2049,2029,2036,2047,2060,2049,1197
2052,1713856111870358327,2061,2073,2101,2065,2039,2054,1197
2053,1713856111880353601,2056,2053,2039,2051,2069,2059,1196
2054,1713856111890355249,2054,2052,2049,2061,2041,2045,1193
2055,1713856111900357738,2049,2035,2042,2047,2056,2056,1196
2056,1713856111910356741,2052,2049,2071,2061,2047,2049,1196
2057,1713856111920355582,2053,2080,2090,2053,2068,2056,1196
2058,1713856111930345857,2044,2033,2054,2056,2036,2049,1197
2059,1713856111940354599,2049,2040,2012,2054,2069,2056,1195
2060,1713856111950352920,2064,2047,2050,2056,2037,2050,1195
2061,1713856111960357784,2060,2063,2038,2052,2071,2053,1196
2062,1713856111970362357,2051,2046,2064,2060,2039,2052,1195
2063,1713856111980351350,2049,2041,2036,2051,2066,2056,1197
2064,1713856111990357045,2049,2082,2139,2065,2044,2053,1193
2065,1713856112000360406,2058,2044,2056,2049,2065,2058,1193
2066,1713856112010355131,2048,2045,2035,2057,2037,2049,1196
2067,1713856112020353471,2046,2037,2018,2047,2066,2059,1196
2068,1713856112030353614,2057,2053,2045,2065,2042,2055,1195
2069,1713856112040357054,2053,2047,2050,2052,2064,2056,1196
2070,1713856112050360673,2059,2057,2063,2061,2050,2048,1197
2071,1713856112060357450,2053,2041,2044,2049,2078,2061,1196
2072,1713856112070359817,2056,2053,2048,2061,2041,2047,1192
2073,1713856112080360522,2061,2077,2072,2052,2088,2062,1197
2074,1713856112090361266,2054,2053,2036,2056,2025,2058,1195
2075,1713856112100363884,2069,2073,2092,2052,2060,2057,1196
2076,1713856112110364267,2054,2063,2040,2070,2035,2052,1196
2077,1713856112120367647,2058,2059,2104,2053,2075,2059,1198
2078,1713856112130364844,2057,2059,2064,2057,2049,2056,1196
2079,1713856112140366390,2056,2064,2018,2047,2063,2052,1197
2080,1713856112150366883,2045,2037,2041,2058,2043,2053,1196
2081,1713856112160367929,2057,2048,2035,2043,2056,2052,1196
2082,1713856112170377310,2048,2040,2021,2053,2042,2053,1195
2083,1713856112180356362,2056,2041,2025,2050,2063,2059,1196
2084,1713856112190355192,2049,2035,2013,2058,2030,2048,1197
2085,1713856112200356197,2052,2042,2026,2044,2061,2052,1196
2086,1713856112210357752,2068,2122,2156,2071,2051,2056,1196
2087,1713856112220377264,2051,2051,2061,2050,2061,2056,1196
2088,1713856112230346786,2076,2085,2066,2061,2044,2056,1196
2089,1713856112240358231,2049,2042,2043,2046,2060,2050,1196
2090,1713856112250356221,2060,2079,2156,2062,2054,2050,1196
2091,1713856112260358698,2061,2054,2036,2045,2072,2059,1194
2092,1713856112270377017,2056,2054,2061,2062,2045,2055,1196
2093,1713856112280353543,2062,2078,2098,2053,2068,2060,1195
2094,1713856112290352374,2060,2082,2068,2064,2042,2054,1197
2095,1713856112300352968,2053,2042,2036,2048,2062,2052,1196
2096,1713856112310372449,2068,2063,2060,2066,2043,2047,1193
2097,1713856112320364657,2056,2056,2052,2050,2066,2061,1198
2098,1713856112330346454,2049,2043,2040,2058,2044,2045,1192
2099,1713856112340358260,2052,2054,2075,2045,2056,2053,1197
2100,1713856112350358724,2064,2058,2060,2060,2041,2057,1196
2101,1713856112360357484,2054,2036,2037,2050,2077,2062,1195
2102,1713856112370376434,2062,2062,2013,2062,2036,2047,1194
2103,1713856112380359193,2056,2056,2064,2050,2086,2057,1197
2104,1713856112390355218,2073,2080,2089,2064,2060,2052,1193
2105,1713856112400358216,2046,2036,2036,2052,2065,2058,1196
2106,1713856112410365073,2051,2046,2046,2058,2025,2041,1192
2107,1713856112420363863,2052,2036,1980,2058,2086,2059,1195
2108,1713856112430347023,2052,2046,2022,2061,2038,2047,1193
2109,1713856112440353077,2061,2083,2056,2054,2071,2062,1194
2110,1713856112450356547,2059,2042,2004,2062,2046,2060,1197
2111,1713856112460358764,2056,2050,2030,2049,2066,2053,1195
2112,1713856112470373306,2053,2057,2033,2057,2044,2045,1192
2113,1713856112480355533,2056,2041,2031,2050,2077,2065,1196
2114,1713856112490354434,2056,2051,2086,2056,2040,2045,1195
2115,1713856112500356120,2055,2043,2029,2049,2069,2052,1196
2116,1713856112510370552,2057,2039,2020,2065,2045,2049,1198
2117,1713856112520361456,2045,2036,2005,2048,2075,2056,1195
2118,1713856112530345989,2056,2058,2036,2065,2040,2050,1196
2119,1713856112540357404,2048,2031,1992,2048,2062,2053,1194
2120,1713856112550353870,2046,2057,2085,2063,2042,2046,1193
2121,1713856112560357620,2053,2033,1999,2046,2062,2056,1197
2122,1713856112570377432,2056,2054,2026,2065,2032,2051,1195
2123,1713856112580359178,2063,2072,2086,2052,2068,2057,1195
2124,1713856112590356106,2052,2059,2056,2057,2037,2043,1192
2125,1713856112600357290,2076,2088,2153,2052,2061,2059,1196
2126,1713856112610364608,2058,2081,2084,2065,2054,2058,1196
2127,1713856112620357637,2050,2045,2031,2049,2062,2048,1195
2128,1713856112630354514,2048,2046,2030,2060,2040,2052,1196
2129,1713856112640359135,2072,2121,2160,2061,2069,2065,1196
2130,1713856112650356754,2052,2051,2039,2058,2036,2045,1192
2131,1713856112660360053,2052,2047,2058,2043,2060,2047,1194
2132,1713856112670378091,2079,2121,2165,2072,2054,2063,1197
2133,1713856112680356822,2056,2056,2073,2064,2065,2056,1196
2134,1713856112690356885,2050,2045,2054,2056,2040,2050,1196
2135,1713856112700357609,2058,2077,2141,2049,2069,2052,1196
2136,1713856112710363324,2044,2033,2008,2058,2044,2054,1196
2137,1713856112720356733,2047,2025,2024,2048,2063,2053,1198
2138,1713856112730356324,2051,2047,2068,2058,2034,2044,1193
2139,1713856112740358111,2072,2104,2232,2058,2076,2066,1197
2140,1713856112750359917,2047,2037,2015,2054,2032,2048,1195
2141,1713856112760360792,2054,2040,2032,2047,2056,2046,1193
2142,1713856112770373209,2049,2048,2044,2058,2037,2045,1192
2143,1713856112780363573,2059,2054,2054,2049,2077,2056,1196
2144,1713856112790364608,2064,2069,2077,2066,2042,2048,1195
2145,1713856112800365703,2060,2080,2076,2050,2064,2059,1195
2146,1713856112810369373,2057,2053,2048,2060,2044,2052,1197
2147,1713856112820371430,2057,2074,2092,2053,2075,2064,1195
2148,1713856112830367595,2066,2082,2112,2060,2041,2053,1194
2149,1713856112840370113,2056,2047,2056,2051,2077,2061,1194
2150,1713856112850353923,2059,2052,2054,2059,2046,2046,1192
2151,1713856112860354798,2053,2072,2072,2051,2071,2059,1197
2152,1713856112870385642,2048,2051,2074,2062,2036,2049,1197
2153,1713856112880356668,2072,2133,2177,2055,2073,2059,1196
2154,1713856112890356279,2053,2050,2050,2070,2036,2040,1194
2155,1713856112900357736,2056,2052,2039,2047,2069,2060,1198
2156,1713856112910362407,2054,2045,2040,2058,2045,2050,1197
2157,1713856112920360136,2058,2061,2142,2056,2073,2057,1195
2158,1713856112930352202,2050,2040,2018,2059,2035,2047,1193
2159,1713856112940357867,2065,2045,2029,2051,2071,2063,1195
2160,1713856112950355575,2057,2061,2040,2059,2044,2049,1195
2161,1713856112960356911,2056,2053,2058,2056,2065,2057,1194
2162,1713856112970380710,2052,2033,2019,2061,2042,2053,1196
2163,1713856112980353470,2053,2033,2027,2044,2064,2052,1197
2164,1713856112990357129,2058,2060,2020,2057,2040,2047,1192
2165,1713856113000357573,2051,2032,2001,2044,2061,2049,1195
2166,1713856113010365294,2071,2075,2112,2074,2054,2064,1196
2167,1713856113020355698,2054,2040,2045,2040,2059,2046,1193
2168,1713856113030355280,2064,2037,2029,2064,2045,2052,1197
2169,1713856113040358851,2060,2060,2041,2058,2073,2054,1197
2170,1713856113050356329,2060,2047,2020,2068,2046,2053,1198
2171,1713856113060358847,2049,2020,2004,2045,2059,2047,1191
2172,1713856113070376195,2050,2056,2056,2062,2040,2052,1195
2173,1713856113080356649,2056,2062,2077,2047,2075,2052,1196
2174,1713856113090351432,2052,2059,2064,2074,2042,2052,1198
2175,1713856113100357929,2065,2096,2106,2050,2069,2061,1197
2176,1713856113110382350,2053,2040,2016,2064,2046,2053,1199
2177,1713856113120370760,2046,2035,2026,2049,2065,2051,1196
2178,1713856113130346606,2052,2042,2023,2057,2045,2053,1196
2179,1713856113140356709,2056,2047,2048,2046,2056,2050,1196
2180,1713856113150357053,2031,2017,2033,2059,2032,2046,1195
2181,1713856113160357698,2064,2061,2066,2053,2072,2064,1196
2182,1713856113170365707,2056,2054,2076,2064,2038,2039,1195
2183,1713856113180358055,2057,2053,2040,2052,2068,2060,1197
2184,1713856113190359221,2061,2096,2136,2068,2046,2048,1195
2185,1713856113200361538,2048,2032,1955,2050,2068,2049,1195
2186,1713856113210366321,2061,2100,2144,2061,2043,2046,1194
2187,1713856113220375613,2066,2056,2060,2052,2065,2056,1196
2188,1713856113230364825,2061,2068,2200,2074,2037,2056,1194
2189,1713856113240369187,2059,2049,2029,2043,2050,2053,1196
2190,1713856113250376274,2068,2124,2192,2066,2046,2052,1196
2191,1713856113260370215,2056,2052,2029,2048,2062,2056,1195
2192,1713856113270373485,2072,2089,2070,2069,2045,2062,1195
2193,1713856113280357006,2046,2034,2021,2041,2049,2045,1194
2194,1713856113290357110,2052,2044,2040,2056,2040,2053,1197
2195,1713856113300362313,2050,2043,2047,2045,2058,2052,1195
2196,1713856113310365352,2066,2060,2053,2066,2047,2054,1196
2197,1713856113320359754,2050,2038,2044,2049,2056,2058,1196
2198,1713856113330351251,2053,2058,2041,2057,2037,2049,1195
2199,1713856113340359711,2053,2058,2059,2046,2065,2056,1197
2200,1713856113350362029,2057,2073,2073,2068,2040,2052,1197
2201,1713856113360360058,2054,2040,2056,2052,2073,2057,1195
2202,1713856113370379249,2061,2047,2053,2056,2045,2054,1196
2203,1713856113380354012,2049,2043,2058,2046,2060,2054,1196
2204,1713856113390352302,2038,2034,2060,2060,2039,2047,1191
2205,1713856113400350643,2048,2040,2059,2053,2076,2061,1195
2206,1713856113410356116,2057,2051,2052,2062,2044,2052,1194
2207,1713856113420356180,2050,2040,2008,2052,2064,2052,1196
2208,1713856113430355432,2094,2164,2227,2078,2042,2059,1196
2209,1713856113440359102,2030,2028,2035,2043,2059,2056,1196
2210,1713856113450357302,2051,2044,2043,2061,2041,2052,1196
2211,1713856113460359148,2066,2067,2040,2056,2058,2050,1196
2212,1713856113470375764,2053,2062,2085,2064,2060,2063,1197
