seq,time,data[0],data[1],data[2],data[3],data[4],data[5],data[6]
201,1713855418027185111,2050,2037,2034,2048,2040,2052,1193
202,1713855418037188909,2056,2049,2040,2056,2034,2042,1195
203,1713855418047186217,2061,2072,2117,2041,2067,2064,1196
204,1713855418057186589,2060,2052,2041,2065,2058,2059,1197
205,1713855418067183987,2056,2062,2100,2061,2058,2053,1198
206,1713855418077182317,2053,2049,2042,2067,2046,2040,1193
207,1713855418087185935,2057,2059,2051,2032,2055,2057,1197
208,1713855418097184645,2052,2044,2036,2108,2080,2056,1196
209,1713855418107185199,2056,2052,2048,2045,2065,2059,1196
210,1713855418117185291,2057,2044,2027,2066,2056,2049,1195
211,1713855418127185935,2061,2056,2024,2057,2052,2056,1198
212,1713855418137189794,2061,2069,2056,2058,2050,2055,1193
213,1713855418147183675,2052,2066,2081,2015,2037,2047,1193
214,1713855418157189268,2060,2058,2060,2045,2045,2053,1198
215,1713855418167183619,2058,2048,2086,2064,2060,2057,1196
216,1713855418177185595,2064,2079,2093,2062,2053,2057,1197
217,1713855418187184145,2051,2037,2057,2043,2066,2066,1197
218,1713855418197184297,2050,2041,2047,2084,2069,2054,1196
219,1713855418207185031,2049,2039,2037,2043,2047,2052,1197
220,1713855418217184612,2066,2072,2090,2057,2052,2056,1194
221,1713855418227223688,2046,2046,2053,2072,2056,2049,1197
222,1713855418237222819,2054,2047,2035,2052,2048,2056,1198
223,1713855418247221638,2055,2064,2104,2061,2051,2053,1196
224,1713855418257220849,2064,2082,2090,2069,2068,2066,1195
225,1713855418267221102,2050,2031,2020,2035,2048,2051,1194
226,1713855418277221575,2058,2042,2048,2057,2046,2052,1199
227,1713855418287220065,2062,2050,2091,2043,2050,2052,1195
228,1713855418297218714,2051,2037,2030,2047,2057,2050,1195
229,1713855418307217134,2054,2054,2080,2048,2056,2054,1198
230,1713855418317217407,2053,2049,2050,2060,2053,2052,1196
231,1713855418327217649,2054,2067,2061,2072,2059,2050,1197
232,1713855418337215037,2053,2041,2043,2066,2062,2060,1195
233,1713855418347215580,2051,2042,2061,2049,2039,2047,1193
234,1713855418357213358,2052,2051,2057,2047,2048,2060,1195
235,1713855418367213881,2049,2044,2046,2043,2052,2052,1197
236,1713855418377213152,2056,2055,2058,2060,2054,2053,1196
237,1713855418387210750,2052,2053,2072,2050,2048,2047,1196
238,1713855418397209921,2052,2045,2056,2052,2034,2046,1194
239,1713855418407211265,2058,2047,2053,2051,2050,2052,1196
240,1713855418417209334,2070,2094,2173,2066,2063,2064,1196
241,1713855418427209066,2053,2053,2046,2061,2063,2048,1195
242,1713855418437206513,2057,2054,2064,2106,2064,2061,1198
243,1713855418447206967,2069,2098,2128,2053,2052,2053,1199
244,1713855418457204714,2056,2047,2043,2069,2068,2053,1196
245,1713855418467205027,2055,2054,2048,2045,2050,2050,1197
246,1713855418477204669,2059,2060,2060,2054,2050,2052,1196
247,1713855418487202787,2056,2053,2032,2062,2049,2052,1198
248,1713855418497202109,2070,2090,2076,2073,2085,2064,1200
249,1713855418507213472,2052,2053,2080,2065,2072,2060,1198
250,1713855418517200570,2056,2050,2052,2045,2032,2036,1194
251,1713855418527201745,2059,2072,2077,2062,2048,2041,1194
252,1713855418537199372,2057,2052,2034,2064,2060,2058,1196
253,1713855418547199235,2050,2043,2036,2057,2064,2065,1196
254,1713855418557203575,2056,2062,2069,2052,2052,2053,1197
255,1713855418567196955,2052,2051,2046,2073,2063,2056,1197
256,1713855418577196647,2060,2048,2053,2046,2064,2054,1196
257,1713855418587197039,2049,2033,2010,2041,2065,2053,1196
258,1713855418597197122,2052,2042,2000,2068,2075,2067,1196
259,1713855418607198377,2052,2037,2042,2051,2054,2047,1194
260,1713855418617197166,2049,2049,2040,2056,2056,2068,1195
261,1713855418627197560,2046,2040,2052,2070,2072,2057,1197
262,1713855418637197703,2056,2056,2053,2072,2057,2055,1198
263,1713855418647197844,2056,2053,2049,2045,2047,2046,1193
264,1713855418657198478,2061,2068,2099,2056,2060,2068,1198
265,1713855418667199061,2054,2038,2042,2056,2050,2051,1196
266,1713855418677198633,2050,2057,2049,2052,2059,2059,1197
267,1713855418687200259,2050,2045,2044,2088,2061,2052,1196
268,1713855418697198737,2057,2070,2036,2063,2061,2049,1195
269,1713855418707199271,2057,2052,2034,2057,2061,2055,1193
270,1713855418717198722,2076,2109,2137,2064,2079,2068,1196
271,1713855418727191230,2052,2046,2058,2034,2058,2064,1197
272,1713855418737190812,2056,2055,2076,2053,2059,2057,1195
273,1713855418747194360,2072,2069,2028,2076,2062,2060,1197
274,1713855418757193762,2058,2048,2047,2055,2055,2050,1197
275,1713855418767194336,2052,2050,2037,2049,2055,2053,1197
276,1713855418777193405,2065,2096,2072,2024,2030,2047,1194
277,1713855418787194660,2052,2048,2049,2050,2057,2058,1198
278,1713855418797205142,2053,2047,2047,2056,2053,2056,1196
279,1713855418807210615,2053,2053,2067,2072,2058,2050,1196
280,1713855418817202512,2044,2030,2014,2057,2055,2053,1196
281,1713855418827219526,2053,2046,2050,2047,2064,2051,1196
282,1713855418837203047,2062,2074,2105,2051,2064,2066,1197
283,1713855418847194865,2059,2064,2035,2058,2050,2050,1197
284,1713855418857196610,2070,2069,2045,2060,2060,2052,1198
285,1713855418867199117,2061,2050,1994,2061,2068,2074,1198
286,1713855418877196834,2057,2052,2057,2054,2062,2053,1200
287,1713855418887197408,2051,2049,2045,2054,2038,2037,1195
288,1713855418897197220,2059,2057,2049,2107,2066,2057,1197
289,1713855418907197002,2057,2065,2041,2036,2047,2048,1197
290,1713855418917197405,2053,2055,2057,2051,2056,2049,1195
291,1713855418927195604,2054,2043,2042,2045,2046,2054,1196
292,1713855418937197039,2059,2065,2056,2057,2056,2052,1194
293,1713855418947195619,2045,2049,2057,2054,2048,2050,1196
294,1713855418957198997,2081,2114,2162,2076,2070,2067,1196
295,1713855418967195453,2044,2037,2036,2049,2057,2046,1193
296,1713855418977196487,2051,2054,2063,2052,2047,2043,1194
297,1713855418987196799,2057,2060,2065,2075,2070,2056,1197
298,1713855418997197674,2054,2050,2056,2054,2056,2052,1197
299,1713855419007197085,2066,2082,2084,2052,2055,2059,1195
300,1713855419017196175,2059,2059,2072,2042,2062,2052,1197
301,1713855419027196599,2049,2042,2025,2053,2042,2045,1194
302,1713855419037196159,2084,2109,2113,2088,2076,2064,1197
303,1713855419047197074,2050,2041,2042,2046,2048,2049,1197
304,1713855419057197436,2054,2048,2063,2059,2062,2058,1197
305,1713855419067195776,2051,2043,2053,2054,2055,2053,1196
306,1713855419077198353,2051,2047,2043,2074,2068,2056,1197
307,1713855419087198415,2052,2051,2048,2053,2044,2049,1198
308,1713855419097197476,2053,2036,2044,2044,2058,2053,1196
309,1713855419107202477,2055,2056,2058,2067,2065,2068,1195
310,1713855419117199053,2058,2048,2048,2062,2060,2051,1198
311,1713855419127197612,2044,2032,1994,2049,2064,2057,1195
312,1713855419137197494,2062,2060,2050,2061,2072,2054,1197
313,1713855419147193439,2056,2045,2047,2033,2048,2047,1193
314,1713855419157197388,2052,2034,2009,2036,2046,2064,1195
315,1713855419167229241,2053,2048,2072,2047,2038,2040,1194
316,1713855419177228992,2058,2062,2072,2053,2065,2060,1197
317,1713855419187229235,2059,2052,2081,2058,2065,2058,1197
318,1713855419197229447,2052,2049,2043,2054,2052,2052,1195
319,1713855419207252803,2047,2036,2045,2050,2045,2050,1200
320,1713855419217235644,2084,2125,2184,2072,2083,2095,1196
321,1713855419227227731,2050,2044,2042,2072,2045,2034,1194
322,1713855419237225359,2051,2034,1993,2061,2049,2047,1194
323,1713855419247224709,2050,2038,2008,2048,2049,2052,1198
324,1713855419257223680,2044,2032,2040,2052,2054,2056,1196
325,1713855419267225024,2052,2042,2057,2047,2060,2060,1197
326,1713855419277220889,2057,2044,2008,2057,2059,2056,1197
327,1713855419287220641,2060,2060,2082,2065,2060,2052,1197
328,1713855419297218769,2053,2044,2019,2033,2052,2046,1195
329,1713855419307219303,2051,2040,2055,2066,2037,2039,1196
330,1713855419317219014,2054,2060,2052,2052,2058,2052,1198
331,1713855419327216672,2051,2036,1998,2048,2046,2053,1196
332,1713855419337222725,2064,2070,2043,2062,2064,2053,1194
333,1713855419347213240,2062,2108,2160,2054,2046,2042,1193
334,1713855419357212451,2054,2051,2060,2045,2058,2050,1195
335,1713855419367212393,2050,2061,2056,2072,2065,2065,1195
336,1713855419377214209,2060,2060,2088,2053,2070,2070,1197
337,1713855419387236462,2050,2048,2033,2052,2049,2047,1193
338,1713855419397208743,2057,2047,2010,2058,2049,2044,1192
339,1713855419407213164,2056,2059,2031,2049,2040,2030,1195
340,1713855419417213005,2052,2050,2051,2044,2053,2051,1198
341,1713855419427211475,2056,2053,2048,2056,2047,2051,1196
342,1713855419437207599,2057,2065,2060,2031,2054,2053,1197
343,1713855419447206750,2057,2058,2043,2058,2042,2046,1195
344,1713855419457206962,2057,2046,2037,2041,2061,2053,1197
345,1713855419467209009,2038,2023,2000,2043,2043,2046,1197
346,1713855419477206336,2054,2058,2061,2047,2056,2057,1198
347,1713855419487209404,2053,2054,2056,2031,2070,2065,1197
348,1713855419497202043,2057,2053,2056,2059,2088,2024,1194
349,1713855419507204619,2056,2050,2056,2056,2086,2062,1196
350,1713855419517202227,2056,2057,2059,2076,2070,2069,1196
351,1713855419527202079,2056,2052,2062,2057,2084,2057,1197
352,1713855419537199406,2056,2058,2074,2054,2063,2055,1196
353,1713855419547201983,2052,2047,2068,2058,2073,2058,1196
354,1713855419557197908,2060,2053,2091,2077,2096,2077,1196
355,1713855419567200996,2046,2048,2044,2054,2052,2049,1196
356,1713855419577204745,2060,2066,2112,2046,2056,2072,1196
357,1713855419587195340,2065,2076,2130,2056,2073,2068,1195
358,1713855419597198347,2053,2041,2034,2058,2058,2067,1197
359,1713855419607194252,2050,2050,2053,2051,2060,2053,1196
360,1713855419617193272,2053,2042,2034,2054,2052,2049,1198
361,1713855419627194938,2050,2032,2045,2059,2037,2048,1196
362,1713855419637190783,2053,2049,2047,2056,2061,2050,1196
363,1713855419647191155,2050,2049,2050,2094,2060,2053,1198
364,1713855419657188563,2058,2058,2058,2035,2065,2052,1198
365,1713855419667191410,2065,2064,2068,2060,2073,2074,1197
366,1713855419677190160,2060,2042,2048,2060,2064,2057,1197
367,1713855419687190523,2052,2047,2052,2060,2049,2053,1195
368,1713855419697196887,2057,2054,2054,2056,2052,2057,1197
369,1713855419707193463,2052,2053,2060,2084,2053,2048,1197
370,1713855419717196300,2056,2052,2056,2054,2085,2058,1197
371,1713855419727193167,2052,2048,2049,2040,2037,2064,1198
372,1713855419737191095,2056,2056,2060,2054,2027,2065,1196
373,1713855419747190145,2050,2049,2050,2143,2050,2064,1195
374,1713855419757191640,2052,2063,2055,2053,2061,2045,1193
375,1713855419767191192,2048,2051,2053,2064,2052,2054,1196
376,1713855419777188850,2056,2049,2049,2070,2042,2053,1200
377,1713855419787190344,2060,2059,2074,2078,2058,2056,1197
378,1713855419797208551,2058,2057,2050,1995,2032,2053,1195
379,1713855419807207040,2052,2052,2060,2135,2096,2062,1197
380,1713855419817220297,2057,2053,2056,2054,2088,2068,1196
381,1713855419827191215,2053,2051,2051,2101,2060,2050,1198
382,1713855419837193131,2056,2058,2053,2036,2057,2015,1195
383,1713855419847190929,2050,2050,2054,2057,2025,2048,1197
384,1713855419857193886,2056,2050,2048,2044,2040,2054,1198
385,1713855419867190894,2056,2068,2064,2045,2036,2054,1196
386,1713855419877191076,2054,2056,2058,2052,2017,2054,1194
387,1713855419887190768,2052,2051,2054,2004,2025,2044,1194
388,1713855419897190800,2057,2056,2050,2046,2051,2052,1195
389,1713855419907188157,2056,2059,2057,2052,2050,2050,1197
390,1713855419917191085,2053,2053,2056,2088,2070,2028,1195
391,1713855419927192359,2052,2063,2050,2040,2072,2060,1196
392,1713855419937192322,2058,2056,2052,2070,2033,2050,1195
393,1713855419947211509,2048,2049,2049,2057,2038,2049,1195
394,1713855419957207013,2067,2092,2106,2058,2054,2064,1197
395,1713855419967193571,2049,2045,2052,2120,2060,2045,1194
396,1713855419977192831,2057,2057,2059,2052,2074,2056,1197
397,1713855419987197643,2056,2047,2050,2060,2053,2052,1196
398,1713855419997193086,2049,2056,2052,2060,2059,2056,1194
399,1713855420007193700,2054,2050,2053,2008,2052,2062,1196
400,1713855420017190245,2050,2045,2050,2046,2051,2053,1196
401,1713855420027196309,2056,2053,2057,2046,2041,2051,1197
402,1713855420037191451,2053,2045,2049,2042,2061,2061,1198
403,1713855420047202735,2058,2062,2065,2133,2053,2046,1195
404,1713855420057201675,2044,2029,2032,2031,2060,2056,1200
405,1713855420067202018,2065,2080,2077,2044,2047,2052,1197
406,1713855420077191801,2049,2051,2043,2052,2040,2052,1198
407,1713855420087200680,2050,2045,2036,2132,2060,2046,1192
408,1713855420097189532,2053,2046,2040,2040,2033,2049,1196
409,1713855420107194162,2052,2053,2049,2051,2050,2051,1197
410,1713855420117188825,2053,2052,2051,2064,2060,2056,1196
411,1713855420127191862,2061,2092,2113,2050,2041,2048,1195
412,1713855420137194259,2061,2054,2052,2044,2058,2054,1195
413,1713855420147192217,2054,2053,2053,1980,2052,2053,1197
414,1713855420157192700,2056,2052,2047,1997,2039,2052,1197
415,1713855420167208141,2054,2070,2074,2051,2055,2056,1197
416,1713855420177193326,2057,2056,2053,2040,2053,2054,1197
417,1713855420187191233,2056,2050,2062,2018,2039,2048,1197
418,1713855420197190234,2056,2045,2046,2047,2064,2057,1197
419,1713855420207190637,2050,2036,2024,2046,2044,2047,1193
420,1713855420217194557,2074,2073,2085,2044,2072,2058,1197
421,1713855420227190400,2057,2072,2072,2053,2059,2053,1197
422,1713855420237192617,2064,2051,2052,2127,2088,2060,1199
423,1713855420247190124,2054,2056,2058,2005,2028,2046,1195
424,1713855420257193523,2058,2053,2052,2051,2064,2060,1198
425,1713855420267191311,2056,2058,2062,2096,2057,2056,1199
426,1713855420277190271,2061,2058,2062,2057,2054,2045,1194
427,1713855420287196175,2052,2056,2049,2051,2032,2051,1197
428,1713855420297192971,2057,2051,2048,2153,2074,2057,1197
429,1713855420307196740,2056,2057,2056,2049,2048,2053,1198
430,1713855420317192855,2056,2044,2041,2047,2053,2053,1197
431,1713855420327194039,2052,2064,2068,2067,2054,2053,1199
432,1713855420337191116,2052,2041,2018,2020,2080,2060,1196
433,1713855420347192631,2061,2073,2064,2072,2046,2052,1196
434,1713855420357191631,2060,2053,2062,2104,2065,2057,1197
435,1713855420367191814,2050,2051,2052,2101,2041,2053,1196
436,1713855420377192597,2061,2069,2081,2162,2057,2053,1196
437,1713855420387192950,2054,2049,2044,2059,2049,2052,1196
438,1713855420397191108,2056,2050,2074,2098,2060,2056,1197
439,1713855420407192604,2047,2034,2041,2056,2045,2050,1195
440,1713855420417192505,2074,2090,2104,2036,2060,2062,1195
441,1713855420427192608,2047,2028,1966,2048,2040,2045,1192
442,1713855420437192149,2058,2041,1935,2055,2065,2065,1197
443,1713855420447192282,2064,2083,2057,2062,2045,2052,1200
444,1713855420457192754,2056,2052,2062,2058,2060,2056,1197
445,1713855420467192406,2054,2054,2049,2079,2046,2051,1197
446,1713855420477192168,2052,2029,2042,2033,2061,2058,1198
447,1713855420487193252,2057,2056,2072,2047,2032,2046,1195
448,1713855420497191380,2049,2014,2015,2052,2058,2054,1197
449,1713855420507193377,2029,1980,2002,2045,2042,2047,1194
450,1713855420517201585,2043,1992,2002,2038,2061,2052,1196
451,1713855420527194383,2050,2058,2060,2054,2048,2050,1197
452,1713855420537193774,2061,2075,2162,2045,2064,2056,1193
453,1713855420547193966,2052,2052,2053,2054,2046,2045,1193
454,1713855420557194540,2062,2056,2056,2058,2072,2060,1197
455,1713855420567197537,2052,2058,2053,2037,2027,2052,1197
456,1713855420577194544,2057,2056,2050,2035,2052,2051,1196
457,1713855420587196079,2054,2045,2069,2042,2040,2049,1197
458,1713855420597194669,2062,2056,2011,2027,2064,2058,1197
459,1713855420607200602,2044,2030,2049,2058,2048,2045,1197
460,1713855420617194683,2056,2050,2070,2052,2068,2061,1199
461,1713855420627195867,2051,2040,2004,2056,2051,2055,1197
462,1713855420637195639,2071,2093,2152,2052,2068,2067,1197
463,1713855420647194118,2052,2057,2056,2064,2044,2046,1196
464,1713855420657194111,2052,2047,2058,2036,2064,2054,1197
465,1713855420667196216,2056,2051,2048,2052,2049,2057,1197
466,1713855420677193584,2048,2042,2030,2042,2061,2051,1196
467,1713855420687195229,2046,2040,2022,2048,2032,2064,1197
468,1713855420697197576,2060,2052,2049,2056,2052,2054,1197
469,1713855420707195143,2056,2056,2041,2056,2040,2044,1194
470,1713855420717196207,2066,2080,2114,2052,2058,2058,1195
471,1713855420727197131,2057,2050,2046,2047,2041,2048,1195
472,1713855420737194398,2048,2042,2058,2069,2068,2068,1196
473,1713855420747195322,2052,2043,2058,2056,2037,2052,1196
474,1713855420757195394,2060,2056,2078,2057,2061,2054,1196
475,1713855420767196058,2067,2101,2191,2058,2024,2035,1195
476,1713855420777194848,2050,2043,2040,2040,2068,2066,1195
477,1713855420787195231,2052,2055,2050,2057,2032,2046,1194
478,1713855420797196144,2066,2071,2020,2069,2072,2060,1195
479,1713855420807196177,2056,2050,2049,2059,2047,2053,1197
480,1713855420817195968,2056,2054,2053,2068,2060,2056,1196
481,1713855420827196582,2064,2070,2074,2044,2040,2052,1196
482,1713855420837196163,2056,2056,2052,2053,2060,2056,1197
483,1713855420847197187,2052,2045,2034,2064,2057,2056,1200
484,1713855420857196818,2070,2100,2125,2085,2091,2073,1198
485,1713855420867197402,2056,2045,2042,2061,2041,2041,1196
486,1713855420877181784,2057,2056,2061,2047,2056,2053,1196
487,1713855420887197927,2066,2076,2116,2073,2056,2064,1199
488,1713855420897198580,2054,2048,2047,2051,2054,2053,1199
489,1713855420907198593,2054,2030,1993,2048,2056,2056,1197
490,1713855420917197392,2048,2035,2033,2043,2058,2047,1196
491,1713855420927198377,2053,2052,2040,2065,2034,2056,1195
492,1713855420937198369,2061,2060,2056,2096,2069,2064,1193
493,1713855420947197980,2053,2058,2070,2047,2043,2050,1193
494,1713855420957198734,2057,2054,2052,2020,2047,2044,1196
495,1713855420967198515,2050,2045,2036,2045,2024,2041,1193
496,1713855420977199199,2058,2056,2019,2051,2060,2070,1198
497,1713855420987200413,2048,2038,2008,2054,2040,2040,1193
498,1713855420997199294,2058,2052,2052,2058,2064,2059,1197
499,1713855421007200027,2054,2052,2044,2061,2063,2058,1197
500,1713855421017200140,2063,2067,2058,2096,2082,2056,1198
501,1713855421027200632,2050,2050,2032,2061,2047,2049,1197
502,1713855421037200334,2053,2058,2060,2040,2067,2050,1196
503,1713855421047200326,2052,2049,2041,2060,2054,2049,1197
504,1713855421057201962,2053,2028,2011,2052,2064,2052,1197
505,1713855421067200410,2054,2043,2050,2058,2045,2056,1198
506,1713855421077200062,2060,2047,2048,2048,2064,2052,1197
507,1713855421087200465,2052,2053,2045,2047,2043,2048,1200
508,1713855421097200006,2056,2050,2044,2052,2066,2057,1198
509,1713855421107204547,2053,2038,2025,2052,2043,2050,1197
510,1713855421117201473,2056,2046,2048,2068,2083,2064,1196
511,1713855421127201986,2055,2058,2050,2081,2044,2054,1197
512,1713855421137201136,2052,2042,2042,2050,2056,2056,1195
513,1713855421147202802,2052,2047,2053,2070,2069,2056,1195
514,1713855421157185501,2052,2040,2046,2053,2068,2057,1196
515,1713855421167202736,2056,2072,2080,2060,2045,2041,1192
516,1713855421177202427,2060,2054,2060,2046,2068,2062,1196
517,1713855421187202620,2057,2068,2099,2060,2041,2038,1194
518,1713855421197202812,2072,2072,2024,2073,2065,2077,1195
519,1713855421207186013,2046,2050,2043,2046,2037,2044,1192
520,1713855421217186115,2059,2053,2060,2044,2066,2052,1196
521,1713855421227203931,2056,2058,2064,2074,2050,2051,1196
522,1713855421237203181,2060,2053,2061,2058,2066,2064,1195
523,1713855421247213874,2052,2053,2053,2076,2056,2056,1197
524,1713855421257204047,2054,2047,2046,2050,2062,2051,1197
525,1713855421267187679,2052,2051,2065,2056,2041,2049,1198
526,1713855421277204021,2056,2050,2056,2056,2062,2057,1198
527,1713855421287206107,2057,2056,2043,2046,2034,2046,1193
528,1713855421297204797,2059,2052,2046,2042,2059,2058,1197
529,1713855421307205140,2058,2063,2068,2069,2061,2050,1195
530,1713855421317204070,2056,2047,2039,2032,2041,2049,1197
531,1713855421327204443,2052,2052,2064,2050,2045,2040,1195
532,1713855421337205116,2065,2063,2082,2044,2061,2050,1196
533,1713855421347205188,2053,2057,2061,2053,2044,2056,1195
534,1713855421357188499,2060,2047,2047,2045,2067,2056,1197
535,1713855421367188070,2052,2054,2058,2064,2060,2046,1196
536,1713855421377218951,2078,2109,2100,2054,2062,2061,1200
537,1713855421387206248,2056,2057,2065,2061,2034,2041,1192
538,1713855421397205980,2058,2056,2052,2057,2073,2056,1198
539,1713855421407205551,2050,2052,2050,2048,1997,2029,1194
540,1713855421417206075,2058,2050,2051,2061,2069,2056,1196
541,1713855421427187321,2047,2054,2013,2067,2048,2048,1197
542,1713855421437188546,2054,2050,2061,2046,2063,2064,1197
543,1713855421447188438,2052,2064,2050,2073,2053,2051,1197
544,1713855421457190144,2054,2048,2052,2052,2056,2053,1198
545,1713855421467189534,2049,2045,2046,2053,1986,2048,1198
546,1713855421477188915,2067,2063,2056,2096,2074,2057,1198
547,1713855421487190981,2052,2059,2068,2102,2058,2048,1196
548,1713855421497208405,2053,2024,1974,2038,2063,2064,1196
549,1713855421507191917,2048,2041,2008,2058,2033,2042,1194
550,1713855421517190736,2052,2047,2049,2044,2064,2051,1197
551,1713855421527190378,2052,2058,2062,2060,2034,2061,1197
552,1713855421537189358,2056,2042,2049,2042,2056,2048,1194
553,1713855421547190693,2058,2054,2058,2062,2047,2047,1195
554,1713855421557191456,2055,2042,2046,2048,2058,2056,1195
555,1713855421567191158,2070,2058,2016,2049,2045,2052,1197
556,1713855421577191180,2052,2045,2039,2040,2062,2053,1198
557,1713855421587192084,2048,2052,2058,2043,2026,2045,1195
558,1713855421597197065,2061,2064,2100,2060,2061,2054,1196
559,1713855421607186308,2043,2041,2031,2057,1998,2044,1195
560,1713855421617184927,2054,2056,2052,2049,2065,2058,1197
561,1713855421627184649,2052,2055,2053,2060,2028,2042,1194
562,1713855421637177347,2059,2061,2047,2048,2064,2053,1197
563,1713855421647178952,2070,2110,2116,2064,2047,2055,1200
564,1713855421657184354,2056,2047,2048,2043,2060,2058,1196
565,1713855421667179517,2052,2056,2062,2058,2056,2057,1196
566,1713855421677190570,2048,2046,2053,2040,2066,2057,1195
567,1713855421687184932,2053,2048,2056,2049,2034,2046,1193
568,1713855421697188571,2056,2049,2050,2047,2084,2075,1196
569,1713855421707188453,2056,2047,2031,2056,2065,2037,1193
570,1713855421717187954,2061,2042,2024,2037,2060,2060,1195
571,1713855421727189399,2057,2059,2061,2061,2045,2047,1195
572,1713855421737184021,2057,2054,2056,2049,2064,2064,1195
573,1713855421747181347,2056,2056,2047,2072,2056,2055,1195
574,1713855421757181230,2059,2049,2037,2046,2059,2059,1197
575,1713855421767183455,2056,2077,2086,2059,2038,2050,1197
576,1713855421777185472,2049,2041,2025,2048,2047,2045,1194
577,1713855421787181576,2046,2054,2074,2053,2030,2040,1196
578,1713855421797172562,2056,2052,2069,2052,2065,2057,1197
579,1713855421807218960,2047,2048,2045,2076,2060,2068,1197
580,1713855421817187113,2055,2052,2050,2046,2064,2058,1196
581,1713855421827181855,2052,2056,2054,2071,2041,2047,1194
582,1713855421837181748,2051,2041,2045,2041,2052,2049,1197
583,1713855421847180106,2061,2073,2089,2053,2025,2044,1194
584,1713855421857188044,2055,2050,2064,2064,2064,2056,1197
585,1713855421867153000,2052,2061,2056,2076,2059,2054,1197
586,1713855421877164574,2056,2061,2057,2036,2061,2055,1196
587,1713855421887180966,2051,2045,2062,2061,2040,2052,1196
588,1713855421897167053,2072,2074,2074,2061,2076,2064,1196
589,1713855421907182674,2054,2063,2052,2068,2045,2042,1194
590,1713855421917169871,2058,2049,2035,2038,2060,2047,1192
591,1713855421927183379,2054,2062,2040,2059,2058,2040,1196
592,1713855421937199501,2056,2045,2049,2044,2067,2056,1192
593,1713855421947152065,2046,2036,2005,2069,2057,2068,1196
594,1713855421957149892,2051,2041,2054,2041,2060,2051,1197
595,1713855421967185732,2052,2049,2048,2060,2042,2056,1195
596,1713855421977165105,2051,2034,2024,2061,2073,2044,1192
597,1713855421987181729,2056,2057,2043,2056,2045,2046,1193
598,1713855421997182692,2052,2045,2041,2048,2055,2049,1196
599,1713855422007153450,2059,2065,2046,2068,2041,2052,1194
600,1713855422017167157,2058,2041,2046,2054,2068,2060,1195
601,1713855422027177850,2057,2053,2052,2056,2056,2066,1197
602,1713855422037180106,2051,2043,2046,2038,2042,2020,1196
603,1713855422047176752,2059,2069,2084,2069,2046,2053,1198
604,1713855422057189668,2060,2060,2058,2047,2077,2081,1197
605,1713855422067183859,2054,2046,2046,2061,2047,2052,1196
606,1713855422077169254,2058,2054,2058,2039,2058,2042,1193
607,1713855422087181909,2057,2064,2097,2074,2064,2069,1199
608,1713855422097185258,2054,2038,2039,2040,2040,2030,1195
609,1713855422107178888,2058,2060,2057,2064,2064,2055,1197
610,1713855422117215739,2055,2051,2031,2044,2101,2091,1197
611,1713855422127180596,2058,2056,2042,2060,2020,2030,1194
612,1713855422137184254,2046,2033,2030,2049,2083,2090,1196
613,1713855422147185218,2055,2047,2019,2049,2037,2039,1193
614,1713855422157181323,2059,2056,2058,2056,2073,2055,1196
615,1713855422167196654,2049,2054,2063,2054,2015,2038,1193
616,1713855422177185555,2050,2040,2033,2045,2057,2059,1197
617,1713855422187183022,2052,2056,2052,2061,2038,2046,1193
618,1713855422197184527,2057,2048,2052,2033,2046,2054,1195
619,1713855422207184429,2059,2057,2056,2065,2044,2036,1193
620,1713855422217182698,2056,2041,2016,2036,2060,2052,1197
621,1713855422227182449,2057,2045,2027,2061,2052,2090,1195
622,1713855422237182432,2050,2030,2042,2048,2061,2065,1196
623,1713855422247186511,2045,2050,2052,2071,2074,2059,1198
624,1713855422257179460,2052,2061,2069,2038,2058,2062,1198
625,1713855422267180915,2050,2046,2037,2066,2019,2045,1193
626,1713855422277185916,2058,2057,2056,2037,2064,2064,1195
627,1713855422287170950,2048,2047,2017,2051,2020,2041,1193
628,1713855422297183325,2066,2061,2047,2068,2088,2070,1195
629,1713855422307153922,2054,2050,2045,2061,2060,2064,1197
630,1713855422317192477,2065,2082,2082,2050,2061,2060,1197
631,1713855422327187780,2052,2037,2024,2060,2061,2063,1195
632,1713855422337170099,2058,2057,2070,2040,2056,2050,1195
633,1713855422347182053,2056,2051,2048,2072,2037,2043,1194
634,1713855422357180903,2063,2068,2061,2041,2062,2056,1195
635,1713855422367193178,2052,2049,2059,2063,2088,2141,1197
636,1713855422377184765,2052,2044,2056,2036,2059,2052,1197
637,1713855422387181430,2051,2034,2029,2069,2068,2066,1196
638,1713855422397194366,2056,2065,2060,2040,2064,2059,1195
639,1713855422407186474,2053,2058,2057,2067,2050,2055,1197
640,1713855422417192026,2056,2053,2059,2046,2060,2058,1195
641,1713855422427179655,2059,2056,2049,2073,2044,2056,1196
642,1713855422437174347,2055,2052,2038,2045,2075,2064,1196
643,1713855422447181022,2050,2052,2053,2047,2035,2017,1193
644,1713855422457143403,2054,2041,2036,2041,2084,2036,1192
645,1713855422467186496,2052,2057,2060,2066,2042,2057,1196
646,1713855422477182551,2056,2053,2099,2045,2048,2046,1194
647,1713855422487182102,2058,2075,2093,2058,2037,2042,1192
648,1713855422497185080,2048,2032,2024,2030,2044,2038,1194
649,1713855422507181415,2057,2047,2091,2073,2080,2094,1196
650,1713855422517182259,2056,2041,2029,2062,2088,2088,1198
651,1713855422527182982,2053,2056,2058,2063,1996,2026,1195
652,1713855422537184156,2050,2046,2044,2059,2077,2062,1196
653,1713855422547178828,2061,2076,2100,2070,2047,2040,1195
654,1713855422557190191,2056,2050,2063,2048,2061,2059,1198
655,1713855422567182700,2056,2079,2081,2073,2034,2030,1194
656,1713855422577181990,2056,2039,2040,2033,2048,2072,1197
657,1713855422587181932,2066,2061,2091,2066,2053,2088,1197
658,1713855422597188897,2050,2035,2027,2044,2026,1994,1194
659,1713855422607183258,2064,2068,2056,2062,2060,2035,1194
660,1713855422617183622,2052,2041,2041,2046,2047,2064,1195
661,1713855422627185567,2056,2063,2064,2073,2014,2000,1193
662,1713855422637187343,2049,2029,2022,2037,2049,2052,1195
663,1713855422647170473,2050,2049,2078,2061,2020,2046,1196
664,1713855422657184751,2052,2064,2083,2060,2085,2100,1198
665,1713855422667179464,2058,2076,2062,2061,2002,1997,1194
666,1713855422677184315,2056,2050,2052,2056,2060,2045,1195
667,1713855422687180460,2061,2083,2096,2061,2015,2052,1197
668,1713855422697199497,2055,2039,2040,2043,2047,2052,1196
669,1713855422707184702,2056,2064,2081,2073,2050,2046,1192
670,1713855422717186537,2057,2054,2076,2052,2086,2054,1196
671,1713855422727184075,2053,2053,2064,2074,2046,2036,1194
672,1713855422737185309,2057,2053,2063,2054,2080,2092,1194
673,1713855422747170884,2056,2057,2055,2060,2017,2013,1194
674,1713855422757182108,2056,2045,2044,2041,2058,2050,1195
675,1713855422767193991,2058,2057,2056,2053,2045,2033,1194
676,1713855422777183524,2053,2052,2053,2042,2056,2052,1196
677,1713855422787183466,2054,2058,2077,2073,2046,2048,1196
678,1713855422797183317,2058,2045,2049,2047,2066,2060,1197
679,1713855422807190163,2055,2058,2052,2061,2046,2048,1197
680,1713855422817183512,2056,2048,2048,2041,2060,2058,1197
681,1713855422827181190,2062,2061,2051,2070,2035,2036,1193
682,1713855422837183236,2056,2060,2043,2042,2058,2091,1199
683,1713855422847181114,2051,2037,2017,2062,2036,2045,1195
684,1713855422857180625,2056,2050,2042,2049,2066,2061,1194
685,1713855422867191417,2060,2060,2073,2058,2036,2048,1196
686,1713855422877183174,2056,2047,2044,2041,2054,2056,1195
687,1713855422887181963,2059,2069,2076,2068,2056,2062,1196
688,1713855422897182677,2066,2078,2072,2066,2070,2057,1196
689,1713855422907186837,2056,2058,2054,2060,2030,2016,1195
690,1713855422917182391,2058,2054,2068,2065,2073,2064,1197
691,1713855422927186090,2056,2050,2051,2057,2021,2029,1195
692,1713855422937183366,2055,2057,2076,2047,2076,2062,1194
693,1713855422947183880,2056,2056,2084,2069,2052,2041,1195
694,1713855422957181256,2086,2111,2187,2060,2036,2052,1196
695,1713855422967193061,2046,2045,2017,2047,2035,2012,1194
696,1713855422977184457,2072,2098,2077,2056,2062,2006,1195
697,1713855422987184108,2049,2053,2055,2059,2042,2045,1193
698,1713855422997184100,2057,2050,2054,2047,2048,2032,1196
699,1713855423007182039,2057,2060,2061,2064,2047,2043,1197
700,1713855423017184155,2053,2049,2054,2066,2058,2054,1196
701,1713855423027182663,2053,2060,2054,2058,2042,2049,1197
702,1713855423037182666,2050,2046,2048,2030,2044,2025,1196
703,1713855423047182016,2052,2062,2060,2052,2020,2028,1195
704,1713855423057185785,2064,2057,2056,2051,2064,2096,1197
705,1713855423067239859,2052,2053,2061,2045,2034,2025,1194
706,1713855423077186571,2060,2043,2025,2058,2052,2051,1197
707,1713855423087183227,2061,2069,2072,2065,2038,2052,1197
708,1713855423097182527,2056,2031,2026,2056,2073,2065,1198
709,1713855423107182980,2056,2068,2075,2064,2038,2042,1197
710,1713855423117186880,2056,2045,2046,2050,2060,2024,1194
711,1713855423127182653,2052,2047,2040,2068,2018,2042,1193
712,1713855423137185911,2054,2051,2041,2052,2035,2042,1192
713,1713855423147188168,2058,2061,2064,2065,2047,2048,1197
714,1713855423157180575,2051,2052,2056,2042,2058,2054,1194
715,1713855423167199914,2074,2106,2170,2090,2065,2110,1197
716,1713855423177186200,2048,2028,2014,2050,2055,2049,1196
717,1713855423187183266,2054,2060,2047,2065,2044,2047,1195
718,1713855423197185704,2050,2050,2050,2050,2064,2061,1196
719,1713855423207182689,2058,2064,2059,2057,1996,1979,1194
720,1713855423217190055,2054,2038,2030,2056,2066,2073,1199
721,1713855423227179167,2058,2064,2040,2064,2047,2037,1193
722,1713855423237186322,2056,2044,2040,2049,2065,2056,1197
723,1713855423247183369,2056,2058,2058,2061,2045,2053,1198
724,1713855423257186657,2060,2064,2059,2056,2066,2066,1197
725,1713855423267249136,2057,2059,2056,2062,2056,2064,1197
726,1713855423277179708,2056,2058,2044,2053,2024,2104,1197
727,1713855423287183136,2051,2044,2043,2068,2061,2045,1195
728,1713855423297183258,2072,2080,2121,2043,2034,2063,1195
729,1713855423307184553,2049,2040,2040,2071,2046,2041,1195
730,1713855423317183252,2056,2045,2045,2040,2049,2047,1193
731,1713855423327202481,2058,2065,2078,2063,2024,2050,1197
732,1713855423337178708,2053,2040,2031,2030,2060,2110,1197
733,1713855423347181114,2057,2056,2038,2058,2061,2068,1195
734,1713855423357186307,2058,2053,2064,2054,2020,2024,1195
735,1713855423367191608,2054,2053,2047,2066,2015,2033,1195
736,1713855423377180299,2057,2051,2047,2050,2062,2056,1195
737,1713855423387207803,2041,2046,2037,2049,2031,2040,1196
738,1713855423397182216,2057,2044,2013,2056,2058,2066,1196
739,1713855423407183371,2052,2047,2042,2064,2036,2032,1194
740,1713855423417193652,2053,2038,2032,2054,2098,2100,1197
741,1713855423427182402,2058,2082,2130,2060,2017,2052,1196
742,1713855423437183587,2053,2044,2047,2061,2044,2078,1197
743,1713855423447183068,2050,2036,2040,2070,2035,2088,1198
744,1713855423457184412,2061,2056,2055,2065,2142,2152,1197
745,1713855423467206967,2051,2047,2031,2060,2083,2088,1195
746,1713855423477180409,2058,2052,2050,2043,2094,2051,1196
747,1713855423487185631,2052,2045,2044,2064,2041,2048,1200
748,1713855423497184992,2056,2056,2085,2072,2085,2053,1195
749,1713855423507184602,2052,2057,2068,2059,2040,2044,1192
750,1713855423517187491,2060,2040,2052,2046,2034,2059,1195
751,1713855423527180920,2064,2092,2144,2058,2045,2092,1198
752,1713855423537185961,2060,2058,2044,2029,2039,2060,1193
753,1713855423547182988,2055,2044,2038,2068,2003,1985,1193
754,1713855423557184272,2055,2037,2035,2048,2057,2033,1192
755,1713855423567194804,2050,2046,2020,2066,2009,2002,1192
756,1713855423577185108,2064,2071,2036,2056,2094,2037,1193
757,1713855423587185300,2053,2059,2081,2063,2026,2021,1195
758,1713855423597191975,2067,2097,2088,2027,2159,2116,1196
759,1713855423607183721,2060,2056,2046,2056,2008,1991,1193
760,1713855423617185596,2053,2044,2012,2026,2005,2040,1195
761,1713855423627185649,2056,2045,2025,2064,1974,2047,1195
762,1713855423637183436,2054,2049,2014,2043,2049,2131,1197
763,1713855423647187166,2036,2032,2026,2039,2101,2104,1199
764,1713855423657212194,2072,2075,2061,2048,1985,2115,1197
765,1713855423667217647,2046,2042,2044,2015,1917,2006,1195
766,1713855423677192832,2064,2080,2073,2069,2121,2149,1197
767,1713855423687187203,2050,2046,2031,2057,2049,1973,1195
768,1713855423697184441,2058,2039,2041,2123,2417,2143,1197
769,1713855423707184843,2057,2059,2077,2062,2062,2004,1193
770,1713855423717187059,2048,2041,2036,2037,2054,2050,1197
771,1713855423727181772,2057,2070,2083,2040,1939,1957,1194
772,1713855423737186182,2056,2052,2044,2045,2056,1996,1194
773,1713855423747188128,2054,2073,2077,2044,1974,2046,1193
774,1713855423757186406,2051,2045,2045,2045,1947,1961,1195
775,1713855423767216795,2050,2059,2084,2029,1973,2064,1195
776,1713855423777183665,2044,2028,2012,2059,2062,1988,1193
777,1713855423787189518,2047,2033,2022,2077,1988,2037,1192
778,1713855423797197044,2062,2086,2088,2057,2057,2107,1197
779,1713855423807190063,2066,2084,2070,2044,1825,2171,1197
780,1713855423817194463,2064,2058,2024,2100,2317,2272,1197
781,1713855423827185308,2056,2055,2057,2062,2036,2040,1193
782,1713855423837187394,2060,2076,2081,2058,2069,2085,1196
783,1713855423847192946,2054,2056,2064,2046,2040,2044,1195
784,1713855423857189001,2052,2045,2036,2025,2034,2048,1197
785,1713855423867228567,2058,2068,2092,2066,2090,2056,1197
786,1713855423877190047,2055,2037,2034,2045,2005,2028,1194
787,1713855423887191993,2073,2082,2075,2066,2041,2055,1197
788,1713855423897190832,2057,2034,2044,2034,1961,2034,1194
789,1713855423907193760,2068,2077,2112,2089,2070,2080,1197
790,1713855423917191277,2056,2046,2029,2053,2100,2068,1196
791,1713855423927194455,2057,2059,2061,2075,2069,2018,1193
792,1713855423937191151,2066,2061,2049,2053,2075,2059,1196
793,1713855423947141299,2068,2108,2112,2081,2052,2020,1192
794,1713855423957190634,2047,2043,2014,2032,2088,2068,1199
795,1713855423967212597,2047,2052,2041,2079,2039,2037,1194
796,1713855423977194475,2051,2042,2053,2043,2136,2044,1192
797,1713855423987191912,2058,2056,2046,2068,2086,2056,1197
798,1713855423997191634,2056,2047,2045,2050,2064,2047,1195
799,1713855424007192768,2057,2061,2093,2064,2061,2075,1195
800,1713855424017196307,2058,2049,2036,2064,2033,2041,1194
801,1713855424027187111,2056,2043,2024,2046,2031,2038,1195
802,1713855424037191942,2056,2047,2073,2047,2049,2057,1197
803,1713855424047193066,2064,2056,2057,2075,2044,2097,1198
804,1713855424057192908,2049,2034,1990,2050,2088,2058,1196
805,1713855424067212586,2066,2076,2037,2050,1965,2014,1195
806,1713855424077193062,2052,2037,2015,2076,2114,2091,1197
807,1713855424087194387,2060,2054,2042,2074,2065,2064,1196
808,1713855424097193256,2056,2055,2072,2062,2061,2018,1194
809,1713855424107194110,2079,2114,2069,2062,2034,2042,1193
810,1713855424117198159,2054,2052,2061,2047,2050,2053,1198
811,1713855424127194524,2046,2050,2058,2076,2057,2095,1196
812,1713855424137195338,2052,2036,2022,2035,2129,2047,1193
813,1713855424147192625,2048,2052,2037,2067,2022,2033,1193
814,1713855424157193789,2052,2037,2034,2042,2049,2044,1195
815,1713855424167218878,2052,2050,2065,2052,2091,2040,1193
816,1713855424177197500,2073,2072,2104,2063,2062,2046,1195
817,1713855424187147397,2054,2047,2039,2039,1949,2027,1194
818,1713855424197198817,2061,2057,2080,2052,2117,2074,1196
819,1713855424207183960,2050,2052,2050,2057,2068,2068,1197
820,1713855424217186907,2049,2045,2036,2032,2065,2079,1197
821,1713855424227182201,2060,2070,2065,2066,2047,2053,1196
822,1713855424237158118,2067,2075,2043,2046,2020,2030,1196
823,1713855424247186923,2056,2051,2048,2058,2024,2025,1195
824,1713855424257181525,2057,2062,2053,2068,2033,2088,1197
825,1713855424267212355,2047,2051,2054,2056,2037,2040,1194
826,1713855424277192770,2062,2051,2021,2046,2074,2049,1196
827,1713855424287181291,2056,2064,2068,2039,1937,2021,1194
828,1713855424297178608,2060,2057,2058,2057,2063,2057,1197
829,1713855424307182366,2060,2090,2094,2058,2052,2089,1198
830,1713855424317183200,2056,2052,2069,2060,2044,2045,1195
831,1713855424327177261,2045,2059,2053,2046,2060,2037,1194
832,1713855424337178816,2053,2061,2106,2073,2064,2040,1192
833,1713855424347178738,2048,2052,2046,2060,2040,2045,1194
834,1713855424357177998,2055,2053,2048,2045,2053,2053,1197
835,1713855424367212695,2050,2055,2056,2062,2016,2040,1194
836,1713855424377182260,2055,2056,2072,2060,2058,2050,1195
837,1713855424387180449,2056,2064,2056,2070,2121,2047,1193
838,1713855424397182945,2058,2040,2100,2060,2084,2101,1197
839,1713855424407181444,2056,2052,2036,2046,2030,2053,1196
840,1713855424417178701,2056,2056,2058,2043,2068,2053,1196
841,1713855424427182550,2064,2073,2037,2065,2088,2060,1195
842,1713855424437178614,2053,2037,2047,2052,2068,2056,1196
843,1713855424447180220,2052,2058,2056,2064,2066,2043,1194
844,1713855424457181464,2052,2055,2083,2033,2025,2052,1198
845,1713855424467221090,2047,2033,2034,2060,2048,2044,1195
846,1713855424477178923,2054,2037,2044,2037,2056,2043,1196
847,1713855424487181009,2053,2048,2042,2042,2037,2031,1195
848,1713855424497185409,2062,2054,2052,2055,2044,2066,1197
849,1713855424507181875,2054,2051,2040,2080,2077,2074,1197
850,1713855424517218074,2051,2037,2065,2038,2093,2081,1198
851,1713855424527186607,2053,2045,2025,2057,2045,2044,1193
852,1713855424537169648,2050,2046,2058,2057,2073,2056,1197
853,1713855424547187513,2052,2056,2042,2052,2038,2046,1196
854,1713855424557180491,2053,2039,2019,2044,2056,2057,1196
855,1713855424567205180,2056,2052,2047,2074,2056,2071,1197
856,1713855424577182128,2053,2056,2060,2061,2041,2058,1196
857,1713855424587181630,2071,2109,2112,2064,2046,2046,1193
858,1713855424597188324,2060,2047,2049,2052,2077,2060,1197
859,1713855424607182114,2060,2056,2037,2060,2033,2047,1193
860,1713855424617179872,2062,2080,2088,2052,2097,2104,1197
861,1713855424627182870,2049,2061,2057,2069,2034,2034,1194
862,1713855424637179926,2052,2049,2042,2052,2058,2042,1196
863,1713855424647180569,2066,2083,2083,2081,2026,1996,1194
864,1713855424657184849,2067,2068,2007,2050,2076,2055,1197
865,1713855424667197334,2056,2062,2061,2056,2027,2040,1194
866,1713855424677185043,2052,2044,2049,2053,2064,2056,1196
867,1713855424687148898,2051,2049,2043,2060,2052,2048,1196
868,1713855424697183284,2057,2048,2047,2039,2080,2056,1194
869,1713855424707181532,2054,2059,2064,2064,2039,2052,1196
870,1713855424717179160,2057,2046,2039,2052,2073,2056,1198
871,1713855424727181827,2072,2100,2120,2065,2022,2070,1196
872,1713855424737178723,2058,2062,2092,2054,2091,2099,1194
873,1713855424747183144,2045,2046,2060,2066,2057,2050,1194
874,1713855424757178757,2062,2060,2046,2052,2065,2057,1195
875,1713855424767197073,2052,2066,2073,2059,2061,2070,1196
876,1713855424777191475,2053,2046,2061,2051,2101,2073,1196
877,1713855424787188772,2057,2062,2061,2059,2042,2046,1194
878,1713855424797145382,2052,2049,2068,2048,2070,2064,1197
879,1713855424807180971,2057,2076,2078,2067,2039,2047,1194
880,1713855424817179470,2053,2043,2041,2049,2044,2053,1195
881,1713855424827183389,2053,2065,2076,2057,2037,2053,1196
882,1713855424837180035,2058,2049,2048,2053,2065,2062,1199
883,1713855424847182231,2053,2044,2015,2066,2042,2047,1195
884,1713855424857180750,2059,2046,2084,2036,2074,2060,1197
885,1713855424867210268,2049,2047,2050,2064,2041,2035,1192
886,1713855424877179382,2058,2047,2061,2037,2065,2057,1195
887,1713855424887203839,2054,2056,2056,2062,2040,2047,1195
888,1713855424897178574,2057,2046,2039,2040,2076,2060,1198
889,1713855424907192873,2056,2060,2054,2060,2034,2038,1196
890,1713855424917187745,2057,2050,2038,2041,2072,2058,1199
891,1713855424927187216,2065,2092,2077,2090,2069,2032,1193
892,1713855424937182249,2060,2059,2036,2028,2056,2005,1192
893,1713855424947183222,2052,2050,2040,2058,2025,2048,1197
894,1713855424957182193,2052,2045,2037,2040,2061,2051,1195
895,1713855424967183226,2051,2056,2076,2059,2048,2068,1197
896,1713855424977185753,2064,2072,2052,2035,2036,2064,1197
897,1713855424987186336,2061,2066,2041,2069,2012,2078,1197
898,1713855424997183593,2058,2058,2059,2054,2067,2072,1196
899,1713855425007181911,2058,2066,2043,2046,2033,2047,1196
900,1713855425017206450,2061,2069,2085,2058,2060,2059,1197
901,1713855425027185973,2051,2052,2084,2072,2033,1999,1194
902,1713855425037183410,2056,2044,2024,2041,2049,2052,1197
903,1713855425047188210,2056,2067,2044,2061,2057,2053,1199
904,1713855425057183815,2052,2034,2028,2056,2089,2085,1197
905,1713855425067181813,2074,2143,2162,2076,2067,2035,1194
906,1713855425077179740,2050,2043,2030,2048,2034,2065,1196
907,1713855425087182758,2056,2058,2049,2049,2019,2057,1195
908,1713855425097180135,2057,2060,2044,2050,2033,2050,1197
909,1713855425107182912,2064,2079,2078,2081,2097,2080,1196
910,1713855425117203783,2056,2056,2065,2041,2049,2023,1193
911,1713855425127188276,2056,2061,2057,2070,2080,2050,1196
912,1713855425137182998,2058,2063,2120,2060,2076,2058,1195
913,1713855425147184382,2049,2034,1997,2065,2044,2043,1194
914,1713855425157181619,2064,2097,2148,2052,2069,2056,1196
915,1713855425167186160,2049,2045,2050,2065,2030,2011,1194
916,1713855425177187254,2054,2044,2038,2050,2064,2034,1193
917,1713855425187187085,2064,2077,2072,2056,2045,2040,1193
918,1713855425197181367,2058,2059,2086,2053,2072,2053,1197
919,1713855425207180156,2053,2052,2043,2058,1992,2032,1193
920,1713855425217198773,2053,2033,2033,2056,2073,2075,1195
921,1713855425227183306,2054,2056,2074,2058,2060,2096,1195
922,1713855425237183358,2060,2067,2073,2044,2072,2061,1197
923,1713855425247185453,2059,2070,2069,2064,2052,2049,1200
924,1713855425257181898,2053,2038,2031,2032,2060,2036,1195
925,1713855425267185808,2075,2101,2052,2060,2054,2056,1196
926,1713855425277166323,2053,2045,2074,2048,2052,2038,1196
927,1713855425287183647,2056,2056,2051,2072,2042,2043,1193
928,1713855425297180674,2061,2072,2104,2060,2090,2062,1196
929,1713855425307184213,2056,2057,2052,2058,2045,2041,1194
930,1713855425317212878,2056,2053,2070,2060,2077,2061,1197
931,1713855425327187332,2078,2129,2164,2062,2050,2060,1196
932,1713855425337183928,2052,2044,2036,2033,2089,2115,1196
933,1713855425347181215,2061,2068,2052,2072,2060,2040,1194
934,1713855425357200152,2058,2046,2099,2046,2080,2067,1198
935,1713855425367182861,2058,2073,2116,2072,2040,2040,1194
936,1713855425377180790,2054,2051,2036,2049,2056,2061,1197
937,1713855425387182955,2052,2038,2064,2052,2017,2049,1196
938,1713855425397179580,2052,2038,2035,2047,2073,2048,1195
939,1713855425407183620,2060,2088,2097,2085,2104,2064,1194
940,1713855425417199833,2048,2045,2037,2029,2063,2048,1194
941,1713855425427181340,2049,2048,2048,2072,1996,2040,1194
942,1713855425437187563,2065,2062,2066,2065,2092,2089,1196
943,1713855425447185111,2046,2044,2051,2075,2028,2024,1195
944,1713855425457181656,2065,2060,2049,2058,2125,2058,1196
945,1713855425467183140,2055,2052,2069,2056,1999,2046,1192
946,1713855425477187370,2055,2042,2042,2062,2076,2062,1196
947,1713855425487183415,2052,2049,2053,2052,2045,2042,1194
948,1713855425497185110,2048,2036,2030,2040,2026,2032,1194
949,1713855425507183308,2064,2082,2080,2042,2021,2054,1198
950,1713855425517194923,2052,2042,2040,2045,2043,2004,1193
951,1713855425527184845,2049,2053,2053,2086,2080,2077,1196
952,1713855425537183594,2062,2064,2082,2043,2057,2050,1195
953,1713855425547184238,2060,2068,2132,2056,2044,2066,1194
954,1713855425557182737,2061,2043,2046,2060,2088,2064,1198
955,1713855425567182859,2056,2056,2035,2084,2092,2092,1197
956,1713855425577179925,2052,2024,2005,2039,2052,2065,1196
957,1713855425587181731,2047,2056,2052,2060,2051,2049,1196
958,1713855425597180651,2056,2063,2091,2046,2075,2056,1198
959,1713855425607180752,2047,2041,2068,2067,2059,2047,1194
960,1713855425617204158,2063,2062,2037,2061,2081,2113,1194
961,1713855425627181608,2044,2020,1997,2055,2001,2075,1196
962,1713855425637178534,2056,2028,2033,2059,2084,2085,1198
963,1713855425647178996,2053,2041,2013,2066,2006,2035,1195
964,1713855425657178929,2053,2040,2037,2052,2069,2054,1197
965,1713855425667186034,2049,2044,2042,2073,2043,2035,1196
966,1713855425677184623,2058,2083,2120,2040,2076,2071,1198
967,1713855425687184555,2050,2044,2010,2062,2020,2038,1194
968,1713855425697186761,2058,2048,2040,2059,2064,2048,1196
969,1713855425707184208,2049,2046,2077,2062,2043,2034,1193
970,1713855425717216510,2068,2056,2070,2060,2046,2054,1196
971,1713855425727180916,2054,2071,2081,2053,2024,2039,1195
972,1713855425737182440,2058,2045,2044,2057,2093,2092,1194
973,1713855425747182282,2054,2060,2064,2084,2044,2043,1193
974,1713855425757182023,2053,2044,2040,2024,2056,2052,1197
975,1713855425767185081,2060,2053,2024,2064,2042,2056,1197
976,1713855425777187097,2059,2057,2054,2043,2073,2065,1195
977,1713855425787182089,2065,2102,2106,2080,2080,2067,1195
978,1713855425797181810,2044,2030,2018,2065,2088,2040,1194
979,1713855425807185319,2048,2046,2068,2057,2045,2052,1197
980,1713855425817202944,2062,2076,2090,2045,2071,2052,1198
981,1713855425827183409,2052,2054,2042,2065,2038,2043,1193
982,1713855425837179935,2060,2058,2059,2044,2062,2053,1197
983,1713855425847182281,2056,2045,2052,2061,2047,2047,1196
984,1713855425857182473,2063,2076,2104,2047,2065,2062,1196
985,1713855425867179960,2053,2045,2010,2061,2037,2049,1198
986,1713855425877179952,2068,2079,2133,2056,2056,2050,1199
987,1713855425887180635,2054,2053,2054,2064,2052,2064,1195
988,1713855425897180116,2058,2061,2096,2052,2054,2047,1193
989,1713855425907183224,2053,2058,2062,2067,2034,2056,1196
990,1713855425917198324,2065,2073,2075,2057,2079,2072,1196
991,1713855425927180122,2076,2101,2100,2070,2047,2050,1196
992,1713855425937178180,2056,2049,2042,2024,2068,2062,1196
993,1713855425947181649,2061,2052,2028,2052,2009,2053,1197
994,1713855425957178685,2056,2050,2038,2061,2067,2071,1198
995,1713855425967180009,2054,2070,2066,2066,2045,2049,1195
996,1713855425977180051,2057,2052,2064,2016,2033,2048,1196
997,1713855425987182397,2051,2049,2035,1992,2049,2057,1194
998,1713855425997180105,2070,2080,2112,2043,2120,2121,1196
999,1713855426007182872,2049,2036,2028,2074,2060,2036,1194
1000,1713855426017227558,2056,2049,2046,2047,2089,2076,1196
1001,1713855426027159612,2055,2054,2055,2043,2076,2048,1196
1002,1713855426037193838,2056,2044,2046,2066,2105,2053,1197
1003,1713855426047182999,2056,2063,2055,2044,2044,2046,1195
1004,1713855426057181178,2053,2048,2050,2083,2086,2056,1195
1005,1713855426067182703,2049,2054,2058,2196,2059,2045,1194
1006,1713855426077183776,2056,2045,2041,2010,2043,2057,1195
1007,1713855426087182786,2053,2060,2056,2138,2067,2052,1198
1008,1713855426097186465,2056,2050,2050,2012,2050,2052,1198
1009,1713855426107184393,2052,2056,2053,2052,2054,2048,1199
1010,1713855426117215503,2051,2045,2048,2044,2120,2069,1196
1011,1713855426127184717,2053,2056,2050,2105,2042,2046,1195
1012,1713855426137180431,2056,2056,2048,2069,2057,2056,1194
1013,1713855426147187336,2051,2059,2054,1999,2013,2040,1193
1014,1713855426157182739,2061,2062,2060,2063,2073,2061,1197
1015,1713855426167182721,2057,2057,2062,2077,2048,2052,1196
1016,1713855426177182582,2052,2052,2045,2089,2074,2064,1196
1017,1713855426187187874,2056,2053,2052,2074,2052,2051,1195
1018,1713855426197183127,2056,2051,2055,2041,2068,2065,1197
1019,1713855426207184081,2054,2064,2066,2052,2047,2047,1193
1020,1713855426217223086,2058,2056,2068,2086,2072,2062,1194
1021,1713855426227183183,2058,2060,2059,2048,2033,2042,1194
1022,1713855426237180871,2056,2053,2060,2048,2050,2061,1195
1023,1713855426247183367,2052,2065,2058,2050,2039,2047,1196
1024,1713855426257178419,2058,2049,2058,2064,2061,2060,1200
1025,1713855426267181066,2052,2056,2059,2072,2016,2038,1196
1026,1713855426277180157,2057,2058,2057,2058,2055,2066,1197
1027,1713855426287185558,2050,2056,2057,2054,2040,2044,1193
1028,1713855426297185450,2053,2049,2055,2068,2068,2061,1196
1029,1713855426307188017,2057,2057,2064,2078,2048,2044,1193
1030,1713855426317232683,2056,2045,2047,2045,2065,2057,1196
1031,1713855426327185596,2056,2057,2060,2062,2038,2041,1194
1032,1713855426337185096,2058,2053,2050,2060,2063,2063,1195
1033,1713855426347182263,2060,2063,2065,2080,2057,2058,1195
1034,1713855426357182416,2057,2052,2061,2069,2059,2052,1195
1035,1713855426367181045,2052,2060,2060,2056,2004,2038,1193
1036,1713855426377179904,2056,2050,2054,2072,2078,2063,1197
1037,1713855426387184164,2052,2060,2063,2085,2036,2053,1196
1038,1713855426397182252,2058,2046,2045,2030,2049,2049,1196
1039,1713855426407184148,2055,2059,2052,2012,2000,2046,1195
1040,1713855426417217382,2050,2044,2049,2041,2057,2053,1196
1041,1713855426427185233,2057,2061,2064,2258,2089,2061,1196
1042,1713855426437185115,2060,2047,2054,2064,2089,2083,1197
1043,1713855426447184726,2054,2061,2059,2102,2044,2046,1194
1044,1713855426457181883,2052,2044,2049,2025,2073,2061,1197
1045,1713855426467185781,2049,2056,2053,2114,2059,2050,1197
1046,1713855426477142773,2056,2052,2053,1989,2060,2064,1193
1047,1713855426487175085,2053,2060,2057,2077,2046,2049,1195
1048,1713855426497181479,2056,2046,2046,1992,2052,2054,1196
1049,1713855426507182673,2058,2064,2064,2124,2052,2045,1195
1050,1713855426517220856,2057,2045,2042,1971,2058,2057,1196
1051,1713855426527162279,2056,2072,2083,2129,2046,2045,1195
1052,1713855426537184843,2058,2058,2089,1981,2067,2061,1194
1053,1713855426547169626,2060,2061,2072,2124,2038,2050,1193
1054,1713855426557179697,2056,2052,2050,1946,2068,2056,1196
1055,1713855426567183085,2056,2056,2056,2135,2040,2040,1192
1056,1713855426577179821,2056,2057,2053,1977,2078,2060,1194
1057,1713855426587181065,2051,2055,2053,2120,2039,2041,1193
1058,1713855426597187959,2051,2046,2048,1995,2065,2051,1196
1059,1713855426607184124,2056,2061,2060,2125,2036,2043,1195
1060,1713855426617214874,2058,2049,2052,2009,2081,2069,1194
1061,1713855426627185140,2056,2059,2053,2108,2027,2039,1194
1062,1713855426637182396,2053,2042,2048,1943,2056,2060,1196
1063,1713855426647181386,2058,2061,2053,2130,2028,2045,1195
1064,1713855426657183022,2055,2058,2080,1960,2057,2056,1196
1065,1713855426667176952,2058,2052,2053,2176,2059,2048,1196
1066,1713855426677185169,2061,2053,2058,2027,2058,2054,1196
1067,1713855426687183898,2058,2062,2058,2153,2050,2056,1195
1068,1713855426697181014,2056,2046,2051,1988,2082,2064,1197
1069,1713855426707186658,2053,2061,2061,2152,2053,2059,1197
1070,1713855426717205715,2056,2048,2054,1957,2060,2059,1196
1071,1713855426727186721,2056,2056,2055,2150,2035,2049,1197
1072,1713855426737184088,2060,2058,2064,1985,2093,2064,1194
1073,1713855426747164944,2059,2064,2064,2128,2060,2048,1197
1074,1713855426757181848,2052,2047,2056,1973,2073,2069,1195
1075,1713855426767183612,2050,2053,2056,2169,2050,2042,1193
1076,1713855426777180308,2052,2054,2053,2002,2060,2040,1192
1077,1713855426787191331,2052,2060,2056,2125,2027,2052,1195
1078,1713855426797187856,2053,2049,2051,1932,2048,2059,1197
1079,1713855426807185584,2058,2060,2058,2107,2032,2031,1193
1080,1713855426817215121,2054,2047,2050,1933,2065,2058,1195
1081,1713855426827184365,2057,2063,2060,2154,2049,2072,1196
1082,1713855426837181422,2059,2049,2058,1960,2085,2076,1196
1083,1713855426847187464,2056,2058,2050,2113,2025,2032,1192
1084,1713855426857182477,2056,2050,2054,1939,2074,2064,1197
1085,1713855426867184302,2056,2060,2061,2189,2037,2029,1192
1086,1713855426877182150,2056,2048,2053,1933,2061,2060,1196
1087,1713855426887183534,2054,2057,2056,2217,2019,2040,1194
1088,1713855426897182434,2061,2053,2052,1976,2047,2053,1196
1089,1713855426907184260,2055,2057,2059,2225,2045,2047,1193
1090,1713855426917214639,2055,2046,2048,1874,2054,2053,1196
1091,1713855426927186217,2054,2058,2056,2156,2034,2044,1194
1092,1713855426937180257,2052,2047,2048,1923,2076,2072,1195
1093,1713855426947181090,2060,2061,2062,2178,2028,2045,1191
1094,1713855426957167708,2056,2048,2052,1912,2068,2060,1196
1095,1713855426967181225,2056,2064,2060,2208,2025,2045,1193
1096,1713855426977194221,2053,2047,2053,1920,2075,2065,1196
1097,1713855426987152665,2058,2064,2061,2178,2046,2047,1193
1098,1713855426997181100,2057,2050,2057,1892,2064,2059,1195
1099,1713855427007181944,2054,2060,2059,2206,2045,2048,1199
1100,1713855427017212663,2058,2046,2047,1936,2072,2058,1196
1101,1713855427027186525,2056,2061,2064,2204,2047,2047,1195
1102,1713855427037184203,2056,2044,2053,1901,2070,2056,1200
1103,1713855427047184375,2056,2057,2058,2218,2036,2047,1195
1104,1713855427057179849,2058,2050,2052,1922,2065,2053,1199
1105,1713855427067186202,2053,2059,2056,2225,2041,2052,1198
1106,1713855427077185683,2054,2045,2052,1915,2073,2057,1197
1107,1713855427087181637,2057,2060,2058,2179,2030,2049,1196
1108,1713855427097186107,2054,2048,2056,1879,2061,2056,1196
1109,1713855427107181120,2056,2066,2064,2255,2038,2051,1195
1110,1713855427117201590,2054,2044,2041,1952,2061,2061,1198
1111,1713855427127182336,2063,2096,2151,2204,2049,2049,1195
1112,1713855427137182668,2057,2041,2045,1954,2065,2061,1194
1113,1713855427147178251,2054,2050,2032,2174,2043,2044,1193
1114,1713855427157182041,2053,2048,2039,1989,2056,2054,1195
1115,1713855427167186220,2054,2059,2058,2230,2024,2040,1192
1116,1713855427177182395,2050,2049,2060,1932,2064,2059,1196
1117,1713855427187183749,2056,2059,2058,2126,2041,2050,1196
1118,1713855427197183320,2051,2049,2054,1912,2061,2057,1197
1119,1713855427207182610,2057,2060,2063,2169,2046,2045,1194
1120,1713855427217210054,2052,2046,2050,1889,2067,2062,1198
1121,1713855427227185439,2056,2061,2066,2147,2042,2048,1195
1122,1713855427237179450,2056,2052,2052,1954,2067,2060,1196
1123,1713855427247180062,2056,2056,2053,2235,2056,2049,1198
1124,1713855427257182408,2058,2052,2052,1970,2066,2060,1196
1125,1713855427267191217,2056,2054,2060,2200,2044,2047,1195
1126,1713855427277183795,2061,2059,2058,1958,2064,2061,1196
1127,1713855427287185500,2053,2060,2060,2162,2028,2044,1194
1128,1713855427297188287,2056,2048,2052,1950,2061,2059,1197
1129,1713855427307174993,2055,2056,2051,2192,2050,2053,1194
1130,1713855427317210953,2062,2061,2063,1932,2064,2064,1196
1131,1713855427327142426,2058,2061,2057,2148,2052,2054,1196
1132,1713855427337180459,2056,2043,2051,1965,2069,2064,1198
1133,1713855427347180902,2057,2067,2065,2141,2038,2045,1193
1134,1713855427357180323,2054,2051,2057,1947,2054,2055,1195
1135,1713855427367182449,2057,2056,2056,2154,2048,2047,1193
1136,1713855427377179495,2054,2054,2048,1962,2052,2057,1195
1137,1713855427387178785,2054,2051,2052,2161,2031,2040,1195
1138,1713855427397179659,2053,2052,2054,1991,2073,2064,1199
1139,1713855427407181273,2056,2062,2056,2169,2044,2046,1193
1140,1713855427417203677,2056,2049,2055,1951,2064,2061,1198
1141,1713855427427183331,2054,2057,2056,2198,2047,2048,1196
1142,1713855427437180107,2054,2047,2055,1969,2079,2061,1197
1143,1713855427447184416,2058,2066,2064,2149,2040,2046,1194
1144,1713855427457181112,2053,2049,2049,1952,2047,2054,1196
1145,1713855427467182015,2055,2058,2058,2192,2041,2045,1194
1146,1713855427477137794,2062,2051,2057,1986,2057,2060,1195
1147,1713855427487136293,2056,2060,2053,2130,2046,2056,1198
1148,1713855427497151444,2057,2047,2056,1995,2068,2053,1197
1149,1713855427507184327,2062,2063,2066,2174,2056,2059,1196
1150,1713855427517205578,2057,2050,2050,1965,2080,2048,1197
1151,1713855427527186014,2053,2056,2061,2148,2056,2047,1196
1152,1713855427537185405,2052,2047,2056,1944,2059,2058,1194
1153,1713855427547183713,2053,2058,2059,2137,2040,2046,1195
1154,1713855427557185638,2052,2045,2056,1939,2070,2058,1195
1155,1713855427567181652,2057,2074,2079,2134,2031,2040,1192
1156,1713855427577184029,2052,2045,2042,1931,2064,2062,1195
1157,1713855427587182778,2053,2059,2058,2163,2038,2043,1194
1158,1713855427597189483,2056,2044,2041,1988,2066,2059,1195
1159,1713855427607183363,2057,2063,2058,2136,2049,2053,1197
1160,1713855427617209123,2053,2047,2048,1944,2059,2055,1197
1161,1713855427627188085,2058,2065,2062,2115,2030,2044,1195
1162,1713855427637183298,2056,2050,2052,1981,2059,2059,1197
1163,1713855427647184492,2056,2063,2062,2164,2045,2050,1198
1164,1713855427657183723,2056,2049,2049,1939,2058,2057,1196
1165,1713855427667183073,2052,2058,2045,2180,2053,2048,1196
1166,1713855427677182914,2059,2050,2052,1957,2064,2092,1197
1167,1713855427687186863,2056,2057,2061,2144,2030,2036,1193
1168,1713855427697184121,2054,2047,2049,1929,2080,2060,1197
1169,1713855427707182048,2052,2061,2059,2255,2060,2046,1194
1170,1713855427717184314,2056,2053,2056,1968,2065,2060,1196
1171,1713855427727183765,2053,2064,2064,2210,2038,2049,1197
1172,1713855427737185259,2054,2045,2044,1972,2069,2072,1193
1173,1713855427747182637,2053,2052,2056,2134,2025,1885,1195
1174,1713855427757182468,2077,2111,2190,2007,2094,2077,1196
1175,1713855427767185736,2052,2047,2020,2168,2038,2048,1195
1176,1713855427777182712,2053,2056,2056,1976,2038,2021,1193
1177,1713855427787185148,2050,2052,2050,2216,2060,2056,1196
1178,1713855427797186482,2053,2033,2012,1992,2058,2047,1194
1179,1713855427807181465,2052,2052,2044,2174,2045,2048,1197
1180,1713855427817185555,2056,2048,2046,1953,2060,2056,1195
1181,1713855427827184654,2056,2051,2044,2142,2036,2051,1197
1182,1713855427837182692,2055,2056,2049,1944,2045,2056,1196
1183,1713855427847183095,2056,2058,2062,2138,2040,2046,1192
1184,1713855427857186914,2054,2052,2058,1964,2073,2064,1198
1185,1713855427867181867,2060,2065,2070,2172,2029,2045,1194
1186,1713855427877182730,2055,2041,2047,1963,2060,2058,1197
1187,1713855427887182411,2053,2056,2050,2150,2027,2008,1194
1188,1713855427897183174,2056,2048,2047,1934,2057,2060,1197
1189,1713855427907191091,2058,2068,2060,2160,2018,2041,1193
1190,1713855427917184791,2056,2050,2049,1960,2044,2060,1194
1191,1713855427927185524,2056,2062,2057,2124,2026,2042,1194
1192,1713855427937183852,2057,2060,2092,1944,2064,2059,1194
1193,1713855427947184856,2055,2061,2076,2181,2049,2048,1197
1194,1713855427957184086,2052,2051,2054,1943,2060,2058,1200
1195,1713855427967184770,2057,2057,2058,2156,2041,2044,1195
1196,1713855427977184451,2053,2047,2054,1962,2066,2055,1195
1197,1713855427987155067,2054,2064,2068,2178,2031,2041,1192
1198,1713855427997136825,2056,2049,2052,1944,2058,2056,1196
1199,1713855428007185628,2052,2059,2072,2174,2042,2049,1195
1200,1713855428017186381,2058,2052,2053,1979,2052,2054,1196
1201,1713855428027185782,2056,2059,2062,2143,2045,2048,1196
1202,1713855428037185433,2056,2054,2080,1950,2067,2058,1196
1203,1713855428047186006,2056,2060,2049,2127,2047,2046,1195
1204,1713855428057185627,2058,2058,2061,1944,2063,2059,1197
1205,1713855428067187121,2060,2058,2064,2181,2052,2060,1197
1206,1713855428077185720,2059,2047,2052,1986,2067,2064,1197
1207,1713855428087187055,2056,2057,2049,2145,2035,2045,1192
1208,1713855428097187006,2057,2057,2056,1958,2062,2057,1198
1209,1713855428107190164,2056,2057,2056,2189,2050,2046,1194
1210,1713855428117187631,2054,2047,2054,2012,2074,2057,1196
1211,1713855428127186941,2054,2060,2060,2172,2040,2047,1193
1212,1713855428137153240,2052,2046,2051,1967,2057,2051,1193
1213,1713855428147188417,2064,2084,2111,2165,2066,2080,1196
1214,1713855428157188259,2059,2045,2044,1994,2081,2058,1195
1215,1713855428167187550,2053,2058,2062,2181,2060,2054,1196
1216,1713855428177187001,2057,2048,2048,1961,2057,2060,1195
1217,1713855428187187944,2056,2054,2048,2146,2037,2046,1192
1218,1713855428197202843,2049,2044,2040,1964,2061,2056,1198
1219,1713855428207190913,2052,2059,2057,2150,2033,2046,1192
1220,1713855428217167150,2054,2050,2054,1979,2080,2063,1199
1221,1713855428227189313,2061,2072,2094,2145,2028,2045,1193
1222,1713855428237171952,2054,2043,2037,1981,2072,2047,1195
1223,1713855428247162336,2058,2056,2058,2186,2076,2070,1198
1224,1713855428257164011,2056,2046,2053,1941,2064,2066,1196
1225,1713855428267155827,2054,2060,2062,2153,2044,2050,1196
1226,1713855428277172921,2049,2043,2050,1982,2067,2057,1196
1227,1713855428287163966,2054,2061,2056,2173,2042,2090,1195
1228,1713855428297205585,2066,2068,2080,2004,2075,2050,1196
1229,1713855428307187784,2041,2045,2058,2170,2010,2059,1195
1230,1713855428317191393,2058,2058,2070,1976,2096,2057,1195
1231,1713855428327166548,2058,2062,2053,2152,2052,2064,1196
1232,1713855428337165397,2057,2033,2019,1938,2028,2062,1195
1233,1713855428347190787,2053,2052,2025,2090,2025,2039,1192
1234,1713855428357191099,2058,2060,2068,1990,2063,2059,1194
1235,1713855428367191090,2056,2056,2057,2145,2019,2039,1194
1236,1713855428377191012,2053,2048,2050,1998,2065,2058,1195
1237,1713855428387191194,2064,2066,2064,2118,2065,2097,1196
1238,1713855428397191016,2058,2072,2112,1921,2090,2073,1197
1239,1713855428407191989,2056,2044,2033,2172,2035,1953,1194
1240,1713855428417191290,2051,2040,2028,1944,2050,2057,1197
1241,1713855428427191752,2057,2053,2050,2240,2022,2052,1195
1242,1713855428437191644,2053,2039,2045,1972,2057,2056,1198
1243,1713855428447192386,2057,2059,2048,2195,2050,2050,1197
1244,1713855428457191767,2056,2063,2114,1951,2085,2049,1197
1245,1713855428467192160,2056,2056,2054,2216,2047,2036,1193
1246,1713855428477192152,2057,2049,2054,1914,2042,2056,1198
1247,1713855428487191212,2052,2057,2052,2221,2045,2053,1196
1248,1713855428497192706,2060,2052,2059,2006,2074,1964,1193
1249,1713855428507193659,2060,2056,2048,2187,2024,2024,1193
1250,1713855428517193080,2052,2046,2040,1960,2056,2058,1197
1251,1713855428527193623,2050,2051,2047,2167,2024,2070,1196
1252,1713855428537193585,2056,2045,2038,1922,2040,2048,1194
1253,1713855428547193897,2055,2056,2036,2136,2030,2052,1197
1254,1713855428557193558,2059,2054,2084,1971,2050,2066,1196
1255,1713855428567194011,2061,2063,2059,2228,2035,2046,1195
1256,1713855428577193792,2050,2045,2044,1957,2068,2057,1195
1257,1713855428587208421,2057,2062,2056,2151,2046,2042,1193
1258,1713855428597194927,2056,2051,2056,1949,2060,2060,1196
1259,1713855428607195110,2056,2061,2062,2169,2042,2045,1195
1260,1713855428617194741,2057,2048,2050,1987,2080,2060,1196
1261,1713855428627195404,2058,2064,2070,2174,2050,2052,1196
1262,1713855428637194854,2054,2045,2049,1956,2069,2059,1196
1263,1713855428647195547,2052,2052,2036,2154,2032,2034,1196
1264,1713855428657194928,2052,2045,2041,1970,2077,2065,1195
1265,1713855428667179139,2058,2066,2067,2172,2036,2048,1197
1266,1713855428677195612,2058,2071,2082,1922,2058,2057,1195
1267,1713855428687179484,2052,2057,2053,2198,2045,2050,1195
1268,1713855428697195606,2058,2050,2056,1969,2060,2061,1197
1269,1713855428707180419,2058,2064,2060,2108,2031,2045,1194
1270,1713855428717178868,2052,2044,2044,1952,2063,2060,1193
1271,1713855428727197204,2052,2061,2060,2155,2045,2048,1198
1272,1713855428737196955,2058,2048,2052,1968,2066,2061,1196
1273,1713855428747179855,2055,2065,2059,2144,2045,2046,1193
1274,1713855428757196488,2053,2054,2073,1930,2064,2058,1197
1275,1713855428767180059,2056,2061,2065,2102,2045,2046,1195
1276,1713855428777197293,2057,2048,2043,1972,2065,2057,1195
1277,1713855428787181034,2055,2044,2036,2166,2045,2050,1196
1278,1713855428797197597,2061,2056,2053,1982,2059,2057,1197
1279,1713855428807181087,2052,2053,2049,2130,2042,2047,1193
1280,1713855428817180628,2061,2084,2128,1948,2064,2063,1195
1281,1713855428827181702,2056,2058,2058,2106,2046,2052,1196
1282,1713855428837180973,2056,2053,2052,1915,2065,2061,1197
1283,1713855428847182257,2056,2053,2059,2141,2049,2049,1199
1284,1713855428857181317,2060,2045,2042,2025,2064,2059,1198
1285,1713855428867182581,2058,2064,2058,2181,2037,2043,1195
1286,1713855428877181040,2056,2043,2042,2036,2069,2057,1195
1287,1713855428887200007,2053,2037,2017,2148,2059,2053,1197
1288,1713855428897182726,2052,2045,2046,2021,2056,2053,1195
1289,1713855428907182498,2061,2065,2065,2104,2041,2054,1196
1290,1713855428917181808,2060,2058,2055,2012,2060,2060,1198
1291,1713855428927183012,2055,2060,2039,2100,2042,2046,1192
1292,1713855428937182944,2052,2045,2043,2008,2060,2060,1195
1293,1713855428947183206,2065,2080,2076,2141,2048,2049,1197
1294,1713855428957183408,2052,2043,2049,2036,2068,2055,1195
1295,1713855428967183099,2052,2054,2056,2092,2044,2049,1197
1296,1713855428977182851,2054,2045,2063,2025,2056,2054,1195
1297,1713855428987182762,2056,2056,2054,2117,2044,2050,1196
1298,1713855428997183986,2057,2044,2044,2020,2072,2061,1196
1299,1713855429007169240,2076,2148,2213,2126,2043,2048,1197
1300,1713855429017184340,2052,2041,2045,2002,2061,2054,1197
1301,1713855429027185494,2054,2060,2056,2103,2053,2049,1196
1302,1713855429037184373,2062,2057,2055,1991,2062,2052,1196
1303,1713855429047182933,2061,2070,2063,2085,2049,2051,1195
1304,1713855429057184527,2053,2044,2044,1984,2068,2062,1197
1305,1713855429067179489,2057,2061,2056,2106,2021,2038,1192
1306,1713855429077185723,2057,2044,2046,2032,2069,2076,1195
1307,1713855429087182619,2061,2061,2056,2120,2049,2045,1193
1308,1713855429097184544,2052,2047,2060,2033,2056,2056,1196
1309,1713855429107183744,2052,2062,2064,2097,2044,2045,1193
1310,1713855429117183024,2054,2043,2044,1997,2065,2063,1197
1311,1713855429127186312,2052,2055,2056,2108,2049,2042,1193
1312,1713855429137190171,2053,2045,2050,1990,2064,2068,1194
1313,1713855429147182167,2054,2056,2051,2117,2040,2042,1193
1314,1713855429157185956,2056,2056,2066,2035,2060,2049,1196
1315,1713855429167182241,2057,2054,2037,2077,2038,2047,1193
1316,1713855429177181842,2050,2035,2021,2044,2067,2061,1197
1317,1713855429187187244,2061,2079,2093,2082,2045,2051,1196
1318,1713855429197182757,2050,2043,2037,2027,2041,2054,1194
1319,1713855429207182889,2053,2056,2056,2093,2028,2040,1193
1320,1713855429217186728,2054,2053,2061,2056,2094,2065,1195
1321,1713855429227188212,2049,2058,2057,2079,2047,2047,1194
1322,1713855429237188174,2057,2046,2051,2045,2053,2063,1195
1323,1713855429247183567,2059,2082,2109,2091,2049,2053,1196
1324,1713855429257187816,2052,2040,2052,2037,2068,2062,1198
1325,1713855429267154165,2060,2065,2056,2095,2038,2046,1193
1326,1713855429277185565,2056,2047,2053,2051,2069,2059,1196
1327,1713855429287184676,2054,2060,2058,2068,2045,2045,1192
1328,1713855429297187734,2056,2050,2064,2072,2077,2055,1196
1329,1713855429307183146,2050,2041,2032,2079,2035,2045,1193
1330,1713855429317187406,2052,2050,2050,2017,2068,2058,1196
1331,1713855429327184873,2056,2053,2058,2090,2042,2050,1195
1332,1713855429337181909,2052,2043,2050,2040,2064,2054,1193
1333,1713855429347182211,2054,2057,2073,2093,2043,2045,1193
1334,1713855429357181952,2077,2104,2134,2033,2085,2077,1196
1335,1713855429367183216,2059,2052,2052,2098,2038,2041,1194
1336,1713855429377180583,2060,2052,2053,2029,2062,2052,1194
1337,1713855429387183500,2051,2052,2056,2092,2032,2042,1193
1338,1713855429397186126,2058,2064,2065,2036,2060,2053,1197
1339,1713855429407185407,2052,2057,2055,2064,2038,2046,1194
1340,1713855429417183686,2052,2056,2056,2046,2068,2057,1193
1341,1713855429427185030,2048,2057,2056,2091,2040,2038,1193
1342,1713855429437183980,2056,2036,2024,2052,2070,2066,1196
1343,1713855429447180515,2058,2063,2040,2116,2040,2048,1197
1344,1713855429457183211,2050,2043,2049,2030,2077,2072,1197
1345,1713855429467198962,2061,2062,2060,2103,2037,2061,1196
1346,1713855429477184126,2053,2054,2068,2051,2068,2057,1195
1347,1713855429487147940,2060,2094,2131,2103,2040,2049,1197
1348,1713855429497186193,2056,2046,2048,2003,2069,2061,1196
1349,1713855429507187047,2060,2064,2039,2084,2058,2064,1197
1350,1713855429517184404,2061,2056,2072,2021,2060,2048,1197
1351,1713855429527186710,2064,2047,2025,2072,2052,2098,1197
1352,1713855429537188826,2051,2041,2043,2032,2053,2040,1192
1353,1713855429547184168,2052,2057,2052,2083,2049,2041,1193
1354,1713855429557183729,2054,2044,2043,2050,2084,2066,1195
1355,1713855429567184352,2050,2056,2062,2082,2042,2046,1194
1356,1713855429577184283,2061,2045,2041,2024,2073,2068,1197
1357,1713855429587186870,2055,2057,2057,2084,2041,2051,1195
1358,1713855429597183395,2057,2052,2049,2043,2094,2091,1195
1359,1713855429607185912,2058,2052,2056,2122,2032,2037,1193
1360,1713855429617194920,2062,2069,2081,2050,2068,2072,1197
1361,1713855429627183751,2053,2057,2054,2069,2037,2042,1193
1362,1713855429637183182,2058,2057,2080,2053,2102,2068,1196
1363,1713855429647192902,2049,2045,2038,2076,2041,2037,1195
1364,1713855429657187563,2053,2042,2034,2035,2061,2057,1197
1365,1713855429667185501,2052,2058,2042,2082,2050,2048,1198
1366,1713855429677182547,2050,2041,2041,2022,2066,2060,1198
1367,1713855429687187378,2056,2061,2061,2089,2044,2047,1193
1368,1713855429697184594,2054,2045,2050,2036,2057,2061,1196
1369,1713855429707184535,2053,2054,2059,2096,2061,2058,1197
1370,1713855429717179968,2056,2069,2075,2032,2059,2051,1196
1371,1713855429727188236,2058,2052,2050,2065,2030,2037,1196
1372,1713855429737185433,2053,2051,2056,2026,2066,2060,1196
1373,1713855429747185254,2055,2065,2113,2092,2047,2048,1196
1374,1713855429757182140,2060,2059,2072,2021,2072,2064,1197
1375,1713855429767179036,2059,2070,2074,2104,2047,2061,1195
1376,1713855429777212320,2043,2036,2015,2019,2068,2056,1198
1377,1713855429787177356,2050,2052,2035,2112,2054,2056,1198
1378,1713855429797181475,2053,2039,2036,2024,2050,2054,1197
1379,1713855429807185103,2066,2101,2062,2120,2050,2044,1193
1380,1713855429817181899,2051,2042,2043,2053,2068,2059,1197
1381,1713855429827182882,2050,2045,2052,2074,2040,2044,1194
1382,1713855429837178375,2057,2046,2027,2028,2069,2060,1196
1383,1713855429847181624,2050,2037,2032,2083,2045,2054,1197
1384,1713855429857149135,2050,2053,2060,2037,2056,2056,1197
1385,1713855429867180805,2060,2061,2044,2100,2040,2044,1195
1386,1713855429877192509,2053,2036,2029,2021,2038,2050,1196
1387,1713855429887176260,2064,2084,2116,2124,2049,2041,1195
1388,1713855429897188966,2053,2044,2044,2037,2050,2045,1193
1389,1713855429907187454,2062,2062,2058,2094,2029,2050,1196
1390,1713855429917184991,2058,2047,2038,2032,2079,2109,1197
1391,1713855429927190123,2053,2052,2047,2072,2041,2044,1194
1392,1713855429937188782,2052,2050,2047,2032,2051,2056,1195
1393,1713855429947180909,2052,2057,2052,2084,2033,2050,1195
1394,1713855429957141807,2064,2072,2108,2029,2077,2066,1196
1395,1713855429967178448,2061,2077,2125,2105,2063,2037,1192
1396,1713855429977175504,2049,2029,2015,2026,2053,2047,1195
1397,1713855429987183711,2057,2059,2058,2066,2041,2047,1197
1398,1713855429997188872,2048,2040,2041,2021,2061,2064,1196
1399,1713855430007185708,2060,2058,2028,2088,2040,2046,1196
1400,1713855430017182413,2065,2089,2085,2040,2068,2054,1195
1401,1713855430027184108,2054,2052,2049,2088,2063,2052,1196
1402,1713855430037183909,2047,2042,2041,2022,2053,2056,1196
1403,1713855430047182398,2052,2054,2049,2094,2054,2060,1196
1404,1713855430057183201,2054,2043,2052,2024,2089,2065,1196
1405,1713855430067183634,2058,2068,2062,2086,2045,2056,1197
1406,1713855430077183405,2064,2056,2052,2032,2055,2057,1194
1407,1713855430087182074,2060,2068,2062,2075,2035,2043,1195
1408,1713855430097184811,2064,2047,2023,2018,2045,2046,1196
1409,1713855430107183290,2056,2072,2081,2079,2032,2035,1195
1410,1713855430117186948,2052,2044,2049,1996,2064,2060,1197
1411,1713855430127186048,2061,2062,2063,2086,2037,2045,1195
1412,1713855430137178124,2056,2056,2060,2028,2035,2019,1193
1413,1713855430147183647,2053,2048,2047,2086,2030,2040,1197
1414,1713855430157190852,2042,2029,2051,2021,2059,2064,1198
1415,1713855430167184031,2068,2060,2066,2072,2088,2112,1196
1416,1713855430177182510,2056,2044,2043,2026,2058,2076,1200
1417,1713855430187184405,2053,2057,2057,2088,2047,2045,1193
1418,1713855430197187843,2054,2050,2051,2034,2067,2073,1197
1419,1713855430207188987,2056,2054,2060,2065,2024,2038,1192
1420,1713855430217156888,2057,2037,2041,2035,2061,2065,1198
1421,1713855430227194360,2053,2056,2041,2084,2037,2045,1193
1422,1713855430237181187,2060,2049,2054,2025,2066,2074,1199
1423,1713855430247184364,2056,2058,2050,2095,2064,2044,1195
1424,1713855430257181791,2066,2056,2041,2036,2068,2046,1195
1425,1713855430267182314,2058,2074,2101,2089,2037,2030,1194
1426,1713855430277182496,2044,2040,2052,2031,2079,2075,1197
1427,1713855430287184751,2056,2074,2134,2102,2043,2045,1194
1428,1713855430297184973,2060,2060,2073,2038,2064,2052,1198
1429,1713855430307185025,2052,2052,2048,2067,2004,2024,1194
1430,1713855430317182432,2053,2041,2065,2011,2034,2045,1196
1431,1713855430327181952,2056,2050,2042,2068,2029,2035,1193
1432,1713855430337181253,2062,2081,2116,2029,2085,2121,1196
1433,1713855430347186044,2049,2044,2037,2076,2030,2044,1195
1434,1713855430357182659,2056,2035,2018,2024,2064,2056,1198
1435,1713855430367195485,2056,2056,2066,2086,2035,2044,1194
1436,1713855430377185497,2057,2041,2045,2014,2017,1996,1194
1437,1713855430387174669,2064,2064,2116,2100,2057,2056,1195
1438,1713855430397187685,2056,2028,2035,2040,2080,2065,1196
1439,1713855430407175383,2045,2057,2019,2086,2050,2015,1194
1440,1713855430417179663,2058,2057,2020,2038,2021,1972,1194
1441,1713855430427181508,2060,2064,2049,2088,2038,2061,1198
1442,1713855430437177222,2058,2064,2057,2020,2047,2050,1197
1443,1713855430447176462,2051,2060,2088,2077,2028,2029,1195
1444,1713855430457178968,2052,2037,2031,2035,2053,2036,1197
1445,1713855430467177527,2043,2035,2026,2078,2044,2041,1194
1446,1713855430477190714,2053,2048,2052,2034,2065,2057,1197
1447,1713855430487183852,2058,2053,2052,2070,2008,1983,1195
1448,1713855430497181299,2059,2054,2046,2029,2076,2065,1198
1449,1713855430507182483,2065,2068,2057,2085,2049,2060,1195
1450,1713855430517180952,2056,2052,2066,2044,2073,2057,1195
1451,1713855430527194428,2053,2072,2076,2096,2060,2047,1193
1452,1713855430537177238,2048,2041,2034,2051,2067,2057,1194
1453,1713855430547184433,2056,2053,2060,2096,2085,2088,1196
1454,1713855430557181619,2043,2032,2031,2039,2060,2055,1197
1455,1713855430567183194,2061,2064,2099,2103,2073,2085,1195
1456,1713855430577188876,2044,2021,2010,2027,2078,2093,1196
1457,1713855430587179811,2052,2051,2069,2080,2043,2036,1193
1458,1713855430597178239,2057,2041,2030,2032,2072,2057,1198
1459,1713855430607183972,2061,2064,2039,2104,2081,2060,1197
1460,1713855430617182741,2053,2033,2022,2044,2072,2056,1196
1461,1713855430627193754,2058,2068,2064,2083,2021,2068,1198
1462,1713855430637209806,2063,2058,2044,2021,2081,2069,1196
1463,1713855430647185551,2056,2076,2054,2103,2071,2064,1196
1464,1713855430657182367,2050,2045,2055,2015,2074,2049,1196
1465,1713855430667188680,2058,2064,2086,2080,2043,2069,1196
1466,1713855430677185937,2055,2031,2033,2040,2072,2056,1196
1467,1713855430687180649,2061,2055,2039,2086,2037,2054,1196
1468,1713855430697187934,2050,2040,2049,2021,2045,2053,1196
1469,1713855430707184920,2051,2055,2120,2081,2043,2019,1193
1470,1713855430717184270,2056,2052,2004,2036,2063,2056,1196
1471,1713855430727183801,2068,2099,2109,2076,2043,2043,1195
1472,1713855430737183492,2056,2052,2034,2032,2079,2068,1195
1473,1713855430747184265,2047,2034,2029,2109,2038,2044,1192
1474,1713855430757183485,2056,2030,2033,2035,2073,2067,1197
1475,1713855430767144514,2054,2058,2058,2069,2022,2030,1195
1476,1713855430777182787,2060,2047,2054,2035,2064,2043,1194
1477,1713855430787185894,2052,2048,2029,2078,2049,2043,1196
1478,1713855430797183431,2062,2057,2060,2036,2061,2046,1194
1479,1713855430807183102,2057,2053,2047,2066,1988,1982,1193
1480,1713855430817184376,2054,2050,2046,2016,2064,2053,1197
1481,1713855430827181613,2071,2085,2100,2076,2021,2046,1195
1482,1713855430837186303,2046,2038,2033,2044,2061,2053,1197
1483,1713855430847182278,2054,2072,2060,2064,2014,2031,1194
1484,1713855430857182028,2056,2061,2035,2045,2047,2040,1194
1485,1713855430867183423,2048,2057,2066,2068,2021,2076,1196
1486,1713855430877185609,2046,2030,2056,2029,2057,2052,1197
1487,1713855430887182384,2057,2052,2051,2067,2044,2068,1197
1488,1713855430897180703,2046,2034,2046,2021,2057,2065,1197
1489,1713855430907182157,2053,2047,2022,2078,2057,2054,1195
1490,1713855430917179334,2054,2055,2063,2042,2077,2069,1195
1491,1713855430927190757,2053,2056,2049,2088,2008,1982,1192
1492,1713855430937184797,2065,2056,2036,2044,2055,2060,1194
1493,1713855430947189257,2049,2061,2070,2067,2036,2057,1196
1494,1713855430957183177,2051,2046,2046,2029,2060,2054,1197
1495,1713855430967184912,2058,2065,2041,2066,2056,2078,1196
1496,1713855430977183571,2045,2024,2008,2028,2057,2057,1197
1497,1713855430987184344,2062,2079,2073,2072,2019,2040,1194
1498,1713855430997197791,2045,2038,2035,2025,2045,2053,1196
1499,1713855431007182864,2047,2042,2040,2076,2055,2064,1198
1500,1713855431017181553,2068,2078,2060,2026,2064,2066,1197
1501,1713855431027225417,2056,2072,2061,2101,2030,2044,1194
1502,1713855431037184903,2056,2045,2040,2042,2065,2051,1195
1503,1713855431047183051,2049,2060,2032,2076,2026,2032,1196
1504,1713855431057182522,2052,2044,2044,2026,2052,2075,1196
1505,1713855431067222338,2053,2053,2034,2068,2036,2044,1193
1506,1713855431077220696,2061,2066,2097,2037,2055,2050,1198
1507,1713855431087219285,2056,2052,2022,2068,2046,2050,1196
1508,1713855431097218946,2060,2049,2017,2041,2070,2056,1196
1509,1713855431107218998,2064,2061,2037,2096,2047,2045,1194
1510,1713855431117218288,2048,2033,2044,2032,2068,2065,1196
1511,1713855431127216506,2053,2057,2056,2069,2036,2037,1195
1512,1713855431137217199,2053,2047,2051,2047,2068,2061,1195
1513,1713855431147214185,2046,2044,2051,2069,2027,2028,1194
1514,1713855431157213636,2068,2083,2110,2031,2060,2074,1197
1515,1713855431167156740,2051,2060,2062,2088,2033,2040,1194
1516,1713855431177212667,2054,2046,2049,2050,2086,2056,1197
1517,1713855431187213470,2068,2093,2131,2097,2046,2038,1196
1518,1713855431197211167,2049,2034,2032,2024,2060,2056,1198
1519,1713855431207212291,2061,2076,2086,2054,2007,2048,1197
1520,1713855431217211190,2064,2068,2124,2044,2091,2079,1196
1521,1713855431227209028,2049,2058,2006,2074,2052,2068,1197
1522,1713855431237210703,2043,2026,2032,2042,2068,2056,1199
1523,1713855431247209482,2048,2065,2112,2081,2044,2048,1197
1524,1713855431257206849,2044,2026,2027,2059,2080,2056,1196
1525,1713855431267206379,2066,2090,2102,2069,2060,2073,1196
1526,1713855431277204838,2058,2047,2040,2027,2070,2069,1197
1527,1713855431287205320,2068,2090,2096,2056,2037,2042,1194
1528,1713855431297205262,2044,2029,2056,2032,2085,2086,1196
1529,1713855431307203049,2057,2049,2036,2094,2059,2072,1195
1530,1713855431317202470,2056,2030,2024,2026,2072,2075,1197
1531,1713855431327201209,2056,2040,2016,2079,2031,2041,1195
1532,1713855431337200239,2053,2036,2049,2047,2067,2060,1194
1533,1713855431347201723,2060,2059,2053,2070,2040,2054,1197
1534,1713855431357201675,2072,2072,2107,2024,2063,2057,1197
1535,1713855431367199833,2043,2044,2032,2060,2024,2043,1195
1536,1713855431377198652,2052,2053,2052,2042,2079,2058,1196
1537,1713855431387197171,2056,2042,2022,2076,2034,2057,1197
1538,1713855431397197072,2057,2082,2113,2033,2055,2043,1193
1539,1713855431407197495,2050,2056,2048,2070,2030,2045,1193
1540,1713855431417197136,2049,2044,2060,2025,2068,2058,1197
1541,1713855431427197788,2053,2066,2100,2091,2040,2067,1197
1542,1713855431437199814,2061,2074,2088,2041,2068,2054,1197
1543,1713855431447198092,2056,2066,2077,2081,2042,2049,1199
1544,1713855431457197212,2051,2040,2010,2072,2080,2079,1198
1545,1713855431467198095,2068,2074,2044,2064,2037,2051,1195
1546,1713855431477196935,2044,2031,2031,2017,2066,2053,1197
1547,1713855431487198810,2053,2060,2060,2070,2037,2028,1194
1548,1713855431497200795,2050,2037,2040,2030,2066,2077,1197
1549,1713855431507198763,2050,2038,2024,2080,2046,2046,1194
1550,1713855431517200177,2050,2048,2083,2032,2073,2084,1197
1551,1713855431527198896,2064,2102,2168,2099,2048,2069,1196
1552,1713855431537215679,2046,2032,2020,2023,2065,2057,1194
1553,1713855431547198549,2060,2069,2077,2097,2046,2042,1193
1554,1713855431557204742,2050,2029,2017,2044,2076,2064,1196
1555,1713855431567197640,2064,2082,2120,2096,2040,2040,1192
1556,1713855431577198263,2051,2033,2029,2039,2052,2037,1194
1557,1713855431587203134,2052,2042,2041,2092,2050,2050,1196
1558,1713855431597200190,2058,2066,2064,2037,2060,2052,1197
1559,1713855431607200732,2061,2058,2058,2069,2046,2046,1194
1560,1713855431617200453,2057,2050,2059,2039,2064,2052,1196
1561,1713855431627199773,2048,2039,2034,2080,2028,2028,1195
1562,1713855431637201378,2057,2047,2021,2024,2056,2042,1196
1563,1713855431647180169,2060,2053,2053,2080,2052,2057,1199
1564,1713855431657203255,2068,2061,2033,2044,2072,2067,1197
1565,1713855431667201453,2054,2047,2013,2084,2044,2050,1196
1566,1713855431677174995,2052,2040,2030,2025,2070,2062,1197
1567,1713855431687201526,2061,2058,2065,2115,2084,2133,1197
1568,1713855431697201668,2059,2068,2081,2050,2069,2062,1197
1569,1713855431707159500,2048,2054,2056,2077,2032,2045,1196
1570,1713855431717203715,2048,2038,2035,2022,2064,2054,1198
1571,1713855431727201763,2056,2061,2054,2078,2053,2049,1197
1572,1713855431737221451,2056,2045,2025,2094,2074,2056,1194
1573,1713855431747202036,2047,2047,2026,2073,2036,2049,1197
1574,1713855431757202689,2056,2049,2040,2027,2106,2113,1196
1575,1713855431767205456,2066,2112,2172,2104,2034,2065,1196
1576,1713855431777201631,2050,2028,2004,2044,2075,2061,1197
1577,1713855431787202914,2054,2046,2040,2080,2049,2046,1193
1578,1713855431797202285,2056,2036,2042,2032,2060,2049,1195
1579,1713855431807204320,2047,2029,2006,2089,2025,2027,1194
1580,1713855431817205013,2044,2011,1969,2045,2072,2056,1196
1581,1713855431827219341,2052,2060,2072,2075,2040,2050,1194
1582,1713855431837188335,2055,2044,2050,2024,2065,2060,1198
1583,1713855431847230034,2052,2057,2049,2078,2043,2050,1198
1584,1713855431857188468,2046,2037,2044,2029,2044,2016,1194
1585,1713855431867250105,2063,2043,2013,2102,2080,2085,1197
1586,1713855431877228887,2050,2032,2029,2022,2057,2054,1196
1587,1713855431887206687,2056,2064,2066,2076,2039,2047,1194
1588,1713855431897190569,2060,2040,2060,2036,2085,2108,1197
1589,1713855431907191071,2049,2042,2029,2066,2018,2042,1194
1590,1713855431917190161,2065,2072,2090,2040,2072,2060,1196
1591,1713855431927193348,2050,2040,2025,2077,2034,2032,1194
1592,1713855431937189572,2043,2014,1999,2003,2056,2045,1193
1593,1713855431947189795,2053,2048,2058,2082,2050,2056,1196
1594,1713855431957191178,2037,2020,2000,2031,2062,2048,1197
1595,1713855431967191741,2064,2075,2072,2088,2064,2092,1198
1596,1713855431977192103,2050,2038,2032,2032,2067,2072,1194
1597,1713855431987218845,2057,2090,2148,2116,2036,2044,1194
1598,1713855431997220670,2057,2053,2044,2041,2070,2066,1197
1599,1713855432007170798,2045,2043,2033,2080,2040,2045,1195
1600,1713855432017220713,2066,2093,2099,2057,2075,2056,1196
1601,1713855432027221086,2052,2058,2048,2075,2036,2040,1195
1602,1713855432037214184,2046,2040,2028,2038,2080,2076,1198
1603,1713855432047214015,2053,2059,2068,2070,2029,2036,1192
1604,1713855432057213356,2059,2049,2049,2032,2081,2078,1198
1605,1713855432067214118,2056,2062,2056,2082,2060,2052,1196
1606,1713855432077212106,2056,2047,2066,2029,2074,2052,1196
1607,1713855432087214663,2075,2146,2223,2094,2052,2027,1192
1608,1713855432097209054,2056,2053,2061,2029,2052,2043,1195
1609,1713855432107209536,2056,2066,2064,2077,2059,2078,1197
1610,1713855432117217923,2053,2056,2118,2008,2065,2062,1197
1611,1713855432127213006,2061,2060,2065,2072,2040,2042,1194
1612,1713855432137215482,2048,2024,1957,2033,2069,2063,1195
1613,1713855432147209031,2053,2056,2026,2094,2047,2044,1194
1614,1713855432157206959,2055,2037,2042,2022,2058,2060,1197
1615,1713855432167209836,2048,2058,2074,2100,2040,2038,1195
1616,1713855432177205580,2053,2028,1998,2034,2067,2061,1196
1617,1713855432187210410,2052,2039,2082,2078,2059,2073,1196
1618,1713855432197205502,2057,2074,2060,2026,2061,2055,1196
1619,1713855432207215342,2057,2062,2084,2078,2053,2061,1197
1620,1713855432217211186,2052,2046,2036,2029,2053,2050,1195
1621,1713855432227206969,2051,2064,2093,2094,2045,2061,1195
1622,1713855432237203184,2064,2063,2050,2034,2078,2064,1196
1623,1713855432247203937,2053,2044,2065,2072,2040,2033,1195
1624,1713855432257202225,2054,2028,2006,2016,2026,2047,1192
1625,1713855432267201104,2057,2057,2056,2079,2043,2056,1197
1626,1713855432277212848,2042,2021,1984,2034,2069,2052,1197
1627,1713855432287195327,2075,2116,2106,2078,2049,2057,1197
1628,1713855432297199165,2058,2033,2022,2020,2073,2064,1197
1629,1713855432307197033,2058,2048,2025,2081,2039,2040,1195
1630,1713855432317196403,2054,2036,2026,2027,2080,2068,1196
1631,1713855432327154657,2058,2057,2064,2088,2051,2049,1197
1632,1713855432337190475,2046,2040,2058,2041,2072,2053,1195
1633,1713855432347190857,2046,2043,2050,2072,2038,2044,1195
1634,1713855432357188765,2052,2036,2040,2044,2060,2050,1196
1635,1713855432367193024,2053,2062,2104,2078,2050,2056,1196
1636,1713855432377189850,2060,2048,2062,2032,2058,2040,1194
1637,1713855432387193639,2056,2072,2112,2065,2024,2036,1194
1638,1713855432397188150,2047,2037,2022,2022,2069,2066,1198
1639,1713855432407188702,2058,2051,2044,2065,2044,2047,1193
1640,1713855432417189094,2051,2048,2086,2036,2061,2050,1192
1641,1713855432427185599,2057,2069,2068,2064,2042,2052,1197
1642,1713855432437186583,2049,2045,2051,2040,2057,2048,1197
1643,1713855432447186925,2053,2057,2041,2066,2053,2046,1198
1644,1713855432457187167,2051,2062,2064,2041,2069,2060,1197
1645,1713855432467185285,2062,2062,2044,2078,2032,2044,1195
1646,1713855432477183203,2046,2036,2037,2015,2034,2050,1197
1647,1713855432487184647,2062,2097,2184,2090,2067,2064,1197
1648,1713855432497183015,2052,2040,2029,2025,2066,2053,1198
1649,1713855432507180332,2048,2057,2056,2072,2038,2041,1195
1650,1713855432517180083,2056,2042,2077,2061,2062,2060,1196
1651,1713855432527183030,2045,2039,2052,2081,2053,2057,1196
1652,1713855432537218468,2044,2034,2033,2013,2052,2028,1191
1653,1713855432547183053,2050,2076,2058,2076,2034,2046,1194
1654,1713855432557182042,2050,2033,2037,2042,2066,2056,1196
1655,1713855432567216078,2065,2089,2088,2049,2040,2050,1198
1656,1713855432577232961,2053,2031,1978,2028,2061,2069,1198
1657,1713855432587187708,2064,2073,2036,2088,2045,2048,1196
1658,1713855432597186757,2056,2067,2073,2024,2087,2080,1197
1659,1713855432607179956,2053,2060,2066,2084,2051,2048,1197
1660,1713855432617181360,2078,2118,2180,2045,2061,2052,1195
1661,1713855432627188615,2041,2039,2034,2055,2040,2052,1196
1662,1713855432637212411,2052,2044,2031,2043,2074,2060,1197
1663,1713855432647206592,2056,2092,2122,2099,2040,2053,1195
1664,1713855432657181236,2057,2050,2065,2056,2088,2066,1199
1665,1713855432667186688,2069,2115,2178,2088,2047,2052,1196
1666,1713855432677182792,2049,2042,2028,2029,2055,2056,1196
1667,1713855432687215595,2049,2074,2076,2075,2034,2023,1196
1668,1713855432697178948,2049,2034,2024,2064,2073,2059,1196
1669,1713855432707204036,2056,2051,2060,2081,2036,2043,1195
1670,1713855432717176427,2053,2047,2029,2037,2066,2059,1196
1671,1713855432727181928,2040,2037,1996,2060,2043,2050,1196
1672,1713855432737183253,2065,2088,2050,2026,2056,2057,1195
1673,1713855432747197250,2053,2053,2056,2078,2037,2051,1196
1674,1713855432757138491,2054,2050,2054,2034,2063,2051,1195
1675,1713855432767179550,2069,2062,2072,2072,2047,2050,1198
1676,1713855432777180322,2063,2032,2052,2042,2074,2069,1197
1677,1713855432787184031,2061,2052,2057,2073,2047,2072,1196
1678,1713855432797166239,2057,2050,2064,2028,2072,2061,1197
1679,1713855432807197048,2072,2115,2181,2105,2051,2056,1196
1680,1713855432817179958,2065,2059,2045,2050,2075,2061,1198
1681,1713855432827189026,2050,2058,2074,2084,2049,2052,1198
1682,1713855432837182075,2062,2073,2085,2040,2069,2077,1199
1683,1713855432847186034,2048,2052,2049,2086,2039,2041,1195
1684,1713855432857186015,2056,2058,2096,2090,2074,2056,1198
1685,1713855432867181659,2052,2040,2040,2083,2050,2074,1198
1686,1713855432877192220,2049,2056,2061,2042,2067,2046,1194
1687,1713855432887189206,2056,2054,2047,2083,2070,2058,1195
1688,1713855432897191312,2061,2056,2076,2044,2079,2057,1195
1689,1713855432907190571,2045,2034,2032,2066,2039,2035,1193
1690,1713855432917179773,2048,2044,2012,2049,2086,2066,1196
1691,1713855432927185305,2059,2058,2021,2085,2046,2044,1192
1692,1713855432937180106,2056,2050,2069,2031,2068,2049,1195
1693,1713855432947181010,2052,2041,2046,2052,2036,2046,1194
1694,1713855432957185349,2061,2057,2030,2050,2068,2058,1197
1695,1713855432967186302,2053,2047,2008,2066,2040,2042,1192
1696,1713855432977185873,2056,2036,1992,2049,2060,2041,1193
1697,1713855432987184231,2072,2085,2066,2075,2043,2047,1193
1698,1713855432997181678,2056,2061,2053,2025,2047,2034,1193
1699,1713855433007181820,2062,2075,2116,2069,2029,2033,1194
1700,1713855433017182523,2050,2041,2066,2036,2060,2053,1195
1701,1713855433027179248,2053,2085,2117,2074,2054,2053,1196
1702,1713855433037186263,2056,2048,2054,2048,2079,2057,1197
1703,1713855433047174111,2050,2044,2033,2072,2049,2081,1196
1704,1713855433057176448,2053,2042,2046,2036,2047,2049,1197
1705,1713855433067178593,2059,2059,2078,2078,2053,2046,1193
1706,1713855433077176260,2054,2032,2021,2035,2053,2049,1195
1707,1713855433087185208,2080,2117,2099,2085,2058,2056,1195
1708,1713855433097180871,2053,2066,2108,2040,2065,2056,1197
1709,1713855433107183398,2055,2052,2054,2072,2034,2046,1194
1710,1713855433117180173,2058,2050,2013,2034,2064,2082,1195
1711,1713855433127181147,2056,2048,2022,2080,2053,2049,1196
1712,1713855433137181288,2064,2065,2056,2046,2065,2052,1195
1713,1713855433147162314,2059,2070,2089,2068,2066,2062,1194
1714,1713855433157180961,2056,2047,2061,2040,2056,2060,1195
1715,1713855433167184008,2055,2042,2050,2067,2038,2046,1193
1716,1713855433177193837,2057,2042,2000,2061,2074,2077,1195
1717,1713855433187181225,2052,2059,2060,2041,2034,2034,1193
1718,1713855433197183160,2059,2072,2106,2040,2054,2064,1195
1719,1713855433207183793,2057,2066,2048,2076,2034,2040,1192
1720,1713855433217184816,2056,2029,2004,2044,2058,2056,1197
1721,1713855433227182804,2064,2068,2031,2075,2057,2052,1196
1722,1713855433237182475,2051,2052,2013,2036,2081,2084,1195
1723,1713855433247183138,2063,2081,2113,2092,2049,2045,1194
1724,1713855433257184873,2045,2022,1993,2019,2049,2042,1194
1725,1713855433267186166,2058,2059,2053,2069,2043,2054,1196
1726,1713855433277184815,2061,2060,2070,2020,2058,2048,1195
1727,1713855433287181450,2060,2076,2059,2061,2045,2048,1198
1728,1713855433297192322,2058,2045,2078,2028,2041,2043,1193
1729,1713855433307183938,2044,2048,2064,2075,2047,2047,1192
1730,1713855433317183829,2058,2081,2138,2036,2058,2047,1196
1731,1713855433327182198,2055,2060,2069,2080,2041,2050,1196
1732,1713855433337209340,2062,2069,2077,2028,2060,2077,1195
1733,1713855433347183783,2053,2053,2041,2093,2054,2045,1193
1734,1713855433357180599,2063,2063,2091,2052,2068,2062,1193
1735,1713855433367182815,2062,2063,2002,2088,2060,2056,1196
1736,1713855433377181042,2067,2080,2120,2040,2057,2043,1193
1737,1713855433387196733,2058,2076,2081,2073,2054,2048,1195
1738,1713855433397181516,2052,2064,2140,2029,2085,2065,1197
1739,1713855433407185445,2052,2040,2022,2065,2050,2054,1197
1740,1713855433417180167,2048,2042,2044,2032,2072,2057,1196
1741,1713855433427181591,2049,2052,2036,2072,2049,2044,1194
1742,1713855433437198715,2052,2037,2004,2020,2063,2059,1197
1743,1713855433447177025,2068,2073,2033,2093,2059,2059,1195
1744,1713855433457181645,2058,2047,2014,2048,2064,2047,1194
1745,1713855433467181507,2052,2029,1995,2045,2047,2066,1195
1746,1713855433477179184,2058,2051,2008,2053,2073,2062,1197
1747,1713855433487199182,2078,2096,2155,2084,2060,2054,1196
1748,1713855433497190518,2053,2050,2139,2044,2039,2045,1193
1749,1713855433507183105,2050,2058,2070,2097,2056,2045,1195
1750,1713855433517187796,2067,2114,2106,2036,2050,2053,1197
1751,1713855433527177568,2056,2053,2060,2065,2044,2044,1193
1752,1713855433537187078,2052,2037,2017,2049,2044,2058,1195
1753,1713855433547182771,2059,2052,1998,2056,2028,2049,1193
1754,1713855433557183142,2053,2047,2088,2040,2057,2051,1194
1755,1713855433567164439,2056,2064,2049,2091,2060,2050,1196
1756,1713855433577182114,2066,2082,2031,2040,2067,2066,1196
1757,1713855433587189068,2074,2064,2065,2058,2030,2041,1194
1758,1713855433597184080,2054,2045,2018,2030,2047,2036,1192
1759,1713855433607179694,2047,2044,2031,2084,2045,2036,1193
1760,1713855433617185706,2043,2021,2013,2029,2036,2037,1194
1761,1713855433627186600,2056,2045,2018,2066,2047,2046,1192
1762,1713855433637184608,2052,2025,2017,2046,2064,2053,1196
1763,1713855433647185480,2053,2048,2005,2047,2027,2035,1195
1764,1713855433657184730,2067,2075,2070,2028,2068,2061,1197
1765,1713855433667161929,2058,2044,2010,2073,2043,2047,1196
1766,1713855433677181577,2055,2052,2054,2040,2060,2057,1196
1767,1713855433687156862,2058,2062,2036,2076,2048,2047,1195
1768,1713855433697181150,2041,2026,2016,2041,2052,2044,1195
1769,1713855433707197001,2049,2042,2037,2046,2009,2034,1193
1770,1713855433717181714,2048,2048,2053,2040,2062,2057,1198
1771,1713855433727179381,2057,2060,2052,2058,2038,2026,1193
1772,1713855433737183801,2064,2062,2042,2026,2048,2052,1194
1773,1713855433747178782,2049,2060,2060,2069,2044,2050,1196
1774,1713855433757179455,2053,2026,1983,2033,2056,2058,1197
1775,1713855433767179036,2057,2051,2030,2077,2041,2045,1195
1776,1713855433777183095,2059,2058,2145,2031,2045,2012,1195
1777,1713855433787180030,2070,2065,2026,2092,2070,2061,1198
1778,1713855433797192826,2048,2038,2007,2016,2047,2044,1193
1779,1713855433807181657,2064,2082,2042,2114,2058,2052,1196
1780,1713855433817180035,2060,2064,2012,2067,2082,2069,1197
1781,1713855433827180337,2043,2038,2001,2072,2034,2045,1194
1782,1713855433837179457,2048,2037,2035,2040,2081,2072,1201
1783,1713855433847180180,2075,2112,2132,2065,2041,2074,1197
1784,1713855433857178417,2054,2047,2045,2053,2078,2077,1196
1785,1713855433867180163,2056,2058,2047,2053,2067,2078,1197
1786,1713855433877178240,2057,2052,2101,2029,2047,2046,1194
1787,1713855433887180716,2052,2084,2138,2094,2073,2065,1196
1788,1713855433897178193,2053,2045,2116,2013,2035,2041,1195
1789,1713855433907178215,2050,2040,2012,2058,2020,2048,1198
1790,1713855433917178387,2053,2052,2049,2079,2095,2099,1196
1791,1713855433927181033,2050,2052,2031,2069,2044,2060,1195
1792,1713855433937181045,2060,2065,2061,2066,2082,2057,1195
1793,1713855433947179523,2064,2089,2106,2109,2090,2072,1195
1794,1713855433957181307,2053,2004,1985,2045,2068,2049,1196
1795,1713855433967177623,2053,2026,1978,2072,2032,2036,1195
1796,1713855433977179517,2046,2025,2001,2037,2062,2056,1195
1797,1713855433987180140,2053,2045,2043,2068,2018,2057,1195
1798,1713855433997180041,2049,2020,1992,2038,2064,2043,1192
1799,1713855434007182648,2050,2062,2007,2061,2040,2037,1195
1800,1713855434017177680,2049,2032,2028,2044,2062,2057,1196
1801,1713855434027178112,2056,2058,2108,2052,2052,2043,1194
1802,1713855434037177812,2047,2025,2032,2032,2063,2052,1197
1803,1713855434047178355,2051,2048,2039,2068,2041,2075,1198
1804,1713855434057178557,2058,2063,2080,2056,2075,2075,1197
1805,1713855434067178769,2057,2061,2066,2041,2043,2042,1196
1806,1713855434077178169,2060,2044,1997,2025,2048,2054,1197
1807,1713855434087178872,2070,2114,2164,2073,2040,2052,1197
1808,1713855434097178864,2061,2075,2100,2049,2061,2070,1195
1809,1713855434107184776,2050,2053,2050,2067,2061,2083,1196
1810,1713855434117182012,2072,2104,2282,2050,2053,2061,1197
1811,1713855434127179899,2047,2036,1997,2068,2045,2045,1194
1812,1713855434137179710,2057,2048,2052,2041,2061,2054,1193
1813,1713855434147181135,2065,2070,2077,2064,2050,2045,1192
1814,1713855434157180305,2076,2082,2064,2063,2081,2104,1196
1815,1713855434167178743,2067,2084,2130,2065,2041,2042,1193
1816,1713855434177179956,2049,2033,2056,2032,2055,2053,1196
1817,1713855434187181821,2082,2112,2129,2079,2051,2047,1195
1818,1713855434197177124,2046,2033,2020,2021,2044,2056,1197
1819,1713855434207188527,2050,2049,2039,2066,2054,2050,1197
1820,1713855434217179652,2053,2058,2082,2056,2065,2049,1196
1821,1713855434227177899,2058,2065,2114,2072,2035,2048,1195
1822,1713855434237182770,2052,2036,2036,2040,2057,2051,1197
1823,1713855434247179806,2057,2056,2040,2084,2080,2058,1197
1824,1713855434257184516,2043,2025,2056,2012,2080,2069,1196
1825,1713855434267183776,2063,2060,2065,2072,2069,2056,1196
1826,1713855434277180351,2051,2026,1967,2038,2051,2058,1196
1827,1713855434287180934,2056,2069,2084,2060,2047,2069,1194
1828,1713855434297180555,2048,2034,2019,2063,2055,2050,1196
1829,1713855434307180967,2056,2057,2075,2064,2041,2042,1192
1830,1713855434317182581,2058,2051,2040,2052,2069,2066,1196
1831,1713855434327181430,2061,2081,2147,2081,2056,2051,1198
1832,1713855434337180700,2050,2040,2056,2062,2059,2061,1194
1833,1713855434347181513,2072,2092,2100,2082,2058,2060,1195
1834,1713855434357180914,2054,2043,2045,2058,2069,2067,1196
1835,1713855434367180725,2050,2073,2100,2070,2055,2044,1193
1836,1713855434377179624,2059,2048,2078,2031,2066,2072,1196
1837,1713855434387179585,2053,2068,2089,2068,2044,2048,1196
1838,1713855434397179196,2064,2081,2221,2047,2053,2062,1194
1839,1713855434407179478,2058,2052,2085,2073,2036,2042,1193
1840,1713855434417183357,2051,2033,2020,2034,2059,2052,1196
1841,1713855434427182837,2051,2052,2059,2074,2047,2042,1193
1842,1713855434437182017,2060,2052,2014,2026,2033,2030,1195
1843,1713855434447192358,2052,2048,2042,2065,2030,2049,1197
1844,1713855434457180376,2048,2038,2103,2040,2070,2056,1195
1845,1713855434467180708,2052,2049,2024,2076,2038,2040,1194
1846,1713855434477180800,2052,2038,1984,2046,2071,2064,1197
1847,1713855434487179549,2056,2077,2086,2083,2072,2060,1197
1848,1713855434497181344,2051,2036,2052,2033,2041,2051,1195
1849,1713855434507182167,2059,2058,2076,2090,2037,2047,1194
1850,1713855434517178832,2056,2060,2044,2025,2049,2076,1195
1851,1713855434527182330,2060,2072,2056,2056,2014,2033,1192
1852,1713855434537183183,2064,2070,2103,2074,2083,2071,1196
1853,1713855434547185950,2060,2084,2056,2066,2052,2057,1194
1854,1713855434557176413,2056,2037,2045,2047,2054,2050,1197
1855,1713855434567180332,2068,2068,2021,2102,2076,2056,1195
1856,1713855434577180754,2059,2056,2073,2040,2068,2057,1196
1857,1713855434587181517,2052,2043,2004,2065,2045,2042,1194
1858,1713855434597186528,2050,2043,2037,2019,2031,2033,1195
1859,1713855434607181550,2063,2065,2056,2068,2049,2049,1194
1860,1713855434617180309,2045,2038,2040,2041,2054,2056,1196
1861,1713855434627181773,2046,2058,2100,2090,2082,2070,1195
1862,1713855434637179330,2056,2069,2091,2020,2048,2048,1196
1863,1713855434647180213,2090,2136,2152,2074,2052,2044,1194
1864,1713855434657180174,2047,2032,2024,2037,2054,2057,1195
1865,1713855434667186277,2056,2057,2057,2057,2016,2033,1192
1866,1713855434677183523,2056,2031,1997,2051,2044,2019,1194
1867,1713855434687183134,2065,2090,2182,2062,2052,2039,1193
1868,1713855434697188636,2042,2021,2018,2028,2047,2086,1196
1869,1713855434707177947,2064,2075,2084,2073,2072,2058,1196
1870,1713855434717179712,2050,2042,2032,2024,2041,2049,1196
1871,1713855434727179202,2046,2031,1995,2074,2068,2024,1194
1872,1713855434737201656,2056,2054,2034,2041,1993,2034,1190
1873,1713855434747187130,2050,2052,2067,2081,2052,2051,1196
1874,1713855434757180810,2054,2027,1951,2037,2078,2101,1197
1875,1713855434767180470,2056,2053,2032,2071,2080,2076,1197
1876,1713855434777196672,2050,2051,2030,2057,2073,2057,1196
1877,1713855434787191875,2053,2041,1996,2063,2031,2053,1195
1878,1713855434797181737,2053,2045,2018,2036,2043,2049,1195
1879,1713855434807179654,2053,2042,2017,2076,2047,2047,1194
1880,1713855434817184214,2068,2050,2003,2071,2094,2072,1197
1881,1713855434827185137,2053,2054,2053,2060,2056,2044,1194
1882,1713855434837182534,2058,2054,2051,2068,2072,2079,1197
1883,1713855434847182896,2056,2056,2073,2073,2054,2056,1197
1884,1713855434857181274,2055,2061,2107,2030,2088,2048,1198
1885,1713855434867180594,2052,2053,2001,2056,2046,2046,1194
1886,1713855434877179494,2065,2092,2175,2018,2058,2038,1193
1887,1713855434887181088,2050,2040,2015,2074,2052,2049,1195
1888,1713855434897198703,2053,2039,2026,2032,2058,2054,1196
1889,1713855434907183806,2041,2054,2088,2075,2019,2004,1194
1890,1713855434917181633,2064,2072,2064,2051,2067,2058,1198
1891,1713855434927180102,2055,2050,2100,2101,2031,2039,1193
1892,1713855434937178951,2053,2041,2067,2045,2039,2041,1193
1893,1713855434947182550,2058,2066,2094,2067,2057,2072,1198
1894,1713855434957182701,2058,2054,2015,2030,2042,2043,1194
1895,1713855434967181941,2050,2044,2025,2083,2050,2039,1193
1896,1713855434977181702,2052,2036,2055,2027,2050,2045,1193
1897,1713855434987183878,2067,2072,2094,2081,2060,2069,1194
1898,1713855434997185021,2057,2062,2058,2045,2059,2055,1197
1899,1713855435007177829,2057,2092,2136,2082,2052,2061,1197
1900,1713855435017182439,2045,2028,2022,2035,2066,2069,1197
1901,1713855435027180998,2046,2046,2060,2065,2045,2040,1193
1902,1713855435037182822,2059,2041,2062,2047,2042,2055,1198
1903,1713855435047180269,2049,2038,2057,2060,2068,2078,1198
1904,1713855435057176443,2057,2061,2089,2035,2070,2068,1196
1905,1713855435067179440,2046,2052,2068,2073,2043,2060,1195
1906,1713855435077180293,2058,2073,2083,2040,2059,2056,1196
1907,1713855435087178501,2053,2073,2100,2046,2031,2043,1194
1908,1713855435097184734,2051,2040,2045,2038,2068,2060,1196
1909,1713855435107180277,2061,2052,1989,2074,2052,2040,1193
1910,1713855435117190798,2044,2029,2002,2044,2048,2068,1197
1911,1713855435127219914,2046,2049,2031,2082,2059,2061,1197
1912,1713855435137184609,2053,2044,2053,2060,2052,2038,1192
1913,1713855435147182627,2062,2079,2092,2077,2053,2056,1198
1914,1713855435157179733,2064,2076,2161,2026,2033,2046,1196
1915,1713855435167179644,2052,2056,2104,2070,2054,2043,1194
1916,1713855435177180377,2054,2036,2026,2049,2080,2047,1193
1917,1713855435187181300,2056,2059,2072,2080,2063,2045,1194
1918,1713855435197186010,2059,2064,2042,2070,2048,2053,1196
1919,1713855435207182715,2057,2057,2006,2064,2041,2046,1193
1920,1713855435217180372,2053,2030,1988,2034,2069,2064,1195
1921,1713855435227181295,2064,2072,2037,2075,2036,2048,1195
1922,1713855435237179003,2049,2045,2027,2054,2125,2071,1197
1923,1713855435247176640,2072,2097,2143,2064,2064,2051,1197
1924,1713855435257175659,2058,2049,2018,2050,2087,2100,1197
1925,1713855435267182002,2051,2042,2066,2069,2052,2044,1193
1926,1713855435277186893,2060,2032,1961,2040,2040,2049,1198
1927,1713855435287185081,2053,2046,2054,2049,2060,2064,1198
1928,1713855435297182487,2057,2044,2018,2017,2020,2034,1195
1929,1713855435307179362,2057,2063,2080,2072,2064,2060,1196
1930,1713855435317182420,2050,2034,2010,2070,2126,2098,1197
1931,1713855435327179195,2049,2054,2069,2072,2084,2040,1193
1932,1713855435337182443,2043,2028,2019,2044,2030,2048,1195
1933,1713855435347184388,2065,2060,2072,2095,2102,2076,1196
1934,1713855435357180291,2050,2029,2022,2029,2053,2050,1197
1935,1713855435367181695,2060,2060,2116,2072,2045,2056,1197
1936,1713855435377180154,2058,2049,2034,2048,2056,2049,1197
1937,1713855435387184463,2056,2071,2054,2087,2068,2054,1195
1938,1713855435397181899,2059,2084,2130,2037,2053,2077,1194
1939,1713855435407181760,2047,2041,2021,2051,2073,2039,1192
1940,1713855435417180540,2061,2068,2143,2056,2072,2078,1197
1941,1713855435427188546,2056,2046,2031,2064,2076,2062,1196
1942,1713855435437182496,2052,2047,2045,2026,2049,2068,1198
1943,1713855435447185603,2059,2054,2065,2055,2063,2065,1198
1944,1713855435457185554,2054,2045,2057,2041,2051,2052,1197
1945,1713855435467181759,2074,2108,2124,2065,2015,2035,1194
1946,1713855435477182151,2055,2041,2038,2036,2067,2055,1197
1947,1713855435487188243,2056,2056,2028,2070,2053,2053,1198
1948,1713855435497185640,2061,2058,2044,2036,2073,2038,1194
1949,1713855435507183497,2053,2031,1994,2056,2072,2057,1195
1950,1713855435517200901,2042,2010,1960,2045,2069,2051,1194
1951,1713855435527183891,2056,2078,2144,2086,2033,2045,1195
1952,1713855435537183592,2058,2069,2107,2041,2064,2049,1194
1953,1713855435547182411,2049,2064,2058,2065,2052,2048,1196
1954,1713855435557189475,2050,2041,2027,2035,2058,2053,1196
1955,1713855435567183155,2053,2062,2074,2088,2053,2045,1193
1956,1713855435577182836,2053,2037,2032,2034,2067,2050,1197
1957,1713855435587189930,2057,2050,2060,2072,2072,2077,1196
1958,1713855435597183188,2049,2037,2052,2081,2084,2056,1196
1959,1713855435607183771,2045,2047,2052,2071,2045,2040,1193
1960,1713855435617184835,2068,2073,2114,2036,2064,2068,1197
1961,1713855435627183684,2066,2059,2051,2062,2061,2047,1194
1962,1713855435637184557,2076,2101,2096,2037,2029,2080,1196
1963,1713855435647184278,2047,2034,2024,2058,2057,2047,1194
1964,1713855435657188487,2050,2034,2030,2046,2056,2053,1196
1965,1713855435667183429,2049,2041,2054,2064,2040,2040,1192
1966,1713855435677183460,2050,2044,2022,2043,2068,2050,1197
1967,1713855435687184023,2052,2049,2025,2072,2040,2052,1198
1968,1713855435697191928,2059,2065,2002,2045,2068,2084,1196
1969,1713855435707185749,2054,2069,2074,2068,2038,2053,1196
1970,1713855435717185770,2051,2040,2116,2040,2072,2061,1199
1971,1713855435727185892,2062,2064,2068,2068,2076,2054,1198
1972,1713855435737187166,2050,2039,2042,2016,1989,2040,1192
1973,1713855435747186576,2050,2040,2047,2075,2061,2059,1197
1974,1713855435757186707,2056,2052,2027,2053,2068,2088,1196
1975,1713855435767188311,2060,2049,1978,2074,2050,2068,1195
1976,1713855435777187151,2057,2058,2015,2034,2056,2046,1194
1977,1713855435787187733,2060,2077,2127,2065,2044,2064,1196
1978,1713855435797187875,2046,2034,2047,2043,2074,2082,1197
1979,1713855435807187526,2052,2046,2042,2096,2052,2053,1196
1980,1713855435817187667,2050,2032,2021,2035,2049,2046,1195
1981,1713855435827187879,2057,2053,2076,2053,2044,2049,1198
1982,1713855435837187971,2060,2054,2057,2053,2084,2058,1196
1983,1713855435847188924,2044,2032,1999,2069,2048,2057,1198
1984,1713855435857189906,2076,2121,2150,2042,2066,2060,1198
1985,1713855435867206509,2052,2036,2033,2083,2062,2049,1195
1986,1713855435877187946,2045,2042,2031,2053,2068,2057,1197
1987,1713855435887187897,2052,2045,2002,2068,2012,2040,1194
1988,1713855435897189301,2061,2053,2033,2052,2057,2050,1196
1989,1713855435907188862,2050,2045,2058,2060,2051,2069,1194
1990,1713855435917189544,2044,2036,2047,2037,2082,2056,1198
1991,1713855435927189746,2058,2067,2042,2066,2060,2064,1197
1992,1713855435937189537,2051,2044,2038,2037,2064,2048,1194
1993,1713855435947190791,2060,2052,2074,2068,2040,2047,1193
1994,1713855435957191703,2046,2038,2036,2028,2041,2050,1195
1995,1713855435967189551,2058,2069,2091,2063,2053,2050,1195
1996,1713855435977190334,2056,2084,2135,2040,2081,2056,1195
1997,1713855435987190886,2052,2056,2052,2082,2063,2048,1197
1998,1713855435997188854,2059,2061,2058,2024,2034,2045,1194
1999,1713855436007190799,2052,2049,2045,2088,2053,2055,1197
2000,1713855436017204095,2039,2025,2090,2047,2057,2061,1196
2001,1713855436027191072,2052,2066,2102,2072,2053,2049,1197
2002,1713855436037191093,2041,2034,2017,2032,2050,2052,1198
2003,1713855436047190984,2056,2056,2066,2064,2045,2043,1197
2004,1713855436057144037,2062,2068,2040,2037,2068,2053,1197
2005,1713855436067192880,2060,2097,2137,2059,2027,2042,1195
2006,1713855436077191780,2044,2029,2018,2038,2044,2047,1193
2007,1713855436087191531,2053,2050,2047,2042,2048,2049,1198
2008,1713855436097191802,2051,2038,2046,2022,2037,2080,1196
2009,1713855436107191353,2065,2077,2066,2060,2050,2051,1195
2010,1713855436117191404,2057,2046,2034,2042,2052,2055,1197
2011,1713855436127192407,2066,2079,2105,2076,2038,2046,1192
2012,1713855436137175066,2052,2043,2056,2032,2028,2043,1191
2013,1713855436147192510,2050,2049,2003,2074,2052,2050,1196
2014,1713855436157176401,2052,2045,2040,2044,2064,2047,1194
2015,1713855436167190539,2053,2054,2059,2069,2044,2052,1196
2016,1713855436177175933,2064,2088,2085,2057,2079,2081,1196
2017,1713855436187193106,2060,2064,2076,2074,2059,2060,1195
2018,1713855436197175655,2046,2034,2035,2036,2057,2050,1196
2019,1713855436207194391,2060,2068,2138,2058,2036,2032,1195
2020,1713855436217193381,2053,2047,2098,2046,2056,2055,1196
2021,1713855436227200686,2068,2053,2053,2066,2048,2053,1197
2022,1713855436237194045,2044,2041,2045,2032,2069,2042,1193
2023,1713855436247200067,2060,2079,2084,2056,2050,2046,1195
2024,1713855436257191863,2049,2044,2049,2036,2055,2061,1195
2025,1713855436267176716,2059,2058,2057,2067,2040,2056,1197
2026,1713855436277193559,2049,2040,2106,2048,2072,2071,1197
2027,1713855436287195273,2070,2104,2180,2078,2058,2056,1195
2028,1713855436297195084,2040,2028,2020,2043,2074,2065,1194
2029,1713855436307195146,2052,2040,1986,2072,2089,2085,1198
2030,1713855436317192953,2045,2061,2047,2051,2090,2066,1195
2031,1713855436327193716,2041,2039,2047,2059,2037,2044,1194
2032,1713855436337195710,2052,2056,2045,2056,2074,2074,1194
2033,1713855436347196513,2056,2057,2050,2065,2056,2036,1191
2034,1713855436357196274,2055,2057,2046,2040,2060,2045,1193
2035,1713855436367197919,2059,2074,2153,2077,2073,2077,1196
2036,1713855436377177021,2051,2044,2042,2041,2047,2047,1192
2037,1713855436387196739,2060,2067,2057,2084,2061,2041,1192
2038,1713855436397217029,2042,2046,2080,2064,2089,2062,1194
2039,1713855436407210688,2047,2041,2036,2070,2061,2052,1195
2040,1713855436417178529,2061,2058,2065,2036,2049,2053,1197
2041,1713855436427177728,2058,2064,2062,2084,2052,2041,1192
2042,1713855436437179754,2050,2041,2031,2044,2109,2121,1196
2043,1713855436447178954,2053,2057,2076,2064,2056,2041,1194
2044,1713855436457179445,2050,2053,2195,2041,2053,2052,1196
2045,1713855436467198252,2056,2041,2017,2072,2056,2056,1197
2046,1713855436477175952,2053,2046,2116,2044,2061,2052,1198
2047,1713855436487181413,2057,2051,2040,2052,2030,2052,1195
2048,1713855436497198737,2046,2044,2020,2010,2006,2029,1193
2049,1713855436507199480,2052,2047,2041,2068,2039,2038,1192
2050,1713855436517200623,2044,2045,2040,2013,2064,2060,1195
2051,1713855436527196557,2061,2050,2050,2052,2070,2056,1197
2052,1713855436537179696,2050,2036,2009,2066,2089,2072,1195
2053,1713855436547181261,2062,2058,2053,2062,2045,2052,1195
2054,1713855436557202853,2054,2048,2023,2043,2067,2058,1195
2055,1713855436567177306,2054,2057,2056,2088,2054,2047,1192
2056,1713855436577176827,2042,2032,2024,2027,2047,2050,1197
2057,1713855436587181978,2070,2072,2082,2068,2065,2028,1195
2058,1713855436597182480,2053,2047,2046,2036,2040,2025,1193
2059,1713855436607204573,2053,2057,2054,2070,2057,2036,1194
2060,1713855436617181060,2052,2043,2061,2052,2057,2059,1198
2061,1713855436627184007,2064,2068,2083,2068,2061,2056,1194
2062,1713855436637180391,2051,2041,2032,2057,2069,2053,1196
2063,1713855436647183438,2054,2057,2049,2068,2047,2049,1198
2064,1713855436657200902,2056,2049,2037,2045,2064,2068,1199
2065,1713855436667182760,2064,2050,2021,2078,2072,2088,1198
2066,1713855436677182500,2050,2034,2028,2058,2053,2040,1193
2067,1713855436687181400,2060,2056,2045,2052,2072,2064,1198
2068,1713855436697179908,2051,2043,2004,2045,2066,2060,1196
2069,1713855436707178316,2061,2073,2109,2072,2058,2064,1198
2070,1713855436717184479,2060,2065,2080,2050,2061,2052,1196
2071,1713855436727184791,2053,2054,2040,2053,2038,2037,1193
2072,1713855436737193689,2056,2041,2030,2044,2068,2056,1195
2073,1713855436747202908,2073,2104,2149,2118,2041,2062,1196
2074,1713855436757183242,2061,2053,2056,2036,2025,2030,1195
2075,1713855436767182292,2056,2064,2069,2057,2047,2046,1192
2076,1713855436777180961,2056,2036,2012,2044,2046,2049,1196
2077,1713855436787186432,2052,2044,2029,2067,2070,2056,1196
2078,1713855436797185421,2048,2042,2030,2038,2060,2053,1195
2079,1713855436807181084,2056,2060,2058,2058,2024,2044,1194
2080,1713855436817178491,2052,2032,2013,2041,2047,2024,1192
2081,1713855436827182139,2060,2081,2093,2074,2063,2052,1198
2082,1713855436837180838,2069,2048,2032,2039,2036,2052,1196
2083,1713855436847183965,2056,2053,2045,2065,2046,2043,1194
2084,1713855436857181642,2053,2029,2066,2060,2046,2045,1198
2085,1713855436867191993,2047,2037,2015,2040,2028,2045,1195
2086,1713855436877206020,2048,2047,2050,2032,2055,2071,1196
2087,1713855436887183820,2068,2094,2189,2064,2056,2072,1196
2088,1713855436897179263,2048,2040,2032,2044,2077,2084,1196
2089,1713855436907179595,2056,2062,2076,2047,2051,2056,1196
2090,1713855436917207678,2056,2064,2084,2052,2077,2079,1197
2091,1713855436927204093,2060,2065,2037,2078,2052,2049,1196
2092,1713855436937181893,2056,2037,1961,2038,2069,2057,1193
2093,1713855436947180572,2046,2048,2058,2050,2030,2040,1194
2094,1713855436957181765,2055,2057,2045,2043,2054,2032,1194
2095,1713855436967182137,2053,2054,2045,2049,2053,2048,1196
2096,1713855436977190955,2047,2032,1986,2042,2049,2049,1195
2097,1713855436987187179,2056,2056,2056,2066,2054,2061,1196
2098,1713855436997183774,2052,2060,2080,2053,2078,2056,1195
2099,1713855437007185128,2056,2056,2035,2075,2057,2060,1195
2100,1713855437017180361,2054,2072,2081,2040,2052,2064,1197
2101,1713855437027160144,2062,2069,2047,2068,2033,2044,1192
2102,1713855437037182427,2056,2046,2052,2040,2056,2050,1198
2103,1713855437047187588,2058,2054,2042,2057,2049,2045,1196
2104,1713855437057181117,2052,2036,2036,2066,2064,2047,1196
2105,1713855437067181489,2058,2060,2056,2074,2077,2065,1197
2106,1713855437077213370,2053,2053,2051,2050,2099,2085,1195
2107,1713855437087183665,2045,2064,2135,2060,2052,2050,1199
2108,1713855437097180600,2047,2020,2003,2043,2056,2052,1197
2109,1713855437107180401,2057,2047,2048,2064,2048,2054,1197
2110,1713855437117181084,2053,2047,2033,2026,2042,2079,1196
2111,1713855437127183470,2056,2068,2072,2066,2033,2036,1195
2112,1713855437137179463,2054,2052,2065,2038,2066,2061,1195
2113,1713855437147182080,2057,2063,2038,2060,2036,2053,1194
2114,1713855437157179066,2055,2057,2086,2045,2074,2077,1194
2115,1713855437167180990,2058,2056,2050,2062,2045,2043,1193
2116,1713855437177196571,2054,2069,2054,2045,2042,2053,1195
2117,1713855437187184379,2053,2064,2089,2073,2060,2059,1196
2118,1713855437197179762,2056,2042,2027,2042,2036,2042,1196
2119,1713855437207181346,2053,2065,2104,2052,2040,2046,1196
2120,1713855437217179383,2053,2040,2042,2037,2063,2054,1196
2121,1713855437227186808,2065,2053,2064,2072,2050,2048,1194
2122,1713855437237182461,2053,2061,2083,2049,2057,2050,1193
2123,1713855437247183385,2053,2041,2092,2071,2054,2061,1195
2124,1713855437257183096,2056,2049,2044,2034,2060,2052,1196
2125,1713855437267182806,2061,2062,2080,2085,2064,2058,1196
2126,1713855437277199448,2064,2073,2056,2048,2074,2091,1196
2127,1713855437287183730,2054,2067,2118,2054,2066,2071,1199
2128,1713855437297181458,2056,2044,2037,2041,2063,2052,1197
2129,1713855437307184635,2048,2044,2037,2059,2053,2032,1194
2130,1713855437317185217,2088,2168,2218,2048,2068,2060,1195
2131,1713855437327184497,2055,2049,2043,2056,2037,2049,1197
2132,1713855437337184397,2054,2047,2028,2038,2052,2048,1195
2133,1713855437347185010,2061,2044,2041,2031,2022,2046,1194
2134,1713855437357180233,2052,2036,2050,2034,2036,2028,1193
2135,1713855437367182768,2045,2021,1997,2041,2017,2043,1193
2136,1713855437377196125,2053,2032,2053,2033,2061,2052,1195
2137,1713855437387183673,2060,2064,2072,2064,2069,2050,1195
2138,1713855437397182793,2052,2053,2021,2048,2078,2079,1196
2139,1713855437407182794,2063,2079,2064,2066,2050,2051,1196
2140,1713855437417182865,2051,2056,2042,2054,2051,2068,1196
2141,1713855437427187675,2055,2057,2072,2064,2066,2050,1196
2142,1713855437437180764,2050,2040,2045,2042,2064,2056,1197
2143,1713855437447181476,2074,2094,2104,2075,2056,2057,1198
2144,1713855437457179463,2051,2041,2044,2063,2068,2052,1196
2145,1713855437467161932,2054,2049,2025,2048,2046,2046,1194
2146,1713855437477199493,2078,2115,2168,2094,2079,2085,1197
2147,1713855437487185859,2045,2030,2022,2096,2066,2056,1196
2148,1713855437497177675,2054,2049,2050,2049,2065,2058,1195
2149,1713855437507182976,2060,2062,2106,2084,2041,2029,1192
2150,1713855437517182106,2068,2065,2108,2058,2070,2081,1194
2151,1713855437527190553,2060,2035,2028,2061,2041,2044,1197
2152,1713855437537177520,2054,2049,2052,2033,2054,2067,1194
2153,1713855437547183442,2060,2057,2057,2069,2060,2054,1197
2154,1713855437557184425,2054,2048,2054,2039,2056,2053,1194
2155,1713855437567185759,2056,2055,2066,2088,2038,2053,1194
2156,1713855437577182935,2052,2056,2100,2038,2044,2044,1193
2157,1713855437587191181,2056,2053,2053,2078,2066,2057,1196
2158,1713855437597183458,2059,2060,2015,2034,2036,2060,1195
2159,1713855437607185594,2050,2038,2024,2090,2058,2045,1194
2160,1713855437617179924,2044,2064,2035,2037,2061,2056,1196
2161,1713855437627187540,2056,2056,2070,2067,2043,2045,1193
2162,1713855437637178494,2056,2053,2066,2056,2056,2078,1198
2163,1713855437647181401,2059,2056,2057,2052,2042,2050,1196
2164,1713855437657181592,2063,2066,2090,2053,2064,2052,1197
2165,1713855437667186533,2050,2041,2020,2060,2042,2038,1193
2166,1713855437677180453,2057,2047,2017,2043,2050,2050,1196
2167,1713855437687179493,2056,2038,1996,2079,2060,2058,1196
2168,1713855437697188140,2062,2068,2050,2061,2096,2088,1195
2169,1713855437707182721,2057,2055,2044,2051,2047,2048,1198
2170,1713855437717183884,2051,2062,2093,2068,2074,2058,1196
2171,1713855437727192331,2058,2058,2042,2064,2043,2047,1193
2172,1713855437737186241,2055,2053,2012,2038,2053,2061,1194
2173,1713855437747191272,2053,2052,2015,2072,2056,2049,1197
2174,1713855437757184711,2050,2050,2096,2040,2071,2064,1194
2175,1713855437767181887,2054,2072,2108,2064,2072,2053,1197
2176,1713855437777191286,2053,2035,2029,2052,2072,2056,1196
2177,1713855437787184765,2072,2076,2072,2060,2048,2042,1192
2178,1713855437797181900,2048,2042,2034,2043,2045,2052,1196
2179,1713855437807185809,2069,2099,2144,2058,2048,2047,1193
2180,1713855437817182154,2045,2039,2037,2041,2043,2050,1196
2181,1713855437827190540,2064,2085,2062,2076,2054,2057,1196
2182,1713855437837181505,2052,2033,2029,2040,2058,2067,1196
2183,1713855437847181015,2046,2034,2040,2065,2061,2060,1198
2184,1713855437857187879,2065,2073,2144,2061,2052,2048,1197
2185,1713855437867196216,2056,2047,2002,2072,2056,2052,1195
2186,1713855437877181961,2069,2084,2085,2037,2038,2034,1196
2187,1713855437887184717,2065,2060,2094,2073,2042,2064,1197
2188,1713855437897180430,2047,2032,2041,2054,2065,2047,1194
2189,1713855437907185180,2057,2053,2048,2066,2078,2061,1196
2190,1713855437917179742,2053,2041,2049,2048,2058,2052,1195
2191,1713855437927189491,2064,2100,2186,2072,2058,2059,1195
2192,1713855437937182689,2042,2036,2036,2028,2033,2050,1193
2193,1713855437947182711,2056,2059,2069,2058,2050,2049,1197
2194,1713855437957180177,2060,2056,2060,2047,2063,2074,1197
2195,1713855437967183294,2048,2052,2066,2090,2059,2047,1193
2196,1713855437977180160,2068,2077,2093,2047,2046,2068,1197
2197,1713855437987170833,2054,2052,2047,2056,2041,2061,1198
2198,1713855437997183278,2058,2075,2113,2075,2060,2064,1196
2199,1713855438007186305,2056,2064,2080,2064,2068,2053,1197
2200,1713855438017183932,2051,2051,2052,2044,2041,2042,1193
2201,1713855438027187670,2064,2061,2069,2068,2064,2058,1197
2202,1713855438037180367,2054,2064,2072,2056,2068,2056,1197
2203,1713855438047183695,2051,2048,2032,2064,2056,2049,1199
2204,1713855438057181411,2047,2034,2018,2005,2045,2045,1195
2205,1713855438067180421,2069,2061,2013,2061,2057,2057,1196
2206,1713855438077195341,2057,2056,2020,2064,2072,2058,1195
2207,1713855438087180564,2051,2054,2060,2060,2050,2053,1197
2208,1713855438097182999,2064,2073,2081,2050,2049,2058,1195
2209,1713855438107185465,2050,2051,2056,2045,2040,2043,1191
2210,1713855438117186178,2056,2044,2046,2040,2068,2076,1196
2211,1713855438127227857,2066,2073,2062,2064,2028,2040,1193
2212,1713855438137183526,2049,2048,2056,2047,2050,2047,1192
