seq,time,data[0],data[1],data[2],data[3],data[4],data[5],data[6]
201,1716363444946605061,2056,2056,2056,2054,2037,2036,1192
202,1716363444956607222,2063,2042,2026,2059,2082,2068,1195
203,1716363444966613358,2054,2057,2064,2053,2044,2042,1194
204,1716363444976611179,2054,2052,2054,2059,2067,2044,1194
205,1716363444986609201,2050,2051,2044,2052,2024,2029,1194
206,1716363444996609317,2058,2050,2037,2058,2069,2056,1196
207,1716363445006608491,2051,2052,2050,2054,2038,2040,1194
208,1716363445016607314,2061,2057,2059,2068,2076,2065,1197
209,1716363445026605747,2045,2046,2042,2043,2038,2040,1193
210,1716363445036604891,2056,2054,2053,2047,2049,2062,1197
211,1716363445046604225,2054,2056,2051,2052,2024,2045,1193
212,1716363445056606986,2055,2057,2058,2056,2067,2061,1197
213,1716363445066605218,2047,2056,2059,2048,2037,2044,1192
214,1716363445076607608,2056,2052,2049,2060,2072,2064,1195
215,1716363445086605359,2050,2049,2033,2053,2047,2041,1196
216,1716363445096608010,2055,2048,2043,2057,2064,2060,1197
217,1716363445106606302,2057,2045,2031,2044,2033,2039,1193
218,1716363445116608081,2056,2044,2035,2057,2074,2064,1196
219,1716363445126604630,2057,2053,2049,2037,2036,2039,1192
220,1716363445136604105,2057,2052,2065,2052,2033,2058,1197
221,1716363445146606725,2054,2054,2056,2050,2035,2052,1197
222,1716363445156601110,2062,2056,2064,2045,2061,2068,1196
223,1716363445166604422,2053,2060,2047,2050,2033,2043,1194
224,1716363445176612533,2056,2055,2062,2057,2064,2056,1197
225,1716363445186603742,2047,2054,2067,2052,2032,2041,1196
226,1716363445196612404,2062,2056,2069,2061,2077,2068,1197
227,1716363445206608061,2056,2057,2057,2046,2044,2037,1193
228,1716363445216604901,2056,2056,2072,2060,2074,2070,1196
229,1716363445226607351,2051,2051,2027,2058,2037,2056,1197
230,1716363445236604882,2057,2064,2108,2051,2066,2065,1196
231,1716363445246609937,2056,2050,2054,2040,2039,2056,1197
232,1716363445256609212,2058,2051,2044,2055,2065,2067,1197
233,1716363445266613665,2056,2057,2056,2062,2046,2042,1192
234,1716363445276608401,2051,2048,2073,2050,2050,2049,1196
235,1716363445286608997,2057,2049,2048,2047,2040,2045,1192
236,1716363445296607000,2052,2053,2084,2073,2080,2077,1195
237,1716363445306607225,2053,2052,2044,2056,2037,2054,1197
238,1716363445316605759,2055,2050,2054,2056,2062,2060,1196
239,1716363445326605683,2052,2055,2046,2049,2036,2041,1193
240,1716363445336607323,2058,2040,2010,2054,2061,2040,1193
241,1716363445346606346,2060,2063,2074,2063,2041,2048,1196
242,1716363445356606953,2058,2047,2016,2057,2076,2096,1199
243,1716363445366610665,2056,2056,2040,2052,2046,2047,1195
244,1716363445376608607,2053,2047,2052,2062,2064,2060,1199
245,1716363445386607160,2059,2058,2054,2052,2033,2051,1197
246,1716363445396607345,2057,2056,2060,2064,2085,2059,1196
247,1716363445406608483,2054,2057,2052,2053,2039,2045,1193
248,1716363445416604190,2053,2050,2056,2056,2057,2046,1193
249,1716363445426605158,2056,2052,2043,2047,2036,2053,1198
250,1716363445436604222,2060,2050,2056,2058,2066,2057,1197
251,1716363445446608846,2056,2054,2051,2051,2043,2052,1197
252,1716363445456609152,2056,2052,2054,2058,2062,2064,1196
253,1716363445466607545,2050,2047,2041,2045,2040,2040,1190
254,1716363445476605777,2060,2069,2110,2068,2069,2061,1195
255,1716363445486605482,2050,2045,2032,2040,2040,2069,1195
256,1716363445496607752,2053,2056,2028,2057,2068,2078,1196
257,1716363445506610854,2053,2047,2038,2049,2025,2042,1192
258,1716363445516606010,2064,2067,2108,2059,2067,2052,1197
259,1716363445526606046,2048,2052,2037,2061,2056,2053,1193
260,1716363445536611491,2062,2054,2039,2058,2065,2062,1196
261,1716363445546606858,2052,2044,2026,2041,2021,2040,1193
262,1716363445556607605,2058,2056,2057,2057,2066,2066,1195
263,1716363445566606810,2052,2048,2047,2049,2035,2045,1194
264,1716363445576603889,2062,2054,2045,2066,2070,2061,1197
265,1716363445586603905,2048,2052,2036,2061,2043,2030,1193
266,1716363445596604571,2056,2052,2042,2059,2064,2057,1197
267,1716363445606604808,2054,2053,2053,2053,2030,2041,1193
268,1716363445616604573,2054,2062,2113,2067,2069,2061,1195
269,1716363445626605170,2046,2061,2044,2056,2037,2044,1193
270,1716363445636605025,2058,2052,2041,2065,2069,2064,1196
271,1716363445646605742,2046,2038,2023,2042,2031,2044,1195
272,1716363445656605697,2063,2064,2088,2047,2066,2053,1197
273,1716363445666606845,2056,2062,2080,2054,2027,2046,1192
274,1716363445676606630,2058,2059,2075,2064,2062,2064,1195
275,1716363445686609020,2050,2042,2014,2040,2035,2038,1195
276,1716363445696607523,2060,2051,2035,2067,2070,2076,1196
277,1716363445706608140,2056,2073,2065,2048,2033,2056,1197
278,1716363445716607544,2058,2060,2081,2068,2064,2064,1197
279,1716363445726608872,2049,2053,2047,2035,2035,2040,1194
280,1716363445736608327,2052,2044,2032,2051,2061,2038,1193
281,1716363445746609274,2053,2049,2061,2060,2067,2054,1196
282,1716363445756610242,2054,2056,2062,2058,2066,2050,1194
283,1716363445766609044,2050,2047,2041,2046,2036,2034,1194
284,1716363445776608920,2060,2072,2104,2080,2117,2078,1198
285,1716363445786609957,2049,2052,2036,2056,2061,2052,1196
286,1716363445796610675,2054,2049,2050,2053,2055,2049,1196
287,1716363445806610950,2045,2050,2047,2040,2026,2046,1195
288,1716363445816610876,2056,2048,2049,2056,2064,2033,1195
289,1716363445826614007,2051,2047,2047,2054,2044,2054,1194
290,1716363445836611448,2058,2054,2056,2062,2063,2060,1196
291,1716363445846611904,2050,2047,2043,2050,2041,2030,1193
292,1716363445856612862,2056,2049,2040,2066,2072,2047,1193
293,1716363445866613889,2048,2036,2013,2045,2028,2027,1194
294,1716363445876612683,2062,2066,2108,2075,2070,2064,1196
295,1716363445886613460,2059,2057,2064,2052,2049,2064,1196
296,1716363445896613366,2057,2047,2041,2060,2064,2059,1196
297,1716363445906615134,2052,2049,2046,2047,2039,2044,1194
298,1716363445916614369,2052,2039,2022,2054,2072,2056,1195
299,1716363445926615295,2053,2048,2040,2052,2033,2043,1195
300,1716363445936614270,2062,2060,2072,2064,2062,2058,1195
301,1716363445946623592,2053,2043,2026,2038,2018,2056,1196
302,1716363445956615303,2062,2060,2051,2059,2066,2057,1198
303,1716363445966603095,2056,2064,2096,2060,2045,2036,1195
304,1716363445976602419,2071,2089,2209,2074,2064,2062,1196
305,1716363445986616581,2050,2072,2108,2046,2038,2035,1192
306,1716363445996603142,2057,2061,2116,2052,2064,2050,1196
307,1716363446006604319,2045,2053,2036,2062,2033,2049,1198
308,1716363446016604025,2057,2060,2061,2078,2112,2064,1194
309,1716363446026602006,2047,2052,2055,2051,2031,2036,1193
310,1716363446036600509,2059,2063,2098,2062,2068,2052,1196
311,1716363446046605484,2056,2056,2032,2057,2033,2049,1195
312,1716363446056605490,2065,2063,2045,2060,2074,2076,1195
313,1716363446066603953,2075,2072,2047,2028,2032,2067,1196
314,1716363446076603387,2062,2047,2072,2056,2074,2081,1196
315,1716363446086606239,2047,2053,2064,2059,2042,2037,1193
316,1716363446096602537,2058,2052,2050,2051,2067,2055,1197
317,1716363446106604547,2054,2043,2021,2040,2027,2036,1194
318,1716363446116603229,2062,2050,2044,2067,2078,2064,1195
319,1716363446126601592,2053,2054,2058,2056,2046,2026,1194
320,1716363446136602530,2056,2040,2028,2057,2056,2052,1196
321,1716363446146603407,2058,2061,2072,2060,2040,2080,1195
322,1716363446156605517,2056,2051,2041,2041,2056,2035,1194
323,1716363446166599901,2064,2057,2042,2061,2036,2059,1195
324,1716363446176603915,2047,2052,2055,2046,2066,2078,1199
325,1716363446186604842,2057,2052,2052,2053,2032,2028,1195
326,1716363446196603045,2062,2056,2039,2064,2069,2063,1198
327,1716363446206602951,2058,2061,2106,2055,2033,2050,1196
328,1716363446216605811,2056,2049,2033,2057,2065,2051,1195
329,1716363446226570510,2065,2085,2100,2072,2044,2088,1195
330,1716363446236607155,2056,2040,2012,2056,2061,2064,1196
331,1716363446246604085,2045,2056,2093,2053,2025,2028,1194
332,1716363446256601506,2047,2044,2022,2041,2059,2069,1196
333,1716363446266602243,2057,2046,2042,2051,2046,2096,1196
334,1716363446276602059,2048,2032,2009,2036,2059,2052,1195
335,1716363446286602635,2058,2055,2047,2048,2040,2036,1193
336,1716363446296600407,2057,2050,2037,2058,2062,2079,1195
337,1716363446306602817,2042,2041,2007,2036,2020,2037,1196
338,1716363446316603714,2062,2069,2094,2073,2065,2057,1195
339,1716363446326603840,2047,2048,2051,2060,2038,2069,1197
340,1716363446336601982,2066,2069,2079,2066,2058,2073,1198
341,1716363446346602419,2063,2056,2025,2058,2047,2064,1196
342,1716363446356600150,2072,2075,2109,2080,2052,2064,1198
343,1716363446366602871,2046,2031,2016,2029,2042,2047,1197
344,1716363446376605642,2059,2059,2060,2057,2057,2021,1196
345,1716363446386603543,2066,2064,2055,2056,2036,2049,1197
346,1716363446396601045,2054,2049,2043,2061,2061,2060,1197
347,1716363446406604606,2050,2049,2057,2049,2034,2043,1193
348,1716363446416578102,2060,2052,2037,2059,2069,2062,1195
349,1716363446426605059,2062,2098,2244,2072,2044,2043,1194
350,1716363446436602810,2064,2060,2069,2072,2072,2093,1198
351,1716363446446600983,2063,2060,2037,2052,2047,2084,1196
352,1716363446456599205,2050,2042,2021,2053,2081,2053,1197
353,1716363446466601716,2047,2047,2036,2040,2036,2046,1192
354,1716363446476601671,2059,2057,2046,2060,2068,2064,1195
355,1716363446486599583,2057,2059,2078,2055,2032,2038,1194
356,1716363446496607594,2052,2044,2025,2066,2073,2072,1196
357,1716363446506600385,2056,2048,2004,2049,2034,2056,1197
358,1716363446516603337,2053,2040,2021,2056,2068,2056,1199
359,1716363446526603693,2056,2050,2040,2052,2022,2030,1192
360,1716363446536600954,2064,2063,2088,2059,2066,2061,1193
361,1716363446546604185,2049,2055,2085,2041,2032,2036,1193
362,1716363446556601646,2056,2040,2016,2054,2072,2062,1194
363,1716363446566609386,2052,2060,2021,2060,2049,2057,1195
364,1716363446576602639,2056,2047,2049,2057,2068,2059,1199
365,1716363446586603036,2058,2069,2078,2060,2049,2054,1198
366,1716363446596603322,2065,2066,2025,2088,2088,2064,1197
367,1716363446606601534,2056,2052,2012,2073,2048,2036,1195
368,1716363446616603815,2057,2056,2053,2057,2073,2056,1197
369,1716363446626601876,2060,2057,2028,2062,2036,2047,1194
370,1716363446636604527,2058,2059,2080,2073,2098,2062,1197
371,1716363446646606105,2053,2045,2037,2045,2042,2052,1197
372,1716363446656605070,2061,2057,2009,2056,2065,2056,1197
373,1716363446666634060,2049,2038,2024,2042,2032,2013,1193
374,1716363446676612505,2070,2076,2125,2064,2057,2066,1197
375,1716363446686603984,2047,2042,2021,2052,2024,2038,1192
376,1716363446696604381,2052,2042,2037,2040,2063,2054,1196
377,1716363446706613173,2053,2056,2019,2052,2052,2041,1195
378,1716363446716607949,2059,2065,2115,2057,2070,2059,1196
379,1716363446726609287,2049,2040,2015,2040,2040,2049,1196
380,1716363446736600256,2052,2049,2037,2066,2077,2059,1197
381,1716363446746600842,2052,2047,2036,2044,2025,2036,1193
382,1716363446756598795,2052,2046,2033,2056,2063,2052,1198
383,1716363446766601324,2046,2050,2052,2046,2035,2052,1197
384,1716363446776604236,2062,2088,2171,2073,2066,2062,1198
385,1716363446786605274,2060,2056,2064,2058,2036,2059,1196
386,1716363446796608756,2055,2053,2048,2069,2064,2058,1197
387,1716363446806601538,2052,2056,2053,2042,2020,2036,1195
388,1716363446816600511,2064,2100,2186,2084,2073,2072,1195
389,1716363446826605537,2053,2052,2043,2052,2037,2050,1195
390,1716363446836599380,2052,2043,2032,2058,2072,2056,1197
391,1716363446846603965,2044,2044,2025,2054,2032,2042,1193
392,1716363446856600894,2061,2072,2152,2079,2080,2068,1196
393,1716363446866627852,2048,2046,2036,2060,2047,2037,1190
394,1716363446876599634,2076,2056,2044,2073,2103,2096,1194
395,1716363446886603687,2047,2045,2029,2049,2035,2047,1193
396,1716363446896602271,2055,2051,2056,2062,2097,2066,1195
397,1716363446906598860,2056,2054,2054,2049,2024,2031,1193
398,1716363446916603534,2070,2098,2128,2078,2065,2070,1194
399,1716363446926602407,2057,2046,2025,2044,2040,2032,1194
400,1716363446936603074,2053,2063,2116,2064,2072,2068,1194
401,1716363446946604824,2052,2049,2015,2042,2036,2040,1194
402,1716363446956597635,2058,2047,2022,2062,2057,2054,1197
403,1716363446966618000,2054,2058,2074,2062,2035,2057,1197
404,1716363446976608066,2051,2047,2076,2056,2052,2056,1198
405,1716363446986601299,2062,2090,2237,2065,2047,2041,1193
406,1716363446996601436,2054,2050,2057,2057,2060,2029,1195
407,1716363447006604777,2058,2056,2081,2057,2044,2055,1197
408,1716363447016599383,2056,2036,2015,2055,2064,2066,1195
409,1716363447026599639,2054,2056,2050,2056,2042,2049,1195
410,1716363447036600627,2058,2058,2058,2064,2065,2065,1195
411,1716363447046604831,2063,2060,2084,2052,2036,2060,1195
412,1716363447056600599,2056,2054,2093,2065,2063,2061,1195
413,1716363447066629709,2045,2045,2020,2052,2038,2045,1190
414,1716363447076610439,2061,2057,2069,2067,2072,2062,1196
415,1716363447086606698,2066,2064,2056,2068,2047,2044,1192
416,1716363447096606442,2061,2042,2025,2047,2060,2056,1196
417,1716363447106607530,2051,2051,2056,2047,2035,2045,1192
418,1716363447116600443,2054,2049,2058,2050,2061,2064,1198
419,1716363447126600319,2051,2064,2120,2056,2025,2020,1194
420,1716363447136602608,2053,2040,2046,2064,2122,2067,1197
421,1716363447146604719,2052,2052,2049,2056,2020,2038,1194
422,1716363447156608170,2074,2064,2040,2054,2043,2082,1195
423,1716363447166627112,2057,2058,2057,2041,2031,2039,1193
424,1716363447176605016,2064,2081,2056,2090,2081,2069,1197
425,1716363447186602648,2048,2037,2030,2041,2037,2039,1193
426,1716363447196600730,2054,2052,2094,2056,2067,2053,1196
427,1716363447206606126,2052,2053,2047,2048,2037,2044,1193
428,1716363447216601352,2076,2102,2185,2073,2061,2034,1194
429,1716363447226600076,2069,2073,2096,2064,2046,2077,1198
430,1716363447236598158,2060,2050,2056,2062,2073,2056,1194
431,1716363447246605437,2054,2058,2068,2044,2040,2040,1195
432,1716363447256603048,2058,2052,2051,2081,2074,2070,1196
433,1716363447266630817,2053,2053,2046,2049,2005,2045,1192
434,1716363447276599003,2061,2081,2128,2067,2068,2061,1197
435,1716363447286608957,2053,2049,2030,2049,2025,2042,1194
436,1716363447296604254,2055,2052,2045,2060,2077,2080,1195
437,1716363447306606875,2052,2043,2029,2047,2027,2036,1194
438,1716363447316607181,2060,2054,2057,2053,2088,2059,1196
439,1716363447326566570,2041,2054,2055,2053,2030,2036,1194
440,1716363447336595441,2052,2047,2024,2069,2084,2062,1197
441,1716363447346605225,2057,2060,2048,2054,2038,2035,1194
442,1716363447356604990,2062,2066,2105,2059,2063,2043,1195
443,1716363447366637708,2061,2083,2168,2076,2029,2049,1197
444,1716363447376603969,2050,2049,2043,2052,2064,2056,1198
445,1716363447386605699,2048,2056,2056,2049,2019,2037,1193
446,1716363447396601808,2061,2050,2020,2047,2063,2067,1196
447,1716363447406603987,2056,2053,2007,2046,2043,2031,1195
448,1716363447416604614,2059,2057,2084,2058,2092,2074,1195
449,1716363447426603328,2050,2041,2031,2040,2021,2025,1194
450,1716363447436609054,2061,2056,2052,2062,2074,2050,1194
451,1716363447446603048,2056,2053,2026,2048,2021,2052,1194
452,1716363447456603776,2057,2053,2072,2062,2066,2064,1196
453,1716363447466617758,2050,2042,2008,2038,2034,2072,1193
454,1716363447476596173,2054,2049,2036,2056,2072,2057,1195
455,1716363447486602170,2054,2047,2041,2045,2036,2048,1195
456,1716363447496605101,2057,2052,2025,2065,2082,2068,1198
457,1716363447506604215,2041,2043,2010,2048,2035,2060,1195
458,1716363447516571319,2067,2092,2204,2061,2059,2056,1195
459,1716363447526612753,2051,2052,2046,2054,2043,2036,1193
460,1716363447536603221,2058,2049,2046,2056,2060,2076,1197
461,1716363447546620730,2054,2051,2049,2044,2010,2037,1193
462,1716363447556602852,2067,2079,2130,2076,2070,2077,1197
463,1716363447566633906,2045,2052,2046,2057,2031,2044,1193
464,1716363447576603414,2056,2047,2032,2053,2064,2058,1197
465,1716363447586610794,2062,2092,2180,2064,2040,2069,1196
466,1716363447596603666,2058,2058,2060,2068,2072,2064,1198
467,1716363447606607640,2053,2052,2035,2044,2033,2042,1193
468,1716363447616600743,2056,2049,2061,2060,2083,2060,1196
469,1716363447626601008,2051,2056,2044,2046,2039,2049,1196
470,1716363447636601045,2058,2052,2010,2056,2069,2065,1196
471,1716363447646601351,2048,2036,2001,2041,2039,2037,1194
472,1716363447656596948,2056,2042,2020,2062,2077,2091,1196
473,1716363447666608887,2053,2056,2041,2060,2040,2043,1192
474,1716363447676605076,2052,2043,2032,2056,2075,2064,1197
475,1716363447686632373,2056,2059,2051,2053,2036,2036,1193
476,1716363447696609054,2052,2045,2029,2056,2056,2052,1195
477,1716363447706607558,2056,2056,2074,2053,2002,2024,1196
478,1716363447716603084,2057,2051,2047,2052,2056,2043,1194
479,1716363447726612789,2057,2058,2028,2053,2050,2036,1193
480,1716363447736620930,2053,2049,2033,2070,2064,2031,1193
481,1716363447746606879,2056,2058,2028,2061,2043,2037,1193
482,1716363447756601354,2056,2050,2040,2065,2072,2065,1196
483,1716363447766606681,2054,2059,2052,2045,2034,2040,1193
484,1716363447776604672,2056,2045,2028,2047,2074,2056,1197
485,1716363447786603045,2056,2058,2084,2058,2050,2051,1195
486,1716363447796603332,2053,2042,1988,2057,2069,2059,1197
487,1716363447806605551,2047,2040,2021,2039,2002,2042,1195
488,1716363447816613261,2064,2074,2121,2056,2056,2064,1198
489,1716363447826604982,2056,2058,2067,2038,2031,2037,1194
490,1716363447836614286,2049,2034,2009,2044,2061,2052,1196
491,1716363447846602158,2053,2053,1988,2045,2029,2042,1192
492,1716363447856602575,2051,2047,2045,2053,2065,2053,1196
493,1716363447866603502,2052,2041,2036,2048,2043,2045,1191
494,1716363447876604850,2060,2043,2033,2060,2065,2057,1194
495,1716363447886618763,2050,2049,2045,2046,2032,2043,1193
496,1716363447896603991,2056,2050,2063,2052,2046,2047,1194
497,1716363447906605709,2056,2050,2024,2036,2028,2018,1194
498,1716363447916604563,2058,2056,2045,2056,2056,2057,1197
499,1716363447926604689,2053,2047,1997,2046,2037,2046,1193
500,1716363447936605867,2053,2052,2059,2060,2070,2053,1199
501,1716363447946605422,2053,2052,2065,2047,2018,2043,1193
502,1716363447956606390,2060,2062,2096,2050,2050,2080,1196
503,1716363447966606476,2059,2056,2136,2061,2063,2073,1197
504,1716363447976606311,2064,2070,2104,2065,2070,2092,1196
505,1716363447986613260,2043,2046,2043,2042,2052,2030,1194
506,1716363447996606953,2056,2046,2030,2056,2086,2069,1196
507,1716363448006607170,2064,2072,2074,2053,2009,2035,1195
508,1716363448016608308,2059,2057,2068,2060,2073,2072,1197
509,1716363448026608234,2050,2040,2022,2041,2023,2043,1196
510,1716363448036608119,2056,2052,2036,2064,2078,2065,1196
511,1716363448046652830,2053,2042,2006,2046,2033,2045,1192
512,1716363448056610015,2070,2064,2073,2065,2065,2083,1195
513,1716363448066610562,2047,2049,2036,2044,2037,2051,1197
514,1716363448076611370,2063,2056,2012,2051,2061,2055,1195
515,1716363448086612266,2044,2034,1993,2033,2016,2033,1194
516,1716363448096610289,2058,2050,2036,2056,2062,2052,1195
517,1716363448106610796,2061,2053,2035,2043,2028,2050,1197
518,1716363448116610431,2060,2048,2025,2053,2061,2053,1197
519,1716363448126611659,2056,2063,2057,2051,2027,2018,1194
520,1716363448136611234,2056,2050,2004,2052,2068,2063,1197
521,1716363448146611761,2047,2042,2017,2054,2053,2065,1197
522,1716363448156611978,2052,2045,2008,2056,2076,2060,1197
523,1716363448166612564,2056,2062,2080,2053,2036,2048,1197
524,1716363448176612410,2066,2061,2042,2049,2065,2071,1197
525,1716363448186613217,2047,2044,2040,2051,2037,2072,1197
526,1716363448196613043,2049,2046,2049,2060,2076,2048,1197
527,1716363448206613550,2055,2048,2010,2047,2036,2040,1194
528,1716363448216613455,2056,2053,2044,2052,2066,2080,1196
529,1716363448226614203,2052,2068,2078,2065,2047,2050,1198
530,1716363448236614049,2059,2048,2021,2057,2071,2054,1193
531,1716363448246598676,2056,2046,2032,2056,2022,2055,1197
532,1716363448256598992,2053,2052,2047,2060,2065,2061,1197
533,1716363448266620779,2060,2061,2070,2047,2024,2046,1193
534,1716363448276607129,2052,2058,2062,2061,2064,2056,1197
535,1716363448286617214,2056,2054,2038,2056,2050,2037,1192
536,1716363448296604136,2061,2051,2052,2064,2062,2061,1195
537,1716363448306617737,2047,2047,2029,2046,2038,2023,1196
538,1716363448316618213,2068,2075,2172,2070,2075,2070,1193
539,1716363448326618460,2046,2044,2033,2045,2024,2023,1193
540,1716363448336618596,2054,2059,2089,2069,2052,2043,1195
541,1716363448346601920,2058,2064,2060,2066,2077,2045,1193
542,1716363448356618557,2058,2052,2034,2058,2060,2060,1197
543,1716363448366602223,2057,2053,2046,2051,2036,2052,1198
544,1716363448376602159,2058,2052,2092,2056,2067,2067,1197
545,1716363448386602254,2054,2057,2047,2052,2036,2048,1198
546,1716363448396602741,2061,2057,2048,2044,2024,2052,1198
547,1716363448406601855,2048,2051,2041,2043,2020,2045,1192
548,1716363448416610247,2068,2064,2077,2062,2074,2068,1198
549,1716363448426604162,2053,2060,2059,2055,2044,2040,1193
550,1716363448436658179,2062,2053,2053,2036,2058,2066,1197
551,1716363448446604273,2040,2037,2013,2037,2024,2028,1194
552,1716363448456604851,2063,2073,2141,2056,2040,2064,1198
553,1716363448466606049,2046,2045,2033,2047,2038,2045,1193
554,1716363448476605204,2064,2054,2037,2061,2061,2053,1199
555,1716363448486606391,2061,2045,2015,2042,2024,2035,1195
556,1716363448496602840,2056,2047,2050,2067,2070,2035,1194
557,1716363448506603928,2056,2056,2076,2049,2044,2049,1196
558,1716363448516603864,2061,2059,2047,2066,2073,2067,1195
559,1716363448526605042,2060,2059,2113,2061,2049,2069,1195
560,1716363448536637179,2060,2066,2092,2061,2090,2057,1194
561,1716363448546605745,2040,2053,2084,2045,2007,2014,1196
562,1716363448556605301,2054,2062,2114,2062,2058,2081,1198
563,1716363448566605747,2056,2062,2061,2056,2027,2041,1194
564,1716363448576602386,2055,2041,2009,2056,2065,2063,1194
565,1716363448586606751,2049,2046,2056,2054,2034,2045,1194
566,1716363448596606587,2056,2056,2064,2076,2074,2056,1194
567,1716363448606605140,2052,2052,2060,2058,2044,2032,1194
568,1716363448616605405,2064,2066,2044,2056,2063,2085,1196
569,1716363448626603117,2064,2084,2218,2070,2030,2034,1193
570,1716363448636603544,2045,2042,2062,2056,2068,2059,1197
571,1716363448646605624,2050,2051,2077,2057,2036,2042,1193
572,1716363448656607564,2054,2057,2050,2056,2057,2061,1198
573,1716363448666608331,2051,2056,2060,2056,2052,2031,1192
574,1716363448676603908,2055,2066,2118,2074,2074,2072,1197
575,1716363448686599146,2057,2056,2057,2059,2053,2069,1197
576,1716363448696601236,2062,2064,2083,2065,2074,2057,1198
577,1716363448706584189,2060,2060,2072,2054,2025,2044,1193
578,1716363448716602309,2060,2068,2120,2071,2079,2064,1198
579,1716363448726600211,2056,2052,2046,2062,2049,2037,1195
580,1716363448736605717,2058,2044,2028,2046,2067,2065,1197
581,1716363448746601605,2057,2056,2034,2046,2046,2046,1192
582,1716363448756605308,2052,2048,2070,2058,2068,2064,1197
583,1716363448766603290,2053,2051,2054,2051,2033,2048,1196
584,1716363448776600912,2056,2056,2042,2060,2068,2057,1198
585,1716363448786601849,2058,2064,2080,2053,2030,2041,1194
586,1716363448796636520,2054,2050,2044,2057,2066,2056,1197
587,1716363448806607111,2050,2045,2030,2051,2041,2038,1194
588,1716363448816605484,2052,2042,2043,2040,2073,2093,1196
589,1716363448826606783,2045,2044,2050,2048,2084,2037,1196
590,1716363448836607730,2052,2039,2026,2051,2065,2054,1197
591,1716363448846604720,2047,2052,2061,2048,2028,2037,1193
592,1716363448856607181,2062,2054,2047,2064,2071,2060,1196
593,1716363448866612847,2064,2077,2093,2066,2037,2048,1194
594,1716363448876604347,2065,2057,2052,2050,2059,2064,1197
595,1716363448886603782,2062,2058,2038,2057,2031,2036,1192
596,1716363448896618385,2062,2056,2056,2038,2078,2072,1198
597,1716363448906601670,2058,2051,2069,2064,2073,2056,1193
598,1716363448916604311,2056,2047,1997,2064,2072,2066,1199
599,1716363448926603375,2056,2052,2052,2049,2032,2044,1193
600,1716363448936604492,2055,2052,2062,2060,2070,2061,1196
601,1716363448946606733,2056,2069,2068,2056,2046,2048,1196
602,1716363448956604775,2053,2045,2021,2058,2075,2073,1198
603,1716363448966605111,2053,2067,2092,2062,2046,2058,1197
604,1716363448976607662,2061,2061,2026,2066,2078,2068,1197
605,1716363448986629289,2051,2050,2050,2046,2029,2043,1193
606,1716363448996604498,2053,2052,2076,2064,2072,2068,1194
607,1716363449006608482,2061,2066,2066,2056,2047,2062,1197
608,1716363449016605723,2056,2048,2047,2047,2036,2049,1196
609,1716363449026603113,2049,2050,2061,2038,2030,2005,1194
610,1716363449036606004,2056,2062,2070,2053,2067,2060,1195
611,1716363449046603987,2054,2052,2048,2051,2046,2042,1192
612,1716363449056631445,2052,2045,2045,2053,2069,2058,1195
613,1716363449066608988,2061,2066,2130,2068,2036,2045,1193
614,1716363449076605618,2056,2047,2045,2058,2070,2056,1196
615,1716363449086605905,2050,2053,2063,2038,2033,2029,1193
616,1716363449096613004,2057,2049,2044,2048,2056,2064,1196
617,1716363449106600857,2059,2059,2036,2045,2024,2044,1193
618,1716363449116604059,2053,2044,2031,2061,2072,2062,1196
619,1716363449126600328,2050,2039,2017,2068,2091,2048,1198
620,1716363449136600665,2057,2039,2012,2045,2062,2056,1196
621,1716363449146601232,2059,2060,2061,2059,2036,2038,1194
622,1716363449156601909,2054,2050,2040,2046,2066,2068,1197
623,1716363449166608327,2064,2064,2078,2054,2042,2041,1194
624,1716363449176605659,2059,2062,2112,2072,2075,2070,1196
625,1716363449186607087,2052,2046,2035,2050,2034,2042,1193
626,1716363449196605580,2053,2048,2056,2056,2071,2063,1195
627,1716363449206605105,2051,2036,2014,2036,2012,2024,1192
628,1716363449216604029,2053,2041,2026,2051,2066,2062,1197
629,1716363449226605688,2059,2061,2074,2048,2034,2049,1197
630,1716363449236607347,2055,2040,2017,2049,2065,2064,1197
631,1716363449246605690,2056,2054,2021,2040,2036,2037,1195
632,1716363449256605647,2053,2052,2057,2057,2073,2056,1196
633,1716363449266621783,2059,2056,2060,2057,2041,2060,1196
634,1716363449276607822,2056,2049,2046,2052,2062,2049,1195
635,1716363449286603941,2059,2052,2052,2052,2042,2047,1192
636,1716363449296601703,2064,2084,2105,2082,2092,2069,1196
637,1716363449306602480,2057,2046,2033,2053,2065,2040,1192
638,1716363449316601755,2048,2056,2084,2066,2074,2061,1196
639,1716363449326602692,2046,2050,2040,2057,2040,2048,1197
640,1716363449336602448,2053,2054,2070,2070,2073,2072,1197
641,1716363449346599979,2061,2064,2066,2058,2042,2059,1194
642,1716363449356603812,2060,2043,2004,2045,2063,2059,1195
643,1716363449366605602,2060,2052,2025,2057,2050,2043,1192
644,1716363449376610177,2053,2038,2023,2044,2061,2056,1199
645,1716363449386606616,2056,2064,2089,2057,2036,2034,1194
646,1716363449396605570,2085,2086,2209,2072,2068,2107,1196
647,1716363449406605806,2053,2053,2077,2057,2069,2040,1194
648,1716363449416605653,2063,2056,2029,2061,2068,2068,1196
649,1716363449426607321,2056,2057,2049,2045,2037,2046,1194
650,1716363449436605594,2050,2045,2045,2053,2064,2060,1196
651,1716363449446601021,2052,2043,2028,2046,2032,2041,1194
652,1716363449456607359,2062,2064,2091,2074,2061,2056,1196
653,1716363449466608457,2059,2069,2098,2052,2040,2056,1194
654,1716363449476606430,2067,2056,2076,2072,2074,2069,1197
655,1716363449486604311,2062,2072,2084,2056,2049,2058,1195
656,1716363449496605680,2057,2042,2036,2056,2068,2073,1196
657,1716363449506604233,2058,2054,2048,2061,2061,2045,1192
658,1716363449516603999,2054,2055,2055,2057,2065,2049,1196
659,1716363449526609986,2053,2062,2114,2053,2020,2048,1196
660,1716363449536605674,2051,2054,2097,2058,2058,2062,1197
661,1716363449546603967,2070,2113,2089,2093,2056,2056,1195
662,1716363449556602831,2053,2040,2018,2052,2073,2051,1199
663,1716363449566605642,2059,2057,2064,2053,2041,2043,1192
664,1716363449576606639,2058,2062,2075,2056,2061,2064,1200
665,1716363449586604943,2052,2050,2043,2046,2040,2027,1193
666,1716363449596606040,2052,2034,1977,2044,2061,2062,1196
667,1716363449606603281,2045,2052,2043,2064,2052,2039,1193
668,1716363449616605923,2054,2050,2047,2058,2067,2044,1194
669,1716363449626603364,2054,2061,2073,2057,2040,2036,1194
670,1716363449636604302,2052,2083,2178,2086,2072,2067,1197
671,1716363449646604638,2052,2038,2013,2046,2028,2050,1196
672,1716363449656610294,2055,2049,2032,2056,2056,2063,1196
673,1716363449666604830,2066,2074,2080,2062,2047,2064,1192
674,1716363449676611669,2059,2069,2138,2068,2065,2034,1194
675,1716363449686608780,2044,2036,1996,2044,2042,2048,1197
676,1716363449696612132,2040,2028,1940,2037,2050,2044,1193
677,1716363449706612148,2049,2054,2032,2044,2021,2035,1193
678,1716363449716610321,2056,2061,2071,2062,2066,2068,1195
679,1716363449726610106,2056,2056,2069,2050,2033,2040,1192
680,1716363449736610322,2050,2048,2054,2056,2056,2056,1195
681,1716363449746611260,2049,2042,1989,2053,2032,2028,1192
682,1716363449756614022,2047,2057,2073,2057,2108,2049,1196
683,1716363449766611272,2049,2047,2036,2042,2030,2037,1193
684,1716363449776610828,2041,2030,2024,2054,2073,2070,1197
685,1716363449786611615,2056,2059,2073,2044,2056,2048,1196
686,1716363449796586083,2059,2061,2103,2069,2060,2058,1198
687,1716363449806612389,2058,2056,2071,2051,2036,2024,1193
688,1716363449816614198,2062,2069,2116,2053,2049,2064,1196
689,1716363449826613252,2052,2045,2037,2045,2028,2038,1196
690,1716363449836612717,2057,2088,2144,2080,2074,2091,1196
691,1716363449846613595,2038,2024,1969,2032,2020,2052,1195
692,1716363449856612228,2064,2110,2216,2081,2076,2061,1195
693,1716363449866617975,2058,2062,2048,2064,2045,2037,1190
694,1716363449876612521,2051,2052,2043,2052,2066,2065,1192
695,1716363449886614981,2052,2054,2053,2047,2041,2041,1193
696,1716363449896616280,2058,2058,2044,2066,2069,2062,1196
697,1716363449906615795,2053,2042,2015,2046,2040,2038,1193
698,1716363449916630990,2052,2065,2047,2066,2064,2064,1197
699,1716363449926616017,2052,2054,2032,2054,2044,2047,1195
700,1716363449936616745,2061,2056,2046,2057,2062,2076,1195
701,1716363449946617012,2060,2046,2014,2049,2037,2037,1194
702,1716363449956618410,2059,2038,2031,2044,2062,2061,1196
703,1716363449966620710,2051,2039,1984,2040,2040,2056,1197
704,1716363449976615927,2057,2058,2108,2059,2102,2066,1198
705,1716363449986618558,2052,2044,2034,2052,2037,2053,1194
706,1716363449996618214,2057,2068,2106,2075,2098,2057,1197
707,1716363450006596849,2056,2056,2080,2047,2035,2047,1195
708,1716363450016618997,2052,2045,2025,2058,2065,2052,1198
709,1716363450026619655,2053,2052,2048,2060,2045,2042,1194
710,1716363450036603991,2053,2063,2091,2069,2062,2067,1197
711,1716363450046604989,2057,2056,2028,2053,2040,2044,1193
712,1716363450056605005,2060,2058,2059,2060,2068,2057,1197
713,1716363450066607196,2046,2046,2019,2056,2045,2051,1196
714,1716363450076607643,2062,2058,2097,2061,2084,2033,1196
715,1716363450086621515,2052,2042,2001,2045,2049,2047,1195
716,1716363450096605882,2065,2053,2026,2049,2053,2065,1195
717,1716363450106606679,2064,2072,2091,2048,2059,2053,1197
718,1716363450116607066,2066,2076,2118,2067,2061,2028,1193
719,1716363450126604497,2056,2051,2042,2068,2044,2041,1194
720,1716363450136602079,2057,2046,2041,2044,2061,2059,1196
721,1716363450146608176,2061,2052,2063,2047,2057,2044,1194
722,1716363450156603203,2065,2073,2102,2057,2061,2052,1195
723,1716363450166606195,2045,2047,2012,2056,2040,2024,1196
724,1716363450176603595,2058,2059,2047,2070,2072,2060,1197
725,1716363450186606678,2046,2043,2031,2060,2044,2041,1194
726,1716363450196607084,2065,2040,2014,2072,2065,2074,1197
727,1716363450206612351,2070,2064,1976,2054,2053,2056,1196
728,1716363450216612567,2056,2057,2065,2053,2072,2060,1196
729,1716363450226604759,2052,2045,2050,2052,2019,2046,1193
730,1716363450236605476,2072,2106,2173,2076,2062,2049,1196
731,1716363450246606494,2057,2052,2047,2058,2025,2051,1196
732,1716363450256605789,2053,2047,2056,2058,2057,2052,1197
733,1716363450266612247,2049,2046,2057,2040,2075,2058,1194
734,1716363450276604278,2057,2052,2057,2060,2066,2068,1195
735,1716363450286610476,2069,2070,2112,2051,2051,2051,1198
736,1716363450296603028,2053,2030,1967,2039,2071,2067,1197
737,1716363450306604888,2053,2048,2040,2052,2060,2075,1197
738,1716363450316603812,2064,2048,2038,2056,2064,2064,1197
739,1716363450326609819,2060,2056,2050,2057,2088,2057,1197
740,1716363450336605868,2048,2054,2057,2054,2065,2061,1197
741,1716363450346609491,2048,2049,2026,2049,2039,2053,1196
742,1716363450356619606,2054,2046,2048,2050,2064,2053,1197
743,1716363450366606297,2068,2059,2033,2065,2045,2025,1194
744,1716363450376603257,2052,2048,2032,2056,2066,2054,1197
745,1716363450386604125,2054,2047,2032,2057,2049,2040,1195
746,1716363450396604702,2048,2043,2020,2045,2044,2049,1197
747,1716363450406602695,2050,2044,2009,2040,2052,2045,1194
748,1716363450416602791,2056,2062,2076,2065,2072,2060,1196
749,1716363450426606655,2059,2081,2120,2049,2043,2065,1197
750,1716363450436602894,2053,2047,2044,2053,2058,2053,1197
751,1716363450446603530,2057,2049,2030,2050,2043,2036,1192
752,1716363450456612734,2053,2048,2024,2066,2064,2053,1198
753,1716363450466604244,2042,2052,2068,2054,2044,2052,1194
754,1716363450476592348,2049,2040,2042,2056,2058,2052,1195
755,1716363450486605709,2058,2060,2056,2064,2081,2072,1197
756,1716363450496599783,2052,2044,2041,2064,2073,2052,1196
757,1716363450506603998,2048,2060,2073,2060,2037,2016,1192
758,1716363450516607110,2069,2060,2060,2064,2065,2055,1197
759,1716363450526616314,2047,2043,2037,2046,2054,2043,1192
760,1716363450536603796,2073,2090,2202,2067,2076,2087,1196
761,1716363450546624341,2054,2054,2076,2056,2045,2043,1193
762,1716363450556627633,2056,2050,2051,2061,2085,2054,1197
763,1716363450566603453,2060,2064,2052,2062,2034,2061,1197
764,1716363450576600003,2054,2047,2040,2037,2049,2060,1198
765,1716363450586760903,2048,2044,2055,2034,2046,2053,1196
766,1716363450596599955,2051,2044,2050,2059,2057,2067,1196
767,1716363450606603528,2048,2043,2026,2046,2037,2050,1197
768,1716363450616601280,2050,2040,2036,2058,2081,2093,1195
769,1716363450626714640,2048,2045,2039,2050,2054,2074,1197
770,1716363450636601232,2067,2065,2121,2052,2061,2052,1196
771,1716363450646590167,2053,2044,2031,2048,2046,2047,1193
772,1716363450656628506,2058,2056,2059,2060,2065,2060,1198
773,1716363450666612462,2061,2050,1989,2056,2045,2044,1192
774,1716363450676609102,2046,2041,2026,2055,2078,2058,1198
775,1716363450686606793,2055,2046,2029,2049,2024,2045,1193
776,1716363450696606970,2061,2066,2089,2061,2058,2052,1195
777,1716363450706611885,2043,2054,2076,2066,2041,2052,1197
778,1716363450716611861,2053,2057,2024,2053,2061,2059,1196
779,1716363450726604163,2052,2067,2109,2056,2045,2048,1195
780,1716363450736608477,2049,2031,1996,2045,2067,2043,1194
781,1716363450746707300,2056,2051,2051,2043,2032,2047,1194
782,1716363450756574104,2056,2047,2041,2054,2058,2058,1198
783,1716363450766612723,2053,2054,2044,2055,2034,2051,1198
784,1716363450776605115,2036,2047,2067,2072,2068,2063,1197
785,1716363450786607525,2044,2051,2053,2056,2081,2041,1194
786,1716363450796604707,2055,2048,2028,2059,2065,2060,1197
787,1716363450806607097,2068,2058,2062,2057,2045,2056,1195
788,1716363450816611031,2064,2068,2059,2056,2073,2084,1197
789,1716363450826602521,2053,2056,2084,2058,2042,2050,1196
790,1716363450836611864,2058,2050,2069,2054,2049,2056,1196
791,1716363450846704716,2053,2052,2062,2054,2050,2040,1193
792,1716363450856644227,2054,2060,2056,2052,2065,2063,1197
793,1716363450866601453,2055,2054,2044,2056,2048,2053,1194
794,1716363450876605326,2068,2056,2038,2044,2054,2048,1197
795,1716363450886605352,2063,2076,2104,2064,2045,2048,1196
796,1716363450896603936,2056,2072,2140,2060,2049,2056,1196
797,1716363450906603962,2056,2051,2052,2040,2016,2045,1192
798,1716363450916602235,2056,2052,2054,2053,2044,2052,1195
799,1716363450926603744,2060,2061,2073,2060,2052,2069,1196
800,1716363450936603139,2063,2054,2034,2077,2080,2086,1196
801,1716363450946604728,2051,2052,2069,2060,2037,2052,1196
802,1716363450956632436,2045,2035,2002,2043,2056,2054,1196
803,1716363450966602035,2063,2071,2147,2068,2049,2068,1197
804,1716363450976599927,2061,2079,2109,2072,2092,2061,1197
805,1716363450986626574,2056,2050,2059,2055,2041,2082,1193
806,1716363450996601322,2056,2045,2028,2077,2068,2035,1192
807,1716363451006607109,2049,2048,2033,2051,2052,2045,1193
808,1716363451016603038,2044,2052,2027,2052,2052,2056,1196
809,1716363451026607312,2061,2052,2066,2046,2049,2052,1197
810,1716363451036602910,2059,2052,2057,2064,2062,2062,1194
811,1716363451046602235,2047,2049,2047,2048,2056,2047,1192
812,1716363451056621237,2056,2074,2188,2082,2084,2062,1196
813,1716363451066605193,2058,2054,2050,2052,2041,2042,1192
814,1716363451076600760,2063,2057,2079,2084,2085,2046,1192
815,1716363451086598974,2045,2045,2071,2024,2027,2034,1192
816,1716363451096600363,2044,2063,2100,2065,2056,2048,1197
817,1716363451106601180,2047,2053,2079,2053,2046,2056,1195
818,1716363451116602289,2061,2052,2025,2061,2049,2042,1194
819,1716363451126599309,2049,2049,2046,2038,2032,2021,1193
820,1716363451136599115,2052,2040,2007,2056,2059,2056,1196
821,1716363451146600344,2047,2039,2046,2044,2048,2047,1193
822,1716363451156599819,2050,2046,2029,2056,2072,2056,1196
823,1716363451166600045,2046,2049,2059,2060,2049,2062,1196
824,1716363451176598298,2056,2049,2000,2046,2060,2066,1199
825,1716363451186598825,2047,2053,2047,2051,2039,2049,1196
826,1716363451196603370,2049,2044,2052,2075,2056,2019,1192
827,1716363451206599359,2043,2044,2009,2049,2056,2064,1199
828,1716363451216599805,2065,2053,2033,2052,2062,2047,1195
829,1716363451226600534,2045,2044,2024,2051,2056,2046,1193
830,1716363451236600389,2064,2065,2102,2069,2066,2081,1196
831,1716363451246603772,2059,2057,2009,2080,2102,2075,1197
832,1716363451256600573,2053,2045,2033,2049,2056,2045,1196
833,1716363451266601360,2050,2057,2070,2064,2062,2030,1190
834,1716363451276602619,2053,2064,2108,2064,2065,2059,1197
835,1716363451286599950,2060,2060,2073,2052,2044,2040,1194
836,1716363451296613522,2061,2055,2079,2047,2047,2061,1197
837,1716363451306600433,2052,2058,2050,2058,2040,2041,1194
838,1716363451316603014,2051,2050,2026,2068,2107,2080,1196
839,1716363451326601207,2060,2049,2004,2058,2040,2051,1197
840,1716363451336603638,2044,2032,1998,2042,2057,2059,1196
841,1716363451346606810,2056,2067,2110,2073,2056,2056,1197
842,1716363451356601225,2054,2049,2024,2066,2082,2060,1196
843,1716363451366599889,2046,2060,2061,2051,2046,2041,1193
844,1716363451376602109,2061,2056,2030,2068,2065,2058,1198
845,1716363451386599812,2056,2061,2098,2058,2047,2065,1196
846,1716363451396603053,2060,2057,2077,2061,2056,2058,1198
847,1716363451406602980,2056,2055,2053,2056,2050,2074,1199
848,1716363451416603988,2059,2065,2056,2048,2074,2058,1198
849,1716363451426601549,2050,2054,2074,2053,2057,2059,1195
850,1716363451436604081,2058,2069,2126,2081,2117,2054,1196
851,1716363451446602805,2045,2058,2080,2056,2050,2060,1196
852,1716363451456604674,2061,2058,2051,2053,2074,2087,1198
853,1716363451466600503,2049,2049,2041,2049,2057,2058,1195
854,1716363451476598525,2061,2060,2052,2064,2104,2066,1195
855,1716363451486601547,2055,2053,2015,2048,2048,2044,1193
856,1716363451496600681,2053,2057,2037,2059,2045,2049,1196
857,1716363451506598894,2053,2051,2034,2057,2060,2048,1196
858,1716363451516601996,2054,2056,2053,2056,2056,2058,1197
859,1716363451526599478,2056,2062,2112,2053,2073,2060,1196
860,1716363451536601978,2047,2050,2068,2061,2065,2057,1195
861,1716363451546603177,2052,2059,2080,2049,2038,2038,1193
862,1716363451556601360,2057,2046,2039,2058,2063,2067,1196
863,1716363451566600434,2057,2049,2040,2047,2056,2060,1195
864,1716363451576600792,2052,2047,2050,2057,2057,2052,1197
865,1716363451586601351,2042,2036,1992,2048,2056,2040,1195
866,1716363451596602358,2068,2076,2052,2065,2080,2052,1198
867,1716363451606599429,2060,2068,2079,2061,2046,2052,1193
868,1716363451616599938,2058,2046,2021,2070,2089,2062,1197
869,1716363451626600364,2062,2068,2123,2052,2056,2048,1195
870,1716363451636600040,2076,2101,2193,2072,2066,2065,1200
871,1716363451646603402,2044,2049,2022,2044,2045,2042,1195
872,1716363451656601546,2056,2065,2122,2062,2090,2040,1195
873,1716363451666601131,2048,2051,2067,2058,2042,2050,1196
874,1716363451676605846,2065,2053,2049,2060,2069,2058,1195
875,1716363451686603548,2051,2042,1997,2056,2053,2049,1196
876,1716363451696605387,2049,2043,1998,2049,2058,2057,1196
877,1716363451706616675,2044,2050,2037,2048,2052,2047,1193
878,1716363451717594809,2052,2051,2080,2059,2049,2046,1193
879,1716363451726603452,2054,2046,2031,2041,2032,2060,1198
880,1716363451736602967,2061,2061,2068,2056,2045,2054,1198
881,1716363451746644613,2070,2071,2088,2059,2040,2046,1193
882,1716363451756601096,2052,2050,2061,2065,2078,2056,1197
883,1716363451766644435,2052,2056,2073,2064,2053,2048,1198
884,1716363451776641756,2058,2055,2084,2057,2070,2084,1199
885,1716363451786655358,2064,2057,2073,2056,2031,2044,1194
886,1716363451796642029,2054,2056,2059,2061,2065,2056,1197
887,1716363451806638529,2054,2056,2076,2069,2045,2052,1195
888,1716363451816642462,2052,2051,2043,2058,2061,2057,1197
889,1716363451826640495,2056,2055,2042,2058,2057,2047,1193
890,1716363451836640701,2063,2066,2042,2066,2078,2067,1195
891,1716363451846642050,2054,2040,1993,2041,2040,2032,1195
892,1716363451856641725,2064,2056,2052,2054,2060,2073,1196
893,1716363451866641832,2052,2044,2024,2050,2041,2044,1190
894,1716363451876641798,2052,2041,2016,2040,2057,2058,1196
895,1716363451886642676,2057,2057,2047,2049,2041,2045,1192
896,1716363451896642942,2052,2047,2032,2052,2067,2058,1196
897,1716363451906644201,2052,2049,2060,2061,2053,2053,1196
898,1716363451916643095,2066,2058,2072,2068,2065,2045,1195
899,1716363451926643432,2061,2072,2083,2050,2037,2052,1198
900,1716363451936643128,2066,2052,2084,2076,2099,2054,1196
901,1716363451946645208,2053,2054,2042,2053,2045,2049,1197
902,1716363451956629585,2060,2053,2044,2059,2073,2060,1196
903,1716363451966645541,2053,2049,2030,2057,2055,2049,1197
904,1716363451976630208,2065,2077,2080,2072,2072,2061,1197
905,1716363451986627580,2052,2044,2041,2052,2039,2053,1198
906,1716363451996628397,2065,2066,2074,2072,2072,2067,1197
907,1716363452006626610,2060,2060,2060,2056,2060,2044,1192
908,1716363452016627137,2056,2058,2076,2066,2052,2070,1197
909,1716363452026627394,2054,2057,2057,2066,2045,2041,1194
910,1716363452036627151,2063,2075,2046,2075,2093,2085,1197
911,1716363452046625333,2028,2044,2038,2052,2056,2044,1193
912,1716363452056622584,2052,2048,2030,2064,2054,2051,1196
913,1716363452066624143,2049,2052,2024,2054,2041,2044,1192
914,1716363452076623909,2060,2054,2064,2056,2065,2061,1196
915,1716363452086623735,2053,2046,2038,2051,2041,2050,1194
916,1716363452096621658,2059,2055,2033,2066,2060,2061,1197
917,1716363452106622135,2053,2055,2031,2051,2034,2080,1198
918,1716363452116622612,2058,2068,2116,2064,2056,2074,1193
919,1716363452126620354,2052,2054,2096,2056,2037,2033,1193
920,1716363452136620811,2064,2069,2082,2072,2073,2060,1198
921,1716363452146623353,2057,2048,2037,2066,2072,2047,1192
922,1716363452156619080,2055,2041,2008,2061,2068,2060,1196
923,1716363452166619638,2037,2031,1984,2040,2047,2050,1196
924,1716363452176617040,2063,2049,2041,2050,2064,2072,1200
925,1716363452186617437,2056,2057,2064,2029,2041,2052,1198
926,1716363452196612674,2060,2056,2069,2061,2057,2046,1195
927,1716363452206659369,2052,2052,2049,2046,2037,2032,1195
928,1716363452216615381,2053,2058,2052,2076,2071,2058,1195
929,1716363452226611661,2041,2045,2035,2069,2048,2040,1194
930,1716363452236611778,2051,2040,2005,2050,2072,2029,1195
931,1716363452246615411,2052,2046,2052,2051,2042,2045,1195
932,1716363452256612862,2066,2058,2053,2046,2042,2033,1194
933,1716363452266652944,2060,2064,2041,2060,2039,2038,1191
934,1716363452276615489,2063,2054,2036,2066,2085,2086,1195
935,1716363452286616097,2051,2053,2067,2064,2052,2044,1192
936,1716363452296616605,2073,2072,2047,2070,2076,2089,1197
937,1716363452306617613,2056,2047,2032,2057,2028,2051,1194
938,1716363452316616918,2057,2051,2029,2053,2074,2056,1197
939,1716363452326609410,2053,2050,2068,2048,2050,2044,1192
940,1716363452336618152,2072,2080,2132,2053,2061,2068,1195
941,1716363452346610655,2045,2045,2029,2051,2048,2064,1196
942,1716363452356626752,2058,2069,2051,2070,2076,2071,1196
943,1716363452366610337,2047,2046,2033,2050,2040,2048,1195
944,1716363452376613700,2059,2070,2080,2072,2074,2060,1196
945,1716363452386609888,2058,2068,2056,2054,2041,2052,1197
946,1716363452396611858,2059,2046,2035,2045,2053,2070,1197
947,1716363452406612045,2056,2056,2069,2059,2041,2050,1197
948,1716363452416612363,2058,2052,2046,2063,2076,2062,1198
949,1716363452426612910,2062,2059,2054,2053,2052,2068,1196
950,1716363452436621282,2061,2056,2026,2045,2069,2056,1196
951,1716363452446621849,2051,2059,2053,2056,2059,2058,1196
952,1716363452456626754,2058,2055,2046,2061,2057,2045,1194
953,1716363452466613847,2051,2049,2048,2054,2048,2031,1193
954,1716363452476612821,2045,2040,2009,2040,2063,2087,1198
955,1716363452486614250,2051,2053,2040,2052,2057,2040,1192
956,1716363452496614006,2064,2048,2025,2043,2044,2062,1195
957,1716363452506614653,2058,2064,2045,2072,2051,2072,1196
958,1716363452516611363,2052,2049,2025,2049,2046,2073,1196
959,1716363452526613374,2054,2054,2041,2048,2057,2048,1196
960,1716363452536612990,2064,2063,2086,2056,2054,2060,1195
961,1716363452546613397,2049,2048,2062,2044,2049,2046,1191
962,1716363452556612311,2056,2051,2049,2051,2072,2066,1197
963,1716363452566615002,2038,2044,2041,2050,2040,2036,1192
964,1716363452576611461,2052,2045,2044,2056,2043,2056,1197
965,1716363452586614564,2052,2040,2021,2053,2045,2037,1194
966,1716363452596612367,2053,2057,2056,2076,2077,2074,1194
967,1716363452606615839,2053,2046,2040,2054,2053,2038,1192
968,1716363452616613461,2057,2060,2104,2072,2056,2056,1196
969,1716363452626613357,2052,2066,2114,2073,2074,2055,1195
970,1716363452636613032,2051,2045,2040,2074,2063,2048,1197
971,1716363452646629630,2056,2053,2031,2050,2024,2036,1193
972,1716363452656632072,2062,2044,2013,2049,2053,2030,1195
973,1716363452666617279,2055,2052,2031,2049,2046,2056,1195
974,1716363452676614441,2052,2040,2013,2057,2064,2075,1197
975,1716363452686615268,2058,2056,2085,2060,2034,2042,1194
976,1716363452696613521,2056,2048,2031,2061,2073,2061,1196
977,1716363452706616173,2058,2060,2056,2057,2061,2048,1194
978,1716363452716613164,2059,2046,2020,2072,2075,2092,1197
979,1716363452726615564,2050,2045,2056,2056,2042,2045,1194
980,1716363452736614128,2061,2064,2093,2058,2062,2076,1195
981,1716363452746614755,2061,2065,2132,2064,2051,2055,1196
982,1716363452756673272,2052,2044,2036,2058,2056,2056,1197
983,1716363452766614858,2043,2037,2010,2047,2046,2059,1197
984,1716363452776611899,2056,2065,2092,2066,2074,2075,1197
985,1716363452786616654,2048,2033,1998,2054,2040,2045,1196
986,1716363452796613304,2057,2049,2018,2032,2062,2055,1198
987,1716363452806617158,2053,2049,2040,2058,2057,2053,1198
988,1716363452816616583,2054,2040,2014,2056,2049,2060,1197
989,1716363452826618183,2048,2049,2022,2045,2029,2039,1193
990,1716363452836615102,2056,2068,2062,2058,2053,2058,1198
991,1716363452846615360,2055,2051,2070,2045,2031,2056,1198
992,1716363452856656414,2064,2080,2187,2062,2064,2068,1197
993,1716363452866644037,2052,2056,2078,2052,2057,2046,1189
994,1716363452876611772,2044,2054,2096,2065,2060,2053,1196
995,1716363452886635393,2053,2046,2011,2052,2048,2056,1195
996,1716363452896612335,2058,2043,2010,2040,2056,2057,1197
997,1716363452906646536,2056,2045,2038,2040,2042,2062,1197
998,1716363452916644690,2058,2062,2097,2058,2062,2050,1196
999,1716363452926638644,2056,2051,2033,2049,2039,2048,1196
1000,1716363452936611449,2053,2055,2053,2057,2053,2059,1197
1001,1716363452946641141,2054,2052,2033,2072,2067,2052,1196
1002,1716363452956651928,2034,2040,2024,2044,2053,2058,1197
1003,1716363452966639561,2045,2046,1997,2047,2054,2044,1196
1004,1716363452976637183,2063,2046,2022,2059,2058,2048,1198
1005,1716363452986637881,2060,2066,2021,2056,2050,2054,1195
1006,1716363452996637687,2061,2051,2053,2056,2061,2059,1198
1007,1716363453006638184,2051,2050,2040,2049,2042,2067,1198
1008,1716363453016638921,2031,2036,2040,2042,2049,2044,1195
1009,1716363453026641292,2057,2046,2031,2058,2054,2057,1195
1010,1716363453036640367,2057,2044,2028,2058,2064,2072,1197
1011,1716363453046640754,2045,2050,2047,2056,2076,2041,1196
1012,1716363453056642043,2051,2044,2024,2047,2052,2079,1196
1013,1716363453066649073,2060,2052,1986,2044,2041,2048,1195
1014,1716363453076641615,2063,2056,2026,2050,2068,2061,1197
1015,1716363453086642864,2064,2062,2093,2045,2042,2057,1197
1016,1716363453096641388,2048,2052,2087,2066,2064,2057,1197
1017,1716363453106642326,2050,2042,2010,2043,2040,2022,1196
1018,1716363453116643635,2058,2050,2046,2068,2066,2058,1197
1019,1716363453126626419,2061,2074,2142,2065,2040,2060,1198
1020,1716363453136625694,2056,2054,2070,2056,2054,2052,1196
1021,1716363453146626462,2061,2060,2051,2028,2040,2058,1196
1022,1716363453156625346,2056,2048,2026,2045,2050,2052,1196
1023,1716363453166627958,2061,2069,2077,2053,2058,2048,1200
1024,1716363453176625981,2053,2056,2086,2065,2066,2056,1200
1025,1716363453186628131,2056,2040,2033,2055,2045,2054,1198
1026,1716363453196627285,2060,2047,2048,2061,2063,2058,1198
1027,1716363453206627382,2050,2061,2122,2064,2042,2045,1195
1028,1716363453216627860,2044,2037,2026,2048,2064,2046,1194
1029,1716363453226628678,2042,2041,2021,2045,2029,2038,1195
1030,1716363453236628754,2059,2070,2104,2071,2059,2060,1197
1031,1716363453246628610,2066,2070,2080,2058,2067,2061,1197
1032,1716363453256629519,2060,2050,2011,2084,2069,2105,1196
1033,1716363453266629825,2064,2050,2024,2044,2045,2056,1195
1034,1716363453276629220,2063,2057,2076,2062,2095,2068,1198
1035,1716363453286618988,2057,2054,2047,2052,2041,2040,1192
1036,1716363453296618413,2046,2051,2057,2068,2080,2067,1197
1037,1716363453306628849,2055,2046,2052,2052,2035,2030,1194
1038,1716363453316617604,2045,2041,2030,2054,2052,2050,1196
1039,1716363453326617951,2057,2051,2033,2064,2068,2052,1196
1040,1716363453336615764,2066,2066,2065,2065,2059,2074,1196
1041,1716363453346630468,2058,2056,2023,2065,2038,2046,1194
1042,1716363453356615506,2057,2054,2045,2044,2068,2059,1195
1043,1716363453366616044,2043,2048,2032,2056,2049,2045,1194
1044,1716363453376619857,2044,2040,2041,2043,2036,2074,1197
1045,1716363453386613141,2056,2056,2069,2045,2032,2043,1193
1046,1716363453396612386,2054,2051,2044,2069,2082,2079,1194
1047,1716363453406611721,2054,2058,2028,2049,2037,2052,1197
1048,1716363453416611758,2061,2052,2032,2066,2057,2062,1197
1049,1716363453426610431,2045,2041,2012,2048,2041,2047,1193
1050,1716363453436611049,2072,2058,2047,2066,2072,2062,1195
1051,1716363453446608521,2056,2041,2020,2064,2050,2077,1196
1052,1716363453456608167,2056,2052,2051,2057,2054,2056,1196
1053,1716363453466609916,2039,2043,2037,2049,2042,2038,1193
1054,1716363453476606496,2050,2041,2036,2052,2072,2056,1196
1055,1716363453486609178,2060,2052,2036,2058,2039,2047,1194
1056,1716363453496605658,2065,2060,2064,2064,2072,2054,1197
1057,1716363453506602438,2059,2068,2076,2066,2060,2043,1193
1058,1716363453516604878,2058,2054,2079,2075,2092,2066,1198
1059,1716363453526603543,2052,2072,2108,2061,2054,2049,1195
1060,1716363453536604291,2050,2048,2068,2052,2056,2058,1194
1061,1716363453546607122,2052,2057,2088,2054,2046,2052,1196
1062,1716363453556603031,2061,2057,2046,2049,2063,2059,1196
1063,1716363453566607896,2055,2052,2074,2047,2037,2050,1196
1064,1716363453576640304,2042,2052,2073,2063,2061,2044,1195
1065,1716363453586604773,2057,2066,2105,2051,2045,2042,1194
1066,1716363453596603217,2053,2050,2049,2072,2083,2047,1192
1067,1716363453606640153,2063,2055,2037,2056,2036,2029,1194
1068,1716363453616603110,2052,2061,2076,2048,2056,2051,1199
1069,1716363453626605891,2053,2056,2064,2060,2049,2031,1195
1070,1716363453636605717,2057,2047,2020,2047,2058,2060,1197
1071,1716363453646638015,2052,2053,2015,2040,2053,2050,1197
1072,1716363453656603136,2061,2062,2046,2065,2081,2042,1194
1073,1716363453666604524,2052,2044,2028,2045,2043,2043,1193
1074,1716363453676634086,2058,2062,2101,2072,2064,2050,1196
1075,1716363453686634574,2043,2040,2070,2049,2049,2036,1193
1076,1716363453696607950,2065,2059,2046,2049,2064,2058,1197
1077,1716363453706608588,2057,2064,2094,2063,2053,2047,1195
1078,1716363453716632660,2044,2042,2016,2068,2106,2064,1196
1079,1716363453726634250,2053,2049,2061,2048,2052,2043,1193
1080,1716363453736607996,2059,2060,2059,2053,2077,2064,1196
1081,1716363453746609015,2055,2048,2035,2052,2050,2052,1197
1082,1716363453756607018,2050,2054,2062,2061,2068,2054,1195
1083,1716363453766631440,2060,2056,2070,2047,2044,2042,1194
1084,1716363453776608453,2058,2050,2022,2064,2070,2065,1196
1085,1716363453786611285,2058,2056,2061,2038,2029,2045,1193
1086,1716363453796610820,2063,2057,2026,2064,2070,2104,1197
1087,1716363453806629692,2046,2030,1998,2046,2052,2056,1197
1088,1716363453816613678,2057,2060,2056,2046,2059,2046,1193
1089,1716363453826612322,2057,2051,2045,2056,2049,2050,1199
1090,1716363453836610315,2066,2077,2116,2067,2072,2061,1197
1091,1716363453846612906,2056,2066,2065,2074,2092,2052,1198
1092,1716363453856611199,2050,2041,2030,2056,2062,2060,1197
1093,1716363453866621746,2057,2050,2033,2060,2058,2053,1195
1094,1716363453876611974,2054,2051,2037,2052,2044,2053,1195
1095,1716363453886614595,2066,2068,2082,2061,2042,2011,1192
1096,1716363453896619501,2084,2056,2025,2045,2062,2058,1196
1097,1716363453906614728,2060,2047,2015,2045,2042,2052,1194
1098,1716363453916613282,2056,2051,2036,2053,2064,2059,1195
1099,1716363453926615282,2053,2053,2049,2052,2048,2050,1195
1100,1716363453936614988,2065,2076,2112,2066,2060,2068,1195
1101,1716363453946615706,2053,2048,2029,2045,2077,2042,1194
1102,1716363453956615722,2056,2051,2047,2056,2060,2056,1196
1103,1716363453966619416,2056,2065,2072,2063,2037,2041,1195
1104,1716363453976602029,2053,2057,2152,2068,2063,2084,1199
1105,1716363453986616904,2054,2042,2020,2029,2026,2044,1194
1106,1716363453996618032,2043,2041,2015,2046,2060,2056,1196
1107,1716363454006616386,2064,2087,2114,2065,2054,2069,1197
1108,1716363454016602435,2059,2058,2092,2057,2063,2060,1196
1109,1716363454026599557,2051,2054,2068,2048,2024,2044,1194
1110,1716363454036599834,2056,2056,2057,2053,2058,2053,1195
1111,1716363454046602055,2048,2073,2226,2072,2058,2078,1197
1112,1716363454056603023,2045,2034,1998,2055,2080,2056,1194
1113,1716363454066619761,2059,2059,2042,2053,2044,2048,1195
1114,1716363454076608095,2053,2048,2050,2056,2059,2028,1192
1115,1716363454086601851,2056,2062,2091,2052,2045,2052,1196
1116,1716363454096604091,2037,2048,2049,2059,2055,2052,1196
1117,1716363454106602304,2064,2082,2110,2074,2066,2047,1194
1118,1716363454116604465,2058,2047,2047,2057,2069,2053,1196
1119,1716363454126604531,2056,2058,2080,2062,2060,2058,1196
1120,1716363454136602344,2045,2052,2104,2062,2066,2064,1197
1121,1716363454146637417,2052,2044,2020,2033,2041,2054,1196
1122,1716363454156605382,2058,2073,2130,2066,2062,2068,1196
1123,1716363454166602233,2047,2044,2033,2050,2053,2042,1192
1124,1716363454176599044,2053,2062,2060,2056,2064,2058,1198
1125,1716363454186603218,2056,2050,2034,2054,2048,2043,1194
1126,1716363454196603466,2059,2060,2086,2058,2063,2044,1194
1127,1716363454206640522,2048,2037,2020,2045,2037,2038,1196
1128,1716363454216604079,2062,2044,2028,2056,2051,2058,1196
1129,1716363454226601561,2047,2046,2027,2057,2084,2053,1195
1130,1716363454236604283,2059,2049,2050,2064,2044,2057,1193
1131,1716363454246604410,2060,2061,2072,2058,2041,2068,1196
1132,1716363454256603976,2052,2045,2014,2038,2068,2062,1195
1133,1716363454266607669,2056,2053,2088,2050,2043,2054,1194
1134,1716363454276605021,2056,2051,2061,2058,2066,2052,1197
1135,1716363454286603745,2055,2050,2060,2052,2035,2057,1195
1136,1716363454296603380,2052,2039,1998,2062,2062,2073,1197
1137,1716363454306605290,2056,2048,2031,2059,2056,2049,1195
1138,1716363454316604375,2057,2065,2114,2064,2063,2052,1196
1139,1716363454326607909,2065,2069,2064,2061,2056,2084,1197
1140,1716363454336606202,2057,2063,2094,2056,2060,2061,1195
1141,1716363454346619564,2066,2064,2034,2047,2045,2050,1197
1142,1716363454356602678,2056,2043,2039,2061,2053,2059,1195
1143,1716363454366606301,2045,2047,2051,2042,2030,2032,1196
1144,1716363454376603623,2071,2101,2180,2085,2098,2113,1197
1145,1716363454386608409,2062,2057,2078,2058,2044,2041,1194
1146,1716363454396605650,2058,2070,2186,2072,2062,2062,1196
1147,1716363454406610065,2056,2056,2072,2052,2049,2040,1194
1148,1716363454416605823,2053,2049,2018,2072,2073,2059,1195
1149,1716363454426603185,2061,2060,2089,2060,2058,2056,1196
1150,1716363454436602831,2048,2048,2043,2043,2047,2052,1196
1151,1716363454446607917,2064,2063,2072,2053,2043,2056,1196
1152,1716363454456602764,2057,2052,2064,2065,2070,2064,1196
1153,1716363454466605566,2057,2056,2014,2044,2034,2035,1194
1154,1716363454476603138,2067,2058,2069,2061,2057,2052,1196
1155,1716363454486605629,2053,2052,2059,2054,2057,2058,1196
1156,1716363454496610695,2066,2078,2088,2056,2064,2057,1198
1157,1716363454506605722,2054,2064,2047,2054,2038,2045,1193
1158,1716363454516605378,2060,2065,2091,2050,2051,2064,1196
1159,1716363454526609322,2066,2062,2070,2053,2051,2048,1195
1160,1716363454536607014,2066,2081,2104,2094,2102,2064,1195
1161,1716363454546612331,2058,2056,2017,2052,2047,2060,1197
1162,1716363454556603510,2053,2048,2059,2059,2060,2058,1198
1163,1716363454566607134,2058,2051,2065,2057,2053,2076,1199
1164,1716363454576603814,2045,2033,2010,2062,2069,2061,1196
1165,1716363454586605684,2047,2055,2017,2066,2052,2044,1194
1166,1716363454596606482,2058,2046,2004,2050,2045,2060,1196
1167,1716363454606603543,2065,2070,2106,2054,2040,2047,1192
1168,1716363454616602278,2061,2065,2082,2053,2064,2058,1197
1169,1716363454626603506,2056,2053,2066,2056,2056,2045,1194
1170,1716363454636603232,2056,2049,2044,2052,2054,2037,1193
1171,1716363454646603098,2060,2054,2045,2051,2041,2042,1193
1172,1716363454656601192,2056,2058,2074,2057,2062,2042,1196
1173,1716363454666604464,2056,2062,2079,2056,2049,2055,1194
1174,1716363454676600083,2061,2049,2052,2044,2065,2040,1195
1175,1716363454686602964,2061,2072,2096,2062,2054,2064,1197
1176,1716363454696604043,2060,2056,2064,2052,2060,2067,1196
1177,1716363454706604670,2066,2070,2112,2056,2045,2048,1197
1178,1716363454716612231,2057,2051,2041,2056,2073,2065,1197
1179,1716363454726630072,2054,2056,2060,2057,2042,2046,1192
1180,1716363454736608007,2063,2060,2054,2074,2058,2048,1196
1181,1716363454746608093,2060,2052,2024,2042,2033,2044,1195
1182,1716363454756622917,2056,2041,2020,2056,2059,2069,1196
1183,1716363454766608898,2066,2069,2092,2057,2053,2049,1197
1184,1716363454776606670,2056,2044,2026,2052,2068,2053,1196
1185,1716363454786604793,2053,2044,2030,2044,2032,2047,1194
1186,1716363454796602776,2064,2065,2081,2064,2056,2062,1198
1187,1716363454806611509,2060,2072,2058,2052,2038,2045,1192
1188,1716363454816604653,2049,2048,2052,2055,2066,2063,1196
1189,1716363454826602245,2051,2045,2047,2056,2043,2053,1197
1190,1716363454836603193,2044,2041,2006,2066,2068,2065,1196
1191,1716363454846609752,2056,2052,2068,2060,2069,2052,1196
1192,1716363454856608145,2046,2051,2025,2049,2060,2033,1194
1193,1716363454866609164,2069,2073,2057,2072,2073,2056,1192
1194,1716363454876604712,2053,2054,2056,2052,2046,2074,1195
1195,1716363454886610479,2061,2064,2084,2077,2073,2056,1196
1196,1716363454896605225,2050,2041,2021,2035,2048,2056,1198
1197,1716363454906608178,2053,2063,2072,2052,2050,2048,1197
1198,1716363454916605199,2060,2056,2079,2060,2062,2056,1196
1199,1716363454926606718,2054,2064,2112,2066,2053,2048,1196
1200,1716363454936607527,2051,2049,2043,2054,2065,2072,1195
1201,1716363454946610058,2066,2097,2177,2076,2050,2054,1197
1202,1716363454956607570,2056,2052,2031,2057,2064,2060,1196
1203,1716363454966614119,2055,2056,2063,2051,2048,2046,1195
1204,1716363454976605528,2054,2066,2140,2064,2072,2063,1200
1205,1716363454986606888,2050,2049,2056,2056,2050,2044,1194
1206,1716363454996605732,2044,2046,2072,2056,2056,2043,1195
1207,1716363455006606851,2050,2042,2022,2047,2044,2057,1197
1208,1716363455016606888,2057,2057,2029,2056,2064,2070,1200
1209,1716363455026605942,2053,2048,2025,2066,2068,2037,1194
1210,1716363455036616359,2037,2039,2038,2061,2089,2052,1197
1211,1716363455046604323,2058,2052,2083,2058,2053,2051,1194
1212,1716363455056602106,2052,2049,2025,2052,2071,2066,1196
1213,1716363455066607973,2056,2050,2050,2064,2064,2035,1192
1214,1716363455076603010,2066,2072,2131,2060,2052,2056,1195
1215,1716363455086605592,2058,2056,2056,2065,2054,2044,1193
1216,1716363455096606179,2053,2047,2025,2030,2029,2049,1197
1217,1716363455106603311,2033,2046,2045,2059,2060,2048,1198
1218,1716363455116602706,2047,2044,2031,2047,2040,2043,1195
1219,1716363455126613964,2050,2049,2048,2051,2052,2043,1192
1220,1716363455136605314,2064,2088,2172,2064,2041,2035,1194
1221,1716363455146602275,2052,2039,2007,2048,2047,2048,1195
1222,1716363455156604686,2058,2062,2082,2064,2061,2064,1196
1223,1716363455166603010,2050,2045,2012,2048,2051,2054,1197
1224,1716363455176605541,2052,2050,2040,2057,2061,2047,1195
1225,1716363455186608684,2059,2056,2035,2063,2054,2045,1193
1226,1716363455196602970,2043,2032,2007,2052,2057,2061,1196
1227,1716363455206606503,2048,2064,2116,2061,2054,2042,1192
1228,1716363455216601581,2051,2053,2084,2067,2067,2068,1197
1229,1716363455226609001,2047,2056,2049,2038,2052,2053,1196
1230,1716363455236603678,2066,2075,2169,2063,2057,2051,1194
1231,1716363455246611549,2056,2053,2061,2056,2047,2054,1196
1232,1716363455256602319,2053,2046,2050,2051,2056,2049,1196
1233,1716363455266607745,2047,2040,2024,2022,2009,2037,1192
1234,1716363455276602672,2053,2047,2035,2053,2042,2052,1195
1235,1716363455286605875,2058,2060,2046,2066,2043,2062,1194
1236,1716363455296608606,2052,2050,2064,2053,2053,2049,1196
1237,1716363455306606088,2042,2037,2017,2049,2046,2047,1193
1238,1716363455316607418,2053,2051,2045,2060,2056,2051,1198
1239,1716363455326606272,2059,2051,2054,2056,2056,2060,1197
1240,1716363455336607311,2056,2044,2040,2061,2082,2065,1196
1241,1716363455346613760,2053,2049,2031,2065,2040,2049,1196
1242,1716363455356601473,2052,2054,2068,2054,2052,2038,1194
1243,1716363455366606359,2054,2055,2050,2058,2041,2042,1193
1244,1716363455376601777,2048,2044,2030,2054,2054,2056,1196
1245,1716363455386600050,2056,2052,2036,2054,2044,2045,1193
1246,1716363455396616148,2064,2067,2108,2080,2110,2060,1195
1247,1716363455406608169,2056,2045,2021,2077,2077,2073,1198
1248,1716363455416602806,2056,2048,2020,2056,2060,2044,1193
1249,1716363455426601399,2056,2056,2058,2053,2050,2048,1198
1250,1716363455436603671,2052,2082,2184,2080,2065,2064,1197
1251,1716363455446601633,2065,2080,2132,2058,2050,2046,1196
1252,1716363455456602482,2055,2056,2051,2054,2050,2057,1196
1253,1716363455466599943,2052,2046,2035,2024,2045,2041,1191
1254,1716363455476602514,2064,2082,2141,2072,2056,2066,1199
1255,1716363455486604445,2052,2040,2002,2046,2047,2044,1195
1256,1716363455496613719,2061,2054,2063,2065,2057,2062,1196
1257,1716363455506597124,2060,2062,2064,2073,2054,2078,1196
1258,1716363455516601048,2056,2053,2054,2051,2061,2078,1196
1259,1716363455526602077,2053,2052,2044,2054,2042,2048,1195
1260,1716363455536604759,2055,2063,2093,2056,2060,2064,1197
1261,1716363455546602792,2052,2045,2029,2053,2047,2044,1194
1262,1716363455556602778,2073,2097,2210,2069,2068,2074,1199
1263,1716363455566606873,2055,2052,2038,2057,2041,2059,1197
1264,1716363455576601259,2048,2045,2053,2051,2057,2056,1197
1265,1716363455586602127,2060,2056,2056,2060,2079,2080,1195
1266,1716363455596613556,2048,2052,2029,2052,2045,2056,1196
1267,1716363455606602301,2054,2048,2060,2045,2062,2052,1197
1268,1716363455616602137,2048,2041,2017,2035,2050,2062,1196
1269,1716363455626603486,2057,2072,2122,2068,2058,2062,1196
1270,1716363455636605707,2046,2049,2045,2052,2066,2057,1196
1271,1716363455646603359,2053,2054,2046,2053,2062,2048,1197
1272,1716363455656603737,2067,2077,2144,2072,2056,2087,1197
1273,1716363455666601760,2040,2037,2017,2028,2028,2043,1192
1274,1716363455676606334,2059,2069,2108,2068,2062,2055,1196
1275,1716363455686601853,2056,2056,2067,2056,2065,2044,1192
1276,1716363455696602100,2058,2061,2062,2054,2063,2064,1196
1277,1716363455706603659,2065,2055,2056,2048,2041,2044,1195
1278,1716363455716600019,2056,2054,2079,2056,2063,2054,1198
1279,1716363455726601268,2059,2062,2031,2052,2049,2056,1197
1280,1716363455736603028,2054,2053,2050,2058,2060,2064,1194
1281,1716363455746601382,2061,2056,2068,2056,2036,2048,1196
1282,1716363455756602240,2044,2050,2048,2060,2050,2049,1195
1283,1716363455766605082,2054,2047,2021,2054,2069,2040,1196
1284,1716363455776604508,2054,2048,2024,2057,2073,2069,1198
1285,1716363455786604254,2054,2061,2072,2056,2043,2054,1196
1286,1716363455796612777,2057,2060,2088,2058,2058,2064,1194
1287,1716363455806603476,2061,2070,2113,2063,2038,2065,1197
1288,1716363455816603763,2045,2048,2056,2056,2055,2054,1197
1289,1716363455826601385,2053,2056,2049,2049,2043,2047,1194
1290,1716363455836615068,2058,2058,2058,2047,2037,2054,1197
1291,1716363455846601829,2065,2061,2057,2050,2050,2050,1196
1292,1716363455856602176,2062,2049,2036,2054,2057,2050,1197
1293,1716363455866601913,2057,2044,2028,2057,2056,2048,1195
1294,1716363455876601789,2053,2045,2032,2041,2042,2057,1196
1295,1716363455886602768,2056,2049,2022,2047,2044,2033,1194
1296,1716363455896606240,2060,2051,2042,2056,2044,2064,1196
1297,1716363455906604023,2060,2064,2058,2062,2047,2057,1194
1298,1716363455916603418,2052,2072,2105,2068,2077,2060,1197
1299,1716363455926603646,2057,2053,2022,2059,2092,2052,1194
1300,1716363455936604344,2048,2039,2019,2051,2061,2056,1196
1301,1716363455946604501,2066,2081,2124,2045,2046,2051,1197
1302,1716363455956607854,2058,2056,2075,2058,2056,2069,1196
1303,1716363455966605676,2055,2052,2053,2045,2037,2049,1196
1304,1716363455976604992,2063,2073,2084,2066,2049,2056,1198
1305,1716363455986605950,2054,2046,2021,2057,2046,2052,1195
1306,1716363455996605736,2037,2044,2023,2045,2058,2060,1197
1307,1716363456006607026,2060,2058,2069,2064,2059,2050,1197
1308,1716363456016606491,2066,2072,2056,2069,2067,2071,1194
1309,1716363456026607580,2050,2051,2025,2055,2054,2047,1193
1310,1716363456036607707,2059,2053,2033,2048,2062,2061,1196
1311,1716363456046607453,2060,2060,2066,2040,2058,2045,1193
1312,1716363456056608432,2063,2059,2054,2068,2099,2076,1196
1313,1716363456066609080,2066,2067,2061,2060,2056,2054,1196
1314,1716363456076608104,2052,2047,2030,2056,2057,2050,1196
1315,1716363456086609504,2056,2052,2046,2060,2045,2045,1193
1316,1716363456096611234,2050,2037,2000,2053,2053,2046,1195
1317,1716363456106609958,2061,2054,2028,2061,2051,2062,1196
1318,1716363456116609514,2060,2046,2024,2054,2121,2067,1195
1319,1716363456126610322,2055,2059,2084,2053,2043,2041,1194
1320,1716363456136610559,2062,2049,2026,2056,2057,2059,1198
1321,1716363456146611168,2048,2054,2060,2052,2047,2040,1193
1322,1716363456156611515,2057,2054,2016,2040,2059,2049,1195
1323,1716363456166611973,2053,2044,2029,2049,2051,2054,1196
1324,1716363456176611187,2050,2043,2032,2049,2048,2047,1195
1325,1716363456186612487,2050,2053,2066,2064,2031,2066,1196
1326,1716363456196615280,2052,2052,2047,2080,2070,2059,1196
1327,1716363456206613232,2062,2048,2043,2058,2036,2056,1198
1328,1716363456216613730,2055,2072,2109,2070,2073,2067,1195
1329,1716363456226613166,2057,2055,2047,2056,2056,2049,1196
1330,1716363456236614074,2053,2043,2041,2059,2062,2060,1196
1331,1716363456246597319,2056,2044,2048,2065,2057,2061,1195
1332,1716363456256619768,2057,2054,2028,2051,2045,2018,1195
1333,1716363456266619044,2058,2056,2063,2050,2030,2049,1193
1334,1716363456276614522,2057,2056,2053,2052,2054,2060,1196
1335,1716363456286597767,2052,2052,2077,2052,2045,2047,1194
1336,1716363456296597533,2056,2052,2040,2061,2064,2071,1193
1337,1716363456306598522,2058,2066,2088,2067,2038,2045,1192
1338,1716363456316618556,2064,2060,2046,2056,2049,2060,1194
1339,1716363456326601310,2060,2067,2064,2066,2042,2052,1195
1340,1716363456336600315,2060,2069,2045,2064,2066,2059,1197
1341,1716363456346617835,2057,2066,2120,2062,2055,2055,1196
1342,1716363456356617090,2056,2047,2029,2052,2050,2059,1195
1343,1716363456366604964,2056,2053,2050,2040,2034,2046,1194
1344,1716363456376600141,2060,2062,2062,2060,2059,2058,1196
1345,1716363456386601000,2062,2072,2098,2037,2036,2032,1193
1346,1716363456396601728,2060,2094,2215,2076,2066,2059,1196
1347,1716363456406605633,2047,2042,2029,2047,2053,2044,1192
1348,1716363456416601562,2066,2072,2113,2068,2069,2063,1197
1349,1716363456426625854,2060,2048,2056,2061,2068,2044,1192
1350,1716363456436623196,2053,2053,2080,2057,2056,2054,1195
1351,1716363456446601031,2050,2044,2036,2072,2076,2043,1193
1352,1716363456456599956,2059,2054,2060,2068,2058,2064,1195
1353,1716363456466600433,2056,2052,2027,2060,2042,2043,1189
1354,1716363456476604277,2057,2061,2056,2055,2058,2063,1195
1355,1716363456486603883,2061,2050,2011,2045,2063,2050,1197
1356,1716363456496606425,2053,2051,2074,2056,2053,2079,1196
1357,1716363456506605420,2054,2042,2046,2052,2060,2052,1196
1358,1716363456516603352,2058,2056,2051,2053,2062,2053,1196
1359,1716363456526632755,2059,2066,2165,2068,2062,2043,1192
1360,1716363456536607494,2046,2045,2044,2056,2077,2056,1197
1361,1716363456546607400,2059,2056,2063,2056,2076,2049,1196
1362,1716363456556606796,2052,2060,2094,2046,2057,2052,1195
1363,1716363456566608045,2058,2067,2128,2070,2056,2055,1199
1364,1716363456576606058,2050,2060,2058,2052,2054,2056,1200
1365,1716363456586605915,2062,2057,2042,2067,2056,2021,1194
1366,1716363456596604198,2061,2061,2089,2072,2059,2061,1196
1367,1716363456606607902,2053,2045,2040,2057,2072,2044,1193
1368,1716363456616579805,2055,2049,2056,2049,2040,2045,1193
1369,1716363456626631310,2068,2066,2029,2057,2044,2032,1194
1370,1716363456636602853,2054,2050,2055,2055,2058,2054,1197
1371,1716363456646603941,2058,2048,2047,2045,2036,2044,1192
1372,1716363456656602606,2059,2056,2078,2065,2062,2062,1197
1373,1716363456666604125,2057,2054,2041,2062,2040,2052,1196
1374,1716363456676606316,2044,2038,2004,2046,2056,2064,1195
1375,1716363456686599670,2045,2044,2016,2044,2037,2040,1195
1376,1716363456696602733,2047,2049,2046,2049,2052,2051,1195
1377,1716363456706603431,2044,2044,2020,2026,2036,2044,1194
1378,1716363456716630308,2060,2054,2064,2059,2063,2064,1194
1379,1716363456726634253,2059,2051,2042,2053,2024,2032,1195
1380,1716363456736599844,2056,2061,2138,2065,2045,2050,1196
1381,1716363456746599851,2054,2045,2052,2045,2034,2061,1196
1382,1716363456756604877,2068,2076,2062,2053,2062,2057,1198
1383,1716363456766601608,2044,2051,2044,2057,2058,2044,1194
1384,1716363456776609109,2057,2068,2108,2064,2053,2059,1198
1385,1716363456786587034,2050,2047,2033,2036,2045,2044,1193
1386,1716363456796596578,2056,2062,2069,2074,2052,2045,1193
1387,1716363456806606383,2054,2048,2089,2058,2064,2049,1196
1388,1716363456816603976,2055,2056,2074,2056,2051,2054,1198
1389,1716363456826618450,2050,2056,2043,2052,2059,2058,1194
1390,1716363456836603769,2049,2052,2057,2052,2042,2048,1195
1391,1716363456846607453,2055,2054,2041,2057,2057,2061,1197
1392,1716363456856606689,2053,2048,2036,2032,2049,2032,1195
1393,1716363456866605352,2056,2044,2029,2040,2046,2040,1192
1394,1716363456876607874,2045,2041,2008,2052,2047,2053,1196
1395,1716363456886605556,2044,2047,2022,2050,2053,2043,1192
1396,1716363456896604672,2054,2056,2056,2052,2053,2054,1196
1397,1716363456906606221,2064,2054,2059,2061,2046,2049,1194
1398,1716363456916605857,2056,2064,2093,2047,2060,2062,1196
1399,1716363456926638526,2052,2047,2043,2058,2040,2044,1192
1400,1716363456936604538,2046,2046,2044,2060,2050,2082,1196
1401,1716363456946605877,2054,2050,2048,2035,2054,2052,1193
1402,1716363456956604892,2050,2040,2025,2050,2048,2043,1193
1403,1716363456966605190,2061,2056,2040,2055,2033,2035,1192
1404,1716363456976608102,2056,2045,2043,2044,2046,2046,1193
1405,1716363456986604942,2061,2053,2052,2061,2060,2046,1192
1406,1716363456996600080,2065,2057,2036,2046,2049,2046,1193
1407,1716363457006600057,2052,2052,2048,2049,2033,2060,1196
1408,1716363457016602688,2043,2056,2012,2053,2054,2069,1195
1409,1716363457026618946,2054,2049,2044,2037,2046,2062,1196
1410,1716363457036597323,2052,2053,2045,2061,2053,2052,1196
1411,1716363457046602519,2054,2053,2027,2050,2048,2044,1193
1412,1716363457056602195,2060,2072,2104,2069,2084,2049,1197
1413,1716363457066600920,2058,2060,2075,2054,2037,2054,1196
1414,1716363457076621665,2059,2050,2046,2053,2054,2068,1194
1415,1716363457086608267,2060,2056,2049,2060,2044,2048,1195
1416,1716363457096600479,2054,2048,2024,2056,2060,2060,1197
1417,1716363457106604774,2063,2049,2032,2054,2052,2078,1195
1418,1716363457116606364,2056,2067,2131,2049,2073,2063,1194
1419,1716363457126626389,2064,2067,2079,2052,2046,2052,1196
1420,1716363457136603392,2050,2046,2045,2056,2049,2055,1197
1421,1716363457146609200,2062,2050,2041,2053,2036,2044,1192
1422,1716363457156602644,2046,2043,2026,2052,2086,2074,1196
1423,1716363457166603904,2067,2068,2053,2057,2035,2053,1197
1424,1716363457176607849,2056,2062,2104,2054,2055,2060,1197
1425,1716363457186599409,2056,2047,2031,2053,2054,2056,1196
1426,1716363457196609876,2062,2044,2021,2040,2046,2056,1195
1427,1716363457206605965,2062,2064,2093,2056,2040,2052,1195
1428,1716363457216605361,2056,2056,2041,2054,2041,2056,1196
1429,1716363457226606239,2056,2048,2035,2052,2042,2054,1195
1430,1716363457236606476,2056,2056,2061,2052,2045,2043,1193
1431,1716363457246616262,2056,2057,2116,2053,2048,2050,1194
1432,1716363457256605910,2052,2062,2090,2070,2067,2056,1196
1433,1716363457266604794,2058,2056,2045,2066,2046,2049,1193
1434,1716363457276606163,2054,2044,2018,2052,2064,2060,1195
1435,1716363457286605439,2059,2068,2093,2084,2108,2047,1193
1436,1716363457296635673,2047,2048,2053,2045,2053,2052,1195
1437,1716363457306606675,2050,2051,2045,2054,2053,2045,1192
1438,1716363457316580172,2054,2061,2086,2057,2031,2035,1193
1439,1716363457326602350,2060,2072,2149,2068,2058,2038,1195
1440,1716363457336603460,2066,2074,2065,2058,2054,2052,1197
1441,1716363457346609618,2056,2069,2088,2065,2057,2046,1193
1442,1716363457356596330,2053,2052,2072,2056,2056,2058,1196
1443,1716363457366576389,2058,2049,2011,2052,2047,2040,1193
1444,1716363457376604559,2053,2052,2049,2053,2050,2056,1196
1445,1716363457386601560,2051,2048,2025,2058,2054,2064,1195
1446,1716363457396610604,2055,2045,2033,2047,2046,2057,1197
1447,1716363457406598278,2056,2069,2056,2074,2088,2052,1193
1448,1716363457416601090,2060,2059,2060,2053,2050,2037,1194
1449,1716363457426601167,2066,2059,2042,2053,2051,2048,1195
1450,1716363457436602766,2065,2064,2042,2062,2081,2060,1194
1451,1716363457446623282,2056,2053,2041,2059,2037,2038,1195
1452,1716363457456596488,2052,2047,2061,2053,2054,2056,1197
1453,1716363457466602046,2056,2053,2034,2046,2047,2044,1192
1454,1716363457476601412,2058,2052,2028,2058,2069,2041,1195
1455,1716363457486600577,2068,2052,2046,2051,2049,2053,1195
1456,1716363457496598369,2053,2047,2022,2043,2041,2041,1194
1457,1716363457506600971,2057,2060,2057,2049,2049,2050,1194
1458,1716363457516603292,2046,2049,2030,2056,2049,2045,1193
1459,1716363457526605924,2071,2076,2076,2069,2053,2051,1196
1460,1716363457536604429,2058,2057,2043,2069,2097,2059,1195
1461,1716363457546603925,2064,2052,2042,2062,2053,2049,1196
1462,1716363457556604302,2056,2056,2052,2056,2093,2054,1197
1463,1716363457566604539,2059,2070,2044,2056,2038,2050,1195
1464,1716363457576602532,2057,2064,2105,2067,2066,2059,1196
1465,1716363457586602038,2059,2056,2076,2057,2062,2026,1195
1466,1716363457596600772,2054,2054,2047,2072,2058,2054,1197
1467,1716363457606616559,2056,2054,2037,2049,2062,2061,1197
1468,1716363457616604163,2056,2050,2066,2056,2046,2054,1196
1469,1716363457626606043,2056,2056,2040,2065,2053,2048,1197
1470,1716363457636604417,2060,2061,2078,2058,2042,2054,1195
1471,1716363457646606738,2059,2052,2025,2056,2043,2049,1197
1472,1716363457656605272,2053,2044,2033,2057,2066,2068,1195
1473,1716363457666644153,2052,2047,2030,2051,2073,2068,1196
1474,1716363457676606178,2053,2052,2057,2050,2045,2056,1196
1475,1716363457686606766,2062,2062,2094,2071,2043,2050,1196
1476,1716363457696602394,2064,2052,2040,2058,2063,2057,1195
1477,1716363457706604565,2063,2058,2082,2053,2036,2051,1195
1478,1716363457716604081,2052,2050,2082,2052,2040,2050,1195
1479,1716363457726610249,2054,2052,2029,2051,2049,2065,1196
1480,1716363457736605467,2052,2056,2031,2058,2053,2080,1196
1481,1716363457746609572,2050,2056,2095,2053,2049,2052,1197
1482,1716363457756620620,2052,2052,2043,2037,2042,2059,1193
1483,1716363457766609355,2058,2065,2121,2058,2056,2055,1197
1484,1716363457776609703,2056,2045,2032,2054,2056,2063,1198
1485,1716363457786610311,2056,2054,2062,2052,2037,2052,1196
1486,1716363457796608935,2052,2047,2042,2050,2041,2057,1196
1487,1716363457806610946,2056,2052,2044,2061,2054,2050,1195
1488,1716363457816614390,2056,2054,2049,2039,2044,2045,1193
1489,1716363457826611741,2056,2078,2154,2074,2057,2058,1195
1490,1716363457836614583,2063,2064,2053,2064,2037,2056,1193
1491,1716363457846613418,2065,2064,2034,2058,2053,2053,1198
1492,1716363457856610299,2048,2050,2035,2067,2072,2072,1194
1493,1716363457866610616,2060,2064,2041,2072,2075,2058,1194
1494,1716363457876611374,2056,2049,2024,2060,2072,2052,1195
1495,1716363457886614107,2064,2046,2037,2052,2049,2046,1194
1496,1716363457896610186,2065,2068,2056,2069,2106,2062,1194
1497,1716363457906613780,2047,2033,1992,2036,2045,2056,1194
1498,1716363457916617494,2047,2053,2029,2052,2048,2054,1194
1499,1716363457926615687,2059,2056,2054,2050,2045,2052,1195
1500,1716363457936615664,2052,2054,2047,2061,2059,2066,1197
1501,1716363457946612515,2057,2052,2043,2062,2056,2052,1196
1502,1716363457956614184,2056,2051,2069,2053,2045,2046,1193
1503,1716363457966614532,2062,2052,2074,2046,2028,2044,1194
1504,1716363457976639997,2067,2064,2104,2053,2037,2052,1195
1505,1716363457986600140,2064,2055,2040,2054,2050,2045,1194
1506,1716363457996666582,2046,2045,2064,2045,2043,2058,1195
1507,1716363458006602438,2063,2062,2027,2062,2072,2064,1198
1508,1716363458016616751,2059,2072,2118,2061,2073,2059,1198
1509,1716363458026603133,2054,2049,2032,2052,2051,2046,1194
1510,1716363458036602689,2053,2058,2077,2058,2047,2075,1198
1511,1716363458046604329,2055,2048,2024,2054,2049,2056,1195
1512,1716363458056601390,2057,2057,2005,2030,2052,2068,1195
1513,1716363458066601628,2061,2072,2094,2070,2074,2056,1196
1514,1716363458076601785,2047,2044,1995,2052,2072,2053,1197
1515,1716363458086601982,2055,2068,2069,2070,2080,2060,1197
1516,1716363458096604264,2056,2053,2060,2050,2052,2056,1196
1517,1716363458106557663,2056,2052,2048,2050,2052,2044,1192
1518,1716363458116603426,2055,2057,2050,2058,2052,2043,1192
1519,1716363458126602231,2061,2056,2036,2052,2045,2052,1194
1520,1716363458136601516,2052,2043,2010,2052,2051,2050,1195
1521,1716363458146604229,2064,2057,2046,2048,2052,2060,1198
1522,1716363458156601621,2043,2038,2018,2050,2046,2046,1195
1523,1716363458166566151,2064,2060,2074,2064,2065,2053,1198
1524,1716363458176604810,2057,2056,2065,2058,2050,2057,1197
1525,1716363458186608525,2056,2053,2059,2058,2054,2029,1194
1526,1716363458196597511,2057,2053,2077,2051,2057,2056,1196
1527,1716363458206628697,2057,2056,2073,2056,2057,2047,1194
1528,1716363458216609036,2049,2053,2037,2056,2052,2048,1195
1529,1716363458226596249,2057,2058,2035,2053,2050,2062,1197
1530,1716363458236604352,2049,2048,2077,2058,2069,2056,1197
1531,1716363458246602325,2056,2042,2019,2052,2044,2056,1195
1532,1716363458256621488,2049,2051,2052,2064,2051,2047,1196
1533,1716363458266604683,2061,2050,2051,2052,2044,2041,1194
1534,1716363458276597837,2056,2048,2069,2052,2050,2053,1196
1535,1716363458286605759,2062,2072,2128,2070,2078,2072,1195
1536,1716363458296604153,2054,2045,2033,2044,2042,2047,1193
1537,1716363458306610311,2056,2057,2066,2064,2054,2047,1193
1538,1716363458316607442,2056,2051,2044,2051,2040,2053,1196
1539,1716363458326605146,2056,2060,2033,2062,2047,2056,1196
1540,1716363458336613398,2054,2061,2076,2046,2058,2060,1196
1541,1716363458346608055,2064,2065,2072,2060,2061,2061,1195
1542,1716363458356599946,2049,2046,2025,2052,2052,2061,1194
1543,1716363458366602669,2060,2057,2048,2053,2050,2064,1197
1544,1716363458376602676,2047,2053,2038,2053,2047,2040,1195
1545,1716363458386624243,2052,2057,2038,2053,2052,2061,1197
1546,1716363458396602319,2050,2043,2024,2052,2047,2056,1197
1547,1716363458406602035,2062,2057,2056,2056,2045,2047,1193
1548,1716363458416601762,2056,2043,2014,2056,2037,2026,1195
1549,1716363458426602771,2055,2064,2085,2052,2051,2068,1196
1550,1716363458436601124,2053,2049,2054,2064,2058,2062,1196
1551,1716363458446605570,2052,2051,2049,2064,2080,2056,1195
1552,1716363458456604505,2065,2064,2048,2060,2060,2069,1198
1553,1716363458466614280,2050,2046,2021,2045,2045,2046,1191
1554,1716363458476601122,2058,2060,2040,2066,2068,2058,1198
1555,1716363458486604346,2053,2058,2081,2052,2036,2044,1193
1556,1716363458496604253,2057,2076,2145,2077,2057,2072,1195
1557,1716363458506604890,2056,2057,2106,2059,2065,2060,1196
1558,1716363458516602412,2048,2051,2056,2024,2040,2051,1196
1559,1716363458526606157,2064,2073,2123,2068,2060,2065,1196
1560,1716363458536606865,2051,2052,2037,2049,2055,2047,1193
1561,1716363458546606291,2062,2072,2114,2054,2035,2043,1193
1562,1716363458556601408,2057,2061,2100,2061,2057,2061,1196
1563,1716363458566606204,2063,2056,2073,2064,2081,2083,1197
1564,1716363458576629306,2059,2062,2071,2043,2044,2028,1194
1565,1716363458586603934,2068,2065,2128,2064,2049,2055,1195
1566,1716363458596603009,2047,2044,2033,2056,2058,2047,1193
1567,1716363458606603758,2060,2056,2050,2066,2047,2052,1195
1568,1716363458616606770,2061,2062,2102,2068,2058,2058,1196
1569,1716363458626602029,2063,2076,2138,2068,2054,2047,1195
1570,1716363458636604400,2064,2052,2064,2047,2050,2053,1196
1571,1716363458646621078,2066,2063,2068,2057,2057,2053,1197
1572,1716363458656602620,2057,2054,2027,2053,2056,2066,1197
1573,1716363458666602938,2060,2050,2023,2048,2056,2056,1196
1574,1716363458676606802,2060,2057,2044,2056,2061,2056,1195
1575,1716363458686604094,2067,2066,2057,2066,2083,2061,1197
1576,1716363458696603520,2050,2045,2029,2060,2051,2041,1193
1577,1716363458706605110,2068,2073,2074,2068,2060,2050,1196
1578,1716363458716607492,2056,2052,2036,2059,2061,2042,1193
1579,1716363458726602809,2061,2064,2075,2056,2037,2048,1197
1580,1716363458736601985,2052,2055,2078,2054,2040,2046,1195
1581,1716363458746605398,2053,2052,2035,2053,2068,2046,1194
1582,1716363458756605506,2064,2052,2042,2052,2049,2051,1196
1583,1716363458766603068,2066,2059,2089,2065,2057,2053,1197
1584,1716363458776647258,2057,2054,2045,2053,2053,2026,1194
1585,1716363458786606689,2063,2066,2109,2060,2041,2044,1194
1586,1716363458796602258,2054,2046,2022,2057,2042,2043,1194
1587,1716363458806607775,2054,2052,2033,2059,2050,2056,1198
1588,1716363458816610306,2059,2065,2090,2064,2079,2050,1197
1589,1716363458826603861,2057,2052,2040,2043,2040,2052,1197
1590,1716363458836604079,2060,2046,2024,2058,2049,2062,1196
1591,1716363458846601962,2058,2049,2040,2056,2044,2013,1194
1592,1716363458856600576,2056,2051,2025,2049,2049,2050,1197
1593,1716363458866609500,2060,2056,2066,2046,2043,2041,1192
1594,1716363458876613895,2058,2057,2038,2064,2046,2064,1196
1595,1716363458886605336,2052,2044,2031,2056,2066,2061,1195
1596,1716363458896603940,2056,2065,2080,2064,2074,2056,1194
1597,1716363458906603195,2051,2059,2077,2056,2045,2054,1197
1598,1716363458916606349,2052,2050,2069,2045,2059,2065,1197
1599,1716363458926604422,2054,2050,2060,2068,2053,2045,1192
1600,1716363458936605250,2050,2049,2049,2056,2058,2047,1193
1601,1716363458946602201,2056,2048,2032,2046,2031,2058,1195
1602,1716363458956601437,2057,2052,2053,2053,2032,2053,1195
1603,1716363458966604660,2062,2068,2093,2056,2058,2050,1194
1604,1716363458976618974,2053,2057,2089,2045,2048,2061,1196
1605,1716363458986603221,2053,2058,2103,2065,2068,2064,1198
1606,1716363458996601515,2052,2060,2057,2047,2047,2062,1197
1607,1716363459006601913,2056,2044,2003,2060,2066,2046,1193
1608,1716363459016601920,2051,2046,2018,2043,2036,2056,1196
1609,1716363459026604301,2058,2057,2068,2060,2060,2048,1196
1610,1716363459036604639,2057,2056,2056,2061,2064,2056,1195
1611,1716363459046605608,2054,2053,2038,2060,2058,2052,1196
1612,1716363459056602419,2050,2045,2042,2051,2060,2034,1195
1613,1716363459066603769,2061,2069,2123,2069,2068,2045,1191
1614,1716363459076611831,2062,2062,2100,2060,2060,2047,1195
1615,1716363459086603923,2042,2035,1997,2050,2056,2044,1193
1616,1716363459096601686,2045,2045,2041,2060,2048,2043,1195
1617,1716363459106607133,2064,2081,2168,2067,2049,2046,1194
1618,1716363459116607060,2051,2053,2052,2048,2053,2080,1196
1619,1716363459126603370,2065,2076,2108,2058,2049,2050,1195
1620,1716363459136605161,2060,2060,2060,2066,2088,2056,1196
1621,1716363459146602803,2056,2057,2037,2057,2053,2056,1196
1622,1716363459156602751,2052,2056,2042,2061,2056,2036,1194
1623,1716363459166604190,2059,2057,2046,2068,2061,2056,1196
1624,1716363459176601071,2050,2044,2017,2049,2049,2039,1195
1625,1716363459186601810,2052,2056,2032,2057,2040,2045,1196
1626,1716363459196579465,2048,2040,2030,2058,2048,2053,1196
1627,1716363459206605220,2052,2045,2033,2048,2047,2057,1195
1628,1716363459216602443,2056,2081,2160,2061,2057,2066,1199
1629,1716363459226608471,2058,2045,2056,2052,2040,2037,1195
1630,1716363459236606003,2053,2047,2049,2048,2048,2045,1194
1631,1716363459246635215,2056,2053,2056,2050,2053,2045,1193
1632,1716363459256601789,2054,2049,2037,2044,2036,2031,1193
1633,1716363459266607136,2049,2052,2034,2066,2051,2053,1194
1634,1716363459276629446,2045,2044,2034,2052,2046,2053,1194
1635,1716363459286607982,2054,2053,2032,2057,2041,2048,1196
1636,1716363459296608229,2050,2042,2004,2045,2029,2037,1194
1637,1716363459306605812,2056,2048,2040,2050,2041,2042,1194
1638,1716363459316609807,2051,2051,2033,2054,2053,2067,1197
1639,1716363459326606107,2056,2075,2120,2068,2062,2070,1196
1640,1716363459336602097,2057,2043,2015,2049,2046,2056,1198
1641,1716363459346603516,2064,2046,2021,2050,2055,2053,1195
1642,1716363459356602501,2056,2062,2132,2070,2123,2062,1197
1643,1716363459366604071,2053,2054,2068,2032,2037,2046,1195
1644,1716363459376603327,2046,2046,2050,2056,2040,2035,1195
1645,1716363459386604616,2056,2056,2058,2048,2041,2064,1196
1646,1716363459396610184,2056,2045,2048,2048,2044,2046,1193
1647,1716363459406607686,2074,2080,2153,2057,2051,2052,1197
1648,1716363459416601401,2068,2076,2090,2071,2081,2052,1197
1649,1716363459426607550,2053,2054,2075,2056,2040,2049,1197
1650,1716363459436602808,2055,2052,2050,2054,2056,2055,1197
1651,1716363459446604238,2055,2044,2022,2056,2064,2047,1195
1652,1716363459456573256,2057,2054,2026,2059,2060,2074,1197
1653,1716363459466607959,2047,2042,2046,2058,2076,2057,1195
1654,1716363459476590513,2050,2052,2054,2057,2055,2049,1195
1655,1716363459486604837,2056,2060,2084,2061,2056,2044,1193
1656,1716363459496625985,2049,2037,1997,2048,2047,2047,1193
1657,1716363459506609300,2056,2053,2037,2067,2065,2053,1195
1658,1716363459516604988,2050,2046,2008,2041,2043,2036,1193
1659,1716363459526604776,2058,2058,2046,2058,2052,2056,1196
1660,1716363459536604532,2050,2049,2056,2052,2052,2049,1196
1661,1716363459546604760,2058,2060,2051,2041,2065,2054,1197
1662,1716363459556604086,2053,2056,2053,2058,2042,2045,1196
1663,1716363459566612338,2051,2054,2057,2059,2061,2058,1194
1664,1716363459576605602,2049,2061,2049,2056,2065,2046,1193
1665,1716363459586611741,2076,2112,2218,2079,2064,2055,1197
1666,1716363459596635834,2047,2040,2002,2056,2069,2054,1194
1667,1716363459606603259,2064,2058,2057,2062,2060,2061,1197
1668,1716363459616607765,2058,2062,2057,2036,2041,2056,1197
1669,1716363459626602993,2058,2043,1993,2048,2050,2050,1196
1670,1716363459636601807,2056,2044,2034,2050,2047,2044,1193
1671,1716363459646602887,2058,2048,2037,2043,2031,2048,1197
1672,1716363459656603505,2058,2050,2053,2052,2049,2045,1195
1673,1716363459666608021,2065,2056,2083,2061,2047,2024,1193
1674,1716363459676603179,2048,2043,2030,2052,2052,2057,1197
1675,1716363459686601603,2064,2075,2076,2064,2056,2053,1196
1676,1716363459696623741,2056,2058,2104,2055,2048,2056,1196
1677,1716363459706606216,2055,2056,2043,2053,2046,2057,1196
1678,1716363459716608998,2058,2053,2043,2024,2042,2042,1192
1679,1716363459726607753,2064,2101,2171,2093,2084,2057,1197
1680,1716363459736605075,2042,2040,2030,2041,2045,2042,1193
1681,1716363459746606244,2067,2086,2165,2090,2077,2080,1196
1682,1716363459756604207,2058,2062,2057,2061,2061,2062,1196
1683,1716363459766608983,2064,2064,2068,2082,2069,2063,1198
1684,1716363459776605243,2054,2044,2040,2050,2075,2067,1197
1685,1716363459786606423,2055,2048,2040,2057,2045,2043,1193
1686,1716363459796631277,2058,2054,2081,2058,2056,2049,1197
1687,1716363459806606346,2071,2075,2144,2068,2064,2068,1195
1688,1716363459816607555,2057,2054,2037,2059,2049,2059,1197
1689,1716363459826606391,2062,2069,2053,2064,2049,2074,1198
1690,1716363459836603843,2058,2050,2061,2050,2047,2049,1198
1691,1716363459846604811,2054,2043,2019,2054,2060,2047,1196
1692,1716363459856605310,2049,2054,2043,2048,2036,2050,1196
1693,1716363459866603042,2057,2052,2016,2056,2049,2053,1196
1694,1716363459876601466,2056,2045,1995,2049,2051,2058,1197
1695,1716363459886603017,2052,2051,2050,2056,2068,2056,1195
1696,1716363459896621919,2052,2045,2031,2056,2053,2054,1195
1697,1716363459906606908,2057,2058,2054,2063,2056,2016,1192
1698,1716363459916606865,2070,2082,2172,2069,2056,2053,1197
1699,1716363459926604417,2056,2050,2041,2050,2056,2052,1197
1700,1716363459936604504,2056,2060,2084,2058,2051,2046,1193
1701,1716363459946605634,2049,2053,2089,2053,2046,2062,1195
1702,1716363459956604539,2052,2064,2133,2053,2047,2050,1197
1703,1716363459966606499,2060,2060,2107,2041,2045,2075,1196
1704,1716363459976605605,2057,2056,2074,2057,2051,2052,1198
1705,1716363459986607155,2051,2048,2038,2056,2061,2061,1198
1706,1716363459996623162,2060,2095,2148,2075,2046,2063,1196
1707,1716363460006606468,2053,2040,2016,2045,2056,2065,1195
1708,1716363460016608679,2054,2053,2055,2056,2053,2044,1194
1709,1716363460026607033,2058,2056,2059,2056,2059,2052,1198
1710,1716363460036607872,2047,2049,2023,2048,2026,2037,1195
1711,1716363460046608009,2056,2061,2037,2064,2030,2056,1196
1712,1716363460056608328,2056,2043,2013,2050,2043,2043,1193
1713,1716363460066609677,2058,2070,2075,2059,2064,2061,1193
1714,1716363460076608452,2053,2060,2076,2055,2055,2054,1197
1715,1716363460086610964,2069,2060,2038,2062,2060,2052,1197
1716,1716363460096626810,2060,2056,2048,2056,2065,2089,1196
1717,1716363460106611159,2064,2059,2080,2056,2060,2058,1197
1718,1716363460116609973,2050,2050,2040,2057,2061,2056,1195
1719,1716363460126610812,2056,2045,2037,2049,2038,2056,1197
1720,1716363460136610559,2067,2080,2163,2065,2039,2054,1194
1721,1716363460146611378,2041,2049,2056,2053,2040,2041,1192
1722,1716363460156628988,2044,2045,2031,2043,2045,2037,1193
1723,1716363460166612083,2056,2048,2059,2050,2052,2046,1193
1724,1716363460176612010,2051,2045,2031,2052,2049,2056,1198
1725,1716363460186612538,2060,2048,2028,2049,2066,2081,1196
1726,1716363460196612336,2049,2048,2045,2049,2067,2054,1197
1727,1716363460206612493,2058,2062,2078,2068,2089,2069,1195
1728,1716363460216612510,2052,2063,2093,2028,2043,2048,1197
1729,1716363460226613138,2058,2054,2065,2058,2046,2046,1196
1730,1716363460236613165,2054,2061,2031,2056,2044,2076,1196
1731,1716363460246611670,2060,2059,2085,2064,2048,2049,1197
1732,1716363460256613871,2054,2059,2072,2052,2043,2052,1193
1733,1716363460266614289,2065,2050,2063,2067,2060,2051,1194
1734,1716363460276614246,2048,2048,2029,2057,2060,2056,1195
1735,1716363460286614754,2056,2046,2048,2056,2056,2060,1195
1736,1716363460296630401,2045,2053,2070,2051,2040,2044,1194
1737,1716363460306615800,2052,2047,2034,2062,2057,2049,1195
1738,1716363460316616319,2058,2064,2080,2037,2046,2042,1194
1739,1716363460326616676,2055,2049,2027,2052,2051,2050,1195
1740,1716363460336618478,2046,2043,2008,2047,2053,2050,1196
1741,1716363460346617583,2056,2049,2040,2054,2070,2048,1195
1742,1716363460356617539,2050,2052,2054,2054,2040,2050,1198
1743,1716363460366601677,2044,2046,2051,2056,2080,2048,1193
1744,1716363460376623265,2040,2046,2030,2040,2041,2047,1196
1745,1716363460386621699,2062,2076,2156,2074,2056,2040,1193
1746,1716363460396602820,2064,2067,2045,2050,2044,2033,1194
1747,1716363460406620953,2061,2063,2080,2063,2064,2043,1193
1748,1716363460416620448,2058,2065,2062,2056,2042,2042,1192
1749,1716363460426603203,2062,2054,2088,2068,2062,2053,1196
1750,1716363460436604082,2049,2067,2102,2060,2058,2073,1196
1751,1716363460446605121,2056,2048,2040,2052,2056,2060,1197
1752,1716363460456604627,2050,2049,2036,2042,2040,2037,1195
1753,1716363460466604404,2060,2055,2024,2052,2064,2052,1193
1754,1716363460476604341,2060,2062,2058,2059,2036,2052,1197
1755,1716363460486602865,2058,2053,2052,2056,2051,2042,1193
1756,1716363460496630775,2051,2046,2009,2043,2045,2047,1196
1757,1716363460506602639,2056,2050,1988,2044,2046,2041,1193
1758,1716363460516602536,2048,2043,2011,2048,2050,2052,1197
1759,1716363460526603085,2052,2048,2049,2051,2057,2058,1195
1760,1716363460536602671,2052,2051,2029,2056,2049,2049,1197
1761,1716363460546603540,2053,2049,2024,2049,2049,2049,1195
1762,1716363460556601142,2065,2048,2008,2057,2045,2058,1197
1763,1716363460566606600,2056,2056,2042,2056,2058,2060,1197
1764,1716363460576605345,2050,2058,2040,2053,2047,2052,1198
1765,1716363460586602075,2052,2065,2128,2073,2066,2068,1196
1766,1716363460596604107,2048,2043,2016,2058,2069,2050,1198
1767,1716363460606603522,2064,2065,2086,2068,2057,2062,1195
1768,1716363460616599903,2058,2073,2121,2068,2041,2052,1196
1769,1716363460626603547,2056,2064,2082,2059,2066,2058,1198
1770,1716363460636600258,2049,2038,2004,2046,2043,2056,1197
1771,1716363460646601908,2058,2048,2018,2056,2064,2057,1196
1772,1716363460656603368,2060,2057,2071,2056,2053,2049,1195
1773,1716363460666605600,2053,2054,2036,2052,2041,2046,1192
1774,1716363460676601920,2048,2037,2033,2047,2025,2033,1193
1775,1716363460686603219,2056,2046,2020,2044,2057,2058,1196
1776,1716363460696632863,2048,2041,2017,2049,2053,2055,1193
1777,1716363460706606289,2061,2043,1997,2055,2065,2074,1197
1778,1716363460716602350,2052,2047,2013,2044,2074,2048,1194
1779,1716363460726604951,2072,2051,2040,2062,2064,2060,1197
1780,1716363460736601142,2047,2049,2034,2040,2042,2045,1195
1781,1716363460746604775,2058,2062,2067,2068,2062,2057,1195
1782,1716363460756602919,2052,2054,2051,2052,2045,2049,1196
1783,1716363460766604910,2069,2074,2056,2069,2081,2058,1194
1784,1716363460776602893,2047,2050,2056,2041,2031,2046,1194
1785,1716363460786603251,2060,2059,2052,2059,2054,2056,1197
1786,1716363460796626161,2055,2052,2044,2034,2041,2054,1198
1787,1716363460806605009,2064,2060,2074,2063,2063,2054,1197
1788,1716363460816601760,2060,2060,2097,2052,2059,2044,1195
1789,1716363460826604262,2054,2051,2045,2060,2073,2033,1193
1790,1716363460836601814,2064,2074,2088,2056,2041,2050,1197
1791,1716363460846618232,2056,2050,2036,2066,2073,2047,1196
1792,1716363460856600737,2025,2049,2036,2041,2025,2041,1195
1793,1716363460866602427,2052,2057,2049,2056,2058,2050,1194
1794,1716363460876604719,2054,2052,2065,2055,2038,2042,1193
1795,1716363460886601530,2056,2053,2088,2064,2086,2060,1196
1796,1716363460896622376,2048,2044,2024,2049,2042,2046,1193
1797,1716363460906603127,2052,2061,2115,2076,2077,2060,1196
1798,1716363460916601811,2051,2060,2050,2065,2037,2045,1195
1799,1716363460926603222,2056,2063,2074,2069,2077,2060,1195
1800,1716363460936604661,2056,2041,2056,2050,2056,2050,1198
1801,1716363460946605490,2055,2076,2168,2066,2077,2041,1194
1802,1716363460956602862,2060,2067,2093,2068,2058,2046,1196
1803,1716363460966603130,2057,2059,2060,2056,2056,2053,1196
1804,1716363460976601534,2073,2080,2091,2068,2043,2050,1197
1805,1716363460986603916,2058,2048,2046,2065,2084,2072,1198
1806,1716363460996629392,2056,2052,2013,2055,2039,2050,1196
1807,1716363461006604050,2057,2048,2022,2047,2060,2058,1197
1808,1716363461016602585,2052,2059,2078,2056,2044,2033,1195
1809,1716363461026605357,2057,2062,2080,2059,2068,2069,1197
1810,1716363461036554729,2052,2046,2040,2050,2018,2040,1194
1811,1716363461046620200,2061,2053,2056,2073,2082,2054,1199
1812,1716363461056606021,2052,2056,2077,2058,2040,2044,1194
1813,1716363461066606909,2056,2052,2064,2058,2057,2058,1197
1814,1716363461076602629,2053,2044,2050,2040,2042,2045,1193
1815,1716363461086608156,2056,2045,2015,2054,2059,2043,1194
1816,1716363461096616059,2054,2052,2058,2049,2048,2057,1196
1817,1716363461106602109,2054,2040,2016,2061,2065,2057,1196
1818,1716363461116603720,2054,2052,2045,2049,2043,2045,1194
1819,1716363461126601042,2062,2054,2047,2051,2064,2055,1196
1820,1716363461136601200,2058,2059,2096,2054,2041,2054,1195
1821,1716363461146606947,2066,2048,2036,2080,2045,2073,1196
1822,1716363461156624028,2056,2047,2033,2058,2050,2048,1195
1823,1716363461166597394,2056,2052,2040,2066,2064,2062,1197
1824,1716363461176600347,2041,2037,2020,2052,2046,2045,1195
1825,1716363461186601447,2057,2052,2029,2068,2072,2061,1195
1826,1716363461196601123,2049,2063,2077,1984,2037,2060,1196
1827,1716363461206602253,2056,2053,2066,2051,2064,2079,1196
1828,1716363461216601779,2052,2057,2098,2065,2052,2045,1194
1829,1716363461226605383,2042,2049,2062,2044,2053,2047,1194
1830,1716363461236601443,2049,2063,2093,2065,2068,2075,1196
1831,1716363461246606269,2058,2052,2023,2064,2068,2060,1196
1832,1716363461256600195,2047,2056,2072,2057,2044,2035,1194
1833,1716363461266603619,2056,2053,2057,2049,2048,2045,1193
1834,1716363461276601201,2064,2064,2052,2058,2072,2046,1194
1835,1716363461286606339,2056,2056,2036,2066,2058,2080,1196
1836,1716363461296605454,2058,2058,2048,2059,2043,2025,1195
1837,1716363461306603248,2065,2096,2208,2081,2073,2078,1197
1838,1716363461316602333,2056,2050,2055,2040,2044,2047,1194
1839,1716363461326603713,2061,2055,2042,2065,2062,2062,1196
1840,1716363461336602808,2059,2053,2045,2047,2040,2044,1193
1841,1716363461346607054,2053,2057,2031,2052,2055,2068,1195
1842,1716363461356601119,2051,2045,2038,2042,2031,2043,1196
1843,1716363461366604053,2051,2050,2054,2054,2053,2039,1194
1844,1716363461376602156,2058,2065,2121,2067,2068,2058,1198
1845,1716363461386605460,2046,2036,2002,2045,2056,2046,1195
1846,1716363461396600317,2054,2050,2042,2035,2051,2040,1196
1847,1716363461406602880,2066,2060,2044,2049,2053,2061,1196
1848,1716363461416599810,2050,2048,2036,2064,2046,2052,1197
1849,1716363461426609176,2058,2045,2021,2053,2059,2041,1196
1850,1716363461436601989,2060,2075,2126,2056,2041,2044,1193
1851,1716363461446609040,2063,2064,2068,2064,2071,2060,1196
1852,1716363461456604078,2044,2057,2104,2045,2044,2060,1197
1853,1716363461466603404,2064,2064,2096,2064,2056,2080,1195
1854,1716363461476599954,2056,2052,2053,2056,2031,2044,1195
1855,1716363461486601104,2054,2043,2072,2045,2058,2056,1196
1856,1716363461496628794,2052,2065,2073,2045,2076,2020,1193
1857,1716363461506604375,2056,2045,2031,2062,2074,2058,1197
1858,1716363461516603812,2052,2053,2052,2057,2047,2052,1196
1859,1716363461526599460,2062,2056,2056,2052,2062,2049,1193
1860,1716363461536603506,2056,2082,2189,2060,2040,2031,1196
1861,1716363461546605686,2060,2045,2034,2074,2121,2074,1196
1862,1716363461556601747,2052,2055,2046,2062,2038,2051,1198
1863,1716363461566602705,2069,2058,2061,2065,2063,2064,1196
1864,1716363461576603244,2044,2066,2136,2066,2040,2064,1197
1865,1716363461586601437,2050,2048,2041,2047,2066,2060,1197
1866,1716363461596603760,2047,2056,2068,2043,2056,2045,1196
1867,1716363461606602394,2060,2052,2040,2052,2053,2066,1197
1868,1716363461616602031,2050,2041,2053,2066,2031,2040,1195
1869,1716363461626609782,2060,2039,1970,2053,2061,2060,1199
1870,1716363461636602266,2052,2047,2040,2042,2032,2052,1198
1871,1716363461646603765,2061,2059,2046,2056,2056,2067,1195
1872,1716363461656607530,2053,2056,2065,2064,2029,2008,1196
1873,1716363461666602618,2066,2052,2006,2060,2072,2073,1194
1874,1716363461676602766,2060,2054,2034,2065,2046,2047,1193
1875,1716363461686603324,2066,2048,2008,2065,2060,2062,1197
1876,1716363461696621876,2045,2052,2074,2050,2033,2037,1193
1877,1716363461706605433,2057,2062,2062,2067,2063,2063,1195
1878,1716363461716603115,2053,2045,2037,2064,2049,2045,1193
1879,1716363461726629202,2066,2061,2046,2064,2073,2062,1198
1880,1716363461736577512,2050,2060,2090,2056,2033,2038,1193
1881,1716363461746608638,2060,2052,2057,2060,2066,2073,1198
1882,1716363461756603595,2058,2071,2068,2065,2045,2049,1197
1883,1716363461766602050,2052,2064,2077,2059,2058,2068,1196
1884,1716363461776606676,2041,2050,2024,2025,2046,2058,1198
1885,1716363461786607084,2057,2053,2026,2067,2064,2076,1196
1886,1716363461796634282,2041,2043,2052,2035,2048,2045,1193
1887,1716363461806612339,2054,2042,2022,2042,2060,2066,1196
1888,1716363461816614500,2055,2058,2028,2052,2061,2049,1197
1889,1716363461826614818,2050,2050,2052,2056,2068,2057,1196
1890,1716363461836613151,2056,2058,2094,2040,2037,2065,1197
1891,1716363461846612418,2050,2048,2049,2052,2063,2065,1197
1892,1716363461856611703,2057,2072,2123,2066,2056,2052,1198
1893,1716363461866612983,2057,2049,2073,2064,2068,2057,1196
1894,1716363461876613050,2057,2049,2070,2050,2026,2045,1193
1895,1716363461886614070,2052,2044,2027,2064,2063,2058,1196
1896,1716363461896634636,2050,2045,2038,2054,2044,2052,1198
1897,1716363461906613734,2052,2048,2041,2060,2061,2057,1198
1898,1716363461916613871,2024,2042,2062,2056,2076,2042,1193
1899,1716363461926614530,2053,2042,2053,2064,2058,2052,1197
1900,1716363461936611361,2050,2052,2045,2057,2053,2046,1193
1901,1716363461946611799,2057,2053,2109,2058,2074,2060,1198
1902,1716363461956615673,2066,2072,2091,2056,2052,2050,1196
1903,1716363461966616272,2060,2048,2045,2045,2065,2080,1196
1904,1716363461976616089,2051,2058,2044,2056,2044,2050,1197
1905,1716363461986617078,2066,2050,2050,2044,2070,2073,1196
1906,1716363461996622395,2054,2062,2085,2072,2092,2056,1197
1907,1716363462006617133,2045,2042,2035,2060,2069,2049,1197
1908,1716363462016617792,2041,2047,2049,2024,2029,2046,1193
1909,1716363462026620774,2060,2047,2026,2053,2075,2060,1196
1910,1716363462036617766,2054,2056,2030,2052,2040,2047,1196
1911,1716363462046618645,2057,2050,2052,2069,2077,2064,1197
1912,1716363462056619424,2048,2052,2050,2040,2037,2076,1198
1913,1716363462066634420,2056,2054,2068,2067,2062,2064,1196
1914,1716363462076619409,2052,2053,2056,2058,2041,2048,1197
1915,1716363462086622933,2053,2054,2047,2058,2074,2072,1196
1916,1716363462096633691,2062,2045,2024,2059,2078,2052,1196
1917,1716363462106606997,2056,2032,2010,2062,2073,2053,1195
1918,1716363462116603829,2053,2056,2092,2064,2040,2048,1195
1919,1716363462126606100,2058,2061,2073,2062,2072,2059,1197
1920,1716363462136605327,2059,2060,2044,2060,2057,2007,1193
1921,1716363462146608991,2049,2042,2033,2033,2046,2034,1192
1922,1716363462156634176,2052,2052,2054,2056,2037,2049,1196
1923,1716363462166604087,2053,2045,2046,2075,2066,2062,1198
1924,1716363462176604183,2052,2050,2040,2038,2040,2047,1194
1925,1716363462186603320,2067,2068,2096,2050,2068,2070,1198
1926,1716363462196604710,2040,2041,2045,2050,2034,2033,1194
1927,1716363462206600920,2056,2057,2039,2052,2060,2060,1198
1928,1716363462216600667,2043,2048,2053,2048,2032,2037,1194
1929,1716363462226603590,2062,2065,2125,2065,2070,2056,1195
1930,1716363462236603567,2057,2054,2029,2064,2058,2041,1193
1931,1716363462246603545,2060,2054,2046,2075,2077,2069,1193
1932,1716363462256602850,2060,2062,2074,2047,2038,2050,1196
1933,1716363462266604651,2072,2072,2121,2068,2053,2049,1196
1934,1716363462276601904,2056,2046,2047,2040,2028,2032,1192
1935,1716363462286602281,2060,2066,2072,2066,2056,2053,1195
1936,1716363462296605034,2046,2044,2021,2049,2034,2043,1193
1937,1716363462306589271,2049,2036,1994,2053,2057,2061,1198
1938,1716363462316603997,2048,2056,2084,2026,2028,2041,1194
1939,1716363462326606339,2055,2051,2049,2065,2060,2058,1197
1940,1716363462336603701,2054,2064,2084,2054,2034,2040,1193
1941,1716363462346602496,2058,2050,2068,2060,2058,2056,1194
1942,1716363462356604938,2050,2037,2020,2048,2050,2063,1198
1943,1716363462366603373,2063,2073,2106,2069,2068,2064,1195
1944,1716363462376602769,2043,2042,2026,2053,2050,2040,1193
1945,1716363462386604960,2062,2053,2026,2042,2104,2063,1197
1946,1716363462396602944,2047,2046,2034,2053,2038,2055,1196
1947,1716363462406604404,2050,2056,2060,2064,2059,2084,1194
1948,1716363462416603249,2063,2056,2050,2054,2049,2054,1196
1949,1716363462426600762,2056,2057,2084,2065,2077,2057,1196
1950,1716363462436672384,2050,2052,2044,2064,2042,2037,1193
1951,1716363462446613260,2061,2047,2012,2025,2064,2065,1196
1952,1716363462456615823,2061,2064,2082,2056,2036,2053,1197
1953,1716363462466614086,2056,2048,2018,2065,2060,2074,1195
1954,1716363462476615056,2050,2043,2030,2056,2056,2041,1193
1955,1716363462486616336,2061,2052,2053,2053,2064,2057,1195
1956,1716363462496616644,2057,2057,2064,2064,2068,2054,1195
1957,1716363462506620679,2049,2047,2033,2068,2074,2069,1195
1958,1716363462516613472,2061,2072,2130,2049,2036,2058,1196
1959,1716363462526618289,2064,2047,2044,2053,2067,2056,1197
1960,1716363462536617505,2045,2053,2064,2056,2037,2041,1194
1961,1716363462546617733,2053,2051,2037,2067,2081,2061,1195
1962,1716363462556617019,2055,2056,2094,2049,2039,2049,1197
1963,1716363462566619490,2079,2059,2024,2073,2084,2104,1195
1964,1716363462576615611,2042,2046,2015,2035,2028,2040,1195
1965,1716363462586616780,2060,2050,2041,2020,2064,2062,1197
1966,1716363462596618461,2053,2050,2072,2058,2040,2038,1194
1967,1716363462606612066,2063,2078,2156,2059,2089,2051,1197
1968,1716363462616613406,2046,2054,2011,2052,2024,2050,1196
1969,1716363462626618443,2049,2049,2069,2061,2056,2060,1197
1970,1716363462636616998,2058,2048,2024,2048,2047,2055,1198
1971,1716363462646615442,2064,2055,2061,2068,2072,2073,1196
1972,1716363462656613436,2051,2056,2027,2026,2032,2045,1192
1973,1716363462666616369,2063,2060,2025,2066,2065,2056,1193
1974,1716363462676617057,2044,2051,2034,2060,2068,2052,1194
1975,1716363462686618047,2036,2068,2149,2081,2069,2062,1196
1976,1716363462696614367,2054,2050,2036,2046,2026,2047,1195
1977,1716363462706612892,2053,2051,2060,2058,2066,2077,1195
1978,1716363462716613370,2063,2065,2064,2064,2065,2046,1194
1979,1716363462726616112,2051,2057,2052,2040,2068,2070,1195
1980,1716363462736615769,2052,2059,2083,2068,2040,2048,1197
1981,1716363462746618291,2053,2049,2025,2056,2066,2056,1196
1982,1716363462756614892,2068,2064,2034,2039,2034,2054,1196
1983,1716363462766616653,2063,2062,2092,2063,2071,2060,1196
1984,1716363462776616770,2047,2056,2046,2054,2044,2047,1196
1985,1716363462786618401,2056,2064,2094,2071,2061,2077,1197
1986,1716363462796616374,2044,2050,2041,2047,2039,2052,1198
1987,1716363462806616893,2048,2043,2043,2063,2069,2059,1197
1988,1716363462816615238,2046,2051,2062,2049,2041,2050,1196
1989,1716363462826616837,2064,2056,2084,2059,2068,2064,1195
1990,1716363462836615563,2053,2049,2042,2053,2042,2047,1194
1991,1716363462846617985,2052,2057,2101,2077,2081,2050,1195
1992,1716363462856616719,2059,2077,2114,2046,2028,2036,1194
1993,1716363462866618270,2059,2044,2029,2056,2069,2073,1193
1994,1716363462876615822,2050,2048,2034,2048,2034,2040,1192
1995,1716363462886611422,2043,2040,2040,2032,2052,2054,1197
1996,1716363462896616259,2056,2060,2100,2053,2043,2037,1194
1997,1716363462906620093,2054,2053,2046,2060,2051,2057,1195
1998,1716363462916616293,2050,2041,2031,2035,2039,2051,1193
1999,1716363462926621751,2064,2084,2145,2089,2076,2045,1193
2000,1716363462936618412,2055,2057,2073,2050,2050,2046,1193
2001,1716363462946621315,2058,2058,2078,2053,2064,2073,1197
2002,1716363462956617314,2049,2046,2063,2055,2044,2033,1194
2003,1716363462966616961,2065,2044,2012,2042,2072,2068,1197
2004,1716363462976618232,2058,2065,2100,2075,2050,2047,1196
2005,1716363462986616084,2053,2049,2057,2066,2081,2059,1196
2006,1716363462996618256,2061,2060,2064,2059,2054,2081,1196
2007,1716363463006619535,2048,2047,2059,2052,2060,2056,1196
2008,1716363463016616197,2050,2065,2085,2072,2045,2056,1197
2009,1716363463026622106,2053,2045,2040,2069,2071,2071,1197
2010,1716363463036620239,2056,2058,2068,2062,2037,2047,1192
2011,1716363463046620597,2054,2045,2056,2064,2051,2056,1195
2012,1716363463056615065,2047,2045,2056,2052,2037,2032,1193
2013,1716363463066618128,2057,2050,2042,2052,2069,2056,1193
2014,1716363463076616392,2056,2056,2060,2034,2054,2049,1196
2015,1716363463086622281,2058,2057,2047,2073,2098,2051,1195
2016,1716363463096621577,2050,2045,2065,2020,2021,2037,1193
2017,1716363463106621965,2054,2044,2041,2059,2056,2054,1194
2018,1716363463116619959,2050,2060,2095,2072,2061,2027,1195
2019,1716363463126617612,2067,2060,2095,2057,2050,2046,1192
2020,1716363463136619884,2058,2051,2041,2057,2037,2045,1194
2021,1716363463146646341,2062,2048,2029,2058,2069,2045,1193
2022,1716363463156618276,2058,2056,2029,2061,2062,2061,1197
2023,1716363463166617452,2067,2066,2090,2084,2070,2049,1196
2024,1716363463176623871,2051,2043,2024,2047,2037,2048,1196
2025,1716363463186614801,2049,2048,2025,2060,2064,2064,1195
2026,1716363463196618156,2057,2066,2090,2060,2079,2041,1194
2027,1716363463206620187,2053,2054,2072,2060,2068,2067,1197
2028,1716363463216615475,2053,2054,2044,2047,2038,2052,1198
2029,1716363463226617777,2049,2040,2050,2068,2061,2065,1194
2030,1716363463236615491,2055,2053,2078,2062,2042,2047,1194
2031,1716363463246624254,2056,2056,2068,2057,2065,2063,1195
2032,1716363463256623801,2055,2053,2059,2047,2025,2046,1195
2033,1716363463266618429,2069,2087,2144,2079,2080,2064,1194
2034,1716363463276620068,2042,2053,2048,2037,2072,2037,1193
2035,1716363463286618213,2061,2047,2042,2044,2060,2065,1196
2036,1716363463296617619,2061,2064,2064,2069,2068,2045,1194
2037,1716363463306621835,2040,2048,2056,2061,2072,2070,1196
2038,1716363463316618185,2052,2061,2133,2049,2044,2050,1194
2039,1716363463326619686,2053,2042,2019,2045,2044,2045,1193
2040,1716363463336618591,2056,2068,2110,2065,2046,2047,1195
2041,1716363463346622786,2062,2061,2088,2072,2064,2064,1198
2042,1716363463356617955,2053,2060,2096,2056,2032,2041,1194
2043,1716363463366618513,2061,2054,2029,2042,2064,2053,1196
2044,1716363463376621547,2044,2046,2023,2040,2036,2046,1196
2045,1716363463386616123,2066,2050,2016,2046,2061,2048,1197
2046,1716363463396618957,2058,2074,2101,2057,2041,2051,1197
2047,1716363463406623213,2053,2041,2038,2057,2066,2061,1194
2048,1716363463416619071,2055,2055,2041,2065,2045,2044,1194
2049,1716363463426619951,2056,2047,2052,2069,2096,2061,1196
2050,1716363463436617274,2056,2060,2092,2063,2041,2052,1198
2051,1716363463446618423,2056,2053,2035,2060,2065,2064,1196
2052,1716363463456618210,2050,2047,2020,2053,2038,2032,1194
2053,1716363463466616565,2062,2072,2122,2072,2067,2064,1194
2054,1716363463476618195,2055,2050,2038,2044,2033,2045,1194
2055,1716363463486617631,2058,2059,2084,2073,2061,2058,1196
2056,1716363463496632347,2068,2068,2116,2069,2038,2043,1192
2057,1716363463506620141,2064,2060,2081,2056,2053,2050,1196
2058,1716363463516617694,2048,2048,2036,2056,2045,2032,1193
2059,1716363463526617882,2062,2058,2069,2072,2070,2048,1196
2060,1716363463536617769,2056,2068,2027,2064,2041,2045,1195
2061,1716363463546618769,2053,2044,2032,2024,2064,2057,1197
2062,1716363463556618866,2049,2052,2047,2058,2072,2034,1194
2063,1716363463566617100,2047,2042,2016,2049,2056,2075,1198
2064,1716363463576622248,2058,2072,2101,2068,2050,2056,1197
2065,1716363463586617506,2055,2049,2052,2068,2091,2076,1194
2066,1716363463596654143,2063,2053,2046,2049,2031,2037,1196
2067,1716363463606623583,2066,2069,2144,2072,2062,2061,1195
2068,1716363463616618541,2048,2046,2044,1996,2031,2034,1191
2069,1716363463626616223,2056,2051,2052,2061,2056,2055,1197
2070,1716363463636614127,2057,2055,2028,2046,2033,2048,1196
2071,1716363463646617211,2052,2053,2084,2059,2076,2047,1194
2072,1716363463656613851,2041,2044,2044,2041,2032,2040,1194
2073,1716363463666613579,2053,2047,2052,2054,2065,2055,1195
2074,1716363463676619748,2056,2064,2065,2062,2059,2053,1197
2075,1716363463686618403,2064,2069,2076,2080,2079,2080,1197
2076,1716363463696669296,2056,2056,2059,2064,2047,2049,1197
2077,1716363463706619179,2057,2050,2055,2045,2053,2060,1197
2078,1716363463716618025,2056,2049,2038,2065,2034,2068,1196
2079,1716363463726617340,2057,2042,2032,2052,2061,2064,1196
2080,1716363463736616767,2053,2060,2047,2014,2029,2049,1196
2081,1716363463746618759,2058,2051,2041,2080,2074,2063,1194
2082,1716363463756618485,2053,2057,2080,2050,2025,2040,1193
2083,1716363463766615547,2056,2050,2041,2062,2069,2066,1196
2084,1716363463776614904,2046,2036,2020,2047,2043,2050,1198
2085,1716363463786616955,2060,2064,2052,2062,2067,2080,1196
2086,1716363463796637581,2044,2047,2049,2033,2027,2030,1194
2087,1716363463806614936,2052,2050,2031,2068,2064,2065,1197
2088,1716363463816615715,2050,2035,2023,2069,2047,2049,1196
2089,1716363463826620361,2062,2061,2057,2061,2068,2066,1197
2090,1716363463836615149,2053,2057,2059,2054,2041,2047,1196
2091,1716363463846616489,2058,2057,2088,2058,2082,2059,1197
2092,1716363463856617698,2053,2047,2054,2060,2024,2037,1193
2093,1716363463866616333,2053,2041,2043,2056,2067,2068,1194
2094,1716363463876621351,2054,2046,2029,2053,2036,2039,1193
2095,1716363463886617531,2061,2058,2043,2069,2064,2046,1192
2096,1716363463896622016,2048,2036,1988,2038,2038,2049,1196
2097,1716363463906632724,2057,2046,2023,2047,2056,2052,1196
2098,1716363463916612584,2045,2052,2072,2065,2049,2045,1193
2099,1716363463926618633,2062,2048,2043,2065,2070,2061,1196
2100,1716363463936615985,2053,2056,2070,2060,2042,2054,1196
2101,1716363463946619159,2069,2068,2078,2030,2056,2068,1195
2102,1716363463956616251,2055,2064,2080,2052,2017,2035,1194
2103,1716363463966617340,2061,2049,2040,2057,2067,2060,1195
2104,1716363463976618851,2050,2050,2088,2049,2028,2040,1195
2105,1716363463986615602,2069,2052,2027,2053,2063,2024,1193
2106,1716363463996619587,2061,2057,2032,2053,2047,2051,1198
2107,1716363464006622881,2058,2058,2064,2065,2072,2063,1196
2108,1716363464016618170,2063,2073,2090,2090,2044,2044,1196
2109,1716363464026616755,2062,2051,2042,2058,2066,2047,1195
2110,1716363464036616260,2045,2054,2058,2056,2034,2045,1192
2111,1716363464046622079,2062,2060,2076,2060,2055,2056,1197
2112,1716363464056618981,2060,2057,2076,2053,2035,2027,1196
2113,1716363464066617797,2058,2061,2069,2062,2065,2064,1195
2114,1716363464076618005,2044,2036,2030,2045,2024,2052,1196
2115,1716363464086623122,2056,2042,1998,2069,2058,2051,1197
2116,1716363464096622147,2059,2056,2073,2056,2044,2046,1196
2117,1716363464106616274,2062,2062,2045,2058,2064,2066,1197
2118,1716363464116618546,2050,2051,2038,2058,2033,2048,1198
2119,1716363464126616801,2057,2056,2057,2059,2063,2040,1195
2120,1716363464136617630,2052,2058,2089,2048,2042,2052,1197
2121,1716363464146622887,2056,2053,2054,2066,2062,2072,1195
2122,1716363464156617394,2050,2056,2054,2059,2053,2065,1197
2123,1716363464166618223,2053,2047,2043,2059,2064,2053,1195
2124,1716363464176617600,2050,2053,2074,2044,2013,2037,1195
2125,1716363464186619281,2064,2053,2016,2047,2088,2075,1197
2126,1716363464196619649,2047,2048,2049,2052,2034,2080,1196
2127,1716363464206618855,2058,2062,2047,2037,2064,2060,1196
2128,1716363464216618302,2053,2064,2047,2067,2041,2052,1200
2129,1716363464226619852,2068,2061,2098,2056,2067,2060,1197
2130,1716363464236619469,2068,2061,2116,2058,2048,2058,1195
2131,1716363464246623894,2054,2041,1986,2058,2068,2066,1198
2132,1716363464256625596,2041,2038,2001,2044,2036,2041,1197
2133,1716363464266622638,2058,2048,2033,2064,2080,2077,1195
2134,1716363464276620972,2060,2056,2055,2018,2035,2066,1197
2135,1716363464286621962,2055,2046,2030,2057,2064,2056,1195
2136,1716363464296621618,2056,2060,2048,2050,2034,2044,1194
2137,1716363464306622618,2056,2049,2038,2056,2065,2065,1197
2138,1716363464316621604,2051,2041,2039,2050,2056,2056,1197
2139,1716363464326623836,2056,2041,2022,2051,2061,2061,1196
2140,1716363464336625246,2047,2045,2053,2052,2040,2040,1195
2141,1716363464346624662,2057,2061,2074,2062,2064,2059,1196
2142,1716363464356623237,2055,2057,2047,2047,2028,2052,1197
2143,1716363464366623555,2060,2052,2046,2052,2064,2058,1198
2144,1716363464376632440,2052,2050,2048,2041,2036,2041,1197
2145,1716363464386624803,2057,2065,2126,2067,2050,2047,1195
2146,1716363464396625301,2053,2052,2041,2047,2031,2036,1193
2147,1716363464406625890,2052,2048,2050,2056,2063,2054,1198
2148,1716363464416624786,2050,2050,2041,2056,2032,2037,1195
2149,1716363464426626777,2063,2050,2049,2056,2064,2058,1196
2150,1716363464436626645,2053,2053,2045,2050,2068,2027,1195
2151,1716363464446626551,2064,2048,2039,2065,2065,2073,1197
2152,1716363464456626479,2056,2060,2057,2049,2038,2047,1193
2153,1716363464466627419,2053,2044,2005,2056,2070,2065,1197
2154,1716363464476626675,2058,2050,2028,2054,2040,2064,1196
2155,1716363464486628116,2059,2049,2024,2057,2063,2063,1197
2156,1716363464496628613,2047,2045,2040,2023,2032,2039,1193
2157,1716363464506628361,2060,2063,2096,2064,2070,2064,1198
2158,1716363464516629140,2062,2054,2060,2057,2036,2059,1197
2159,1716363464526628927,2056,2048,2028,2066,2069,2060,1196
2160,1716363464536629566,2054,2048,2014,2044,2034,2033,1195
2161,1716363464546630565,2060,2047,2017,2056,2069,2064,1197
2162,1716363464556629821,2065,2062,2060,2042,2034,2050,1197
2163,1716363464566631312,2058,2062,2116,2061,2076,2066,1197
2164,1716363464576613035,2053,2048,2056,2067,2041,2048,1197
2165,1716363464586613133,2050,2052,2040,2063,2060,2079,1198
2166,1716363464596630503,2044,2041,2047,2044,2042,2044,1197
2167,1716363464606630811,2068,2063,2056,2056,2067,2070,1196
2168,1716363464616613697,2061,2075,2118,2060,2038,2039,1192
2169,1716363464626632590,2063,2072,2132,2063,2065,2058,1198
2170,1716363464636614594,2060,2076,2117,2039,2031,2040,1194
2171,1716363464646615432,2052,2052,2052,2052,2049,2063,1195
2172,1716363464656615340,2054,2053,2052,2037,2028,2062,1197
2173,1716363464666635085,2062,2056,2047,2046,2066,2059,1194
2174,1716363464676616107,2051,2054,2040,2056,2033,2044,1194
2175,1716363464686633998,2060,2064,2115,2067,2069,2058,1196
2176,1716363464696616282,2048,2050,2005,2071,2031,2065,1195
2177,1716363464706616790,2061,2049,2022,2059,2060,2056,1195
2178,1716363464716616548,2049,2057,2094,2061,2035,2021,1194
2179,1716363464726616085,2061,2049,2035,2068,2063,2063,1196
2180,1716363464736616303,2058,2064,2084,2073,2045,2037,1195
2181,1716363464746618564,2061,2060,2047,2082,2077,2056,1198
2182,1716363464756618482,2049,2063,2067,2064,2026,2041,1194
2183,1716363464766620012,2060,2058,2049,2061,2079,2053,1197
2184,1716363464776616764,2052,2049,2047,2029,2033,2042,1192
2185,1716363464786617343,2050,2048,2047,2052,2062,2022,1198
2186,1716363464796617169,2047,2059,2100,2034,2030,2066,1197
2187,1716363464806617979,2060,2049,2031,2053,2058,2062,1196
2188,1716363464816614460,2047,2047,2021,2056,2032,2038,1196
2189,1716363464826620990,2053,2068,2117,2074,2077,2061,1196
2190,1716363464836616179,2051,2056,2061,2046,2042,2079,1195
2191,1716363464846618850,2056,2054,2088,2056,2060,2080,1197
2192,1716363464856616434,2056,2047,2030,2021,2040,2045,1195
2193,1716363464866617453,2061,2060,2060,2064,2064,2058,1195
2194,1716363464876616680,2045,2053,2043,2056,2052,2049,1195
2195,1716363464886615666,2056,2047,2036,2067,2092,2062,1197
2196,1716363464896630801,2060,2070,2093,2060,2029,2044,1194
2197,1716363464906616341,2048,2043,2020,2064,2058,2076,1197
2198,1716363464916616930,2056,2057,2049,2065,2046,2044,1195
2199,1716363464926618020,2060,2057,2069,2052,2098,2072,1194
2200,1716363464936615924,2060,2054,2072,2044,2049,2037,1195
2201,1716363464946615991,2062,2036,2005,2050,2085,2061,1196
2202,1716363464956615738,2045,2049,2069,2026,2041,2046,1194
2203,1716363464966621797,2049,2050,2042,2049,2062,2059,1195
2204,1716363464976618669,2054,2062,2060,2053,2027,2076,1197
2205,1716363464986616533,2052,2044,2053,2072,2055,2048,1197
2206,1716363464996616400,2046,2051,2049,2043,2045,2056,1197
2207,1716363465006663046,2041,2037,1991,2033,2056,2066,1196
2208,1716363465016615494,2038,2046,2048,2045,2033,2013,1193
2209,1716363465026618156,2056,2056,2056,2047,2064,2047,1194
2210,1716363465036614638,2045,2051,2049,2057,2041,2049,1196
2211,1716363465046616409,2056,2046,2047,2062,2061,2056,1197
2212,1716363465056614814,2050,2041,2016,2045,2048,2053,1197
