seq,time,data[0],data[1],data[2],data[3],data[4],data[5],data[6]
201,1716364536570009982,2058,2057,2047,2057,2096,2050,1195
202,1716364536580013223,2053,2045,2026,2045,2047,2064,1195
203,1716364536590006063,2060,2069,2096,2082,2077,2052,1197
204,1716364536600011619,2050,2046,2050,2001,2010,2049,1196
205,1716364536610006343,2053,2047,2042,1958,1892,2013,1191
206,1716364536620008032,2050,2052,2057,2080,2067,2068,1196
207,1716364536630004589,2056,2056,2056,1994,2005,2026,1193
208,1716364536640005515,2051,2049,2049,2035,2045,2068,1197
209,1716364536650007063,2055,2053,2056,2114,2057,2069,1195
210,1716364536660006917,2061,2048,2059,2152,2024,2068,1195
211,1716364536670003135,2056,2052,2053,2021,2113,2058,1196
212,1716364536680005203,2051,2046,2042,2069,2056,2056,1197
213,1716364536690003385,2057,2058,2059,2033,2043,2045,1195
214,1716364536700006315,2056,2052,2062,2068,2045,2056,1196
215,1716364536710003724,2060,2069,2092,2065,2051,2050,1197
216,1716364536720005312,2054,2053,2072,2039,2038,2062,1197
217,1716364536730003092,2059,2058,2056,2046,1923,2027,1193
218,1716364536740046229,2059,2060,2074,2112,2044,2060,1197
219,1716364536750003442,2052,2053,2058,2082,2108,2056,1196
220,1716364536760044064,2050,2051,2058,2058,2038,2061,1197
221,1716364536770003321,2053,2046,2033,2018,2066,2056,1195
222,1716364536780045085,2046,2034,2020,2061,2058,2054,1195
223,1716364536790042906,2054,2056,2050,2075,2056,2045,1192
224,1716364536800042870,2046,2027,1979,2094,2068,2045,1193
225,1716364536810040610,2088,2161,2229,2084,2076,2057,1195
226,1716364536820041236,2055,2052,2041,2072,2058,2064,1196
227,1716364536830039157,2052,2052,2053,1985,2052,2047,1193
228,1716364536840040003,2057,2050,2047,2083,2025,2073,1196
229,1716364536850041260,2050,2061,2070,2146,2016,2044,1193
230,1716364536860039662,2064,2052,2057,2161,2070,2061,1197
231,1716364536870039416,2054,2050,2054,2029,2047,2054,1197
232,1716364536880039852,2055,2056,2057,2143,2021,2053,1192
233,1716364536890038844,2060,2068,2085,2056,2026,2053,1195
234,1716364536900039369,2057,2044,2046,2144,2090,2082,1196
235,1716364536910038393,2058,2061,2052,2061,2012,2040,1193
236,1716364536920040390,2052,2058,2084,1949,2077,2041,1194
237,1716364536930035847,2061,2069,2064,2090,1983,2030,1193
238,1716364536940035471,2060,2053,2056,2056,2028,2034,1194
239,1716364536950036197,2030,2045,2043,2014,2031,2093,1196
240,1716364536960037323,2024,2033,2050,2032,1984,2050,1197
241,1716364536970036887,2088,2131,2249,2012,1918,2029,1194
242,1716364536980034457,2056,2041,2021,1994,2044,2038,1194
243,1716364536990032147,2058,2057,2051,2092,2038,2061,1196
244,1716364537000031271,2060,2060,2047,2124,2058,2049,1196
245,1716364537010033459,2059,2057,2064,2120,2018,2070,1194
246,1716364537020030418,2050,2052,2054,2106,1997,2049,1197
247,1716364537030030232,2065,2060,2056,1958,1949,2034,1193
248,1716364537040030878,2056,2051,2047,2105,2021,2043,1193
249,1716364537050028959,2043,2032,2035,2032,2081,2064,1196
250,1716364537060029805,2049,2054,2074,2245,2034,2062,1195
251,1716364537070026995,2079,2056,2042,2069,1896,2005,1195
252,1716364537080026518,2038,2049,2074,2129,2056,2052,1197
253,1716364537090028397,2060,2058,2043,2024,1993,2056,1196
254,1716364537100025195,2054,2053,2034,2062,1912,2060,1195
255,1716364537110025380,2080,2064,2047,2065,2016,2080,1196
256,1716364537120025345,2053,2063,2096,2036,2008,2065,1197
257,1716364537130024898,2049,2050,2048,2045,2096,2064,1197
258,1716364537140024803,2046,2040,2032,1972,2113,2051,1197
259,1716364537150022363,2056,2072,2105,2032,2112,2060,1195
260,1716364537160022898,2060,2058,2062,2136,2149,2068,1199
261,1716364537170021601,2045,2041,2040,2148,2039,2048,1195
262,1716364537180022467,2057,2060,2041,1976,2050,2074,1197
263,1716364537190021129,2050,2048,2052,2076,2178,2047,1193
264,1716364537200019811,2062,2049,2052,2102,2040,2065,1196
265,1716364537210019786,2064,2054,2059,2133,2036,2064,1194
266,1716364537220020461,2072,2054,2036,2046,2047,2051,1194
267,1716364537230018182,2061,2066,2056,2078,2030,2052,1194
268,1716364537240018136,2060,2052,2041,2077,2024,2076,1195
269,1716364537250016197,2062,2059,2071,2037,1942,2056,1196
270,1716364537260025690,2058,2065,2100,2056,2000,2064,1197
271,1716364537270021496,2056,2059,2070,2058,1989,2052,1196
272,1716364537280018847,2067,2064,2065,2061,2036,2026,1194
273,1716364537290018991,2043,2045,2053,2088,2068,2037,1194
274,1716364537300019777,2047,2039,2039,1992,2044,2038,1194
275,1716364537310021655,2052,2051,2026,2053,1958,2045,1192
276,1716364537320018414,2036,2029,2036,1984,1898,2021,1196
277,1716364537330019090,2064,2060,2066,2091,2052,2047,1194
278,1716364537340019335,2053,2045,2042,2165,2188,2072,1197
279,1716364537350021294,2059,2058,2048,1997,2111,2067,1193
280,1716364537360023021,2056,2053,2045,2057,2042,2061,1196
281,1716364537370019950,2054,2056,2059,2106,2054,2050,1196
282,1716364537380028771,2048,2038,2046,1976,2137,2053,1197
283,1716364537390021642,2056,2046,2036,2146,2180,2064,1197
284,1716364537400020946,2053,2048,2023,2112,2082,2052,1196
285,1716364537410066206,2052,2047,2050,2152,2044,1999,1192
286,1716364537420021035,2048,2041,2035,1978,2104,2061,1195
287,1716364537430014818,2051,2048,2042,2060,2032,2038,1194
288,1716364537440019853,2043,2044,2043,2112,1996,2072,1197
289,1716364537450013044,2051,2054,2056,2106,2077,2051,1197
290,1716364537460015282,2051,2047,2044,2035,1912,2072,1193
291,1716364537470012923,2049,2050,2050,2116,2159,2045,1194
292,1716364537480012226,2060,2060,2054,2152,2033,2049,1197
293,1716364537490012502,2056,2058,2057,2035,2044,2053,1194
294,1716364537500046741,2054,2059,2046,2014,1938,2033,1195
295,1716364537510014404,2058,2054,2027,1912,1927,2034,1194
296,1716364537520014529,2056,2054,2057,2154,2074,2069,1196
297,1716364537530011749,2050,2061,2088,2017,2076,2052,1198
298,1716364537540011422,2065,2054,2047,2142,2193,2089,1197
299,1716364537550011817,2057,2062,2084,2037,2088,2052,1195
300,1716364537560014498,2053,2046,2040,1960,2028,2057,1196
301,1716364537570012969,2057,2054,2058,2068,1980,2064,1197
302,1716364537580015098,2043,2048,2053,2109,2044,2058,1196
303,1716364537590014361,2054,2057,2068,2032,2037,2037,1195
304,1716364537600039212,2056,2056,2060,2197,2136,2066,1196
305,1716364537610021594,2049,2049,2060,2182,2073,2052,1194
306,1716364537620020106,2052,2061,2078,2055,1939,2045,1193
307,1716364537630013608,2045,2051,2060,2117,1974,2062,1197
308,1716364537640016909,2040,2043,2044,2036,2104,2032,1194
309,1716364537650017845,2056,2059,2051,1994,1870,2025,1195
310,1716364537660018982,2053,2055,2056,2104,2152,2058,1195
311,1716364537670016112,2062,2060,2057,2042,1964,2040,1195
312,1716364537680012880,2055,2053,2067,2056,2090,2076,1195
313,1716364537690010630,2058,2062,2090,2053,2040,2053,1196
314,1716364537700037015,2053,2049,2047,2044,2153,2072,1196
315,1716364537710012823,2060,2069,2064,2057,2034,2060,1197
316,1716364537720016095,2061,2050,2056,1989,2033,2064,1197
317,1716364537730012542,2056,2056,2061,2132,2090,2066,1195
318,1716364537740014490,2053,2050,2048,2027,2056,2045,1193
319,1716364537750025416,2058,2060,2060,2009,2136,2041,1193
320,1716364537760019609,2058,2051,2049,1984,2004,2041,1193
321,1716364537770013894,2057,2063,2054,2052,2022,2050,1195
322,1716364537780014268,2050,2050,2059,2044,2057,2056,1197
323,1716364537790014835,2057,2071,2102,2084,1929,2025,1196
324,1716364537800027012,2057,2045,2053,2024,2088,2064,1197
325,1716364537810014573,2053,2055,2061,2097,2088,2052,1196
326,1716364537820014137,2052,2048,2052,1985,1981,2039,1192
327,1716364537830014642,2056,2058,2056,2136,2089,2040,1192
328,1716364537840016611,2054,2052,2056,2059,2051,2056,1195
329,1716364537850013970,2063,2067,2059,1962,1941,2040,1191
330,1716364537860016340,2053,2048,2057,2030,2073,2068,1197
331,1716364537870018198,2052,2059,2051,2024,2088,2052,1195
332,1716364537880018273,2056,2050,2056,2016,2028,2056,1195
333,1716364537890019009,2059,2057,2064,2102,2105,2063,1195
334,1716364537900021848,2055,2057,2061,2188,2067,2068,1197
335,1716364537910029678,2051,2057,2064,2101,1984,2054,1196
336,1716364537920015546,2058,2052,2059,2074,2040,2064,1197
337,1716364537930012946,2055,2056,2045,2072,2006,2045,1195
338,1716364537940015204,2061,2056,2059,2037,2017,2057,1197
339,1716364537950017183,2060,2058,2052,2054,2008,2051,1198
340,1716364537960026535,2054,2053,2053,2005,2040,2057,1196
341,1716364537970013305,2059,2055,2065,2047,2085,2049,1196
342,1716364537980015424,2055,2053,2050,1972,2071,2060,1198
343,1716364537990013754,2053,2047,2044,2049,2048,2056,1197
344,1716364538000041613,2054,2054,2053,2116,2077,2053,1197
345,1716364538010012311,2048,2054,2047,2104,2120,2035,1191
346,1716364538020040971,2056,2060,2054,2087,2050,2072,1199
347,1716364538030011048,2054,2054,2052,1964,2041,2050,1196
348,1716364538040038885,2054,2053,2053,2085,2046,2053,1196
349,1716364538050039081,2047,2049,2045,2133,2093,2060,1197
350,1716364538060036981,2052,2049,2047,2097,2039,2039,1196
351,1716364538070056203,2052,2051,2059,2076,2076,2056,1196
352,1716364538080042551,2053,2053,2060,2090,2020,2062,1196
353,1716364538090038078,2058,2064,2063,2039,2094,2062,1197
354,1716364538100038913,2057,2051,2040,2008,2060,2057,1198
355,1716364538110038387,2059,2066,2052,2008,1919,2049,1196
356,1716364538120036087,2052,2048,2050,2053,2012,2060,1199
357,1716364538130036192,2056,2054,2052,2056,2018,2040,1195
358,1716364538140034764,2060,2056,2056,2100,2102,2082,1198
359,1716364538150034889,2069,2063,2062,1965,2069,2060,1199
360,1716364538160034663,2053,2045,2049,2068,2044,2058,1197
361,1716364538170032654,2062,2060,2048,2003,2080,2053,1194
362,1716364538180033851,2060,2062,2070,2077,2074,2063,1196
363,1716364538190031251,2065,2072,2079,2084,2048,2052,1196
364,1716364538200037668,2054,2052,2058,2077,2068,2063,1196
365,1716364538210031921,2064,2060,2061,2042,2028,2058,1195
366,1716364538220028289,2053,2050,2040,2009,2020,2056,1199
367,1716364538230029586,2056,2052,2038,2049,2056,2051,1198
368,1716364538240029380,2057,2060,2068,1928,2031,2046,1192
369,1716364538250071325,2049,2045,2041,2084,2051,2061,1196
370,1716364538260033417,2048,2053,2109,2018,1892,2036,1194
371,1716364538270029775,2043,2027,2009,2088,2052,2019,1192
372,1716364538280033056,2056,2049,2057,1963,2075,2061,1196
373,1716364538290026909,2053,2060,2080,2022,2048,2053,1197
374,1716364538300028907,2046,2045,2052,2109,2092,2056,1197
375,1716364538310027139,2063,2060,2035,1992,2061,2059,1197
376,1716364538320028957,2059,2058,2086,2032,2031,2058,1197
377,1716364538330027218,2052,2061,2070,2182,2081,1961,1194
378,1716364538340025930,2055,2048,2037,2022,2151,2060,1198
379,1716364538350026365,2054,2059,2081,2116,2061,2060,1197
380,1716364538360028354,2061,2054,2047,2132,2096,2070,1196
381,1716364538370042946,2064,2061,2058,2041,1978,2049,1197
382,1716364538380023615,2053,2052,2050,2100,2058,2058,1196
383,1716364538390023859,2058,2054,2059,2000,2042,2058,1195
384,1716364538400022802,2057,2057,2054,2024,2060,2018,1193
385,1716364538410019571,2056,2056,2046,2115,2084,2053,1194
386,1716364538420021429,2060,2064,2068,2031,2076,2073,1197
387,1716364538430019149,2052,2047,2031,2015,2096,2072,1198
388,1716364538440018843,2057,2056,2091,2028,2140,2056,1194
389,1716364538450018978,2058,2060,2057,2037,2067,2046,1194
390,1716364538460019433,2054,2052,2042,2047,2074,2073,1197
391,1716364538470020681,2056,2052,2039,2085,2005,2052,1196
392,1716364538480020735,2060,2062,2065,2101,2227,2096,1196
393,1716364538490020269,2052,2054,2044,2034,2072,2041,1192
394,1716364538500020825,2047,2050,2046,2115,2088,2074,1198
395,1716364538510020508,2056,2051,2041,2036,2037,2047,1194
396,1716364538520020514,2056,2054,2045,2068,2067,2070,1196
397,1716364538530023273,2046,2047,2036,2049,2054,2011,1195
398,1716364538540023659,2054,2051,2056,2102,2046,2067,1197
399,1716364538550023974,2058,2057,2042,1986,2000,2023,1195
400,1716364538560006325,2060,2049,2065,2097,2030,2054,1197
401,1716364538570006791,2060,2046,2041,2093,2033,2042,1194
402,1716364538580008218,2042,2028,1993,2010,2053,2078,1196
403,1716364538590009495,2058,2074,2131,2088,2060,2053,1196
404,1716364538600008758,2050,2040,2030,2067,2075,2085,1195
405,1716364538610009054,2053,2026,1976,2009,2042,2056,1193
406,1716364538620009479,2067,2116,2221,2106,2085,2069,1196
407,1716364538630010014,2053,2050,2043,2053,1957,2045,1192
408,1716364538640010069,2047,2046,2045,2038,2027,2034,1192
409,1716364538650010244,2050,2050,2045,2009,1993,2049,1194
410,1716364538660008496,2055,2057,2078,2116,2042,2066,1197
411,1716364538670010634,2052,2046,2052,1960,2171,2057,1195
412,1716364538680010509,2053,2036,2005,2104,2096,2080,1197
413,1716364538690012687,2052,2046,2041,2105,2035,2033,1192
414,1716364538700012221,2054,2050,2054,2116,2132,2065,1196
415,1716364538710012736,2049,2056,2056,2084,2041,2050,1197
416,1716364538720039673,2055,2053,2069,2059,2001,2053,1200
417,1716364538730067440,2052,2047,2010,2015,1946,2028,1193
418,1716364538740042306,2049,2048,2037,2051,2053,2057,1198
419,1716364538750042482,2056,2055,2056,2053,2047,2060,1198
420,1716364538760042947,2054,2053,2056,2031,1978,2041,1195
421,1716364538770040868,2056,2052,2052,1952,2008,2040,1194
422,1716364538780005475,2050,2043,2030,2061,2109,2072,1196
423,1716364538790009678,2057,2056,2060,2057,2048,2052,1197
424,1716364538800040200,2056,2052,2052,2056,2060,2056,1196
425,1716364538810018193,2061,2058,2052,2027,2024,2044,1192
426,1716364538820005885,2050,2058,2057,2061,2028,2053,1196
427,1716364538830003876,2065,2057,2061,2051,1988,2045,1194
428,1716364538840003520,2057,2045,2058,2102,2075,2070,1195
429,1716364538850037578,2054,2057,2056,2056,2048,2043,1193
430,1716364538860005162,2054,2050,2037,2061,2065,2054,1196
431,1716364538870005136,2056,2062,2071,2058,2053,2053,1197
432,1716364538879988740,2059,2053,2036,2010,2058,2054,1197
433,1716364538890008522,2052,2057,2068,2118,2040,2038,1194
434,1716364538900037192,2053,2068,2150,2078,2045,2043,1194
435,1716364538910007960,2057,2056,2100,2087,2052,2045,1194
436,1716364538920009127,2045,2036,2036,2008,2081,2060,1197
437,1716364538930004954,2054,2057,2057,2063,2012,2049,1196
438,1716364538940010940,2061,2062,2067,2169,1979,2104,1196
439,1716364538950006496,2058,2057,2068,2088,2018,2056,1196
440,1716364538960039283,2047,2056,2053,2012,2044,2053,1196
441,1716364538970007668,2059,2084,2165,1966,2008,2040,1193
442,1716364538980008524,2060,2060,2069,2092,1972,2051,1196
443,1716364538990007146,2053,2068,2196,2079,1947,2036,1194
444,1716364539000005247,2044,2047,2092,2053,2086,2072,1196
445,1716364539010024258,2060,2059,2069,2111,2032,2089,1195
446,1716364539020027949,2063,2058,2052,2052,2076,2054,1197
447,1716364539030007765,2058,2053,2053,1985,2023,2041,1192
448,1716364539040005777,2056,2064,2065,2084,2044,2074,1198
449,1716364539050007194,2056,2052,2051,2048,2056,2053,1193
450,1716364539060022919,2047,2048,2046,2032,2039,2059,1196
451,1716364539070007494,2052,2051,2035,2134,2069,2051,1196
452,1716364539080007138,2052,2042,2044,2026,2051,2054,1195
453,1716364539090024024,2057,2050,2043,2238,2203,2072,1197
454,1716364539100022286,2061,2061,2059,2016,1983,2052,1196
455,1716364539110007152,2056,2052,2040,2078,2069,2052,1197
456,1716364539120008759,2058,2066,2050,2029,2097,2061,1197
457,1716364539130007722,2058,2056,2041,2041,1983,2052,1197
458,1716364539140007797,2050,2048,2083,2077,2020,2070,1197
459,1716364539150007080,2052,2036,2018,2037,2073,2043,1193
460,1716364539159994481,2058,2073,2109,2036,2056,2077,1197
461,1716364539170005116,2060,2043,2009,1981,2047,2028,1193
462,1716364539180018295,2062,2069,2069,2012,1973,2046,1195
463,1716364539190003793,2056,2065,2064,2033,1980,2034,1195
464,1716364539199995381,2056,2059,2065,2078,2018,2052,1196
465,1716364539210003562,2057,2061,2053,2084,2031,2044,1193
466,1716364539220005379,2052,2050,2043,2031,1966,2038,1194
467,1716364539230005505,2056,2056,2045,1965,2026,2044,1194
468,1716364539240016059,2053,2060,2069,2053,2009,2058,1195
469,1716364539250011665,2052,2045,2016,2079,2078,2053,1193
470,1716364539260004867,2054,2043,2048,2016,2036,2060,1197
471,1716364539270006725,2056,2049,2054,2114,2032,2041,1192
472,1716364539280010267,2048,2046,2051,2090,2097,2037,1193
473,1716364539290002807,2060,2059,2050,2094,2054,2050,1195
474,1716364539300003904,2064,2056,2044,2015,2044,2070,1198
475,1716364539310006563,2056,2038,2008,1992,1993,2031,1194
476,1716364539320005417,2049,2046,2095,2123,2060,2043,1196
477,1716364539330002245,2050,2043,2031,2090,2074,2047,1195
478,1716364539340006707,2060,2077,2169,2115,2040,2062,1198
479,1716364539350008316,2050,2045,2032,2032,1750,2012,1194
480,1716364539360005054,2062,2065,2068,2122,2091,2079,1197
481,1716364539370001161,2052,2049,2046,1980,2099,2051,1194
482,1716364539380006365,2060,2050,2047,2064,2070,2059,1195
483,1716364539390004948,2056,2053,2043,2058,2068,2001,1193
484,1716364539400005022,2054,2046,2024,1995,2036,2051,1196
485,1716364539410002563,2056,2060,2067,2111,2078,2068,1194
486,1716364539420006795,2052,2049,2043,2105,2063,2065,1194
487,1716364539430004546,2056,2064,2100,2198,2126,2050,1195
488,1716364539440004670,2062,2057,2079,2112,2112,2074,1195
489,1716364539450009504,2056,2062,2064,1896,2050,2039,1192
490,1716364539460006824,2042,2041,2040,1949,2022,2027,1193
491,1716364539470006938,2055,2056,2031,2096,2173,2070,1197
492,1716364539480002415,2053,2052,2046,2092,2299,2085,1195
493,1716364539490007118,2080,2061,2042,1988,1937,2026,1193
494,1716364539500008035,2053,2054,2082,2076,1988,2047,1194
495,1716364539510009923,2059,2058,2023,2112,2056,2054,1197
496,1716364539520010599,2063,2056,2051,2035,2075,2073,1198
497,1716364539530007808,2058,2065,2104,2033,2045,2043,1194
498,1716364539540008615,2050,2052,2053,2027,2058,2065,1197
499,1716364539550008168,2060,2051,2057,2050,2038,2039,1194
500,1716364539560009325,2059,2059,2073,1989,2044,2054,1196
501,1716364539570003218,2058,2059,2056,1997,2060,2045,1193
502,1716364539580007751,2052,2056,2043,2018,2064,2066,1198
503,1716364539590005782,2054,2057,2054,2006,2055,2045,1194
504,1716364539600005576,2053,2053,2050,2070,2152,2072,1194
505,1716364539610006814,2056,2061,2066,2097,2005,2047,1193
506,1716364539620025463,2052,2052,2056,2004,2037,2056,1195
507,1716364539630009628,2052,2041,2053,2157,2074,2045,1193
508,1716364539639963545,2049,2044,2053,2143,2072,2058,1194
509,1716364539650008335,2056,2058,2022,1969,2030,2046,1192
510,1716364539660008420,2049,2044,2046,2040,2097,2060,1195
511,1716364539670008906,2060,2059,2054,2026,2045,2037,1192
512,1716364539680010503,2054,2045,2041,2045,2074,2071,1197
513,1716364539690011158,2053,2054,2064,2024,2015,2059,1197
514,1716364539700009701,2050,2047,2044,1953,2103,2053,1197
515,1716364539710010056,2052,2058,2060,2070,2051,2050,1197
516,1716364539720009380,2060,2058,2056,2042,2089,2061,1196
517,1716364539730010546,2053,2054,2067,2022,2041,2054,1196
518,1716364539740010972,2052,2046,2038,2087,2108,2047,1195
519,1716364539750011227,2058,2051,2052,2009,2046,2053,1195
520,1716364539760011352,2059,2053,2052,2029,2034,2052,1196
521,1716364539770017859,2046,2047,2037,2075,2136,2048,1195
522,1716364539780012012,2072,2072,2035,2060,2054,2060,1196
523,1716364539790012718,2056,2059,2080,2064,2068,2045,1194
524,1716364539800014216,2058,2055,2061,2042,2052,2059,1195
525,1716364539810014491,2053,2052,2053,2035,1982,2064,1196
526,1716364539820013373,2052,2053,2060,2057,2046,2056,1194
527,1716364539830023458,2057,2057,2050,1992,2035,2047,1194
528,1716364539840014655,2058,2056,2054,2068,2080,2062,1197
529,1716364539850002226,2045,2040,2020,2086,2258,2063,1198
530,1716364539860015757,2051,2057,2041,2093,2052,2056,1194
531,1716364539870002216,2058,2057,2043,2000,2020,2046,1195
532,1716364539880017640,2052,2052,2061,2057,2009,2040,1195
533,1716364539890003618,2056,2055,2056,2072,2063,2052,1196
534,1716364539900003151,2054,2048,2051,2104,1984,2045,1193
535,1716364539910004558,2048,2058,2064,2052,2026,2037,1195
536,1716364539920019772,2054,2046,2036,1862,2028,2062,1198
537,1716364539930001812,2052,2051,2060,2051,2052,2051,1195
538,1716364539939999854,2056,2051,2056,2061,2081,2072,1197
539,1716364539950004006,2060,2053,2054,2044,1984,2042,1193
540,1716364539960002488,2054,2064,2084,2077,2041,2060,1197
541,1716364539970005939,2056,2057,2060,2060,2080,2058,1197
542,1716364539980001185,2049,2058,2068,2013,1963,2053,1195
543,1716364539990003885,2054,2056,2061,2080,2075,2068,1194
544,1716364540000000192,2056,2055,2052,2066,1949,2046,1193
545,1716364540010003022,2060,2068,2064,2015,1998,2049,1194
546,1716364540020002776,2057,2056,2069,2081,2082,2072,1198
547,1716364540030028420,2069,2063,2040,2027,2052,2031,1193
548,1716364540040000772,2065,2061,2051,2008,2048,2061,1197
549,1716364540050003993,2061,2066,2069,2063,2057,2041,1194
550,1716364540060003977,2045,2042,2063,2029,2015,2059,1196
551,1716364540070002139,2056,2057,2060,2051,2025,2045,1193
552,1716364540080015268,2064,2056,2064,2013,1998,2052,1196
553,1716364540090007428,2051,2051,2063,2158,2047,2062,1197
554,1716364540100005509,2049,2041,2036,2052,2072,2061,1196
555,1716364540110006185,2057,2054,2047,2045,2098,2050,1196
556,1716364540120004486,2056,2054,2056,1985,2088,2070,1197
557,1716364540130018518,2064,2052,2043,2077,2067,2051,1195
558,1716364540140005117,2059,2063,2045,1992,2065,2072,1196
559,1716364540150005172,2049,2052,2057,2108,2044,2059,1195
560,1716364540160007651,2048,2046,2052,2081,2070,2072,1196
561,1716364540170006182,2052,2049,2045,2106,2100,2022,1193
562,1716364540180007139,2053,2054,2056,1996,1967,2052,1195
563,1716364540190006963,2064,2058,2050,1857,2060,2058,1197
564,1716364540200008041,2056,2052,2059,2067,2082,2060,1196
565,1716364540210005680,2062,2049,2032,2047,2181,2056,1195
566,1716364540220004734,2055,2054,2044,2020,2036,2072,1196
567,1716364540230009276,2056,2061,2102,2085,2129,2065,1196
568,1716364540240002809,2058,2054,2048,2091,1981,2057,1194
569,1716364540250007342,2055,2048,2030,2023,2004,2041,1195
570,1716364540260005163,2056,2056,2051,2104,2073,2067,1196
571,1716364540270004476,2052,2049,2063,2085,2114,2066,1196
572,1716364540280004380,2050,2052,2061,2125,2099,2061,1196
573,1716364540290005037,2056,2060,2046,1984,2050,2053,1197
574,1716364540300024798,2053,2052,2052,2132,2104,2078,1197
575,1716364540310010196,2058,2063,2069,2130,1961,1988,1192
576,1716364540320004760,2054,2053,2059,2146,2049,2057,1198
577,1716364540330004965,2060,2053,2040,2069,2044,2054,1197
578,1716364540340005410,2053,2043,2037,2052,2028,2064,1194
579,1716364540350005746,2057,2057,2049,2090,2034,2050,1196
580,1716364540360003346,2064,2058,2054,2083,2060,2065,1195
581,1716364540370009603,2057,2058,2052,2023,2065,2055,1197
582,1716364540380005469,2057,2057,2056,2088,2096,2040,1194
583,1716364540390003791,2054,2047,2040,2148,2040,2042,1196
584,1716364540400002132,2056,2047,2038,2042,2031,2057,1195
585,1716364540410006766,2049,2047,2056,2065,2141,2050,1194
586,1716364540420008754,2053,2054,2042,2075,2133,2074,1197
587,1716364540430004481,2050,2042,2024,1968,2006,2033,1193
588,1716364540440006680,2054,2061,2090,2069,2070,2070,1197
589,1716364540450004179,2056,2044,2041,2066,2080,2043,1193
590,1716364540460003874,2061,2053,2058,2042,2076,2057,1197
591,1716364540470002345,2056,2056,2057,2107,2075,2046,1192
592,1716364540480007149,2058,2053,2070,2054,2105,2067,1196
593,1716364540490002805,2058,2057,2053,1993,1950,2026,1192
594,1716364540500007920,2053,2045,2050,2024,2061,2051,1195
595,1716364540510004979,2053,2047,2024,2088,2116,2036,1195
596,1716364540520006056,2055,2053,2061,2094,2093,2070,1198
597,1716364540530004117,2060,2057,2061,2049,2016,2050,1197
598,1716364540540001888,2056,2068,2101,2068,2092,2071,1196
599,1716364540550008705,2056,2059,2060,2090,2103,2058,1195
600,1716364540560019130,2056,2056,2064,2045,2080,2088,1197
601,1716364540570003124,2065,2068,2076,2091,1984,2047,1194
602,1716364540580004901,2049,2045,2053,2045,2045,2052,1196
603,1716364540590005387,2059,2056,2052,2027,2061,2063,1194
604,1716364540600017134,2057,2057,2052,2082,2062,2060,1196
605,1716364540610005487,2058,2054,2042,2159,2018,2046,1192
606,1716364540620015550,2058,2050,2049,2092,2078,2061,1194
607,1716364540630006759,2056,2061,2073,2076,2109,2054,1198
608,1716364540640004839,2051,2045,2042,2029,2065,2063,1198
609,1716364540650005265,2064,2060,2036,2030,2084,2049,1196
610,1716364540660037250,2053,2049,2055,1972,2033,2053,1195
611,1716364540670000626,2056,2054,2049,2063,2072,2037,1195
612,1716364540680003946,2051,2044,2041,1988,2086,2059,1194
613,1716364540690004612,2072,2059,2068,2037,2034,2063,1197
614,1716364540700017010,2053,2046,2027,2016,2031,2061,1194
615,1716364540710018398,2058,2058,2060,2046,2142,2059,1197
616,1716364540720029503,2055,2044,2037,1956,2073,2060,1198
617,1716364540730003209,2058,2060,2056,2095,2057,2059,1196
618,1716364540740000959,2058,2049,2035,2024,2117,2056,1195
619,1716364540750004760,2056,2053,2042,1992,2072,2053,1197
620,1716364540760006859,2056,2062,2075,2055,2084,2070,1196
621,1716364540770012434,2053,2056,2059,2021,2105,2059,1195
622,1716364540780005396,2058,2064,2073,2133,2109,2070,1198
623,1716364540790008366,2051,2047,2056,2086,2008,2069,1198
624,1716364540800016807,2060,2064,2067,2097,2074,2057,1198
625,1716364540810007714,2058,2058,2053,2130,2089,2060,1195
626,1716364540820004383,2054,2060,2066,2116,2092,2067,1197
627,1716364540830007553,2061,2060,2053,2075,2021,2050,1197
628,1716364540840006677,2057,2062,2071,2105,2056,2053,1195
629,1716364540850003054,2052,2048,2045,2034,2043,2044,1194
630,1716364540860025962,2059,2067,2091,2109,2132,2052,1196
631,1716364540870006009,2053,2046,2030,2064,2045,2050,1195
632,1716364540880000483,2052,2055,2072,2174,2110,2068,1194
633,1716364540890004215,2047,2035,2009,2056,2046,2040,1193
634,1716364540900009479,2060,2065,2052,2054,2076,2054,1197
635,1716364540910012280,2062,2050,2032,2014,2049,2045,1193
636,1716364540920006493,2056,2053,2064,1929,2082,2060,1196
637,1716364540930002190,2056,2062,2068,2100,2013,2049,1196
638,1716364540940007063,2058,2054,2062,2089,2056,2054,1196
639,1716364540950006067,2052,2058,2047,2022,2045,2049,1197
640,1716364540960008485,2058,2050,2048,2087,2060,2060,1196
641,1716364540969999574,2056,2053,2047,2020,2075,2056,1196
642,1716364540980004778,2053,2052,2040,2034,2034,2050,1197
643,1716364540990005334,2063,2052,2049,2065,2009,2048,1196
644,1716364541000002322,2060,2065,2090,2080,2047,2054,1196
645,1716364541010020903,2054,2052,2057,2064,2032,2058,1194
646,1716364541020003444,2052,2053,2073,1947,2136,2061,1196
647,1716364541030007096,2058,2056,2053,2107,2070,2049,1196
648,1716364541040015496,2052,2048,2050,2082,2106,2068,1196
649,1716364541050004469,2048,2050,2041,2072,1972,2048,1196
650,1716364541060002611,2048,2057,2047,2011,2060,2040,1192
651,1716364541070003176,2056,2057,2065,2093,2074,2050,1196
652,1716364541080005817,2053,2051,2052,2077,2061,2057,1195
653,1716364541090008546,2056,2065,2081,2031,2038,2064,1198
654,1716364541100046413,2045,2052,2088,2280,2144,2072,1197
655,1716364541110009187,2059,2056,2028,2029,2090,2052,1194
656,1716364541120002108,2052,2048,2047,2066,2056,2069,1198
657,1716364541130004898,2063,2062,2089,2052,2082,2064,1198
658,1716364541140004623,2052,2047,2044,2052,2069,2064,1194
659,1716364541150006410,2054,2057,2048,2041,2047,2035,1192
660,1716364541160005514,2052,2056,2065,2053,2128,2044,1193
661,1716364541170008093,2056,2057,2062,2173,2037,2051,1197
662,1716364541180009400,2052,2048,2049,2071,2053,2052,1195
663,1716364541190004515,2058,2072,2129,2096,2085,2051,1197
664,1716364541200033916,2051,2046,2040,2082,2154,2078,1194
665,1716364541210004565,2054,2056,2055,2119,2085,2064,1193
666,1716364541220003728,2057,2060,2069,2150,2082,2068,1195
667,1716364541230006037,2056,2054,2072,2056,2027,2060,1193
668,1716364541240003056,2055,2054,2062,2056,2056,2057,1195
669,1716364541250005085,2065,2068,2065,1976,2049,2039,1195
670,1716364541260006061,2054,2041,2042,2040,1946,2048,1196
671,1716364541270006336,2053,2054,2057,2016,2030,2046,1192
672,1716364541280004497,2057,2059,2061,2042,2047,2062,1198
673,1716364541290005234,2056,2055,2051,2087,2066,2046,1192
674,1716364541300004366,2054,2052,2056,2099,2006,2045,1195
675,1716364541310004151,2050,2050,2041,2066,2027,2040,1194
676,1716364541320005468,2044,2048,2046,2132,2002,2057,1197
677,1716364541330008679,2052,2056,2053,2057,1967,2060,1196
678,1716364541339973917,2056,2050,2053,1989,2110,2058,1196
679,1716364541350004520,2057,2056,2066,2059,2053,2047,1195
680,1716364541360004294,2070,2057,2057,2138,2096,2077,1197
681,1716364541370015130,2052,2052,2056,2034,2012,2056,1197
682,1716364541380009363,2054,2052,2038,2080,2022,2047,1195
683,1716364541390005822,2054,2058,2063,1989,1857,2013,1195
684,1716364541400010645,2068,2057,2058,2045,2063,2062,1197
685,1716364541410005721,2057,2056,2056,2044,2042,2040,1192
686,1716364541420008771,2053,2052,2059,2020,1928,2047,1194
687,1716364541430007213,2053,2058,2070,2216,2018,2046,1193
688,1716364541440004302,2053,2050,2043,1979,2023,2072,1196
689,1716364541450005579,2058,2057,2064,1884,2050,2044,1194
690,1716364541460022896,2057,2056,2064,2115,2075,2076,1198
691,1716364541470010197,2053,2052,2066,2093,2070,2054,1196
692,1716364541480007857,2052,2047,2046,2025,2057,2056,1197
693,1716364541490010316,2060,2056,2040,1978,1997,2044,1193
694,1716364541500006574,2056,2056,2059,1989,2018,2045,1194
695,1716364541510006568,2050,2056,2057,2093,2026,2036,1193
696,1716364541520007696,2058,2056,2064,2029,2050,2060,1198
697,1716364541530009714,2054,2061,2060,2178,2066,2049,1195
698,1716364541540007224,2056,2050,2052,2061,2043,2057,1195
699,1716364541550007820,2059,2064,2051,2061,2035,2048,1197
700,1716364541560008486,2063,2060,2064,2040,2002,2063,1196
701,1716364541570009061,2067,2056,2046,2011,2000,2056,1197
702,1716364541580009648,2060,2061,2100,2070,2035,2047,1193
703,1716364541590009151,2058,2065,2080,2094,2042,2053,1194
704,1716364541600009717,2058,2053,2056,1931,2126,2074,1197
705,1716364541610012096,2064,2052,2046,2007,2010,2035,1193
706,1716364541620010458,2052,2048,2048,1965,2045,2056,1193
707,1716364541630010843,2056,2055,2042,1986,2020,2035,1194
708,1716364541640010127,2054,2057,2078,2080,2089,2058,1195
709,1716364541650009921,2060,2059,2041,1971,2020,2054,1195
710,1716364541660013593,2052,2049,2037,1973,1829,2032,1193
711,1716364541670011273,2074,2066,2056,1965,1976,2025,1194
712,1716364541680011006,2064,2047,2032,1996,1886,2030,1193
713,1716364541690011903,2061,2061,2072,2000,2246,2053,1197
714,1716364541700011958,2050,2045,2038,1989,1996,2049,1196
715,1716364541710012464,2051,2045,2044,2049,2091,2052,1198
716,1716364541720012949,2052,2049,2043,2093,2077,2065,1196
717,1716364541730013715,2047,2051,2050,2080,2077,2051,1194
718,1716364541740013028,2048,2054,2068,2042,1933,2038,1194
719,1716364541750014466,2052,2046,2033,2049,2076,2047,1196
720,1716364541760014160,2049,2054,2052,2212,2150,2073,1196
721,1716364541770014987,2044,2046,2045,2008,2007,2047,1193
722,1716364541780015622,2053,2052,2046,2012,2092,2068,1195
723,1716364541790014796,2048,2049,2043,2088,2093,2060,1194
724,1716364541800044155,2056,2056,2056,2024,1976,2048,1195
725,1716364541810017240,2067,2056,2052,2077,2007,2048,1194
726,1716364541820016212,2063,2069,2068,2017,2030,2038,1192
727,1716364541829998904,2052,2056,2059,2105,2056,2036,1193
728,1716364541839998207,2056,2049,2051,2050,2112,2078,1193
729,1716364541849999264,2056,2056,2055,2057,2044,2060,1195
730,1716364541860017363,2054,2050,2058,2069,2094,2062,1196
731,1716364541870022698,2063,2061,2061,2049,2103,2035,1193
732,1716364541880019797,2053,2053,2060,2152,2058,2056,1194
733,1716364541890000896,2053,2047,2054,1958,2015,2056,1198
734,1716364541900002544,2050,2059,2098,2082,2169,2072,1195
735,1716364541910018769,2056,2053,2049,2051,2080,2055,1198
736,1716364541920018934,2060,2064,2081,2130,2154,2057,1198
737,1716364541930020873,2054,2056,2049,2072,2030,2057,1196
738,1716364541940003214,2054,2052,2051,2032,2110,2076,1197
739,1716364541950003739,2052,2057,2061,2051,2091,2040,1194
740,1716364541960021257,2056,2044,2040,2080,2008,2053,1197
741,1716364541970005772,2064,2079,2117,2140,1948,2022,1195
742,1716364541980005266,2056,2042,2029,2015,2001,2037,1196
743,1716364541990005371,2061,2056,2043,2029,2045,2054,1195
744,1716364542000029762,2052,2052,2060,2045,2241,2079,1196
745,1716364542010007103,2061,2056,2057,2043,1958,2048,1195
746,1716364542020003392,2061,2055,2056,2097,2092,2057,1196
747,1716364542030008095,2056,2056,2056,2070,2067,2037,1193
748,1716364542040005335,2053,2056,2081,2114,2048,2068,1195
749,1716364542050008365,2056,2049,2034,2130,2053,2045,1195
750,1716364542060011095,2057,2056,2068,2009,1742,2025,1193
751,1716364542070004667,2061,2057,2067,2020,2045,2043,1195
752,1716364542080007668,2052,2051,2053,2118,2159,2069,1195
753,1716364542090004636,2059,2056,2053,2130,2043,2043,1193
754,1716364542100007787,2056,2060,2092,2086,2066,2066,1196
755,1716364542110050473,2056,2057,2064,2036,2043,2052,1197
756,1716364542120009420,2049,2048,2054,2193,2145,2064,1196
757,1716364542130004144,2056,2052,2053,2020,2009,2049,1196
758,1716364542140006834,2054,2050,2046,2002,2027,2042,1195
759,1716364542150006899,2058,2059,2057,2112,2129,2043,1194
760,1716364542160032002,2064,2062,2068,2027,2084,2081,1197
761,1716364542170006748,2053,2048,2029,2025,2050,2045,1193
762,1716364542180005300,2056,2052,2027,2056,2066,2050,1198
763,1716364542190008410,2052,2050,2041,1985,2040,2056,1197
764,1716364542200034134,2049,2045,2056,2130,2110,2056,1194
765,1716364542210001928,2055,2064,2073,2057,2057,2053,1195
766,1716364542220023002,2059,2056,2058,2050,2014,2048,1196
767,1716364542230002458,2057,2061,2070,2080,2108,2053,1197
768,1716364542240002663,2057,2056,2064,2106,2094,2056,1196
769,1716364542249999031,2054,2053,2050,2104,2059,2053,1194
770,1716364542260007351,2052,2049,2036,1990,2002,2048,1197
771,1716364542270018297,2049,2051,2048,1997,2063,2060,1195
772,1716364542280009935,2053,2053,2052,1969,2138,2070,1195
773,1716364542290008999,2057,2054,2053,2060,2043,2056,1195
774,1716364542300009544,2053,2056,2062,2034,2057,2070,1197
775,1716364542310012765,2053,2056,2057,1934,1876,2022,1193
776,1716364542320046684,2056,2049,2056,2087,2059,2056,1196
777,1716364542330003397,2056,2060,2068,2100,2078,2058,1195
778,1716364542340007990,2057,2056,2052,2012,1992,2046,1194
779,1716364542350006011,2057,2058,2057,2068,1990,2053,1196
780,1716364542360006306,2050,2047,2052,1997,1961,2033,1195
781,1716364542370004147,2052,2053,2052,2088,2066,2045,1194
782,1716364542380009141,2048,2050,2054,2038,2018,2038,1193
783,1716364542390005539,2058,2057,2048,1924,2032,2037,1194
784,1716364542400008699,2058,2061,2053,2015,2005,2047,1192
785,1716364542410008795,2056,2060,2067,2041,2037,2052,1194
786,1716364542420048694,2066,2050,2051,2096,2048,2060,1197
787,1716364542430005478,2053,2052,2049,2034,2040,2047,1193
788,1716364542439997737,2070,2050,2042,2113,2093,2077,1197
789,1716364542450003303,2060,2056,2058,2114,2133,2078,1197
790,1716364542459998298,2056,2052,2058,2074,2056,2048,1197
791,1716364542470005286,2052,2050,2041,2011,2051,2066,1197
792,1716364542479999589,2049,2050,2040,2056,2113,2052,1196
793,1716364542490020875,2052,2054,2061,2074,2098,2046,1194
794,1716364542500009367,2051,2052,2050,2046,2058,2058,1197
795,1716364542510007619,2052,2055,2050,2068,2073,2047,1194
796,1716364542520006531,2056,2052,2048,2105,2045,2044,1195
797,1716364542530031223,2058,2068,2099,2094,2111,2053,1195
798,1716364542539973598,2056,2048,2056,2077,2067,2059,1196
799,1716364542550012547,2056,2053,2034,2085,2043,2041,1194
800,1716364542560006400,2056,2053,2052,2088,2152,2069,1196
801,1716364542570014711,2056,2060,2065,2045,2044,2057,1196
802,1716364542580001290,2056,2060,2097,2093,2069,2061,1196
803,1716364542590008719,2056,2054,2067,2015,2030,2046,1193
804,1716364542600005988,2050,2047,2057,2042,2096,2069,1196
805,1716364542610013537,2057,2058,2056,2037,2033,2044,1191
806,1716364542620005156,2050,2052,2058,2078,2177,2077,1194
807,1716364542630041670,2056,2058,2052,2032,2057,2048,1195
808,1716364542640022508,2051,2052,2044,1953,2121,2056,1195
809,1716364542650004920,2054,2054,2043,2066,2046,2045,1194
810,1716364542660004333,2056,2054,2056,2033,2009,2056,1194
811,1716364542670005931,2055,2054,2037,2050,2017,2046,1192
812,1716364542680005104,2055,2053,2052,2086,2110,2066,1196
813,1716364542690015809,2050,2050,2058,2043,2129,2045,1194
814,1716364542700007127,2056,2053,2041,2101,2108,2056,1199
815,1716364542710004217,2057,2052,2044,2068,2044,2053,1198
816,1716364542720007016,2053,2052,2060,2067,2042,2045,1195
817,1716364542730004817,2056,2055,2067,2093,2026,2049,1198
818,1716364542740024769,2053,2056,2054,2047,1976,2052,1195
819,1716364542750005788,2053,2055,2049,2058,2125,2058,1196
820,1716364542760004761,2050,2046,2045,2040,2069,2065,1196
821,1716364542770004525,2052,2060,2088,2081,2015,2039,1194
822,1716364542780005041,2056,2056,2060,2021,2096,2074,1196
823,1716364542790007189,2056,2056,2061,2058,2004,2055,1196
824,1716364542800004539,2062,2061,2085,2022,2058,2057,1196
825,1716364542810007309,2053,2050,2047,2040,1998,2043,1194
826,1716364542820005220,2050,2045,2029,1992,2067,2057,1197
827,1716364542830005655,2052,2048,2046,1965,2030,2034,1195
828,1716364542840016841,2051,2050,2064,2148,2100,2056,1195
829,1716364542850005223,2059,2058,2046,2075,2063,2060,1196
830,1716364542860002734,2054,2048,2045,2020,2071,2053,1197
831,1716364542870010984,2056,2053,2043,2007,2044,2056,1196
832,1716364542880002343,2051,2046,2039,1973,2032,2054,1196
833,1716364542890013037,2052,2055,2082,2015,2020,2042,1195
834,1716364542900001691,2056,2053,2047,2046,2176,2069,1196
835,1716364542910001304,2055,2054,2052,2051,2056,2055,1197
836,1716364542920009635,2059,2061,2068,2088,2022,2072,1196
837,1716364542930001464,2051,2052,2044,2088,2086,2051,1196
838,1716364542940031586,2051,2052,2060,2051,2065,2064,1197
839,1716364542950000451,2050,2053,2065,2096,2083,2044,1194
840,1716364542960001629,2060,2056,2058,2062,2040,2061,1197
841,1716364542970023785,2056,2055,2064,1999,1996,2039,1194
842,1716364542980006157,2054,2055,2064,2120,2060,2069,1198
843,1716364542990005580,2050,2050,2043,2120,2052,2044,1193
844,1716364543000005395,2054,2052,2054,2022,2096,2062,1198
845,1716364543010004878,2059,2060,2053,2018,2069,2040,1193
846,1716364543020007899,2053,2047,2037,2037,2116,2072,1195
847,1716364543030008073,2050,2056,2066,2038,2052,2056,1194
848,1716364543040030441,2056,2056,2093,2005,2047,2064,1197
849,1716364543050005358,2054,2060,2067,1957,2125,2046,1194
850,1716364543060006996,2057,2054,2053,2010,2053,2067,1197
851,1716364543070009455,2055,2054,2052,2047,2065,2049,1197
852,1716364543080012556,2056,2056,2056,2112,2129,2063,1196
853,1716364543090017469,2056,2056,2060,2098,2061,2056,1196
854,1716364543100008979,2056,2052,2040,2096,2067,2055,1195
855,1716364543110006518,2065,2060,2066,2028,2039,2046,1194
856,1716364543120011403,2057,2047,2045,2033,2038,2060,1198
857,1716364543130011006,2058,2055,2051,2062,2036,2041,1195
858,1716364543140028635,2057,2049,2058,2070,2022,2054,1197
859,1716364543150012979,2053,2059,2064,2059,1963,2019,1192
860,1716364543160007704,2049,2049,2049,2051,1974,2039,1194
861,1716364543170014211,2053,2051,2047,2031,1989,2047,1193
862,1716364543180010820,2057,2056,2043,2014,2126,2061,1197
863,1716364543190011134,2053,2053,2059,2024,1974,2057,1198
864,1716364543200010228,2053,2054,2060,2064,2025,2059,1197
865,1716364543210010943,2058,2053,2043,2088,1974,2050,1197
866,1716364543220012391,2057,2052,2058,1879,2056,2068,1198
867,1716364543230015371,2056,2056,2052,2126,2077,2062,1199
868,1716364543240013353,2057,2053,2051,2027,2056,2056,1195
869,1716364543250015220,2056,2048,2033,2104,2072,2049,1197
870,1716364543260016548,2054,2050,2043,2094,2094,2061,1199
871,1716364543270013356,2059,2056,2041,2018,2050,2057,1195
872,1716364543280013492,2055,2052,2052,2132,2122,2057,1196
873,1716364543290018365,2059,2059,2040,2104,2057,2056,1199
874,1716364543300037577,2059,2052,2050,2069,2069,2060,1197
875,1716364543310000982,2050,2052,2041,2015,2088,2068,1197
876,1716364543320018670,2056,2058,2055,2068,2080,2059,1200
877,1716364543330003466,2057,2051,2050,2120,2053,2044,1195
878,1716364543340004834,2053,2055,2045,2105,2112,2064,1198
879,1716364543350004587,2049,2045,2032,1988,1998,2052,1198
880,1716364543360004312,2059,2066,2088,2101,2053,2055,1197
881,1716364543370008845,2053,2049,2044,2058,2067,2049,1196
882,1716364543380023578,2056,2052,2054,2005,2009,2072,1196
883,1716364543390006610,2056,2058,2060,2046,2041,2065,1196
884,1716364543400021333,2054,2049,2052,2056,2057,2053,1197
885,1716364543410007471,2062,2062,2060,2075,2005,2045,1192
886,1716364543420008067,2056,2052,2062,2104,2054,2054,1195
887,1716364543430004324,2052,2047,2039,2052,2066,2059,1196
888,1716364543440006343,2055,2053,2051,2068,2041,2056,1195
889,1716364543450004594,2060,2059,2056,2026,2009,2054,1197
890,1716364543460007305,2054,2054,2056,2090,2065,2064,1198
891,1716364543470005515,2056,2058,2057,2067,1978,2048,1198
892,1716364543480004108,2054,2053,2064,2064,2072,2060,1197
893,1716364543490005104,2057,2055,2049,2049,2139,2057,1198
894,1716364543500008686,2052,2044,2036,2024,2044,2045,1194
895,1716364543510008600,2059,2061,2056,2029,1990,2053,1196
896,1716364543520005770,2056,2049,2056,2076,2017,2050,1197
897,1716364543530003800,2050,2052,2052,2043,2084,2053,1200
898,1716364543540006370,2053,2054,2047,2096,2033,2058,1197
899,1716364543550017856,2053,2054,2053,2062,2039,2043,1195
900,1716364543560005859,2049,2050,2045,2079,2014,2045,1193
901,1716364543569979463,2053,2056,2049,2038,2065,2052,1197
902,1716364543579985680,2050,2046,2051,2012,2120,2074,1198
903,1716364543590009670,2052,2054,2063,2012,2068,2057,1197
904,1716364543600005297,2061,2056,2057,2085,2036,2057,1198
905,1716364543610009649,2057,2049,2046,2016,1922,2029,1193
906,1716364543620006829,2056,2046,2045,2047,2001,2062,1199
907,1716364543630004649,2061,2069,2106,2047,2114,2061,1198
908,1716364543640004995,2052,2045,2032,2060,2082,2064,1197
909,1716364543650003166,2063,2060,2087,2111,2076,2052,1196
910,1716364543660005916,2052,2049,2057,2002,2030,2050,1198
911,1716364543670006361,2056,2056,2062,2040,2115,2047,1195
912,1716364543680003290,2054,2057,2061,2085,2053,2055,1197
913,1716364543690007112,2052,2051,2056,2005,1928,2028,1196
914,1716364543700011626,2050,2052,2051,2049,2040,2051,1197
915,1716364543710012281,2054,2051,2049,2079,2046,2040,1194
916,1716364543720013579,2056,2053,2061,2143,2136,2068,1197
917,1716364543730009034,2050,2049,2036,2050,2081,2042,1194
918,1716364543740008589,2058,2056,2057,2128,2068,2054,1197
919,1716364543750006990,2056,2056,2066,2100,2088,2064,1197
920,1716364543760007877,2056,2052,2056,2070,2056,2057,1197
921,1716364543770005787,2056,2056,2060,2034,2050,2047,1196
922,1716364543780006293,2058,2056,2056,2099,2099,2060,1196
923,1716364543790007329,2046,2048,2052,2121,2286,2047,1198
924,1716364543800006984,2060,2060,2065,2034,1981,2059,1196
925,1716364543810007920,2053,2056,2062,2055,2077,2052,1194
926,1716364543820006502,2051,2047,2053,2029,2045,2057,1197
927,1716364543830008240,2053,2054,2043,2060,2024,2047,1194
928,1716364543840007724,2054,2059,2067,2080,1786,1991,1195
929,1716364543850006245,2058,2057,2053,2064,2177,2056,1198
930,1716364543860006812,2045,2056,2060,1990,2128,2059,1198
931,1716364543870005924,2064,2056,2052,2051,2044,2013,1195
932,1716364543880006470,2058,2056,2069,2091,2181,2059,1196
933,1716364543890007316,2065,2058,2056,1989,2042,2052,1196
934,1716364543900008163,2047,2055,2052,2020,2125,2070,1197
935,1716364543910011544,2056,2058,2099,1969,2038,2044,1195
936,1716364543920005678,2044,2038,2037,2052,2100,2059,1198
937,1716364543930003909,2049,2053,2060,2051,2030,2037,1196
938,1716364543940006439,2058,2054,2054,2080,2170,2066,1197
939,1716364543950006162,2068,2061,2056,2083,2058,2060,1197
940,1716364543960007089,2050,2047,2069,2121,2061,2037,1193
941,1716364543970007184,2061,2055,2056,2072,2041,2056,1197
942,1716364543980007640,2064,2050,2047,2081,1928,2022,1193
943,1716364543990004287,2060,2061,2056,2001,2020,2034,1195
944,1716364544000008090,2057,2053,2025,2011,2046,2055,1196
945,1716364544010010749,2067,2059,2060,2014,2049,2027,1193
946,1716364544020007007,2056,2053,2065,2019,1999,2050,1198
947,1716364544030004156,2057,2054,2040,2119,1941,2042,1193
948,1716364544040005804,2051,2041,2047,2100,1968,2040,1193
949,1716364544050004897,2052,2056,2065,2035,2023,2044,1194
950,1716364544060006285,2066,2058,2064,2029,2044,2059,1197
951,1716364544070005257,2052,2062,2064,2013,2044,2028,1194
952,1716364544080003779,2050,2052,2052,2141,2000,2056,1198
953,1716364544090005206,2052,2040,2024,2042,2051,2047,1194
954,1716364544100008047,2062,2050,2034,2143,2261,2089,1198
955,1716364544110009985,2053,2056,2053,2072,2023,2028,1194
956,1716364544119998578,2050,2046,2042,2040,1880,2035,1195
957,1716364544130003632,2053,2058,2048,2024,1946,2024,1192
958,1716364544140003247,2052,2056,2062,2058,2042,2061,1197
959,1716364544150004243,2053,2051,2047,2115,2036,2056,1197
960,1716364544159976475,2052,2048,2052,1970,1999,2041,1196
961,1716364544170011385,2054,2050,2048,2020,2054,2045,1195
962,1716364544180006001,2057,2053,2073,2036,2038,2067,1195
963,1716364544190009331,2057,2053,2052,2076,2053,2050,1197
964,1716364544200007643,2052,2051,2061,2091,2034,2052,1197
965,1716364544210005553,2052,2052,2057,2068,2133,2056,1194
966,1716364544220023422,2064,2066,2072,2095,2024,2057,1196
967,1716364544230009400,2060,2053,2059,2097,2075,2050,1193
968,1716364544240008514,2050,2050,2055,2068,2002,2060,1196
969,1716364544250003890,2054,2053,2051,2017,2040,2052,1195
970,1716364544260005277,2052,2044,2046,2056,2074,2062,1197
971,1716364544270003578,2052,2052,2044,2089,2040,2042,1192
972,1716364544280005988,2052,2045,2044,2016,2116,2073,1196
973,1716364544289996675,2053,2052,2041,2049,2027,2047,1194
974,1716364544300009814,2056,2052,2042,2101,1977,2064,1197
975,1716364544310005952,2052,2049,2056,2149,2059,2050,1198
976,1716364544320004103,2059,2049,2058,2040,2049,2064,1198
977,1716364544330011702,2053,2050,2052,2077,2048,2042,1193
978,1716364544340007198,2080,2057,2061,2116,2065,2053,1195
979,1716364544350006041,2090,2062,2044,2053,2014,2040,1195
980,1716364544360010033,2053,2053,2083,2121,2225,2072,1196
981,1716364544370040035,2045,2051,2052,2026,2042,2038,1194
982,1716364544380008259,2055,2052,2036,2132,2022,2054,1197
983,1716364544390005448,2056,2056,2032,2024,1996,2050,1195
984,1716364544400008509,2057,2057,2052,2021,2010,2035,1192
985,1716364544410004596,2047,2041,2042,1931,1978,2037,1193
986,1716364544420005913,2051,2042,2049,2058,2085,2073,1196
987,1716364544430007642,2061,2049,2031,2008,2032,2047,1194
988,1716364544440005772,2059,2056,2045,2255,2164,2076,1198
989,1716364544450006860,2049,2053,2050,2045,2018,2035,1195
990,1716364544460004409,2052,2048,2045,2093,1999,2050,1196
991,1716364544470004595,2056,2052,2057,2116,2081,2048,1198
992,1716364544480004639,2056,2056,2080,2092,2073,2054,1197
993,1716364544490003252,2049,2053,2051,2115,2054,2046,1194
994,1716364544500010129,2045,2052,2066,2040,2043,2050,1195
995,1716364544510002780,2050,2046,2059,2100,2076,2057,1196
996,1716364544520006231,2054,2050,2055,2145,2074,2062,1197
997,1716364544530017808,2060,2067,2085,2078,2073,2053,1196
998,1716364544540003295,2054,2055,2065,2073,2080,2060,1198
999,1716364544550001386,2056,2047,2053,2021,2094,2057,1197
1000,1716364544560006260,2056,2051,2070,2149,2109,2079,1197
1001,1716364544570001897,2049,2047,2036,2045,2037,2041,1192
1002,1716364544580001881,2060,2048,2058,2058,2065,2052,1196
1003,1716364544590000864,2058,2053,2060,2092,2035,2056,1196
1004,1716364544600004014,2056,2054,2062,2037,2074,2060,1198
1005,1716364544610011704,2056,2064,2096,2015,2056,2049,1193
1006,1716364544620003242,2053,2052,2058,2045,2060,2060,1196
1007,1716364544629999661,2049,2050,2037,2122,2063,2049,1198
1008,1716364544640018030,2056,2051,2043,1997,2028,2052,1196
1009,1716364544650002235,2056,2055,2063,2074,2038,2052,1198
1010,1716364544660002730,2053,2054,2058,2044,2018,2041,1193
1011,1716364544670000561,2055,2057,2085,2056,2068,2058,1196
1012,1716364544680003441,2049,2045,2043,2160,2076,2049,1196
1013,1716364544690018885,2052,2050,2067,2065,2064,2062,1195
1014,1716364544700006506,2050,2051,2046,2068,2060,2060,1196
1015,1716364544710003485,2056,2056,2044,2051,2060,2045,1194
1016,1716364544720003460,2060,2055,2056,2080,2061,2063,1197
1017,1716364544730003625,2054,2053,2046,2068,2100,2056,1196
1018,1716364544740023527,2052,2054,2053,2016,2045,2058,1197
1019,1716364544750007702,2058,2056,2049,2029,2049,2047,1196
1020,1716364544760002417,2056,2049,2046,2045,2040,2064,1197
1021,1716364544770005668,2053,2052,2052,2017,2040,2052,1195
1022,1716364544780005152,2052,2047,2043,2016,2037,2059,1198
1023,1716364544790007220,2054,2058,2059,2027,2032,2045,1194
1024,1716364544800006404,2054,2052,2052,2089,2066,2068,1198
1025,1716364544810006809,2054,2056,2054,1994,2047,2047,1194
1026,1716364544820004920,2058,2064,2065,2072,2064,2047,1191
1027,1716364544830004915,2058,2058,2061,2029,2067,2054,1197
1028,1716364544840022473,2058,2062,2100,1999,2049,2045,1194
1029,1716364544850004523,2054,2056,2047,2040,2077,2068,1196
1030,1716364544860008496,2054,2051,2062,2080,2012,2037,1194
1031,1716364544870004533,2057,2056,2061,2071,2043,2054,1197
1032,1716364544880006762,2056,2052,2068,2020,1956,2045,1197
1033,1716364544890013118,2053,2057,2046,2035,2070,2065,1198
1034,1716364544900003125,2057,2057,2065,2063,2072,2076,1196
1035,1716364544910006395,2056,2053,2050,2087,2052,2035,1197
1036,1716364544920005488,2069,2056,2044,2009,1982,2052,1197
1037,1716364544930006915,2057,2056,2041,1993,2029,2036,1194
1038,1716364544940040765,2051,2046,2041,2014,2049,2052,1197
1039,1716364544950005562,2057,2056,2050,2080,2041,2059,1195
1040,1716364544960005928,2056,2053,2056,1993,2011,2060,1195
1041,1716364544970004980,2056,2056,2062,2037,2060,2056,1194
1042,1716364544980005577,2052,2052,2061,2037,1920,2052,1195
1043,1716364544990013967,2056,2051,2060,2129,2097,2053,1195
1044,1716364545000003863,2057,2052,2066,2021,2053,2069,1197
1045,1716364545010006302,2050,2050,2059,2082,2084,2047,1193
1046,1716364545020006557,2054,2056,2051,2052,2058,2060,1196
1047,1716364545030021630,2054,2059,2056,2071,2062,2051,1199
1048,1716364545040041493,2058,2058,2089,2052,2047,2057,1197
1049,1716364545050007823,2056,2053,2049,2036,2015,2037,1195
1050,1716364545060007769,2053,2051,2044,2026,2049,2058,1198
1051,1716364545070008705,2047,2047,2047,2068,2121,2072,1198
1052,1716364545080009231,2060,2051,2053,2048,2084,2065,1197
1053,1716364545090009997,2058,2060,2059,2008,2035,2036,1195
1054,1716364545100009230,2047,2052,2052,2012,2086,2059,1195
1055,1716364545110009506,2057,2061,2073,2032,1991,2029,1196
1056,1716364545120009811,2056,2056,2060,2096,2056,2059,1197
1057,1716364545130009996,2055,2052,2056,2020,2060,2038,1194
1058,1716364545140010622,2057,2060,2096,2052,2054,2063,1195
1059,1716364545150011939,2056,2056,2057,2090,2061,2048,1195
1060,1716364545160011443,2054,2053,2050,2078,2066,2058,1196
1061,1716364545170011738,2056,2055,2046,2017,2044,2047,1194
1062,1716364545180011722,2053,2053,2060,2102,2118,2060,1197
1063,1716364545190011347,2056,2049,2056,2083,2074,2043,1194
1064,1716364545200012724,2066,2068,2086,2033,2102,2072,1197
1065,1716364545210013480,2060,2059,2075,2049,2051,2051,1194
1066,1716364545220013855,2058,2060,2057,2070,2064,2064,1196
1067,1716364545230013620,2059,2064,2061,2098,2085,2062,1195
1068,1716364545240014256,2053,2058,2065,2088,2072,2066,1194
1069,1716364545250015092,2049,2052,2053,2110,2056,2061,1194
1070,1716364545260016058,2057,2058,2072,2062,2083,2070,1196
1071,1716364545270035661,2059,2054,2045,2064,2092,2048,1196
1072,1716364545280014966,2054,2046,2045,2072,2053,2042,1192
1073,1716364545290015372,2056,2059,2073,1890,2092,2046,1195
1074,1716364545300026357,2053,2051,2050,2053,2055,2061,1195
1075,1716364545310024889,2056,2052,2050,2052,2044,2046,1193
1076,1716364545320017810,2055,2051,2054,2040,2033,2052,1198
1077,1716364545330000763,2055,2058,2098,2017,2023,2047,1194
1078,1716364545340018251,2051,2051,2054,1941,2029,2065,1199
1079,1716364545350023906,2072,2058,2049,2040,2050,2047,1192
1080,1716364545360019473,2057,2059,2064,2060,2062,2062,1196
1081,1716364545370019427,2050,2052,2058,2017,2071,2050,1195
1082,1716364545380003031,2049,2043,2044,2042,2057,2057,1196
1083,1716364545390020268,2056,2058,2051,2065,2051,2046,1193
1084,1716364545400002489,2056,2048,2042,2040,2044,2055,1198
1085,1716364545410003716,2053,2052,2050,2036,2056,2050,1194
1086,1716364545420027336,2052,2053,2071,2045,2057,2058,1196
1087,1716364545430002723,2053,2053,2050,2052,2053,2056,1197
1088,1716364545440003801,2050,2053,2054,2125,2106,2072,1196
1089,1716364545450004797,2055,2056,2044,2029,2052,2044,1196
1090,1716364545460006085,2049,2043,2043,2108,2161,2075,1197
1091,1716364545470003103,2056,2056,2052,2113,2047,2040,1193
1092,1716364545480004311,2059,2050,2053,2131,2059,2061,1197
1093,1716364545490003082,2056,2051,2045,2012,2029,2033,1192
1094,1716364545500004560,2056,2053,2048,2037,2034,2058,1197
1095,1716364545510008192,2060,2052,2042,1989,2028,2044,1193
1096,1716364545520024708,2056,2053,2056,2052,2014,2056,1197
1097,1716364545530001619,2056,2059,2056,2120,2096,2063,1198
1098,1716364545540002595,2056,2053,2057,2109,2062,2064,1195
1099,1716364545550000627,2056,2056,2045,2060,2044,2041,1193
1100,1716364545560032932,2052,2053,2053,2135,2075,2059,1197
1101,1716364545569999173,2055,2053,2051,2064,2041,2033,1195
1102,1716364545580007644,2054,2046,2047,2051,2054,2058,1197
1103,1716364545590004483,2056,2056,2040,2097,2013,2036,1194
1104,1716364545600010408,2058,2053,2041,2128,2033,2055,1196
1105,1716364545610006757,2058,2053,2049,2133,2062,2049,1194
1106,1716364545620004597,2056,2051,2055,2084,2079,2051,1199
1107,1716364545630002027,2054,2061,2054,2033,2045,2046,1194
1108,1716364545640002182,2056,2052,2053,2077,2018,2057,1195
1109,1716364545650003860,2058,2058,2061,2043,2034,2047,1192
1110,1716364545660016047,2054,2052,2052,2041,2047,2056,1196
1111,1716364545670005593,2058,2050,2047,2020,2022,2062,1197
1112,1716364545680003062,2059,2066,2092,2068,2035,2052,1197
1113,1716364545690003789,2056,2051,2045,2065,2058,2048,1198
1114,1716364545700004454,2054,2040,2032,2082,2057,2054,1197
1115,1716364545710007365,2056,2056,2074,2073,2060,2049,1195
1116,1716364545720003061,2053,2053,2052,2094,2082,2064,1200
1117,1716364545730002034,2058,2056,2042,2056,2033,2043,1193
1118,1716364545740004614,2059,2065,2079,2066,2041,2068,1197
1119,1716364545750005039,2058,2058,2057,2081,2052,2052,1197
1120,1716364545760017779,2056,2052,2052,2066,2061,2060,1196
1121,1716364545770001682,2061,2069,2121,2016,2046,2047,1192
1122,1716364545780002670,2048,2046,2037,2066,2040,2065,1197
1123,1716364545790005188,2059,2062,2060,1984,2059,2047,1194
1124,1716364545800006166,2060,2056,2038,2052,2064,2056,1199
1125,1716364545810005849,2052,2046,2030,2073,2053,2051,1196
1126,1716364545820004923,2053,2053,2056,2090,2070,2066,1198
1127,1716364545830004346,2056,2053,2051,2032,2023,2043,1195
1128,1716364545840003349,2057,2052,2040,2053,2063,2052,1199
1129,1716364545850003724,2053,2052,2046,2072,2100,2040,1196
1130,1716364545860027053,2056,2055,2056,2050,2054,2056,1197
1131,1716364545870011518,2051,2045,2031,2021,2038,2047,1195
1132,1716364545880000072,2055,2053,2064,2057,2064,2065,1197
1133,1716364545890001879,2045,2026,1981,2074,2053,2048,1195
1134,1716364545900003668,2041,2011,1889,2056,2053,2058,1198
1135,1716364545910005365,2054,2048,2037,2050,2044,2048,1197
1136,1716364545920004268,2056,2052,2053,2065,2064,2058,1200
1137,1716364545930007208,2060,2064,2069,2076,2037,2052,1197
1138,1716364545940008055,2053,2050,2049,2088,2091,2075,1195
1139,1716364545950004714,2054,2053,2058,2059,2080,2050,1197
1140,1716364545960032741,2053,2053,2048,2076,2006,2041,1192
1141,1716364545970001186,2053,2053,2057,2080,2060,2045,1195
1142,1716364545980006170,2056,2052,2053,2049,2022,2057,1196
1143,1716364545990010143,2060,2056,2051,2053,2072,2044,1193
1144,1716364546000007101,2056,2053,2052,2069,2090,2064,1196
1145,1716364546010002558,2054,2050,2044,2099,2085,2050,1193
1146,1716364546020003324,2056,2053,2051,1994,1980,2056,1198
1147,1716364546030009521,2052,2056,2046,1924,2028,2038,1194
1148,1716364546040006369,2056,2054,2052,2073,2056,2064,1197
1149,1716364546050017475,2051,2053,2051,2065,1996,2050,1198
1150,1716364546060026496,2053,2049,2047,2056,2068,2064,1195
1151,1716364546070021843,2061,2068,2063,2058,2072,2049,1195
1152,1716364546080005646,2054,2053,2058,2081,2088,2076,1196
1153,1716364546090006974,2058,2052,2060,2080,2049,2050,1197
1154,1716364546100005976,2055,2051,2049,2093,2059,2058,1198
1155,1716364546110009027,2055,2061,2062,2126,2040,2052,1196
1156,1716364546120006407,2053,2056,2085,2012,2044,2054,1198
1157,1716364546130004508,2053,2052,2042,2045,1964,2033,1194
1158,1716364546140005024,2055,2046,2037,2049,2003,2042,1195
1159,1716364546150005950,2058,2058,2052,2109,2040,2050,1197
1160,1716364546160006186,2053,2049,2049,2058,2077,2058,1197
1161,1716364546170006461,2056,2060,2047,2061,2032,2050,1196
1162,1716364546180006556,2053,2047,2072,2024,2052,2052,1197
1163,1716364546190004967,2056,2050,2047,2037,2004,2032,1196
1164,1716364546200004802,2052,2050,2054,2085,2056,2065,1197
1165,1716364546210002893,2060,2059,2056,2066,2054,2048,1197
1166,1716364546220004862,2051,2052,2051,2037,2117,2056,1197
1167,1716364546230003583,2054,2053,2064,2088,2042,2050,1197
1168,1716364546240004761,2056,2056,2061,2058,2039,2063,1198
1169,1716364546250007541,2053,2050,2044,2060,2074,2045,1193
1170,1716364546260006323,2057,2054,2046,2074,2071,2060,1197
1171,1716364546270010085,2050,2049,2048,2060,2093,2047,1196
1172,1716364546280009258,2055,2050,2049,2030,2043,2053,1197
1173,1716364546290005917,2053,2053,2047,2041,2057,2048,1196
1174,1716364546300006342,2052,2053,2059,2018,2053,2061,1197
1175,1716364546310005957,2058,2058,2051,2031,2046,2049,1197
1176,1716364546320009848,2054,2056,2051,2116,2072,2053,1194
1177,1716364546330009743,2054,2048,2034,2075,2049,2053,1197
1178,1716364546340007703,2061,2064,2101,2057,2068,2069,1195
1179,1716364546350009232,2052,2044,2032,2041,1986,2028,1195
1180,1716364546360005509,2057,2053,2057,2099,2053,2057,1197
1181,1716364546370059697,2055,2058,2053,1995,2045,2048,1196
1182,1716364546380009706,2056,2057,2072,2077,2070,2057,1195
1183,1716364546390009741,2056,2061,2095,1868,2024,2040,1194
1184,1716364546400008293,2056,2057,2063,2098,2124,2057,1196
1185,1716364546410005102,2056,2056,2059,2100,2056,2047,1192
1186,1716364546420005537,2056,2047,2064,2062,2088,2058,1197
1187,1716364546430009059,2056,2053,2052,2028,2056,2041,1194
1188,1716364546440005056,2053,2050,2058,2009,2047,2060,1197
1189,1716364546450005562,2058,2062,2069,2064,2043,2055,1195
1190,1716364546460025124,2053,2049,2048,2068,2069,2060,1198
1191,1716364546470015680,2054,2056,2056,2057,2064,2044,1194
1192,1716364546480004705,2054,2051,2050,2034,2078,2063,1195
1193,1716364546490006693,2053,2054,2056,2117,2062,2051,1197
1194,1716364546500007299,2056,2052,2051,2036,2031,2052,1198
1195,1716364546510010689,2052,2052,2048,2040,2054,2047,1196
1196,1716364546520007669,2056,2053,2047,2056,2048,2057,1196
1197,1716364546530008254,2054,2052,2045,1992,2040,2049,1196
1198,1716364546540006085,2053,2047,2045,2075,2090,2061,1197
1199,1716364546550008886,2058,2060,2053,2088,2040,2046,1193
1200,1716364546560009662,2055,2053,2058,2105,2082,2057,1197
1201,1716364546570033241,2057,2059,2058,2052,2056,2050,1198
1202,1716364546580005273,2049,2053,2060,2044,2081,2058,1197
1203,1716364546590008263,2052,2051,2047,2029,1967,2033,1193
1204,1716364546600007867,2054,2052,2049,2090,2068,2065,1196
1205,1716364546610010688,2058,2070,2086,2034,2043,2049,1193
1206,1716364546620012585,2052,2047,2053,2082,2036,2047,1192
1207,1716364546630012651,2053,2053,2058,2040,2048,2054,1196
1208,1716364546640012705,2056,2051,2054,2076,2049,2060,1197
1209,1716364546650012319,2051,2049,2050,2013,2030,2042,1193
1210,1716364546660018405,2053,2051,2044,2023,2061,2064,1195
1211,1716364546670013491,2059,2053,2040,2041,2037,2044,1193
1212,1716364546680013345,2056,2058,2054,2085,2069,2056,1195
1213,1716364546690014082,2052,2052,2056,2088,2080,2057,1196
1214,1716364546700015128,2052,2046,2033,2066,1960,2052,1197
1215,1716364546710014923,2056,2056,2053,2052,2028,2046,1194
1216,1716364546720017833,2052,2047,2052,2011,2061,2056,1196
1217,1716364546730014892,2048,2052,2050,2036,2041,2046,1194
1218,1716364546740016100,2053,2050,2040,2063,2052,2056,1196
1219,1716364546750015933,2053,2052,2041,2090,2073,2047,1194
1220,1716364546760023373,2057,2054,2056,2075,2066,2049,1195
1221,1716364546770016283,2058,2056,2054,2086,2113,2060,1195
1222,1716364546780015748,2055,2050,2056,2050,2056,2064,1197
1223,1716364546790003258,2055,2052,2050,1992,2042,2048,1196
1224,1716364546800003153,2050,2048,2055,2084,2089,2059,1194
1225,1716364546810006283,2056,2053,2056,2106,2053,2045,1194
1226,1716364546820019554,2056,2062,2057,2144,2070,2060,1196
1227,1716364546830006333,2051,2054,2059,2084,2057,2050,1197
1228,1716364546840003703,2052,2050,2054,1982,2051,2052,1196
1229,1716364546850003768,2057,2056,2056,1995,2045,2054,1195
1230,1716364546860034561,2058,2059,2069,2080,2064,2061,1197
1231,1716364546870002255,2060,2067,2077,2020,2028,2041,1195
1232,1716364546880002309,2060,2050,2054,2045,2050,2058,1195
1233,1716364546890003336,2053,2051,2041,2054,2064,2054,1197
1234,1716364546900003721,2053,2050,2035,1972,2026,2052,1196
1235,1716364546909982326,2059,2058,2056,2017,2017,2037,1196
1236,1716364546920018198,2056,2056,2088,2048,2048,2060,1198
1237,1716364546930041407,2060,2060,2058,2034,2042,2053,1197
1238,1716364546940009431,2055,2055,2052,2113,2068,2062,1195
1239,1716364546950004447,2059,2058,2059,2029,2030,2045,1193
1240,1716364546960040239,2057,2056,2057,2068,2040,2065,1200
1241,1716364546970001300,2059,2058,2056,2053,2056,2046,1194
1242,1716364546979997898,2054,2056,2057,2104,2052,2061,1197
1243,1716364546990006790,2059,2056,2052,2056,2045,2052,1197
1244,1716364547000001374,2052,2056,2066,2120,2079,2055,1197
1245,1716364547010020916,2056,2053,2056,2059,2052,2053,1197
1246,1716364547020007015,2053,2049,2053,2041,2044,2056,1197
1247,1716364547030002571,2056,2057,2053,2034,2030,2037,1192
1248,1716364547040011753,2050,2046,2047,2090,2069,2062,1198
1249,1716364547050003873,2056,2050,2049,1972,2031,2043,1194
1250,1716364547060024798,2054,2052,2049,2057,2061,2054,1198
1251,1716364547070007288,2056,2057,2054,2056,2041,2042,1192
1252,1716364547080002515,2056,2050,2051,2025,2050,2061,1197
1253,1716364547090010534,2056,2050,2057,2040,2047,2045,1195
1254,1716364547099984260,2054,2054,2053,2051,2029,2052,1196
1255,1716364547110017578,2056,2053,2053,2068,2043,2049,1195
1256,1716364547120032049,2056,2052,2052,2037,2041,2049,1199
1257,1716364547130005153,2056,2049,2041,2041,2035,2046,1195
1258,1716364547140017281,2056,2052,2047,2057,2069,2064,1195
1259,1716364547150004863,2057,2057,2054,2082,2070,2049,1195
1260,1716364547160006490,2056,2054,2056,2060,2062,2062,1197
1261,1716364547170003059,2052,2050,2053,2108,2068,2049,1198
1262,1716364547180005237,2056,2056,2057,2066,2073,2064,1197
1263,1716364547190011243,2056,2056,2050,2064,2045,2050,1197
1264,1716364547200001590,2057,2056,2052,2076,2055,2054,1198
1265,1716364547210015641,2052,2044,2040,2093,2029,2041,1192
1266,1716364547220020465,2056,2053,2042,2101,2065,2066,1196
1267,1716364547230007846,2059,2061,2065,2081,2043,2045,1192
1268,1716364547240002842,2056,2047,2053,2066,2050,2065,1198
1269,1716364547250001353,2052,2048,2064,2022,2067,2037,1194
1270,1716364547260014323,2061,2061,2086,2012,2055,2056,1197
1271,1716364547270015669,2052,2043,2056,2048,2045,2047,1194
1272,1716364547280002039,2053,2051,2054,2053,2033,2057,1197
1273,1716364547290013014,2057,2056,2045,2028,2041,2044,1194
1274,1716364547300007529,2054,2049,2045,2019,2020,2053,1196
1275,1716364547310010488,2056,2058,2060,2069,2075,2057,1197
1276,1716364547320008660,2057,2051,2060,2100,2062,2059,1197
1277,1716364547330004547,2052,2048,2038,2037,2012,2041,1194
1278,1716364547340001546,2055,2052,2056,2080,2058,2066,1198
1279,1716364547350002994,2053,2051,2056,2108,2076,2040,1193
1280,1716364547360007517,2053,2051,2058,2085,2069,2061,1195
1281,1716364547370005609,2056,2052,2042,2104,2052,2047,1194
1282,1716364547380011173,2062,2040,2047,2106,2059,2059,1197
1283,1716364547390007912,2053,2060,2049,2066,2052,2050,1198
1284,1716364547400006454,2051,2047,2053,2092,2061,2057,1197
1285,1716364547410005136,2056,2053,2056,2053,2024,2047,1193
1286,1716364547420009639,2053,2045,2047,2088,2096,2060,1194
1287,1716364547430008612,2056,2056,2037,2076,2108,2056,1197
1288,1716364547440008356,2061,2056,2058,2065,2053,2052,1197
1289,1716364547450005917,2055,2053,2056,2064,2052,2052,1197
1290,1716364547460008817,2056,2052,2053,2082,2058,2050,1196
1291,1716364547470004313,2060,2068,2073,2097,2099,2051,1197
1292,1716364547480016622,2053,2051,2056,2152,2083,2051,1200
1293,1716364547490004894,2058,2058,2065,2062,2047,2054,1196
1294,1716364547500007774,2056,2056,2064,2070,2037,2054,1196
1295,1716364547510006396,2053,2049,2053,2041,2037,2039,1194
1296,1716364547520003325,2056,2056,2054,2076,2064,2057,1197
1297,1716364547530006956,2056,2053,2052,2065,2042,2054,1196
1298,1716364547540003755,2054,2052,2053,2039,2064,2059,1196
1299,1716364547550004832,2053,2052,2044,2062,2041,2046,1195
1300,1716364547560005679,2058,2072,2052,2090,2072,2060,1196
1301,1716364547570013138,2058,2057,2058,2051,2048,2046,1193
1302,1716364547580005578,2053,2052,2059,2082,2034,2058,1197
1303,1716364547590000463,2052,2052,2040,2069,2052,2051,1199
1304,1716364547600005848,2056,2053,2050,2033,2044,2060,1196
1305,1716364547610003639,2053,2052,2051,2032,2028,2041,1194
1306,1716364547620006128,2058,2058,2062,2036,2064,2056,1197
1307,1716364547630012575,2056,2052,2045,2064,2050,2050,1196
1308,1716364547640000116,2053,2047,2038,1992,2053,2054,1197
1309,1716364547650003758,2060,2064,2056,2042,2049,2054,1195
1310,1716364547660005165,2053,2050,2052,2008,2041,2057,1196
1311,1716364547670015269,2050,2053,2060,2058,2080,2058,1195
1312,1716364547680022157,2053,2053,2048,2060,2044,2058,1196
1313,1716364547689999208,2058,2056,2054,2080,2046,2048,1197
1314,1716364547700001888,2054,2056,2048,2070,2050,2061,1196
1315,1716364547710001963,2059,2053,2049,2056,2014,2038,1194
1316,1716364547720007649,2055,2050,2046,2024,2056,2059,1197
1317,1716364547730004918,2053,2056,2044,2014,2072,2044,1192
1318,1716364547740000725,2056,2052,2053,2088,2066,2060,1193
1319,1716364547749998645,2057,2053,2042,2084,2059,2058,1194
1320,1716364547760004421,2052,2049,2054,2081,2054,2060,1197
1321,1716364547770011229,2056,2057,2056,2078,2043,2052,1196
1322,1716364547780008037,2052,2052,2067,2050,2056,2056,1197
1323,1716364547790006109,2056,2052,2052,2032,2049,2043,1195
1324,1716364547800003849,2054,2055,2065,2051,2077,2072,1195
1325,1716364547810007691,2056,2053,2049,2042,2038,2056,1195
1326,1716364547820004650,2056,2052,2058,2103,2069,2049,1197
1327,1716364547830008102,2050,2042,2040,2080,2078,2048,1197
1328,1716364547840002916,2053,2054,2074,2077,2063,2060,1195
1329,1716364547850006087,2056,2052,2043,2033,2045,2044,1193
1330,1716364547860006352,2056,2053,2044,2009,2039,2052,1196
1331,1716364547870009152,2054,2053,2052,2021,2063,2052,1195
1332,1716364547880013575,2056,2054,2049,2066,2070,2053,1194
1333,1716364547890004713,2054,2049,2056,2033,2051,2052,1195
1334,1716364547900003506,2058,2058,2042,2035,2049,2066,1197
1335,1716364547910003771,2050,2041,2050,2050,2053,2048,1197
1336,1716364547920006001,2057,2048,2038,2017,2044,2053,1196
1337,1716364547930005834,2056,2056,2050,2040,2039,2042,1196
1338,1716364547940003786,2053,2053,2044,2050,2040,2052,1194
1339,1716364547950007337,2056,2052,2050,2093,2043,2047,1194
1340,1716364547960006831,2054,2051,2056,2084,2049,2060,1197
1341,1716364547970007797,2059,2056,2056,2077,2057,2047,1193
1342,1716364547980005127,2053,2049,2055,2074,2062,2044,1196
1343,1716364547990003529,2053,2053,2056,2004,2009,2041,1193
1344,1716364548000003984,2054,2050,2045,2073,2070,2055,1196
1345,1716364548010006033,2054,2056,2053,2051,2050,2045,1192
1346,1716364548020004695,2052,2048,2053,2077,2036,2053,1196
1347,1716364548030007776,2052,2054,2057,2103,2056,2046,1195
1348,1716364548040004835,2056,2052,2052,2095,2064,2053,1198
1349,1716364548050003357,2054,2056,2061,2070,2096,2056,1198
1350,1716364548060003903,2056,2056,2049,2024,2027,2064,1194
1351,1716364548070006292,2060,2060,2059,2010,2037,2046,1197
1352,1716364548080009473,2056,2050,2057,2085,2056,2060,1196
1353,1716364548090006552,2059,2068,2105,2072,2066,2054,1198
1354,1716364548100005145,2058,2056,2051,2059,2065,2056,1197
1355,1716364548110007734,2056,2053,2058,2064,2033,2042,1196
1356,1716364548120001988,2054,2052,2060,2040,2059,2059,1198
1357,1716364548130018754,2052,2053,2060,2049,2061,2054,1197
1358,1716364548139998230,2054,2058,2055,2068,2058,2063,1197
1359,1716364548150003464,2055,2052,2054,2054,2044,2053,1197
1360,1716364548160005944,2052,2048,2053,2074,2056,2047,1193
1361,1716364548170008444,2052,2052,2045,2018,2056,2049,1198
1362,1716364548180005483,2049,2053,2053,2071,2056,2060,1196
1363,1716364548190025436,2057,2060,2059,2092,2041,2056,1196
1364,1716364548200004520,2053,2050,2052,2088,2048,2058,1195
1365,1716364548210008914,2056,2056,2057,2117,2059,2056,1194
1366,1716364548220002065,2051,2052,2056,2064,2055,2060,1195
1367,1716364548230005577,2055,2051,2054,2009,2047,2052,1194
1368,1716364548240005421,2054,2057,2050,2053,2061,2056,1196
1369,1716364548250006468,2060,2056,2058,2062,2062,2052,1196
1370,1716364548260011171,2054,2050,2055,1998,2031,2049,1196
1371,1716364548270014793,2056,2056,2055,2065,2070,2046,1195
1372,1716364548280006783,2053,2048,2047,2056,2039,2052,1195
1373,1716364548290007339,2053,2054,2055,1970,2056,2049,1196
1374,1716364548300026891,2054,2052,2052,2063,2038,2059,1196
1375,1716364548310010023,2053,2056,2046,2101,2083,2048,1197
1376,1716364548320005410,2056,2050,2049,2098,2106,2057,1196
1377,1716364548330006466,2054,2061,2058,2074,2053,2052,1196
1378,1716364548340002894,2052,2053,2061,2038,2088,2065,1196
1379,1716364548350016395,2056,2057,2053,2044,2073,2049,1197
1380,1716364548360008284,2049,2047,2043,2022,2047,2052,1195
1381,1716364548370008289,2058,2057,2058,2080,2050,2048,1197
1382,1716364548380007522,2055,2056,2048,2064,2056,2064,1197
1383,1716364548390005964,2054,2052,2052,2043,2041,2040,1193
1384,1716364548400028491,2052,2044,2047,1941,2056,2052,1194
1385,1716364548410003068,2060,2059,2049,2056,2056,2058,1195
1386,1716364548420004826,2057,2056,2062,2049,2048,2054,1198
1387,1716364548430004961,2062,2056,2058,2033,2015,2047,1193
1388,1716364548440004465,2058,2057,2061,2088,2081,2062,1196
1389,1716364548450008848,2057,2058,2069,2092,2036,2045,1194
1390,1716364548460008252,2058,2057,2053,2066,2060,2053,1197
1391,1716364548470005621,2056,2052,2057,2101,2056,2053,1198
1392,1716364548480006759,2056,2052,2048,2062,2053,2058,1197
1393,1716364548490009468,2047,2045,2040,2038,2045,2047,1193
1394,1716364548500009112,2053,2049,2047,2057,2096,2055,1198
1395,1716364548510006933,2058,2057,2054,2120,2042,2040,1194
1396,1716364548520004513,2054,2051,2049,2040,2049,2057,1197
1397,1716364548530005760,2053,2057,2052,2087,2047,2053,1197
1398,1716364548540007568,2051,2051,2049,1989,2062,2061,1194
1399,1716364548550018945,2050,2050,2049,2073,2087,2048,1196
1400,1716364548560008049,2053,2051,2048,2118,2061,2059,1197
1401,1716364548570008745,2054,2049,2042,2049,2064,2050,1197
1402,1716364548580009020,2052,2048,2046,1987,2045,2059,1197
1403,1716364548590011039,2059,2057,2060,1952,2022,2047,1194
1404,1716364548600014710,2053,2050,2048,1997,2066,2067,1195
1405,1716364548610013343,2054,2056,2047,2038,2083,2053,1192
1406,1716364548620011134,2056,2054,2057,2101,2057,2060,1197
1407,1716364548630010837,2053,2050,2053,2066,2017,2026,1192
1408,1716364548640011684,2049,2048,2041,2024,2028,2052,1196
1409,1716364548650011117,2060,2056,2053,2089,2040,2046,1194
1410,1716364548660011323,2054,2052,2041,2048,2047,2056,1197
1411,1716364548670012960,2055,2052,2050,2028,2016,2049,1196
1412,1716364548680012825,2054,2056,2044,2083,2110,2064,1196
1413,1716364548689968566,2056,2054,2054,2078,2100,2048,1194
1414,1716364548700016141,2058,2052,2067,2032,2041,2065,1195
1415,1716364548710013851,2058,2052,2050,2069,2049,2044,1196
1416,1716364548720014938,2057,2050,2045,2064,2059,2061,1195
1417,1716364548730015053,2056,2051,2050,2044,2030,2048,1197
1418,1716364548740017853,2052,2052,2056,2080,2083,2053,1197
1419,1716364548750026605,2054,2050,2054,2032,2050,2046,1193
1420,1716364548760015318,2051,2052,2053,2101,2072,2051,1195
1421,1716364548770016345,2056,2053,2046,1969,2072,2056,1197
1422,1716364548780018393,2051,2052,2052,2062,2058,2056,1198
1423,1716364548790017336,2059,2057,2050,2030,2031,2053,1196
1424,1716364548800019646,2053,2056,2060,2037,2044,2053,1196
1425,1716364548810000994,2056,2057,2053,1969,2040,2045,1194
1426,1716364548820018513,2054,2057,2062,2040,2020,2064,1195
1427,1716364548829946470,2060,2054,2057,2041,2056,2047,1192
1428,1716364548839998825,2050,2049,2051,1960,2080,2058,1194
1429,1716364548850019117,2057,2053,2048,2034,2036,2046,1194
1430,1716364548860001790,2056,2052,2058,2088,2086,2056,1196
1431,1716364548870003067,2053,2050,2050,2037,2040,2046,1192
1432,1716364548880004054,2056,2053,2057,2045,2025,2050,1197
1433,1716364548890004209,2052,2052,2050,1986,2028,2044,1194
1434,1716364548900004113,2052,2048,2049,2086,2056,2058,1196
1435,1716364548910007405,2052,2052,2044,2036,2043,2045,1195
1436,1716364548920004523,2053,2050,2047,2047,2089,2057,1198
1437,1716364548930004228,2053,2060,2078,1974,2040,2045,1193
1438,1716364548940004723,2056,2052,2058,2052,2040,2060,1197
1439,1716364548950006782,2054,2051,2038,2051,2046,2049,1197
1440,1716364548960004071,2054,2052,2053,2077,2061,2057,1195
1441,1716364548970006762,2058,2056,2056,2083,2047,2043,1195
1442,1716364548980030121,2052,2047,2056,2054,2052,2058,1197
1443,1716364548990008043,2054,2052,2052,2070,2056,2042,1194
1444,1716364549000007788,2054,2053,2056,2048,2056,2056,1194
1445,1716364549010001881,2057,2051,2047,2039,2053,2049,1195
1446,1716364549020002628,2053,2053,2052,2068,2016,2055,1196
1447,1716364549030006730,2056,2056,2058,2053,2040,2045,1195
1448,1716364549040004791,2052,2050,2057,2091,2066,2057,1194
1449,1716364549050014875,2057,2053,2051,2065,2076,2053,1195
1450,1716364549060010401,2054,2056,2056,2107,2100,2055,1194
1451,1716364549070028210,2055,2052,2054,2041,2044,2047,1192
1452,1716364549080009138,2053,2054,2053,2044,2049,2055,1195
1453,1716364549090006418,2053,2056,2054,2065,2058,2050,1198
1454,1716364549100008046,2054,2046,2047,2028,2045,2051,1196
1455,1716364549110006638,2054,2057,2056,2064,2056,2042,1193
1456,1716364549120009769,2056,2052,2063,2088,2083,2065,1196
1457,1716364549130012108,2054,2052,2050,2064,2038,2045,1195
1458,1716364549140010009,2056,2052,2050,2045,2042,2051,1197
1459,1716364549150007809,2052,2052,2044,2015,2032,2047,1196
1460,1716364549160008035,2056,2057,2061,2090,2064,2067,1197
1461,1716364549170007909,2054,2052,2048,2084,2036,2052,1197
1462,1716364549180009086,2056,2049,2043,2054,2060,2057,1198
1463,1716364549190007358,2053,2058,2057,2076,2060,2047,1192
1464,1716364549200024715,2051,2052,2056,2069,2083,2056,1198
1465,1716364549210024590,2056,2053,2049,2066,2055,2051,1195
1466,1716364549220013393,2054,2056,2052,2045,2061,2057,1196
1467,1716364549230003309,2052,2049,2047,1984,2037,2040,1192
1468,1716364549240013223,2057,2051,2051,2072,2057,2052,1196
1469,1716364549250006154,2056,2053,2053,2065,2051,2045,1194
1470,1716364549260006790,2053,2056,2055,2012,2056,2066,1194
1471,1716364549270007697,2054,2067,2090,2026,2037,2051,1196
1472,1716364549280007131,2055,2046,2052,2074,2040,2056,1194
1473,1716364549290010050,2056,2054,2056,2118,2045,2046,1194
1474,1716364549300008643,2054,2053,2057,2080,2062,2063,1196
1475,1716364549310011082,2053,2056,2058,2080,2041,2043,1195
1476,1716364549320007440,2056,2051,2057,2041,2064,2061,1199
1477,1716364549330010200,2051,2047,2052,2025,2045,2048,1196
1478,1716364549340008421,2054,2047,2047,2045,2052,2057,1195
1479,1716364549350006433,2058,2060,2060,2126,2074,2061,1196
1480,1716364549360024762,2057,2052,2056,2076,2059,2060,1196
1481,1716364549370012273,2056,2056,2049,2052,2049,2050,1195
1482,1716364549380007178,2055,2052,2053,2050,2059,2056,1196
1483,1716364549390012904,2058,2060,2078,2027,2077,2049,1197
1484,1716364549400009211,2053,2052,2050,1946,2039,2063,1198
1485,1716364549410017372,2058,2054,2043,2064,2060,2049,1195
1486,1716364549420009973,2053,2051,2064,2036,2050,2057,1196
1487,1716364549430009927,2057,2056,2053,2040,2038,2048,1196
1488,1716364549440011365,2053,2050,2045,2015,2038,2053,1197
1489,1716364549450006440,2056,2054,2049,2058,2042,2056,1196
1490,1716364549460007086,2056,2051,2048,2072,2057,2059,1198
1491,1716364549470008133,2052,2052,2044,2015,2016,2038,1193
1492,1716364549480007937,2057,2053,2056,2059,2049,2064,1197
1493,1716364549490009946,2056,2055,2062,2068,2058,2043,1195
1494,1716364549500012816,2054,2049,2053,1997,2056,2063,1197
1495,1716364549510009745,2054,2056,2057,2061,2049,2045,1194
1496,1716364549520012104,2054,2049,2052,2064,2070,2056,1196
1497,1716364549530006749,2056,2056,2053,2031,2044,2050,1197
1498,1716364549540007154,2054,2053,2060,2101,2077,2050,1196
1499,1716364549550005106,2056,2056,2064,2073,2049,2046,1194
1500,1716364549560023506,2055,2054,2054,2053,2047,2056,1196
1501,1716364549570008852,2054,2051,2046,2037,2040,2049,1197
1502,1716364549580006112,2051,2056,2073,2082,2056,2064,1198
1503,1716364549590006106,2060,2051,2040,1848,2016,2036,1195
1504,1716364549600008656,2050,2047,2044,2051,2064,2062,1195
1505,1716364549610004112,2053,2051,2052,2041,2049,2047,1195
1506,1716364549620007784,2056,2052,2060,2053,2057,2066,1195
1507,1716364549630002759,2056,2054,2056,2066,2068,2056,1196
1508,1716364549640008395,2056,2053,2056,2075,2024,2048,1197
1509,1716364549650004733,2054,2049,2033,2126,2044,2053,1196
1510,1716364549660048630,2056,2056,2068,2045,2059,2059,1197
1511,1716364549670013539,2056,2056,2057,2045,2085,2052,1197
1512,1716364549680011489,2055,2054,2056,2071,2059,2060,1197
1513,1716364549690006074,2050,2054,2050,2053,2036,2046,1194
1514,1716364549700007802,2059,2060,2083,2088,2056,2049,1197
1515,1716364549710008739,2058,2056,2056,2061,2050,2052,1199
1516,1716364549720033541,2053,2052,2044,2014,2040,2053,1198
1517,1716364549730004590,2056,2050,2050,2027,2069,2049,1198
1518,1716364549740006720,2051,2052,2054,2065,2090,2064,1196
1519,1716364549750005281,2053,2056,2058,2035,2046,2052,1196
1520,1716364549760008222,2052,2053,2057,2082,2011,2056,1198
1521,1716364549770009740,2057,2051,2049,2094,2062,2038,1196
1522,1716364549780010806,2056,2053,2065,2064,2092,2064,1196
1523,1716364549790009689,2056,2050,2046,2054,2040,2043,1195
1524,1716364549800007429,2057,2054,2056,2113,2060,2061,1196
1525,1716364549810007575,2058,2056,2060,2099,2044,2052,1196
1526,1716364549820006397,2055,2049,2050,2054,2060,2059,1197
1527,1716364549830007484,2056,2060,2052,2047,2050,2046,1194
1528,1716364549840010714,2055,2051,2057,2067,2092,2060,1195
1529,1716364549850006431,2058,2052,2052,2052,2088,2058,1197
1530,1716364549860010073,2057,2063,2061,2116,2072,2057,1198
1531,1716364549870006761,2059,2054,2053,2076,2056,2047,1193
1532,1716364549880007869,2056,2055,2054,2072,2066,2065,1196
1533,1716364549890012752,2053,2047,2046,2024,2073,2046,1193
1534,1716364549900012096,2057,2053,2056,2050,2051,2053,1198
1535,1716364549910007962,2056,2056,2056,2028,2041,2047,1195
1536,1716364549920005974,2056,2057,2064,2116,2047,2063,1196
1537,1716364549930005488,2056,2058,2056,2040,2034,2044,1193
1538,1716364549940013167,2053,2060,2068,1968,2053,2056,1198
1539,1716364549950004195,2054,2056,2053,2082,1993,2040,1195
1540,1716364549960035408,2054,2057,2061,2005,2008,2048,1198
1541,1716364549970007671,2052,2049,2044,2058,2041,2052,1197
1542,1716364549980010671,2059,2056,2052,2006,2033,2050,1197
1543,1716364549990009464,2052,2059,2063,2078,2041,2043,1193
1544,1716364550000008307,2056,2052,2057,2047,2052,2058,1198
1545,1716364550010014002,2054,2058,2066,2034,2033,2044,1191
1546,1716364550020011342,2056,2056,2057,2020,2021,2050,1197
1547,1716364550030010976,2053,2050,2033,2011,2014,2047,1194
1548,1716364550040011091,2057,2061,2065,2096,2053,2064,1197
1549,1716364550050010183,2052,2046,2048,1993,2045,2045,1196
1550,1716364550060010910,2049,2044,2050,2067,2040,2057,1196
1551,1716364550070017518,2058,2053,2040,2061,2041,2050,1198
1552,1716364550080011871,2053,2049,2066,2131,2066,2058,1197
1553,1716364550090015513,2056,2057,2056,1961,2049,2049,1199
1554,1716364550100012091,2056,2052,2052,2016,2040,2062,1197
1555,1716364550110012728,2059,2075,2076,2060,2051,2056,1198
1556,1716364550120020006,2055,2046,2036,2055,2049,2047,1194
1557,1716364550130019510,2060,2056,2050,2064,2056,2051,1199
1558,1716364550140016650,2053,2054,2056,2104,2065,2050,1197
1559,1716364550150013979,2058,2054,2056,2050,2042,2046,1194
1560,1716364550160015186,2049,2048,2042,2021,2066,2058,1198
1561,1716364550170029608,2058,2065,2079,1972,2040,2043,1195
1562,1716364550180015396,2054,2053,2051,2056,2054,2052,1197
1563,1716364550190030419,2055,2054,2050,2079,2060,2048,1196
1564,1716364550200016658,2058,2052,2042,2043,2032,2050,1195
1565,1716364550210017014,2058,2060,2059,2062,2057,2051,1198
1566,1716364550220094124,2057,2065,2084,2075,2040,2050,1195
1567,1716364550230017073,2058,2054,2044,2122,2047,2047,1192
1568,1716364550240018310,2056,2056,2056,2106,2056,2064,1197
1569,1716364550250017934,2056,2051,2054,2069,2047,2041,1193
1570,1716364550260018761,2058,2053,2048,2065,2047,2060,1197
1571,1716364550270010730,2052,2053,2048,2057,2027,2051,1197
1572,1716364550280004584,2050,2046,2043,1929,2036,2051,1197
1573,1716364550290021440,2060,2056,2062,2114,2052,2054,1197
1574,1716364550300019261,2054,2052,2050,2093,2056,2058,1197
1575,1716364550310020117,2057,2056,2046,2066,2064,2044,1195
1576,1716364550320012728,2056,2051,2047,2047,2052,2065,1199
1577,1716364550330008435,2056,2056,2052,2049,2074,2049,1198
1578,1716364550340021203,2056,2053,2053,2076,2057,2064,1197
1579,1716364550350002393,2055,2055,2056,2099,2058,2050,1198
1580,1716364550360005794,2054,2052,2046,2069,2059,2053,1196
1581,1716364550370019104,2054,2054,2046,1959,2045,2056,1197
1582,1716364550380005323,2053,2049,2052,2035,2026,2049,1197
1583,1716364550390024995,2057,2057,2056,2069,2037,2050,1197
1584,1716364550400004792,2054,2053,2057,2031,2125,2061,1197
1585,1716364550410009735,2053,2056,2056,2074,2052,2054,1196
1586,1716364550420004601,2051,2050,2052,1944,2015,2048,1198
1587,1716364550430004525,2061,2060,2064,2088,2042,2055,1197
1588,1716364550440008568,2052,2058,2058,2080,2028,2058,1196
1589,1716364550450009925,2060,2052,2053,2045,2060,2045,1195
1590,1716364550460040237,2053,2053,2054,2033,2044,2058,1197
1591,1716364550470105055,2058,2064,2069,2077,2043,2052,1197
1592,1716364550480004058,2052,2052,2056,2074,2067,2060,1197
1593,1716364550490015625,2056,2056,2054,2088,2021,2048,1197
1594,1716364550500011181,2056,2054,2053,2053,2038,2064,1195
1595,1716364550510012649,2060,2057,2052,2072,2038,2045,1194
1596,1716364550520005230,2060,2059,2065,2032,2072,2064,1200
1597,1716364550530002609,2056,2057,2062,2096,2082,2058,1196
1598,1716364550540009087,2055,2053,2062,2044,2059,2063,1197
1599,1716364550550007237,2058,2056,2047,2048,2045,2045,1195
1600,1716364550560009787,2052,2048,2050,2065,2084,2051,1196
1601,1716364550570010143,2053,2050,2048,1974,2061,2054,1196
1602,1716364550580008003,2054,2049,2058,2050,2041,2049,1195
1603,1716364550590014401,2054,2057,2054,2069,2054,2049,1197
1604,1716364550600004677,2052,2056,2067,2073,2029,2062,1197
1605,1716364550610004972,2056,2054,2048,2047,1970,2045,1193
1606,1716364550620007131,2058,2052,2061,2068,2056,2053,1199
1607,1716364550630013107,2056,2050,2052,2029,2039,2045,1193
1608,1716364550640016078,2053,2054,2073,2061,2046,2058,1195
1609,1716364550650003739,2058,2055,2052,2013,2040,2045,1194
1610,1716364550660006189,2056,2049,2054,2042,2033,2058,1195
1611,1716364550670018486,2056,2058,2057,2082,2076,2047,1194
1612,1716364550679998914,2054,2049,2072,2096,2079,2052,1194
1613,1716364550690009279,2052,2055,2054,2037,2057,2050,1197
1614,1716364550700021256,2054,2047,2049,2068,2056,2065,1198
1615,1716364550709999841,2056,2056,2056,2066,2051,2053,1198
1616,1716364550720014623,2056,2052,2059,2089,2057,2058,1197
1617,1716364550730000882,2056,2054,2054,2042,2084,2054,1197
1618,1716364550740010515,2056,2051,2063,1950,2036,2063,1196
1619,1716364550750000391,2057,2053,2042,2057,2046,2045,1196
1620,1716364550760003772,2053,2052,2068,2036,2029,2052,1197
1621,1716364550770008435,2056,2056,2054,2027,2073,2057,1197
1622,1716364550779997530,2056,2054,2060,2026,2037,2054,1196
1623,1716364550790007242,2056,2053,2058,2075,2065,2049,1196
1624,1716364550800003310,2054,2052,2052,2084,2017,2045,1193
1625,1716364550810000339,2053,2051,2050,1913,2027,2052,1195
1626,1716364550820019841,2056,2049,2052,2064,2069,2053,1197
1627,1716364550830001572,2053,2054,2053,2048,2045,2048,1197
1628,1716364550840014430,2058,2057,2069,2101,2057,2060,1197
1629,1716364550850001701,2056,2056,2052,2064,2026,2050,1197
1630,1716364550860047883,2055,2052,2056,2040,2034,2054,1196
1631,1716364550870009886,2057,2062,2059,2068,2065,2046,1196
1632,1716364550880002847,2054,2053,2048,1979,2056,2052,1198
1633,1716364550890013963,2053,2054,2057,2081,2047,2051,1196
1634,1716364550900003659,2054,2052,2053,2036,2046,2054,1199
1635,1716364550910020896,2056,2060,2064,2061,2033,2053,1196
1636,1716364550920002095,2055,2052,2054,2031,2045,2056,1197
1637,1716364550930002841,2053,2049,2040,2064,2049,2053,1198
1638,1716364550940005251,2053,2057,2042,2085,2054,2052,1193
1639,1716364550949999094,2060,2062,2060,2040,2068,2056,1197
1640,1716364550960012043,2056,2060,2059,2085,2047,2061,1197
1641,1716364550970005977,2062,2061,2053,2070,2002,2042,1194
1642,1716364550980001452,2053,2052,2052,2058,2082,2056,1196
1643,1716364550990012869,2052,2057,2064,2032,2056,2045,1192
1644,1716364551000013876,2052,2044,2048,2078,2065,2055,1196
1645,1716364551010019842,2058,2070,2065,2044,2057,2045,1192
1646,1716364551020004097,2053,2049,2056,2006,2040,2061,1194
1647,1716364551030010403,2043,2054,2067,1998,2033,2049,1197
1648,1716364551040010589,2051,2047,2042,2035,2050,2051,1197
1649,1716364551050008639,2051,2055,2068,2085,2046,2049,1195
1650,1716364551060016800,2049,2048,2063,2098,2074,2050,1197
1651,1716364551070006736,2053,2054,2051,2085,2066,2048,1198
1652,1716364551080014886,2051,2046,2053,2098,2093,2072,1196
1653,1716364551090013178,2052,2050,2048,2027,2059,2042,1194
1654,1716364551100013202,2054,2053,2061,2039,2148,2067,1196
1655,1716364551110001605,2056,2057,2062,2090,2082,2050,1199
1656,1716364551119999938,2053,2050,2056,2056,2072,2056,1199
1657,1716364551130007376,2061,2059,2057,2092,2072,2052,1198
1658,1716364551140010687,2052,2052,2061,2029,2058,2061,1199
1659,1716364551150003999,2056,2056,2051,2076,2067,2053,1196
1660,1716364551160003633,2052,2050,2052,2055,2033,2058,1198
1661,1716364551170033976,2054,2055,2060,2017,2039,2052,1198
1662,1716364551179998683,2056,2060,2061,2069,2057,2059,1196
1663,1716364551190000432,2058,2059,2060,2073,2098,2056,1196
1664,1716364551200007930,2052,2049,2046,2073,2105,2063,1197
1665,1716364551210005311,2058,2058,2057,2076,2047,2046,1191
1666,1716364551220009483,2056,2054,2056,2092,2064,2053,1194
1667,1716364551230005540,2058,2054,2060,2040,1986,2029,1194
1668,1716364551240010184,2050,2047,2044,2053,2058,2057,1197
1669,1716364551250006151,2057,2056,2056,2047,2053,2053,1196
1670,1716364551260003461,2056,2056,2066,2099,2052,2056,1194
1671,1716364551270007413,2057,2054,2049,2021,2058,2054,1196
1672,1716364551280014041,2053,2050,2052,2032,2030,2051,1195
1673,1716364551290013034,2054,2055,2056,2021,2032,2042,1192
1674,1716364551300008039,2056,2063,2059,2070,2063,2061,1196
1675,1716364551310006100,2062,2061,2059,2052,2050,2046,1192
1676,1716364551320028236,2056,2054,2053,2041,2050,2056,1195
1677,1716364551330009135,2054,2056,2057,2051,2051,2048,1196
1678,1716364551340012858,2056,2052,2047,2069,2040,2054,1197
1679,1716364551350007271,2056,2060,2081,2067,2076,2053,1197
1680,1716364551360015151,2052,2048,2048,2092,2069,2053,1194
1681,1716364551370008613,2056,2058,2056,2079,2053,2050,1196
1682,1716364551380010943,2053,2052,2049,2033,2098,2060,1197
1683,1716364551390003985,2057,2056,2049,2044,2050,2057,1195
1684,1716364551400006374,2053,2046,2033,2047,2053,2050,1196
1685,1716364551410011448,2059,2059,2051,2066,2040,2050,1194
1686,1716364551420007695,2056,2052,2057,2120,2076,2072,1196
1687,1716364551430004925,2058,2060,2058,2073,2068,2057,1195
1688,1716364551440009138,2057,2053,2052,2032,2052,2064,1197
1689,1716364551450003622,2056,2053,2048,2037,2041,2043,1194
1690,1716364551460006563,2056,2061,2056,1998,2054,2056,1195
1691,1716364551470004734,2057,2056,2056,2092,2063,2057,1197
1692,1716364551480011913,2052,2054,2056,2035,2058,2054,1196
1693,1716364551490013901,2056,2053,2044,2061,2044,2052,1196
1694,1716364551500011251,2052,2051,2052,2032,2081,2066,1195
1695,1716364551510005976,2057,2057,2058,2014,2050,2045,1193
1696,1716364551520007433,2056,2050,2053,2069,2060,2063,1197
1697,1716364551530041493,2056,2076,2048,2053,2090,2048,1197
1698,1716364551540014706,2059,2056,2064,2085,2035,2056,1196
1699,1716364551550010834,2052,2044,2048,2101,2050,2050,1196
1700,1716364551560008335,2052,2051,2050,2057,2086,2060,1197
1701,1716364551570008088,2057,2055,2044,2089,2082,2058,1196
1702,1716364551580014205,2055,2051,2049,2058,2058,2052,1195
1703,1716364551590005302,2058,2058,2054,2045,2076,2048,1197
1704,1716364551600007993,2055,2051,2052,2041,2049,2048,1195
1705,1716364551610003109,2063,2072,2058,2074,2056,2052,1194
1706,1716364551620012992,2056,2059,2048,2074,2075,2059,1195
1707,1716364551630026212,2056,2048,2036,2053,2064,2050,1193
1708,1716364551640008943,2054,2051,2049,2061,2062,2058,1196
1709,1716364551650011504,2060,2056,2057,2047,2068,2053,1195
1710,1716364551660008793,2056,2052,2053,2110,2060,2056,1195
1711,1716364551670007525,2058,2056,2049,2053,2041,2055,1197
1712,1716364551680009665,2056,2061,2063,2068,2082,2064,1193
1713,1716364551690001774,2056,2047,2038,2040,2043,2042,1194
1714,1716364551700006538,2057,2053,2058,2097,2061,2059,1197
1715,1716364551709976455,2058,2060,2053,2053,2040,2052,1194
1716,1716364551720008461,2052,2052,2055,2023,2052,2054,1196
1717,1716364551730046268,2056,2058,2054,2060,2054,2055,1198
1718,1716364551740007629,2053,2054,2050,2074,2070,2053,1196
1719,1716364551750007955,2057,2058,2056,2052,2069,2045,1194
1720,1716364551760005585,2051,2044,2054,2078,2066,2053,1195
1721,1716364551770007954,2053,2054,2052,2059,2044,2045,1192
1722,1716364551780013851,2054,2052,2046,2059,2056,2061,1197
1723,1716364551790010158,2056,2052,2051,2032,2047,2044,1194
1724,1716364551800009261,2051,2052,2055,2057,2100,2061,1197
1725,1716364551810006761,2060,2061,2075,2089,2056,2053,1195
1726,1716364551820009922,2053,2056,2067,2078,2060,2057,1196
1727,1716364551830028031,2054,2051,2058,2086,2053,2047,1193
1728,1716364551840005503,2056,2059,2074,2073,2079,2072,1196
1729,1716364551850006510,2053,2053,2051,2032,2043,2044,1193
1730,1716364551860006274,2052,2052,2054,1970,2047,2053,1194
1731,1716364551870008263,2057,2053,2050,2058,2052,2037,1194
1732,1716364551880022935,2051,2049,2047,2090,2074,2057,1199
1733,1716364551890007481,2057,2057,2053,2069,2040,2051,1194
1734,1716364551900007947,2057,2065,2053,2075,2049,2060,1197
1735,1716364551910008182,2059,2052,2048,2020,2100,2055,1195
1736,1716364551920005332,2057,2056,2054,2066,2046,2062,1196
1737,1716364551930024512,2057,2054,2049,2073,2088,2049,1197
1738,1716364551940007114,2049,2052,2052,2046,2041,2059,1197
1739,1716364551950009945,2056,2060,2072,2109,2042,2044,1192
1740,1716364551960009819,2052,2049,2047,2037,2147,2070,1196
1741,1716364551970006909,2057,2055,2052,2052,2067,2053,1196
1742,1716364551980009979,2054,2058,2081,2004,2045,2058,1197
1743,1716364551990009573,2058,2060,2067,2029,2050,2049,1195
1744,1716364552000025948,2047,2045,2061,2029,2077,2055,1195
1745,1716364552010008150,2052,2060,2078,2012,2054,2049,1195
1746,1716364552020008496,2052,2048,2048,2076,2053,2062,1197
1747,1716364552030036793,2056,2056,2057,2072,2089,2056,1198
1748,1716364552040009447,2052,2050,2052,2086,2079,2055,1197
1749,1716364552050009662,2053,2057,2052,2103,2078,2042,1193
1750,1716364552060009566,2057,2060,2064,2102,2056,2068,1195
1751,1716364552070010504,2057,2056,2058,2067,2064,2047,1193
1752,1716364552080010558,2054,2052,2060,2088,2068,2053,1195
1753,1716364552090011174,2057,2056,2047,2100,2084,2049,1196
1754,1716364552100011630,2058,2050,2056,2046,2029,2050,1195
1755,1716364552110011424,2059,2061,2057,2036,2047,2054,1196
1756,1716364552120012191,2056,2056,2053,2069,2065,2055,1198
1757,1716364552130033395,2052,2054,2054,2128,2040,2043,1193
1758,1716364552140013392,2053,2059,2069,2114,2072,2063,1196
1759,1716364552150013467,2058,2058,2054,2032,2047,2050,1196
1760,1716364552160013532,2053,2051,2051,2065,2052,2058,1196
1761,1716364552170013628,2055,2058,2061,2098,2089,2053,1196
1762,1716364552180015004,2056,2056,2062,2093,2053,2048,1197
1763,1716364552190016392,2058,2051,2072,1972,1998,2032,1193
1764,1716364552200015696,2056,2052,2064,2107,2057,2056,1197
1765,1716364552210016261,2060,2054,2060,2073,2052,2054,1194
1766,1716364552220016567,2056,2048,2048,2028,2041,2055,1194
1767,1716364552230016672,2060,2063,2073,2090,2050,2052,1195
1768,1716364552240016887,2052,2051,2053,2085,2010,2056,1197
1769,1716364552250018134,2053,2052,2049,1996,2033,2042,1192
1770,1716364552260017979,2054,2052,2064,2084,2032,2047,1194
1771,1716364552270021461,2055,2056,2056,2109,2087,2056,1197
1772,1716364552280018399,2050,2037,2048,2073,2062,2058,1198
1773,1716364552290017803,2060,2057,2059,2064,2072,2050,1198
1774,1716364552300018409,2052,2052,2064,2052,2056,2052,1195
1775,1716364552310019045,2060,2056,2053,2062,2040,2052,1195
1776,1716364552320018980,2053,2056,2047,1984,2045,2060,1198
1777,1716364552330020146,2057,2061,2067,2091,2069,2055,1196
1778,1716364552340002899,2048,2047,2043,2056,2052,2052,1197
1779,1716364552350020016,2052,2064,2052,2069,2064,2058,1196
1780,1716364552360021393,2053,2056,2055,2075,2064,2049,1196
1781,1716364552370004506,2057,2057,2056,2086,2074,2051,1197
1782,1716364552380003689,2056,2055,2053,2057,2053,2052,1195
1783,1716364552390004406,2058,2064,2081,2064,2035,2047,1194
1784,1716364552400003239,2051,2048,2056,2025,2070,2060,1197
1785,1716364552410025074,2059,2060,2058,2052,2050,2060,1193
1786,1716364552420005232,2053,2053,2053,2060,2052,2068,1195
1787,1716364552430023911,2056,2058,2061,2026,2048,2049,1197
1788,1716364552440007866,2054,2052,2058,2072,2032,2051,1194
1789,1716364552450023721,2056,2054,2048,2044,2054,2052,1197
1790,1716364552460006964,2053,2057,2061,2029,2078,2052,1195
1791,1716364552470006328,2056,2054,2041,2040,2036,2050,1196
1792,1716364552480008036,2052,2048,2058,2096,2060,2063,1198
1793,1716364552490009914,2053,2052,2053,2043,2040,2043,1194
1794,1716364552500008767,2053,2044,2056,2077,2085,2059,1196
1795,1716364552510026194,2053,2053,2050,2017,2097,2053,1197
1796,1716364552520005280,2050,2046,2049,2048,2045,2053,1197
1797,1716364552530027396,2055,2054,2045,1971,2076,2053,1194
1798,1716364552540007534,2054,2052,2054,2063,2053,2055,1196
1799,1716364552550005565,2057,2056,2054,2070,2052,2053,1197
1800,1716364552560003506,2050,2049,2056,2030,2045,2052,1198
1801,1716364552570004893,2056,2056,2066,2060,2048,2056,1197
1802,1716364552580002423,2058,2056,2059,2062,2055,2058,1196
1803,1716364552590008710,2059,2058,2051,2109,2078,2062,1198
1804,1716364552600012583,2051,2050,2072,2042,2059,2056,1196
1805,1716364552610013649,2056,2052,2050,2034,2052,2046,1192
1806,1716364552620005609,2052,2048,2050,2058,2033,2060,1196
1807,1716364552630011073,2061,2052,2049,2045,2053,2047,1194
1808,1716364552640008704,2056,2058,2053,2041,2055,2047,1192
1809,1716364552650015943,2057,2057,2054,2043,2043,2047,1193
1810,1716364552660011208,2052,2052,2050,2060,2060,2055,1195
1811,1716364552670004411,2059,2057,2056,2105,2057,2054,1194
1812,1716364552680005657,2049,2040,2035,2077,2044,2049,1197
1813,1716364552690004701,2057,2056,2056,2094,2010,2047,1195
1814,1716364552700011318,2053,2047,2054,2078,2044,2052,1198
1815,1716364552710005471,2058,2053,2046,2057,2052,2051,1198
1816,1716364552720002912,2053,2051,2060,2040,2042,2057,1198
1817,1716364552729998848,2058,2055,2056,2064,2060,2053,1197
1818,1716364552740005616,2053,2047,2055,2086,2082,2064,1196
1819,1716364552750005431,2058,2056,2052,2066,2056,2052,1196
1820,1716364552760003121,2057,2050,2049,2066,2030,2052,1195
1821,1716364552769980283,2058,2054,2053,2061,2052,2044,1195
1822,1716364552780018790,2058,2059,2077,2077,2088,2058,1196
1823,1716364552790004047,2059,2052,2068,2108,2052,2055,1195
1824,1716364552799984456,2051,2052,2065,2040,2076,2058,1197
1825,1716364552810002374,2056,2049,2047,2072,2088,2056,1197
1826,1716364552820002008,2049,2050,2052,2074,2072,2060,1195
1827,1716364552830004999,2060,2058,2057,2056,2058,2052,1197
1828,1716364552840002368,2052,2053,2060,2092,2079,2060,1196
1829,1716364552850029184,2060,2057,2065,2074,2047,2052,1196
1830,1716364552859995144,2053,2053,2064,2051,2041,2060,1194
1831,1716364552870002113,2059,2074,2079,2102,2043,2050,1196
1832,1716364552880004702,2051,2052,2046,2010,2040,2065,1195
1833,1716364552890000729,2058,2055,2052,2001,2048,2052,1196
1834,1716364552900013358,2056,2052,2045,2028,2042,2050,1196
1835,1716364552910004295,2060,2056,2060,2070,2058,2053,1196
1836,1716364552920007377,2058,2056,2057,2026,2049,2056,1197
1837,1716364552930005588,2056,2053,2056,2082,2106,2047,1193
1838,1716364552940005402,2051,2045,2049,1944,2104,2056,1196
1839,1716364552950056184,2056,2059,2058,2064,2075,2059,1198
1840,1716364552960006133,2050,2047,2047,2045,2050,2054,1197
1841,1716364552970006539,2057,2053,2050,2016,2037,2045,1195
1842,1716364552980006313,2056,2047,2053,2076,2024,2045,1196
1843,1716364552990006699,2052,2053,2050,2021,2078,2056,1196
1844,1716364553000021181,2052,2065,2056,2028,2053,2057,1197
1845,1716364553010003202,2061,2056,2056,2065,2066,2057,1197
1846,1716364553020005211,2049,2044,2052,2050,2058,2052,1196
1847,1716364553030005867,2054,2053,2047,1968,2045,2048,1196
1848,1716364553040006993,2052,2052,2050,1999,2052,2052,1196
1849,1716364553050068675,2056,2054,2060,2104,2056,2053,1192
1850,1716364553060001552,2054,2065,2052,2042,2056,2061,1195
1851,1716364553070008070,2057,2055,2060,2074,2150,2060,1196
1852,1716364553080006162,2050,2056,2054,2092,2081,2058,1194
1853,1716364553090006246,2060,2056,2056,2056,2036,2049,1193
1854,1716364553100014056,2058,2054,2061,2077,2046,2056,1196
1855,1716364553110006295,2054,2057,2054,2030,2013,2045,1196
1856,1716364553120001842,2056,2056,2054,2072,2048,2052,1197
1857,1716364553130004473,2056,2050,2057,2058,2047,2048,1196
1858,1716364553140005749,2059,2052,2060,2080,2056,2058,1196
1859,1716364553150005714,2058,2056,2067,2098,2096,2057,1197
1860,1716364553160006851,2057,2052,2061,2068,2050,2058,1195
1861,1716364553170015292,2060,2056,2056,2058,2076,2054,1197
1862,1716364553180006651,2053,2053,2052,2018,2058,2056,1197
1863,1716364553190004411,2059,2058,2057,2034,2047,2048,1197
1864,1716364553200003434,2054,2050,2054,2104,2056,2056,1195
1865,1716364553210004671,2054,2045,2045,2079,2053,2049,1194
1866,1716364553220004235,2056,2058,2073,2076,2093,2058,1195
1867,1716364553230010422,2056,2053,2042,2017,2052,2046,1193
1868,1716364553240006569,2053,2056,2064,2084,2043,2048,1196
1869,1716364553250007325,2057,2059,2055,2003,2032,2045,1194
1870,1716364553260039432,2052,2053,2056,2054,2030,2047,1193
1871,1716364553270033094,2060,2072,2057,2066,2077,2051,1196
1872,1716364553280004845,2056,2052,2056,2054,2018,2045,1191
1873,1716364553290001694,2057,2060,2061,2092,2046,2059,1195
1874,1716364553300004053,2056,2053,2048,2080,2046,2058,1196
1875,1716364553310003508,2060,2051,2059,2063,2044,2051,1200
1876,1716364553320007720,2054,2051,2052,2060,2036,2056,1197
1877,1716364553330009027,2057,2054,2050,2102,2032,2055,1197
1878,1716364553340002671,2053,2052,2056,2088,2041,2056,1198
1879,1716364553350008085,2056,2053,2053,2072,2021,2044,1193
1880,1716364553360001949,2054,2056,2056,2043,2046,2056,1197
1881,1716364553370002995,2058,2054,2056,2051,2058,2058,1196
1882,1716364553380002239,2054,2052,2056,2089,2069,2063,1197
1883,1716364553390004147,2056,2054,2040,2053,2049,2044,1194
1884,1716364553400002358,2048,2050,2057,2038,2028,2054,1196
1885,1716364553410010028,2061,2073,2058,2056,2052,2052,1194
1886,1716364553420008309,2057,2055,2050,2074,2049,2061,1196
1887,1716364553430039634,2056,2052,2052,2005,2062,2044,1199
1888,1716364553440006817,2054,2057,2062,2057,2037,2050,1196
1889,1716364553450005869,2062,2060,2058,2014,2033,2052,1196
1890,1716364553460007066,2049,2050,2056,2048,2043,2056,1197
1891,1716364553470009847,2054,2045,2055,2068,2054,2056,1196
1892,1716364553480004912,2057,2056,2064,2082,2036,2049,1194
1893,1716364553490007221,2054,2048,2052,2105,2051,2051,1194
1894,1716364553500010241,2054,2053,2062,2112,2109,2060,1196
1895,1716364553510010998,2057,2058,2055,2074,2068,2056,1195
1896,1716364553520009530,2056,2053,2056,2064,2039,2052,1198
1897,1716364553530086430,2054,2051,2050,2074,2047,2057,1197
1898,1716364553540011824,2052,2053,2060,2062,2082,2062,1195
1899,1716364553550010897,2056,2057,2054,2084,2049,2057,1197
1900,1716364553560018085,2054,2051,2049,2049,2044,2056,1197
1901,1716364553570011929,2064,2062,2068,2086,2034,2059,1198
1902,1716364553580021692,2049,2038,2048,2090,2053,2057,1197
1903,1716364553590008462,2053,2049,2055,2083,2064,2056,1196
1904,1716364553600012494,2051,2049,2053,2065,2028,2054,1197
1905,1716364553610011327,2060,2057,2056,2094,2043,2056,1193
1906,1716364553620012103,2056,2047,2056,2095,2065,2056,1196
1907,1716364553630013410,2058,2056,2049,2053,2048,2053,1197
1908,1716364553640012974,2050,2045,2045,2072,2064,2058,1195
1909,1716364553650011927,2053,2053,2069,2084,2044,2054,1195
1910,1716364553660016751,2045,2042,2046,2022,2052,2049,1193
1911,1716364553670013119,2058,2060,2050,2027,2039,2047,1194
1912,1716364553680065733,2053,2052,2045,2000,2021,2051,1196
1913,1716364553690014842,2056,2050,2041,2055,2027,2053,1195
1914,1716364553700018715,2049,2044,2036,2014,2021,2052,1196
1915,1716364553710013218,2058,2050,2054,2032,2024,2055,1196
1916,1716364553720014656,2045,2040,2047,2080,2060,2052,1196
1917,1716364553730014009,2060,2056,2052,2038,2035,2051,1195
1918,1716364553740017752,2056,2052,2058,2022,2025,2058,1196
1919,1716364553749994733,2058,2054,2047,2035,2012,2038,1194
1920,1716364553760013904,2058,2061,2088,2089,2089,2056,1196
1921,1716364553770003549,2061,2056,2064,2036,2052,2052,1197
1922,1716364553780061173,2053,2052,2054,2049,2048,2046,1192
1923,1716364553790005713,2058,2066,2057,2062,2074,2047,1196
1924,1716364553800003674,2059,2053,2053,2111,2060,2045,1195
1925,1716364553810008718,2056,2054,2044,2062,2064,2049,1196
1926,1716364553820008242,2056,2050,2046,2081,2050,2056,1196
1927,1716364553830003568,2058,2057,2051,2058,2023,2054,1197
1928,1716364553840019203,2049,2040,2046,2066,2076,2053,1194
1929,1716364553850002155,2058,2061,2063,1981,2020,2067,1193
1930,1716364553860008051,2056,2049,2051,2063,2033,2056,1198
1931,1716364553870003087,2055,2052,2057,2082,2074,2054,1196
1932,1716364553880061392,2053,2047,2049,2062,2045,2061,1196
1933,1716364553890001032,2057,2062,2081,2088,2074,2060,1197
1934,1716364553900001148,2056,2051,2045,1936,1994,2050,1196
1935,1716364553910010140,2056,2053,2058,2017,2051,2058,1197
1936,1716364553920003812,2056,2062,2056,2070,2091,2062,1199
1937,1716364553930006252,2065,2059,2055,2058,2048,2048,1197
1938,1716364553940007699,2051,2054,2072,2069,2065,2061,1194
1939,1716364553950001562,2060,2074,2104,2056,2107,2052,1197
1940,1716364553960005766,2050,2045,2043,2050,2032,2037,1192
1941,1716364553970006391,2062,2063,2065,2072,2065,2056,1196
1942,1716364553980060749,2051,2041,2048,2082,2060,2053,1197
1943,1716364553990003295,2061,2052,2052,2063,2056,2052,1196
1944,1716364554000006937,2056,2045,2039,2016,2042,2054,1197
1945,1716364554010005459,2054,2053,2044,2063,2048,2057,1194
1946,1716364554020004612,2052,2046,2037,2016,2044,2056,1197
1947,1716364554030005398,2057,2060,2073,2023,2042,2061,1196
1948,1716364554040046751,2050,2052,2052,2044,2028,2050,1197
1949,1716364554050002152,2060,2059,2047,2091,2061,2053,1194
1950,1716364554060003089,2055,2052,2056,2063,2047,2049,1196
1951,1716364554070004135,2059,2055,2056,2072,2065,2056,1195
1952,1716364554080048484,2053,2044,2046,2060,2043,2044,1194
1953,1716364554090043640,2060,2060,2059,2024,2051,2047,1194
1954,1716364554100004741,2049,2044,2040,2077,2036,2047,1193
1955,1716364554110042527,2057,2055,2057,2034,2056,2058,1200
1956,1716364554120041400,2052,2052,2047,2076,2064,2050,1196
1957,1716364554130039050,2058,2057,2056,2041,2052,2055,1197
1958,1716364554140040328,2052,2048,2052,1984,2037,2049,1197
1959,1716364554150038549,2059,2051,2049,2060,2058,2056,1198
1960,1716364554160037732,2055,2078,2056,2054,2056,2056,1197
1961,1716364554170038549,2058,2053,2049,2049,2059,2056,1195
1962,1716364554180037061,2058,2063,2084,2099,2043,2056,1196
1963,1716364554190036575,2058,2052,2050,2072,2070,2057,1195
1964,1716364554200037030,2050,2049,2049,2034,2068,2057,1197
1965,1716364554210035362,2060,2053,2056,2087,2074,2064,1194
1966,1716364554220036920,2053,2056,2046,2023,2001,2036,1191
1967,1716364554230034269,2058,2053,2060,2080,2061,2059,1196
1968,1716364554240034605,2056,2060,2075,1988,2044,2054,1198
1969,1716364554250034740,2053,2049,2047,2054,2057,2056,1198
1970,1716364554260032571,2049,2050,2052,2060,2044,2055,1196
1971,1716364554270034530,2058,2056,2052,2066,2053,2064,1195
1972,1716364554280009186,2054,2052,2056,2024,2049,2046,1192
1973,1716364554290031503,2064,2072,2044,2030,2054,2064,1196
1974,1716364554300031980,2053,2052,2053,2076,2068,2057,1197
1975,1716364554310027996,2057,2061,2064,2064,2069,2058,1196
1976,1716364554320039403,2056,2060,2104,2026,2056,2054,1196
1977,1716364554330027636,2058,2055,2050,2059,2025,2060,1197
1978,1716364554340027760,2053,2056,2052,2006,2031,2058,1197
1979,1716364554350026654,2057,2059,2072,2074,2074,2064,1198
1980,1716364554360022901,2050,2049,2060,2044,2045,2045,1194
1981,1716364554370024809,2060,2060,2053,2052,2070,2061,1197
1982,1716364554380026839,2049,2049,2057,2046,2040,2049,1196
1983,1716364554390026993,2052,2049,2057,2056,2058,2057,1197
1984,1716364554400025936,2057,2058,2058,2053,2026,2051,1197
1985,1716364554410025741,2060,2057,2057,2090,2072,2057,1194
1986,1716364554420024934,2051,2050,2057,2061,2052,2046,1193
1987,1716364554430024238,2058,2054,2047,2089,2038,2054,1196
1988,1716364554440023551,2051,2049,2041,2055,2020,2047,1192
1989,1716364554450021943,2060,2067,2122,2045,2077,2063,1200
1990,1716364554460022900,2048,2040,2047,2059,2050,2045,1194
1991,1716364554470020329,2060,2049,2057,2070,2056,2058,1197
1992,1716364554480022008,2054,2054,2058,2079,2062,2050,1195
1993,1716364554490022193,2058,2062,2065,2026,2062,2057,1196
1994,1716364554500018701,2054,2049,2051,2040,2045,2036,1193
1995,1716364554510019898,2058,2053,2054,2073,2060,2059,1195
1996,1716364554520018490,2057,2057,2045,2050,2026,2047,1196
1997,1716364554530018545,2057,2050,2049,2094,2050,2058,1197
1998,1716364554540019031,2056,2047,2049,2062,2062,2043,1196
1999,1716364554550018424,2057,2052,2039,2068,2062,2049,1198
2000,1716364554560016616,2046,2039,2072,2041,2032,2047,1193
2001,1716364554570016491,2058,2060,2060,2030,2059,2059,1196
2002,1716364554580016034,2053,2053,2053,2087,2045,2053,1192
2003,1716364554590016370,2058,2056,2066,2099,2114,2066,1195
2004,1716364554600014772,2051,2057,2057,2071,2056,2045,1193
2005,1716364554610014977,2058,2052,2049,2033,2053,2061,1195
2006,1716364554620016265,2056,2071,2068,2059,2051,2051,1196
2007,1716364554630017291,2060,2064,2052,2100,2080,2053,1195
2008,1716364554640016945,2050,2049,2054,2026,2044,2052,1196
2009,1716364554650017411,2056,2050,2040,2042,2056,2052,1194
2010,1716364554660018307,2052,2052,2057,2064,2110,2058,1197
2011,1716364554670019735,2054,2040,2046,2054,2048,2059,1195
2012,1716364554680024579,2048,2047,2054,1977,2034,2044,1192
2013,1716364554690018663,2064,2063,2066,2097,2046,2058,1195
2014,1716364554700019289,2056,2056,2041,2080,2058,2048,1196
2015,1716364554710020195,2058,2056,2056,2073,2061,2055,1195
2016,1716364554720020601,2052,2048,2047,2024,2058,2052,1197
2017,1716364554730019794,2056,2053,2053,1985,2064,2059,1195
2018,1716364554740016703,2052,2049,2046,2064,2066,2048,1195
2019,1716364554750014324,2050,2036,2052,2089,2069,2061,1196
2020,1716364554760015560,2053,2052,2064,2024,2020,2040,1193
2021,1716364554770015906,2056,2057,2053,2049,2035,2052,1197
2022,1716364554780016753,2051,2047,2048,2044,2056,2047,1194
2023,1716364554790016627,2054,2063,2073,2020,2058,2058,1198
2024,1716364554800016682,2054,2052,2058,2058,2053,2056,1197
2025,1716364554810014563,2058,2054,2052,2065,2052,2055,1196
2026,1716364554820014898,2050,2056,2056,2049,2038,2054,1196
2027,1716364554830016547,2060,2052,2042,2082,2054,2057,1196
2028,1716364554840022603,2054,2051,2053,2085,2023,2052,1197
2029,1716364554850015795,2054,2048,2049,2103,2058,2055,1195
2030,1716364554860016451,2050,2051,2055,2076,2044,2046,1192
2031,1716364554870014462,2059,2055,2048,2074,2059,2059,1197
2032,1716364554880022252,2052,2048,2050,2084,2080,2056,1196
2033,1716364554890020363,2052,2047,2040,2067,2041,2064,1198
2034,1716364554900019646,2056,2051,2042,2069,2042,2040,1196
2035,1716364554910016125,2058,2062,2057,2079,2094,2062,1198
2036,1716364554920019024,2053,2052,2056,2052,2015,2044,1195
2037,1716364554930029008,2059,2065,2086,2101,2064,2058,1195
2038,1716364554940016921,2054,2066,2044,2089,2044,2048,1197
2039,1716364554950015713,2056,2051,2045,2050,2068,2057,1194
2040,1716364554960016429,2053,2047,2048,2083,2025,2052,1197
2041,1716364554970014591,2057,2052,2057,2028,2058,2059,1196
2042,1716364554980024033,2052,2056,2060,2088,2022,2046,1194
2043,1716364554990013298,2058,2057,2057,2062,2109,2073,1197
2044,1716364555000014374,2053,2064,2095,2081,2116,2061,1197
2045,1716364555010015371,2059,2065,2050,2068,2063,2053,1193
2046,1716364555020014896,2056,2056,2065,2122,2037,2042,1192
2047,1716364555030016002,2056,2050,2041,2072,2057,2053,1196
2048,1716364555040017480,2049,2049,2041,2068,2080,2053,1196
2049,1716364555050015962,2059,2058,2052,2050,2050,2049,1197
2050,1716364555060014464,2052,2058,2075,2060,2068,2046,1193
2051,1716364555070014589,2054,2047,2061,2075,2074,2068,1195
2052,1716364555080013702,2052,2048,2049,2023,2042,2049,1197
2053,1716364555090015450,2057,2056,2054,2102,2072,2069,1199
2054,1716364555100015756,2051,2049,2047,2066,2057,2049,1196
2055,1716364555110013857,2056,2049,2048,2068,2094,2053,1198
2056,1716364555120013381,2060,2063,2090,2070,2044,2056,1200
2057,1716364555130012795,2053,2056,2056,2090,2060,2054,1196
2058,1716364555140015695,2054,2062,2044,2013,2016,2046,1195
2059,1716364555150015630,2054,2060,2064,2050,2073,2057,1196
2060,1716364555160015325,2050,2048,2047,2077,2093,2055,1195
2061,1716364555170015830,2060,2060,2061,2036,2061,2056,1197
2062,1716364555180014723,2052,2051,2050,2024,2039,2047,1196
2063,1716364555190014066,2056,2046,2045,2040,2067,2062,1197
2064,1716364555200015173,2050,2046,2045,2053,2064,2054,1197
2065,1716364555210014717,2060,2070,2089,2010,2051,2060,1193
2066,1716364555220015693,2047,2046,2046,2052,2037,2042,1192
2067,1716364555230016811,2060,2056,2060,2078,2059,2061,1195
2068,1716364555240015453,2053,2047,2044,2020,2024,2045,1193
2069,1716364555250016049,2057,2053,2044,2031,2048,2054,1195
2070,1716364555260023418,2053,2049,2037,2054,2049,2056,1198
2071,1716364555270017301,2061,2053,2058,2088,2058,2058,1194
2072,1716364555280046571,2052,2051,2052,2076,2039,2040,1195
2073,1716364555290015187,2056,2058,2056,2080,2064,2061,1197
2074,1716364555300042804,2053,2056,2047,2092,2058,2048,1196
2075,1716364555310045434,2058,2056,2076,2000,2001,2052,1195
2076,1716364555320045108,2049,2053,2052,2052,2020,2049,1196
2077,1716364555330060071,2058,2059,2058,2059,2060,2061,1198
2078,1716364555340041351,2057,2056,2058,2085,2043,2050,1194
2079,1716364555350044131,2053,2053,2056,2090,2062,2063,1198
2080,1716364555360040559,2052,2056,2054,2090,2045,2052,1196
2081,1716364555370048429,2059,2058,2062,2096,2090,2064,1195
2082,1716364555380039606,2053,2051,2055,2061,2066,2058,1197
2083,1716364555390005467,2059,2057,2060,1928,2058,2049,1197
2084,1716364555400040378,2053,2047,2043,2090,2053,2053,1197
2085,1716364555410035573,2058,2068,2129,2092,2064,2060,1194
2086,1716364555420038284,2056,2055,2054,2030,2066,2041,1193
2087,1716364555430037457,2060,2058,2056,2003,2112,2071,1195
2088,1716364555440035377,2053,2052,2052,2018,2007,2040,1193
2089,1716364555450035984,2058,2054,2050,2038,2054,2056,1195
2090,1716364555460034466,2053,2058,2051,1906,2054,2047,1193
2091,1716364555470036013,2056,2054,2041,2040,2034,2056,1196
2092,1716364555480035948,2056,2064,2084,1985,2044,2043,1193
2093,1716364555490033679,2059,2062,2093,2007,2021,2061,1195
2094,1716364555500043853,2057,2054,2050,2013,2035,2045,1193
2095,1716364555510034701,2056,2056,2056,2045,2061,2054,1197
2096,1716364555520001332,2054,2050,2056,2056,2019,2040,1193
2097,1716364555530032276,2058,2049,2042,2077,2053,2058,1196
2098,1716364555540027913,2049,2046,2047,2068,2050,2046,1195
2099,1716364555550027756,2052,2047,2047,2018,2049,2053,1195
2100,1716364555560026629,2053,2056,2057,1995,2034,2050,1195
2101,1716364555570024871,2059,2057,2061,2061,2060,2057,1196
2102,1716364555580025948,2051,2056,2057,2083,2043,2042,1194
2103,1716364555590026574,2058,2073,2059,2070,2057,2057,1197
2104,1716364555600033281,2053,2052,2050,2090,2010,2052,1195
2105,1716364555610025341,2056,2052,2056,2141,2070,2055,1193
2106,1716364555620025867,2053,2053,2044,2023,2043,2052,1196
2107,1716364555630025962,2053,2056,2050,2054,2085,2069,1194
2108,1716364555640024224,2052,2050,2052,2044,2042,2040,1194
2109,1716364555650023658,2055,2052,2056,2094,2040,2065,1197
2110,1716364555660027068,2050,2045,2047,1992,2026,2049,1196
2111,1716364555670023106,2060,2064,2056,2063,2056,2064,1195
2112,1716364555680022651,2057,2056,2053,2040,2036,2041,1194
2113,1716364555690021152,2056,2052,2045,2062,2045,2050,1197
2114,1716364555700031938,2050,2050,2054,2114,2033,2041,1193
2115,1716364555710017796,2056,2057,2063,2124,2081,2061,1196
2116,1716364555720019143,2055,2054,2048,2041,2038,2044,1195
2117,1716364555730019829,2064,2070,2088,2057,2040,2049,1196
2118,1716364555740020325,2056,2064,2053,2059,2044,2047,1194
2119,1716364555750017244,2061,2056,2044,1892,2009,2052,1196
2120,1716364555760026326,2057,2057,2052,2037,2050,2050,1195
2121,1716364555770015750,2056,2054,2060,2058,2058,2054,1196
2122,1716364555780019433,2056,2047,2054,2060,2045,2045,1195
2123,1716364555790019798,2054,2053,2053,2068,2066,2051,1196
2124,1716364555800034581,2056,2056,2050,1969,2033,2045,1192
2125,1716364555810018976,2062,2066,2088,2073,2076,2067,1196
2126,1716364555820018710,2054,2065,2081,2068,2027,2046,1193
2127,1716364555830022032,2056,2056,2047,2057,2060,2053,1196
2128,1716364555840035082,2053,2048,2052,2038,2038,2047,1194
2129,1716364555850022001,2055,2050,2055,2059,2088,2058,1197
2130,1716364555860021886,2055,2056,2062,2099,2094,2058,1196
2131,1716364555870020749,2054,2056,2047,2079,2065,2059,1196
2132,1716364555880023007,2054,2052,2078,2084,2045,2049,1196
2133,1716364555890023494,2056,2046,2056,2085,2062,2055,1196
2134,1716364555900031694,2053,2054,2053,2029,2050,2057,1194
2135,1716364555910005228,2058,2051,2056,2078,2061,2064,1198
2136,1716364555920005534,2052,2053,2056,2041,2022,2050,1198
2137,1716364555930006752,2057,2053,2053,2082,2047,2058,1196
2138,1716364555940006706,2054,2051,2053,2010,2047,2049,1197
2139,1716364555950008414,2068,2059,2061,2072,2072,2060,1198
2140,1716364555960031613,2056,2053,2044,2022,2039,2044,1194
2141,1716364555970009155,2056,2053,2053,2045,2049,2061,1198
2142,1716364555980008309,2053,2057,2056,2059,2043,2044,1193
2143,1716364555990008904,2060,2056,2053,2043,2027,2052,1196
2144,1716364556000035440,2052,2047,2047,2040,2030,2042,1194
2145,1716364556010010888,2061,2065,2065,2089,2096,2069,1194
2146,1716364556020010011,2054,2054,2052,2061,2041,2050,1196
2147,1716364556030010327,2058,2074,2056,2053,2052,2057,1198
2148,1716364556040008818,2052,2053,2060,1942,1985,2048,1196
2149,1716364556050010076,2056,2056,2056,2074,2058,2056,1195
2150,1716364556060038785,2052,2049,2036,2060,2036,2041,1193
2151,1716364556070041605,2056,2051,2043,2066,2069,2052,1195
2152,1716364556080005191,2053,2057,2061,2075,1992,2045,1193
2153,1716364556090003303,2059,2057,2060,2096,2056,2062,1197
2154,1716364556100037552,2054,2050,2057,2085,2042,2050,1197
2155,1716364556110005607,2057,2052,2059,2069,2055,2061,1196
2156,1716364556120003788,2053,2054,2066,2036,2040,2045,1196
2157,1716364556130005846,2053,2054,2046,2041,2050,2056,1197
2158,1716364556140013977,2052,2054,2078,2070,2052,2042,1195
2159,1716364556150033950,2054,2052,2069,2070,2055,2064,1196
2160,1716364556160032361,2056,2057,2054,2060,2055,2052,1196
2161,1716364556170006337,2057,2058,2056,2056,2088,2057,1196
2162,1716364556180008967,2051,2053,2054,2068,2033,2044,1195
2163,1716364556190002319,2059,2072,2062,2100,2080,2056,1198
2164,1716364556200009388,2060,2053,2056,2079,2041,2052,1198
2165,1716364556210006247,2054,2049,2050,2121,2068,2054,1194
2166,1716364556220014547,2055,2054,2058,2069,2057,2051,1193
2167,1716364556230008320,2058,2050,2049,2105,2106,2065,1196
2168,1716364556240006391,2056,2053,2068,2006,2033,2042,1194
2169,1716364556249989284,2056,2046,2044,2114,2098,2054,1198
2170,1716364556260022011,2058,2074,2041,2079,2073,2052,1196
2171,1716364556270006375,2056,2055,2056,2088,2107,2058,1197
2172,1716364556280004758,2057,2064,2096,2055,2010,2041,1193
2173,1716364556290003991,2058,2052,2047,2041,2062,2061,1196
2174,1716364556299999367,2053,2053,2041,2076,2065,2049,1198
2175,1716364556310008840,2057,2056,2060,2106,2048,2058,1197
2176,1716364556320008394,2057,2061,2064,2076,2058,2040,1196
2177,1716364556330004671,2053,2052,2052,2023,2088,2045,1193
2178,1716364556340022280,2053,2057,2072,2083,2049,2042,1195
2179,1716364556350006345,2056,2052,2044,2058,2072,2059,1197
2180,1716364556360004826,2053,2053,2060,2076,2055,2049,1195
2181,1716364556370005253,2056,2053,2050,2070,2052,2054,1194
2182,1716364556380006279,2056,2054,2053,2068,2039,2043,1194
2183,1716364556390005372,2058,2056,2057,2056,2044,2058,1195
2184,1716364556400005317,2057,2069,2054,2001,2024,2049,1197
2185,1716364556410006914,2062,2056,2059,2056,2040,2060,1196
2186,1716364556420007190,2053,2047,2056,2050,2073,2057,1196
2187,1716364556430004110,2053,2054,2052,2121,2058,2056,1194
2188,1716364556440009364,2052,2050,2056,2037,2036,2056,1196
2189,1716364556450006784,2056,2052,2044,2026,2053,2056,1197
2190,1716364556460009374,2054,2052,2047,2056,2041,2045,1194
2191,1716364556470005942,2061,2061,2054,2015,2038,2064,1198
2192,1716364556480004735,2056,2068,2046,1981,2047,2049,1195
2193,1716364556490002566,2062,2060,2065,2037,2022,2060,1196
2194,1716364556500012259,2052,2056,2054,2077,2036,2047,1193
2195,1716364556510005772,2054,2054,2054,2061,2058,2058,1198
2196,1716364556519970850,2053,2047,2055,2068,2050,2044,1196
2197,1716364556530012945,2058,2053,2048,2084,2068,2060,1200
2198,1716364556540005656,2048,2054,2049,2070,2040,2041,1193
2199,1716364556550004277,2056,2065,2046,2052,2017,2051,1197
2200,1716364556560015584,2052,2053,2037,1963,2082,2037,1195
2201,1716364556570008476,2058,2056,2054,2102,2063,2059,1195
2202,1716364556580010424,2054,2057,2051,2041,2033,2037,1193
2203,1716364556590007453,2057,2058,2077,2072,2072,2064,1195
2204,1716364556600013741,2056,2047,2040,2025,2047,2056,1194
2205,1716364556610018534,2053,2044,2041,2053,2049,2057,1195
2206,1716364556620020783,2052,2049,2047,2046,2000,2041,1193
2207,1716364556630010890,2059,2058,2053,2053,2048,2060,1195
2208,1716364556640008910,2052,2050,2058,2050,2046,2049,1195
2209,1716364556650007042,2057,2056,2059,2044,2062,2060,1197
2210,1716364556660009221,2060,2054,2056,2048,2040,2044,1194
2211,1716364556670005919,2065,2057,2056,2082,2054,2062,1198
2212,1716364556680004692,2054,2053,2045,2034,2056,2046,1193
