seq,time,data[0],data[1],data[2],data[3],data[4],data[5],data[6]
201,1713855752681429936,2042,2033,2026,2063,2037,2047,1193
202,1713855752691433932,2062,2060,2040,2044,2075,2065,1196
203,1713855752701447176,2053,2056,2076,2062,2040,2053,1195
204,1713855752711429111,2063,2072,2050,2051,2075,2057,1196
205,1713855752721447183,2077,2108,2184,2078,2043,2051,1197
206,1713855752731432214,2047,2028,2027,2033,2061,2056,1196
207,1713855752741429217,2058,2060,2045,2070,2038,2047,1196
208,1713855752751428074,2056,2052,2056,2048,2064,2053,1196
209,1713855752761433994,2078,2137,2157,2082,2047,2053,1196
210,1713855752771427691,2056,2041,2024,2037,2066,2059,1196
211,1713855752781428061,2056,2072,2082,2064,2039,2047,1193
212,1713855752791429683,2061,2080,2150,2045,2066,2058,1195
213,1713855752801429952,2068,2108,2161,2078,2052,2065,1195
214,1713855752811430291,2052,2041,2041,2041,2064,2061,1195
215,1713855752821430911,2051,2047,2034,2068,2040,2051,1196
216,1713855752831430459,2058,2052,1997,2045,2069,2057,1194
217,1713855752841431100,2056,2077,2084,2066,2041,2048,1197
218,1713855752851428354,2061,2072,2115,2048,2070,2062,1198
219,1713855752861428182,2055,2048,2059,2065,2041,2050,1196
220,1713855752871428762,2062,2059,2057,2041,2058,2050,1197
221,1713855752881426657,2057,2041,2020,2068,2035,2052,1196
222,1713855752891429270,2046,2037,2018,2043,2056,2045,1194
223,1713855752901431694,2060,2056,2050,2066,2035,2049,1196
224,1713855752911429358,2064,2088,2094,2056,2072,2062,1197
225,1713855752921429087,2052,2060,2076,2064,2036,2043,1193
226,1713855752931427543,2072,2092,2104,2056,2085,2062,1194
227,1713855752941427842,2063,2100,2207,2057,2021,2041,1194
228,1713855752951427140,2054,2064,2078,2048,2077,2060,1195
229,1713855752961434803,2052,2056,2036,2053,2022,2041,1193
230,1713855752971431556,2054,2064,2106,2052,2082,2053,1197
231,1713855752981430823,2049,2046,2068,2011,2014,2048,1196
232,1713855752991431413,2053,2039,2032,2040,2073,2067,1197
233,1713855753001428237,2052,2051,2048,2061,2048,2051,1197
234,1713855753011430179,2042,2034,2000,2045,2075,2053,1195
235,1713855753021437882,2073,2117,2184,2073,2053,2063,1195
236,1713855753031433893,2049,2034,1964,2038,2065,2054,1196
237,1713855753041441516,2057,2067,2055,2064,2041,2056,1193
238,1713855753051429402,2056,2084,2146,2048,2080,2061,1195
239,1713855753061431635,2058,2066,2064,2065,2037,2055,1197
240,1713855753071429009,2056,2088,2105,2045,2061,2055,1194
241,1713855753081428727,2050,2022,1965,2066,2035,2046,1192
242,1713855753091428636,2052,2050,2077,2035,2073,2061,1196
243,1713855753101428826,2053,2047,2032,2074,2034,2049,1195
244,1713855753111448632,2073,2109,2145,2044,2057,2062,1195
245,1713855753121432200,2050,2027,1976,2056,2051,2047,1196
246,1713855753131430756,2049,2047,2025,2033,2070,2050,1197
247,1713855753141427509,2070,2088,2094,2072,2041,2052,1197
248,1713855753151428339,2058,2052,2056,2038,2065,2052,1197
249,1713855753161448996,2056,2045,1997,2065,2040,2049,1198
250,1713855753171428797,2054,2041,2053,2042,2072,2052,1195
251,1713855753181431060,2061,2047,1999,2068,2036,2049,1196
252,1713855753191431610,2064,2073,2149,2047,2072,2063,1196
253,1713855753201435026,2050,2043,2014,2064,2029,2042,1195
254,1713855753211435125,2057,2076,2157,2049,2081,2065,1195
255,1713855753221447677,2052,2041,2020,2060,2037,2046,1192
256,1713855753231430073,2072,2082,2069,2038,2064,2064,1194
257,1713855753241429140,2057,2040,2040,2063,2041,2052,1195
258,1713855753251434719,2052,2047,2052,2029,2064,2052,1194
259,1713855753261437343,2064,2100,2078,2066,2040,2056,1194
260,1713855753271452180,2044,2038,2024,2033,2068,2048,1196
261,1713855753281431259,2056,2046,2034,2064,2042,2049,1196
262,1713855753291410719,2056,2018,1954,2048,2064,2051,1195
263,1713855753301430967,2052,2041,2023,2061,2035,2044,1193
264,1713855753311440083,2049,2047,2049,2043,2064,2047,1194
265,1713855753321431596,2046,2042,2026,2065,2034,2048,1196
266,1713855753331468684,2054,2035,2084,2051,2066,2053,1198
267,1713855753341431253,2045,2037,2004,2066,2043,2056,1197
268,1713855753351429789,2069,2100,2169,2049,2073,2051,1196
269,1713855753361428735,2056,2048,2047,2070,2040,2049,1194
270,1713855753371430437,2047,2040,2078,2044,2069,2052,1195
271,1713855753381433271,2044,2060,2083,2068,2040,2047,1194
272,1713855753391433490,2051,2038,2030,2050,2060,2056,1196
273,1713855753401429964,2066,2065,2012,2062,2041,2047,1195
274,1713855753411435954,2072,2120,2165,2046,2080,2058,1195
275,1713855753421430592,2061,2065,2069,2067,2040,2040,1192
276,1713855753431433917,2059,2040,2013,2041,2072,2058,1195
277,1713855753441432774,2048,2058,2072,2066,2045,2053,1194
278,1713855753451433123,2062,2062,2073,2048,2068,2056,1194
279,1713855753461440015,2054,2045,1995,2062,2037,2049,1194
280,1713855753471429744,2060,2050,2042,2042,2072,2056,1196
281,1713855753481429342,2057,2066,2056,2065,2035,2051,1194
282,1713855753491441544,2042,2028,2032,2025,2068,2056,1196
283,1713855753501428299,2069,2084,2048,2059,2040,2044,1193
284,1713855753511442074,2060,2050,2035,2126,2087,2066,1196
285,1713855753521428387,2057,2050,2049,2044,2020,2042,1194
286,1713855753531432192,2060,2053,2089,2045,2060,2053,1197
287,1713855753541434506,2056,2068,2084,2058,2020,2054,1197
288,1713855753551432070,2056,2052,2050,2056,2069,2056,1196
289,1713855753561433702,2053,2032,1976,2062,2034,2049,1196
290,1713855753571431216,2052,2050,2049,2047,2069,2060,1195
291,1713855753581430152,2056,2053,2042,2068,2038,2048,1196
292,1713855753591449828,2052,2042,2040,2040,2058,2052,1196
293,1713855753601431503,2058,2088,2117,2069,2050,2055,1193
294,1713855753611437914,2045,2040,2031,2041,2067,2049,1195
295,1713855753621430429,2047,2048,2036,2064,2037,2051,1196
296,1713855753631436880,2059,2057,2025,2047,2068,2055,1196
297,1713855753641433953,2072,2120,2215,2072,2043,2056,1194
298,1713855753651436286,2052,2048,2074,2040,2068,2057,1193
299,1713855753661440913,2060,2101,2150,2072,2035,2045,1192
300,1713855753671430743,2057,2059,2083,2042,2062,2054,1196
301,1713855753681430652,2045,2041,2045,2059,2030,2047,1192
302,1713855753691436191,2066,2073,2139,2055,2080,2064,1194
303,1713855753701432463,2056,2043,2026,2061,2037,2055,1194
304,1713855753711432963,2066,2117,2222,2050,2067,2056,1196
305,1713855753721433183,2065,2059,2099,2065,2045,2047,1193
306,1713855753731430707,2051,2043,2048,2044,2064,2058,1198
307,1713855753741432509,2065,2066,2057,2068,2044,2045,1194
308,1713855753751430484,2072,2088,2124,2047,2075,2065,1196
309,1713855753761438397,2049,2052,2075,2067,2035,2050,1196
310,1713855753771428467,2045,2034,2020,2041,2057,2052,1196
311,1713855753781431452,2055,2036,1992,2073,2036,2048,1194
312,1713855753791436059,2057,2045,2053,2043,2079,2057,1198
313,1713855753801429205,2062,2088,2092,2073,2029,2041,1194
314,1713855753811435977,2044,2036,2026,2044,2072,2064,1195
315,1713855753821429053,2041,2029,2047,2066,2040,2045,1190
316,1713855753831429633,2063,2072,2159,2047,2079,2062,1197
317,1713855753841431926,2058,2049,2045,2064,2034,2044,1193
318,1713855753851430472,2054,2047,2060,2039,2068,2056,1196
319,1713855753861433226,2072,2128,2175,2082,2037,2054,1197
320,1713855753871430409,2052,2042,2013,2036,2058,2056,1196
321,1713855753881429747,2059,2065,2061,2060,2038,2048,1196
322,1713855753891440125,2057,2066,2172,2049,2066,2052,1195
323,1713855753901427871,2047,2043,2056,2063,2053,2064,1195
324,1713855753911433551,2068,2064,2052,2049,2068,2054,1197
325,1713855753921428441,2069,2112,2170,2070,2040,2051,1199
326,1713855753931434481,2039,2036,2036,2033,2068,2057,1196
327,1713855753941433578,2059,2061,2069,2068,2041,2054,1197
328,1713855753951431783,2061,2071,2148,2050,2071,2056,1195
329,1713855753961430359,2064,2049,2028,2071,2041,2049,1196
330,1713855753971432742,2058,2088,2180,2041,2069,2063,1195
331,1713855753981432030,2055,2056,2055,2061,2040,2041,1195
332,1713855753991440404,2050,2042,2052,2040,2060,2056,1197
333,1713855754001431807,2065,2072,2096,2072,2047,2062,1197
334,1713855754011432498,2049,2051,2060,2045,2061,2051,1195
335,1713855754021430302,2043,2037,2015,2060,2045,2045,1193
336,1713855754031434409,2056,2049,2030,2040,2063,2060,1197
337,1713855754041430059,2061,2072,2083,2070,2045,2053,1196
338,1713855754051432984,2072,2067,1999,2045,2073,2072,1197
339,1713855754061433093,2044,2029,2037,2070,2034,2049,1196
340,1713855754071430777,2068,2037,1981,2046,2061,2056,1196
341,1713855754081443209,2045,2049,2025,2066,2052,2065,1196
342,1713855754091435614,2056,2063,2085,2050,2066,2058,1196
343,1713855754101428429,2056,2065,2056,2070,2048,2056,1197
344,1713855754111432445,2057,2056,2000,2045,2061,2052,1196
345,1713855754121430240,2050,2047,2043,2064,2039,2049,1196
346,1713855754131436149,2070,2097,2093,2050,2069,2061,1198
347,1713855754141430509,2056,2050,2040,2065,2040,2047,1193
348,1713855754151429125,2060,2057,2046,2044,2069,2056,1198
349,1713855754161435466,2052,2053,2072,2077,2046,2061,1195
350,1713855754171431707,2044,2032,2026,2047,2069,2053,1197
351,1713855754181431375,2049,2037,2040,2064,2036,2046,1195
352,1713855754191447204,2046,2026,2023,2033,2056,2056,1196
353,1713855754201424911,2072,2078,2033,2065,2045,2051,1196
354,1713855754211431311,2051,2041,2001,2044,2064,2055,1195
355,1713855754221429968,2058,2067,2060,2068,2040,2054,1196
356,1713855754231431670,2075,2074,2052,2050,2067,2056,1196
357,1713855754241431839,2062,2056,2114,2069,2032,2050,1195
358,1713855754251429874,2049,2037,2032,2043,2068,2057,1195
359,1713855754261427478,2053,2040,2012,2068,2037,2047,1193
360,1713855754271450921,2056,2035,2008,2053,2068,2053,1193
361,1713855754281427997,2056,2052,2053,2068,2037,2046,1195
362,1713855754291434558,2062,2088,2065,2046,2071,2056,1196
363,1713855754301422274,2076,2081,2120,2072,2043,2056,1196
364,1713855754311428875,2049,2030,2048,2045,2071,2056,1198
365,1713855754321397696,2044,2026,1957,2062,2034,2048,1197
366,1713855754331436146,2045,2024,1989,2040,2073,2059,1198
367,1713855754341428431,2059,2061,2078,2068,2036,2050,1196
368,1713855754351428570,2052,2038,2041,2038,2064,2052,1195
369,1713855754361429761,2056,2076,2109,2070,2048,2058,1197
370,1713855754371430340,2056,2043,1998,2046,2068,2056,1196
371,1713855754381429818,2061,2044,2040,2059,2038,2047,1195
372,1713855754391439956,2046,2017,2004,2041,2068,2058,1197
373,1713855754401426840,2046,2037,2004,2061,2036,2049,1196
374,1713855754411432380,2060,2068,2064,2049,2077,2063,1195
375,1713855754421435735,2059,2061,2054,2067,2048,2048,1195
376,1713855754431441755,2053,2047,2042,2046,2058,2053,1193
377,1713855754441429681,2064,2106,2119,2068,2035,2047,1193
378,1713855754451435972,2063,2045,2029,2044,2072,2060,1198
379,1713855754461430380,2053,2044,2032,2064,2042,2047,1193
380,1713855754471429978,2073,2086,2082,2041,2066,2056,1195
381,1713855754481430007,2076,2092,2067,2066,2040,2054,1197
382,1713855754491435226,2056,2064,2034,2046,2069,2057,1195
383,1713855754501424945,2061,2078,2148,2063,2041,2049,1195
384,1713855754511434151,2042,2036,2035,2044,2065,2056,1196
385,1713855754521432717,2056,2070,2089,2066,2044,2044,1194
386,1713855754531434730,2051,2050,2058,2043,2052,2052,1198
387,1713855754541428777,2053,2038,2021,2063,2036,2041,1194
388,1713855754551437994,2042,2042,2120,2045,2067,2056,1196
389,1713855754561434126,2047,2036,2014,2064,2037,2046,1193
390,1713855754571434726,2052,2047,2054,2036,2062,2052,1195
391,1713855754581431518,2059,2040,2028,2064,2033,2049,1196
392,1713855754591444822,2067,2064,2067,2046,2068,2056,1197
393,1713855754601413282,2053,2040,2053,2062,2043,2053,1196
394,1713855754611433819,2061,2047,2095,2047,2068,2065,1193
395,1713855754621433878,2072,2060,2034,2070,2044,2052,1196
396,1713855754631434127,2054,2049,2050,2044,2069,2053,1193
397,1713855754641428245,2060,2048,2023,2068,2043,2056,1196
398,1713855754651431960,2065,2081,2084,2039,2061,2063,1197
399,1713855754661428623,2052,2044,2037,2059,2032,2047,1194
400,1713855754671434192,2064,2047,2028,2044,2066,2057,1197
401,1713855754681428680,2053,2057,2048,2064,2038,2056,1197
402,1713855754691438298,2057,2059,2138,2047,2073,2059,1196
403,1713855754701426324,2077,2080,2052,2072,2039,2053,1196
404,1713855754711433066,2058,2067,2063,2046,2067,2057,1198
405,1713855754721431251,2049,2026,1978,2066,2042,2056,1195
406,1713855754731432362,2047,2024,1971,2041,2064,2050,1198
407,1713855754741432771,2047,2034,1997,2066,2033,2052,1194
408,1713855754751430807,2056,2047,2046,2053,2069,2046,1195
409,1713855754761436917,2049,2034,1972,2071,2044,2052,1196
410,1713855754771434401,2047,2036,2024,2047,2066,2053,1197
411,1713855754781426655,2056,2060,2049,2064,2046,2049,1197
412,1713855754791439929,2054,2062,2145,2043,2059,2046,1194
413,1713855754801430520,2072,2089,2061,2066,2048,2065,1197
414,1713855754811433724,2062,2037,2028,2043,2065,2053,1195
415,1713855754821428915,2055,2052,2062,2074,2046,2052,1198
416,1713855754831442509,2051,2041,2049,2045,2059,2058,1196
417,1713855754841428342,2069,2087,2190,2070,2045,2058,1195
418,1713855754851411589,2056,2060,2054,2042,2068,2053,1196
419,1713855754861431245,2047,2052,2066,2073,2040,2049,1200
420,1713855754871430402,2053,2057,2101,2049,2069,2058,1197
421,1713855754881430631,2069,2076,2064,2066,2042,2054,1196
422,1713855754891435288,2068,2056,2055,2047,2082,2076,1195
423,1713855754901426541,2060,2079,2063,2070,2047,2061,1195
424,1713855754911446587,2054,2046,2047,2045,2069,2052,1196
425,1713855754921431578,2061,2070,2024,2061,2040,2047,1193
426,1713855754931428661,2049,2034,1987,2040,2072,2056,1197
427,1713855754941432777,2068,2079,2076,2072,2045,2062,1197
428,1713855754951430702,2045,2049,2055,2040,2057,2052,1196
429,1713855754961427376,2082,2082,2049,2066,2050,2060,1195
430,1713855754971427885,2050,2043,2026,2043,2062,2055,1196
431,1713855754981430199,2060,2073,2126,2058,2035,2045,1193
432,1713855754991428344,2064,2068,2171,2053,2072,2067,1196
433,1713855755001427842,2059,2063,2030,2067,2037,2048,1197
434,1713855755011436937,2060,2074,2145,2045,2074,2056,1193
435,1713855755021433590,2061,2062,2057,2075,2041,2053,1196
436,1713855755031436394,2029,2041,2064,2044,2076,2057,1194
437,1713855755041428949,2046,2079,2086,2069,2037,2048,1195
438,1713855755051433937,2052,2053,2056,2041,2062,2047,1195
439,1713855755061427483,2053,2044,2037,2066,2033,2049,1196
440,1713855755071431930,2054,2053,2072,2043,2068,2056,1195
441,1713855755081426830,2060,2078,2122,2068,2048,2054,1196
442,1713855755091431387,2061,2072,2084,2040,2070,2057,1195
443,1713855755101422098,2041,2028,1998,2067,2040,2045,1195
444,1713855755111427818,2030,2022,2009,2040,2062,2056,1196
445,1713855755121427105,2046,2039,2027,2066,2036,2046,1193
446,1713855755131430040,2052,2036,2022,2045,2064,2051,1199
447,1713855755141425761,2061,2064,2132,2068,2037,2044,1194
448,1713855755151429276,2056,2052,2053,2047,2065,2053,1194
449,1713855755161427953,2068,2079,2091,2072,2044,2054,1197
450,1713855755171427601,2044,2025,1981,2045,2060,2049,1197
451,1713855755181426137,2044,2036,1993,2069,2041,2062,1196
452,1713855755191427247,2043,2057,2069,2040,2064,2058,1196
453,1713855755201435251,2046,2033,2030,2056,2036,2039,1193
454,1713855755211429750,2042,2011,1946,2035,2061,2054,1195
455,1713855755221426422,2057,2054,2080,2064,2041,2050,1195
456,1713855755231427813,2062,2052,2023,2043,2060,2056,1196
457,1713855755241427301,2050,2054,2085,2067,2040,2047,1193
458,1713855755251429694,2080,2089,2219,2053,2071,2058,1194
459,1713855755261386853,2042,2026,2018,2058,2042,2047,1193
460,1713855755271434491,2056,2033,2047,2045,2073,2052,1195
461,1713855755281431534,2066,2069,2206,2072,2037,2051,1195
462,1713855755291432825,2050,2040,2034,2041,2066,2057,1196
463,1713855755301430189,2061,2062,2058,2062,2041,2046,1194
464,1713855755311430919,2061,2045,2004,2044,2058,2054,1197
465,1713855755321431930,2098,2220,2318,2091,2068,2077,1196
466,1713855755331429694,2043,2016,2045,2035,2063,2046,1195
467,1713855755341430035,2053,2033,2024,2075,2034,2052,1197
468,1713855755351450462,2056,2045,2029,2044,2070,2064,1196
469,1713855755361430413,2058,2052,2041,2065,2040,2052,1196
470,1713855755371430762,2055,2042,2029,2043,2064,2056,1196
471,1713855755381435520,2055,2053,2045,2072,2038,2047,1194
472,1713855755391441630,2042,2030,2072,2040,2049,2044,1193
473,1713855755401445236,2056,2062,2047,2074,2041,2054,1196
474,1713855755411429695,2060,2061,2093,2045,2068,2059,1193
475,1713855755421427249,2045,2043,2052,2068,2033,2045,1194
476,1713855755431428501,2085,2164,2249,2058,2077,2072,1195
477,1713855755441427067,2048,2037,2032,2062,2033,2046,1193
478,1713855755451448646,2061,2061,2069,2041,2059,2052,1196
479,1713855755461427715,2065,2096,2117,2073,2050,2064,1195
480,1713855755471427103,2053,2045,2041,2040,2068,2048,1195
481,1713855755481431470,2063,2092,2177,2074,2044,2056,1196
482,1713855755491431759,2054,2039,2026,2046,2065,2059,1199
483,1713855755501432890,2053,2034,2032,2065,2040,2037,1193
484,1713855755511426927,2050,2038,2048,2051,2070,2054,1198
485,1713855755521429180,2062,2070,2100,2060,2040,2050,1197
486,1713855755531430702,2060,2064,2071,2050,2067,2053,1195
487,1713855755541427204,2052,2037,2046,2064,2033,2045,1193
488,1713855755551445338,2058,2041,2019,2045,2066,2052,1196
489,1713855755561426602,2068,2076,2061,2067,2043,2053,1198
490,1713855755571428294,2060,2065,2123,2048,2067,2052,1195
491,1713855755581427781,2071,2074,2025,2060,2036,2052,1196
492,1713855755591428131,2078,2083,2152,2047,2086,2076,1197
493,1713855755601433720,2053,2050,2040,2064,2041,2047,1195
494,1713855755611429000,2068,2090,2144,2054,2073,2067,1197
495,1713855755621431423,2050,2044,2012,2062,2040,2049,1195
496,1713855755631431732,2053,2050,2049,2052,2067,2061,1197
497,1713855755641431280,2050,2040,2024,2067,2046,2053,1195
498,1713855755651446938,2079,2052,2009,2045,2062,2052,1196
499,1713855755661423082,2042,2038,2032,2070,2035,2045,1195
500,1713855755671423542,2052,2040,2056,2044,2075,2059,1196
501,1713855755681428650,2056,2045,2011,2065,2034,2048,1197
502,1713855755691426976,2057,2043,2129,2047,2073,2065,1196
503,1713855755701434619,2052,2039,2028,2056,2036,2045,1192
504,1713855755711432945,2055,2040,2032,2047,2066,2056,1197
505,1713855755721428856,2062,2049,2018,2064,2038,2040,1193
506,1713855755731430006,2048,2032,1970,2044,2072,2067,1196
507,1713855755741427581,2052,2064,2042,2060,2039,2047,1192
508,1713855755751457035,2072,2084,1967,2056,2073,2056,1197
509,1713855755761430575,2057,2050,2048,2061,2044,2046,1195
510,1713855755771432627,2056,2074,2115,2045,2071,2061,1197
511,1713855755781431544,2056,2039,2029,2058,2035,2048,1196
512,1713855755791430040,2076,2088,2161,2045,2068,2059,1195
513,1713855755801430540,2049,2044,2023,2064,2036,2043,1194
514,1713855755811427423,2047,2026,2047,2045,2059,2056,1193
515,1713855755821431148,2054,2057,2064,2064,2040,2048,1196
516,1713855755831433011,2065,2089,2106,2049,2072,2056,1197
517,1713855755841429803,2060,2054,2056,2064,2046,2046,1189
518,1713855755851449990,2055,2046,2043,2046,2065,2057,1197
519,1713855755861429791,2072,2064,2030,2070,2045,2052,1197
520,1713855755871428788,2051,2032,2008,2042,2059,2054,1197
521,1713855755881430700,2041,2033,2001,2064,2041,2051,1197
522,1713855755891428645,2058,2041,2021,2037,2064,2053,1197
523,1713855755901428924,2054,2057,2046,2072,2038,2052,1195
524,1713855755911423913,2052,2029,1990,2043,2072,2058,1195
525,1713855755921453578,2050,2025,1980,2066,2052,2056,1196
526,1713855755931435873,2071,2084,2026,2047,2066,2060,1199
527,1713855755941428498,2053,2077,2158,2064,2037,2048,1198
528,1713855755951448945,2061,2068,2098,2045,2062,2057,1197
529,1713855755961423507,2047,2041,2021,2061,2044,2050,1197
530,1713855755971426652,2052,2053,2072,2041,2068,2056,1196
531,1713855755981431269,2050,2038,2052,2064,2030,2035,1195
532,1713855755991433833,2056,2056,2063,2045,2080,2068,1197
533,1713855756001428552,2057,2058,2149,2076,2045,2055,1197
534,1713855756011433169,2048,2041,2015,2046,2066,2056,1196
535,1713855756021437175,2064,2062,2076,2064,2050,2052,1196
536,1713855756031431033,2068,2080,2063,2062,2082,2067,1195
537,1713855756041432294,2052,2032,2027,2062,2034,2044,1196
538,1713855756051466276,2056,2056,2084,2041,2062,2059,1197
539,1713855756061427162,2052,2050,2030,2064,2036,2045,1193
540,1713855756071428262,2077,2101,2121,2050,2070,2059,1197
541,1713855756081430405,2052,2048,2044,2060,2036,2033,1193
542,1713855756091431546,2056,2039,2024,2043,2064,2057,1198
543,1713855756101431605,2058,2024,1904,2064,2033,2048,1197
544,1713855756111429460,2053,2028,2005,2041,2063,2056,1196
545,1713855756121429528,2047,2051,2049,2062,2041,2044,1193
546,1713855756131430980,2061,2073,2102,2041,2062,2053,1196
547,1713855756141432842,2049,2038,2047,2056,2042,2050,1196
548,1713855756151391974,2056,2050,2011,2045,2063,2056,1198
549,1713855756161429924,2040,2020,2050,2060,2036,2042,1194
550,1713855756171431506,2057,2025,2037,2042,2072,2073,1197
551,1713855756181432206,2056,2040,2024,2065,2029,2044,1194
552,1713855756191429940,2053,2056,2058,2045,2072,2057,1197
553,1713855756201435570,2051,2047,2077,2064,2038,2053,1196
554,1713855756211433655,2039,2040,2029,2039,2064,2056,1197
555,1713855756221425739,2058,2058,2004,2072,2041,2047,1193
556,1713855756231428673,2058,2049,2009,2040,2068,2056,1195
557,1713855756241429984,2080,2100,2158,2072,2051,2052,1198
558,1713855756251427959,2052,2043,2026,2047,2073,2058,1195
559,1713855756261461150,2049,2052,2047,2062,2041,2047,1192
560,1713855756271426394,2050,2040,2035,2040,2063,2053,1195
561,1713855756281429017,2049,2066,2040,2057,2034,2043,1192
562,1713855756291428014,2064,2104,2166,2053,2074,2072,1197
563,1713855756301425979,2061,2061,2032,2072,2036,2050,1194
564,1713855756311453429,2060,2064,2050,2045,2072,2061,1196
565,1713855756321430024,2051,2050,2056,2067,2037,2056,1196
566,1713855756331426857,2064,2078,2120,2047,2069,2062,1195
567,1713855756341429120,2061,2089,2100,2064,2033,2049,1196
568,1713855756351434961,2056,2060,2042,2045,2069,2062,1197
569,1713855756361429399,2056,2044,2000,2064,2037,2046,1194
570,1713855756371444005,2037,2016,1993,2042,2069,2056,1195
571,1713855756381430919,2062,2068,2061,2063,2040,2045,1193
572,1713855756391434675,2064,2071,2126,2046,2072,2063,1197
573,1713855756401433471,2049,2047,2022,2057,2045,2050,1196
574,1713855756411431757,2053,2047,2061,2047,2066,2052,1192
575,1713855756421431966,2051,2029,2027,2068,2037,2049,1196
576,1713855756431439078,2054,2061,2148,2056,2078,2063,1196
577,1713855756441431052,2043,2037,2024,2066,2043,2044,1193
578,1713855756451431121,2051,2047,2038,2044,2072,2053,1196
579,1713855756461430699,2053,2054,2057,2063,2036,2049,1193
580,1713855756471434875,2054,2046,2128,2038,2058,2044,1194
581,1713855756481431458,2052,2066,2106,2076,2052,2083,1195
582,1713855756491430935,2050,2047,2030,2040,2053,2045,1192
583,1713855756501431255,2056,2066,2050,2063,2039,2047,1193
584,1713855756511436533,2072,2078,2101,2050,2066,2056,1195
585,1713855756521433356,2065,2068,2069,2070,2044,2055,1196
586,1713855756531431461,2052,2047,2036,2045,2069,2056,1197
587,1713855756541438423,2064,2069,2058,2066,2040,2052,1196
588,1713855756551432170,2058,2052,2046,2048,2067,2051,1197
589,1713855756561432489,2050,2057,2076,2063,2034,2050,1195
590,1713855756571433911,2044,2043,2037,2044,2064,2050,1197
591,1713855756581435182,2054,2065,2096,2065,2044,2052,1195
592,1713855756591432215,2050,2032,2015,2048,2067,2058,1196
593,1713855756601435049,2038,2018,1968,2057,2040,2050,1197
594,1713855756611433034,2052,2037,2020,2038,2069,2063,1193
595,1713855756621437621,2054,2052,2036,2067,2039,2052,1195
596,1713855756631431368,2060,2062,2036,2046,2072,2050,1194
597,1713855756641433000,2051,2035,2009,2073,2045,2048,1195
598,1713855756651435985,2050,2034,1992,2045,2073,2057,1196
599,1713855756661433629,2053,2061,2076,2066,2051,2057,1197
600,1713855756671433788,2061,2041,2025,2054,2077,2064,1196
601,1713855756681434087,2047,2040,2034,2068,2036,2048,1195
602,1713855756691434737,2037,2027,2045,2047,2066,2060,1194
603,1713855756701434796,2049,2052,2033,2073,2037,2044,1193
604,1713855756711441036,2044,2024,2019,2043,2066,2064,1196
605,1713855756721435094,2042,2026,1956,2069,2038,2051,1195
606,1713855756731434321,2052,2036,2013,2037,2068,2053,1195
607,1713855756741434520,2051,2047,2036,2063,2046,2052,1196
608,1713855756751434509,2049,2042,2051,2047,2060,2053,1195
609,1713855756761436341,2073,2075,2059,2073,2043,2048,1196
610,1713855756771435949,2059,2059,2060,2050,2073,2061,1195
611,1713855756781435809,2042,2034,2009,2070,2048,2053,1196
612,1713855756791436198,2062,2079,2126,2053,2066,2057,1196
613,1713855756801435957,2049,2047,2035,2067,2048,2049,1197
614,1713855756811437198,2067,2064,2070,2049,2072,2062,1195
615,1713855756821437527,2050,2039,2026,2062,2048,2047,1192
616,1713855756831437636,2058,2085,2131,2044,2068,2056,1197
617,1713855756841440650,2050,2032,2013,2066,2039,2052,1196
618,1713855756851437052,2080,2091,2143,2056,2078,2072,1197
619,1713855756861437822,2051,2047,2052,2068,2036,2050,1196
620,1713855756871438653,2060,2047,2024,2046,2068,2064,1195
621,1713855756881434544,2047,2045,2056,2061,2040,2049,1196
622,1713855756891442337,2052,2047,2063,2041,2061,2053,1196
623,1713855756901439611,2054,2052,2066,2060,2043,2049,1196
624,1713855756911438698,2058,2064,2078,2051,2074,2058,1196
625,1713855756921438055,2049,2052,2041,2064,2042,2050,1199
626,1713855756931437072,2061,2060,2035,2045,2064,2053,1198
627,1713855756941436820,2057,2056,2035,2064,2040,2062,1198
628,1713855756951437430,2072,2063,2034,2049,2069,2056,1195
629,1713855756961437459,2054,2065,2043,2064,2039,2051,1196
630,1713855756971437518,2056,2023,1999,2036,2058,2056,1198
631,1713855756981437306,2054,2036,2006,2072,2044,2065,1197
632,1713855756991438087,2048,2033,2000,2039,2057,2050,1196
633,1713855757001438306,2055,2051,2024,2065,2037,2044,1194
634,1713855757011439485,2044,2048,2098,2046,2069,2056,1195
635,1713855757021439374,2045,2047,2036,2061,2044,2044,1193
636,1713855757031440345,2057,2053,2063,2044,2065,2056,1194
637,1713855757041438610,2072,2090,2164,2069,2047,2053,1194
638,1713855757051439791,2075,2088,2094,2054,2072,2061,1196
639,1713855757061439569,2052,2046,2020,2063,2033,2045,1193
640,1713855757071440339,2053,2028,2003,2046,2070,2052,1196
641,1713855757081440348,2052,2036,2004,2065,2034,2045,1191
642,1713855757091444735,2054,2032,2002,2043,2064,2056,1196
643,1713855757101438703,2036,2039,2084,2062,2042,2046,1192
644,1713855757111447187,2050,2043,2021,2047,2072,2060,1198
645,1713855757121441225,2042,2030,2025,2059,2033,2037,1193
646,1713855757131441484,2046,2029,2013,2043,2066,2057,1197
647,1713855757141439058,2047,2033,1993,2064,2037,2050,1197
648,1713855757151423297,2048,2024,1978,2043,2068,2057,1197
649,1713855757161441230,2052,2042,2020,2063,2041,2044,1194
650,1713855757171446659,2052,2039,1992,2040,2073,2063,1198
651,1713855757181440516,2050,2040,2040,2064,2034,2043,1192
652,1713855757191451966,2044,2014,1980,2040,2065,2056,1195
653,1713855757201424443,2061,2099,2206,2076,2046,2052,1197
654,1713855757211447255,2051,2037,2012,2043,2062,2057,1194
655,1713855757221441122,2058,2068,2044,2064,2037,2052,1196
656,1713855757231442994,2046,2024,1990,2046,2059,2056,1196
657,1713855757241442151,2053,2054,2100,2065,2042,2056,1193
658,1713855757251449314,2055,2046,2025,2036,2068,2056,1195
659,1713855757261443171,2057,2056,2056,2057,2044,2051,1194
660,1713855757271443450,2060,2068,2136,2053,2068,2052,1195
661,1713855757281443078,2066,2104,2109,2072,2050,2051,1197
662,1713855757291448487,2052,2076,2110,2048,2069,2058,1196
663,1713855757301444158,2051,2047,2051,2065,2041,2046,1194
664,1713855757311445920,2066,2082,2094,2048,2061,2057,1195
665,1713855757321443925,2060,2055,2015,2059,2042,2054,1194
666,1713855757331444524,2048,2040,2028,2043,2069,2058,1197
667,1713855757341443832,2060,2053,2060,2070,2043,2050,1195
668,1713855757351444522,2053,2093,2164,2051,2068,2057,1194
669,1713855757361444601,2052,2064,2085,2067,2048,2055,1197
670,1713855757371405466,2064,2077,2123,2053,2064,2058,1194
671,1713855757381445650,2060,2083,2128,2075,2040,2044,1194
672,1713855757391445429,2068,2057,2013,2044,2068,2060,1195
673,1713855757401427193,2054,2052,2052,2069,2041,2045,1195
674,1713855757411429456,2052,2046,2082,2045,2068,2055,1194
675,1713855757421428914,2077,2120,2185,2069,2040,2054,1196
676,1713855757431446636,2050,2034,1993,2042,2063,2054,1195
677,1713855757441428260,2054,2066,2060,2070,2037,2050,1196
678,1713855757451429441,2059,2044,2009,2047,2071,2054,1195
679,1713855757461429740,2058,2061,2053,2070,2039,2049,1196
680,1713855757471451269,2056,2093,2228,2053,2072,2057,1196
681,1713855757481429307,2064,2105,2164,2078,2046,2062,1196
682,1713855757491429446,2060,2071,2056,2047,2066,2056,1196
683,1713855757501430657,2061,2053,2050,2060,2036,2045,1193
684,1713855757511429003,2047,2049,2056,2047,2068,2060,1197
685,1713855757521429693,2064,2076,2116,2070,2034,2047,1194
686,1713855757531430513,2069,2102,2209,2052,2078,2070,1195
687,1713855757541430211,2051,2050,2035,2066,2040,2049,1196
688,1713855757551429528,2060,2052,2056,2045,2065,2056,1197
689,1713855757561429327,2047,2047,2056,2058,2041,2049,1195
690,1713855757571430929,2060,2040,2046,2050,2060,2053,1196
691,1713855757581429575,2052,2061,2066,2047,2034,2044,1192
692,1713855757591427830,2046,2050,2079,2045,2064,2052,1198
693,1713855757601448087,2054,2050,2032,2069,2043,2046,1195
694,1713855757611428038,2053,2056,2074,2045,2068,2060,1196
695,1713855757621429309,2052,2052,2047,2067,2041,2058,1196
696,1713855757631449806,2074,2067,2045,2042,2065,2054,1196
697,1713855757641432132,2061,2069,2138,2073,2042,2054,1198
698,1713855757651465483,2049,2031,1989,2046,2061,2052,1196
699,1713855757661431117,2045,2046,2017,2066,2040,2056,1196
700,1713855757671433020,2056,2057,2114,2036,2070,2052,1195
701,1713855757681431345,2056,2068,2075,2067,2041,2052,1194
702,1713855757691431845,2068,2061,2054,2043,2066,2057,1196
703,1713855757701450619,2073,2104,2232,2076,2045,2049,1197
704,1713855757711433305,2041,2037,1994,2035,2057,2049,1196
705,1713855757721438043,2059,2058,2073,2068,2040,2048,1197
706,1713855757731428574,2056,2052,2014,2042,2068,2053,1197
707,1713855757741429835,2040,2013,1950,2058,2034,2042,1192
708,1713855757751430785,2050,2044,2037,2042,2058,2044,1194
709,1713855757761466942,2060,2048,2017,2076,2056,2067,1196
710,1713855757771433097,2050,2047,2033,2040,2053,2038,1193
711,1713855757781433166,2057,2054,2052,2056,2032,2046,1193
712,1713855757791429738,2057,2064,2089,2044,2064,2065,1196
713,1713855757801432973,2060,2061,2077,2065,2040,2048,1196
714,1713855757811432040,2057,2045,2068,2036,2068,2053,1194
715,1713855757821432179,2054,2056,2048,2065,2042,2050,1194
716,1713855757831434242,2065,2072,2073,2044,2068,2064,1196
717,1713855757841431065,2056,2049,2046,2060,2036,2046,1193
718,1713855757851428909,2061,2057,2052,2049,2062,2056,1196
719,1713855757861432415,2066,2084,2089,2076,2042,2053,1194
720,1713855757871429849,2053,2045,2036,2041,2067,2056,1197
721,1713855757881428455,2053,2052,2043,2066,2041,2047,1192
722,1713855757891429966,2046,2029,2006,2049,2069,2053,1195
723,1713855757901430847,2078,2128,2224,2074,2050,2063,1194
724,1713855757911430525,2053,2046,2020,2040,2065,2046,1192
725,1713855757921446734,2056,2056,2053,2067,2043,2048,1196
726,1713855757931431514,2056,2046,2082,2043,2064,2056,1195
727,1713855757941430421,2054,2051,2133,2075,2040,2056,1197
728,1713855757951430670,2046,2020,1994,2037,2058,2053,1195
729,1713855757961436029,2043,2066,2062,2064,2037,2049,1195
730,1713855757971436979,2045,2043,2017,2049,2070,2059,1196
731,1713855757981433642,2050,2052,2070,2064,2037,2048,1196
732,1713855757991431136,2058,2050,2029,2045,2068,2054,1196
733,1713855758001430443,2056,2036,2021,2061,2042,2049,1197
734,1713855758011437064,2070,2084,2132,2040,2064,2056,1195
735,1713855758021430791,2050,2044,2013,2065,2035,2047,1194
736,1713855758031432183,2050,2046,2027,2045,2066,2059,1196
737,1713855758041428394,2059,2067,2092,2065,2045,2046,1193
738,1713855758051430617,2068,2101,2126,2050,2062,2056,1195
739,1713855758061428231,2056,2044,2056,2059,2032,2046,1195
740,1713855758071433320,2040,2031,2030,2034,2058,2057,1196
741,1713855758081433258,2052,2058,2048,2072,2036,2042,1191
742,1713855758091430933,2056,2058,2081,2047,2077,2066,1196
743,1713855758101436602,2051,2060,2187,2072,2053,2061,1196
744,1713855758111433796,2050,2023,1974,2044,2061,2053,1195
745,1713855758121438062,2053,2044,2052,2066,2040,2048,1195
746,1713855758131431568,2062,2073,2125,2053,2066,2065,1196
747,1713855758141430685,2058,2064,2077,2064,2036,2047,1194
748,1713855758151429642,2057,2043,2005,2030,2058,2052,1196
749,1713855758161429730,2064,2072,2070,2068,2041,2051,1198
750,1713855758171432214,2057,2052,2068,2052,2075,2068,1198
751,1713855758181433966,2056,2047,2034,2068,2037,2051,1198
752,1713855758191432622,2054,2049,2064,2038,2063,2052,1196
753,1713855758201442780,2072,2120,2200,2068,2042,2052,1197
754,1713855758211432820,2057,2069,2067,2048,2069,2056,1196
755,1713855758221444350,2055,2048,2038,2065,2036,2051,1194
756,1713855758231439079,2060,2062,2130,2045,2061,2056,1197
757,1713855758241431343,2055,2040,2027,2064,2040,2046,1193
758,1713855758251436752,2060,2042,2039,2042,2072,2061,1198
759,1713855758261431020,2053,2038,1971,2066,2034,2042,1194
760,1713855758271439234,2065,2053,2037,2048,2073,2062,1196
761,1713855758281434364,2036,2042,2053,2060,2036,2042,1195
762,1713855758291430495,2040,2031,2011,2047,2067,2064,1196
763,1713855758301435754,2065,2076,2146,2070,2042,2057,1197
764,1713855758311432126,2057,2047,2011,2042,2064,2053,1196
765,1713855758321453645,2056,2052,2014,2060,2040,2043,1193
766,1713855758331432584,2051,2029,2015,2046,2068,2056,1196
767,1713855758341427974,2066,2056,2042,2066,2045,2047,1196
768,1713855758351430598,2057,2060,2052,2049,2068,2056,1197
769,1713855758361434033,2069,2083,2092,2070,2040,2045,1194
770,1713855758371430085,2046,2033,2015,2044,2064,2059,1194
771,1713855758381434341,2057,2053,2040,2065,2037,2047,1192
772,1713855758391441012,2070,2084,2044,2041,2061,2054,1195
773,1713855758401432625,2057,2082,2196,2069,2044,2052,1195
774,1713855758411431151,2060,2100,2100,2045,2074,2070,1195
775,1713855758421469823,2050,2040,2032,2058,2032,2048,1194
776,1713855758431428714,2060,2044,2052,2048,2068,2056,1194
777,1713855758441430717,2065,2088,2182,2067,2042,2054,1196
778,1713855758451427309,2057,2047,2086,2048,2069,2058,1196
779,1713855758461430614,2068,2062,2012,2068,2040,2048,1195
780,1713855758471431084,2068,2096,2113,2050,2070,2058,1196
781,1713855758481429289,2046,2046,2043,2063,2047,2049,1193
782,1713855758491429156,2054,2057,2145,2046,2072,2062,1195
783,1713855758501431460,2054,2047,2034,2072,2038,2050,1194
784,1713855758511428984,2046,2042,2037,2041,2059,2054,1198
785,1713855758521449691,2067,2082,2114,2072,2042,2049,1198
786,1713855758531422168,2057,2056,2060,2047,2069,2058,1198
787,1713855758541427116,2066,2074,2069,2061,2040,2042,1195
788,1713855758551428608,2050,2040,2046,2037,2060,2058,1196
789,1713855758561429288,2056,2064,2083,2064,2043,2049,1196
790,1713855758571430880,2057,2052,2042,2046,2061,2050,1196
791,1713855758581436839,2078,2099,2127,2076,2042,2052,1197
792,1713855758591429805,2054,2059,2132,2056,2072,2058,1197
793,1713855758601439562,2052,2045,2039,2064,2039,2042,1193
794,1713855758611432017,2060,2060,2084,2049,2069,2057,1195
795,1713855758621436213,2044,2038,2068,2050,2033,2040,1192
796,1713855758631439749,2043,2006,1940,2043,2069,2067,1195
797,1713855758641432724,2047,2028,2005,2061,2042,2050,1196
798,1713855758651429196,2056,2052,2049,2047,2068,2056,1200
799,1713855758661430948,2056,2045,2042,2066,2032,2045,1194
800,1713855758671433121,2058,2060,2046,2046,2067,2057,1195
801,1713855758681430054,2050,2047,2073,2062,2044,2049,1196
802,1713855758691435573,2067,2096,2136,2040,2062,2053,1196
803,1713855758701435071,2062,2079,2135,2074,2040,2050,1195
804,1713855758711424841,2052,2056,2068,2043,2068,2057,1198
805,1713855758721449415,2056,2070,2115,2067,2035,2049,1196
806,1713855758731433003,2044,2036,2019,2042,2068,2059,1199
807,1713855758741475832,2053,2048,2010,2061,2038,2052,1195
808,1713855758751428613,2073,2095,2201,2054,2065,2057,1197
809,1713855758761429102,2064,2040,2037,2065,2045,2055,1196
810,1713855758771429181,2054,2041,2058,2041,2068,2058,1196
811,1713855758781431875,2057,2085,2082,2066,2039,2048,1196
812,1713855758791437855,2052,2031,2028,2046,2068,2057,1197
813,1713855758801431742,2047,2024,2026,2066,2044,2051,1196
814,1713855758811451478,2065,2078,2157,2054,2064,2056,1195
815,1713855758821429044,2053,2061,2040,2066,2044,2059,1194
816,1713855758831430566,2043,2038,2035,2041,2061,2047,1193
817,1713855758841432138,2044,2043,1993,2071,2036,2053,1195
818,1713855758851430222,2052,2038,2026,2045,2068,2056,1196
819,1713855758861430060,2053,2047,2032,2067,2034,2041,1194
820,1713855758871432714,2052,2027,2009,2043,2068,2057,1196
821,1713855758881428605,2047,2054,2032,2068,2047,2053,1196
822,1713855758891432972,2056,2043,2036,2047,2062,2049,1197
823,1713855758901427811,2053,2024,1990,2064,2036,2054,1195
824,1713855758911429924,2042,2028,1972,2053,2070,2060,1194
825,1713855758921447034,2040,2042,2041,2070,2030,2049,1196
826,1713855758931430933,2050,2046,2012,2041,2072,2057,1197
827,1713855758941431693,2052,2027,1966,2056,2034,2041,1195
828,1713855758951435309,2078,2105,2274,2059,2083,2076,1196
829,1713855758961431420,2056,2051,2052,2060,2031,2036,1193
830,1713855758971431248,2056,2059,2042,2039,2064,2046,1193
831,1713855758981433982,2076,2071,2036,2076,2046,2050,1195
832,1713855758991431657,2050,2032,2037,2041,2061,2048,1197
833,1713855759001430714,2055,2049,2044,2068,2040,2045,1192
834,1713855759011431474,2077,2086,2189,2056,2074,2065,1196
835,1713855759021426433,2062,2056,2048,2047,2042,2050,1196
836,1713855759031431481,2056,2034,1975,2041,2067,2057,1196
837,1713855759041424657,2061,2099,2120,2069,2044,2056,1196
838,1713855759051432551,2052,2047,2050,2047,2072,2058,1194
839,1713855759061427851,2056,2047,2006,2066,2032,2043,1195
840,1713855759071429372,2052,2050,2026,2053,2072,2059,1195
841,1713855759081430974,2056,2088,2084,2068,2042,2037,1194
842,1713855759091440220,2051,2046,2008,2047,2067,2054,1197
843,1713855759101442223,2056,2032,1981,2068,2039,2053,1196
844,1713855759111430630,2056,2066,2081,2048,2060,2057,1198
845,1713855759121433623,2050,2050,2050,2065,2040,2048,1197
846,1713855759131432079,2059,2061,2088,2049,2067,2057,1200
847,1713855759141432278,2064,2061,2050,2072,2045,2052,1197
848,1713855759151432006,2062,2046,1996,2046,2067,2056,1197
849,1713855759161432686,2068,2108,2129,2065,2043,2054,1196
850,1713855759171435119,2055,2049,2091,2044,2065,2058,1197
851,1713855759181432894,2047,2037,2030,2063,2045,2051,1194
852,1713855759191433924,2054,2066,2078,2038,2059,2047,1195
853,1713855759201439544,2059,2049,2052,2069,2036,2052,1199
854,1713855759211430996,2046,2025,1973,2038,2066,2054,1196
855,1713855759221433219,2066,2061,2016,2072,2054,2064,1197
856,1713855759231431836,2057,2049,2038,2043,2063,2056,1196
857,1713855759241433477,2071,2102,2096,2073,2039,2053,1196
858,1713855759251433957,2067,2061,2025,2043,2066,2053,1197
859,1713855759261434186,2046,2014,1976,2071,2038,2053,1194
860,1713855759271433674,2066,2104,2153,2049,2074,2060,1195
861,1713855759281433312,2061,2077,2072,2066,2042,2053,1197
862,1713855759291431497,2057,2040,2047,2039,2057,2053,1197
863,1713855759301432889,2064,2072,2061,2063,2044,2048,1197
864,1713855759311434038,2077,2056,2040,2042,2067,2061,1196
865,1713855759321433266,2060,2057,2005,2067,2042,2041,1193
866,1713855759331431701,2043,2025,2026,2042,2064,2054,1197
867,1713855759341431720,2049,2056,2086,2067,2040,2047,1194
868,1713855759351432591,2050,2044,2049,2040,2066,2064,1196
869,1713855759361432720,2053,2052,2054,2064,2034,2044,1194
870,1713855759371434622,2056,2028,2015,2045,2065,2053,1196
871,1713855759381430282,2067,2081,2097,2065,2046,2054,1197
872,1713855759391435120,2058,2043,1988,2043,2070,2064,1197
873,1713855759401434498,2062,2049,2004,2069,2031,2043,1194
874,1713855759411432633,2054,2050,2064,2044,2064,2052,1195
875,1713855759421431239,2053,2053,2058,2063,2047,2054,1198
876,1713855759431429815,2059,2066,2071,2041,2066,2054,1195
877,1713855759441437168,2048,2040,2050,2061,2032,2044,1193
878,1713855759451429532,2065,2052,2008,2048,2072,2053,1196
879,1713855759461432497,2050,2048,2187,2071,2040,2052,1197
880,1713855759471434539,2045,2023,2025,2033,2065,2059,1195
881,1713855759481435780,2060,2069,2064,2070,2038,2051,1198
882,1713855759491434436,2048,2018,1988,2041,2067,2053,1197
883,1713855759501433823,2045,2025,2015,2060,2041,2049,1196
884,1713855759511428782,2056,2065,2167,2048,2070,2058,1197
885,1713855759521431897,2049,2049,2040,2058,2040,2050,1197
886,1713855759531429581,2046,2035,2032,2042,2067,2052,1197
887,1713855759541448956,2072,2073,2053,2065,2036,2046,1193
888,1713855759551431001,2068,2088,2176,2043,2068,2052,1198
889,1713855759561431401,2054,2045,2022,2068,2043,2060,1195
890,1713855759571430458,2062,2082,2066,2039,2064,2052,1198
891,1713855759581431338,2048,2067,2101,2068,2040,2052,1196
892,1713855759591432088,2061,2078,2049,2052,2079,2070,1196
893,1713855759601437778,2062,2066,2091,2067,2033,2047,1193
894,1713855759611431925,2064,2048,2052,2040,2072,2057,1194
895,1713855759621430892,2052,2046,2043,2073,2042,2050,1195
896,1713855759631449045,2053,2042,1968,2045,2069,2053,1196
897,1713855759641431631,2039,2033,2006,2061,2039,2056,1196
898,1713855759651432331,2050,2038,2045,2043,2065,2052,1196
899,1713855759661431719,2064,2077,2081,2064,2041,2052,1196
900,1713855759671433881,2056,2048,2040,2047,2070,2056,1195
901,1713855759681431275,2058,2071,2028,2069,2040,2051,1197
902,1713855759691431133,2052,2039,2021,2042,2066,2064,1194
903,1713855759701432103,2041,2019,1973,2065,2036,2043,1197
904,1713855759711430629,2056,2060,2116,2049,2068,2061,1198
905,1713855759721431219,2053,2073,2092,2070,2041,2049,1195
906,1713855759731434013,2056,2057,2019,2048,2067,2065,1197
907,1713855759741432298,2054,2049,2037,2061,2040,2046,1195
908,1713855759751434922,2058,2071,2114,2041,2073,2058,1197
909,1713855759761432336,2051,2040,2047,2070,2041,2049,1198
910,1713855759771433116,2046,2037,2047,2042,2067,2053,1197
911,1713855759781434377,2111,2182,2378,2085,2050,2071,1197
912,1713855759791431831,2047,2040,2033,2040,2062,2045,1194
913,1713855759801435016,2058,2053,2053,2064,2040,2045,1192
914,1713855759811450474,2051,2051,2057,2047,2067,2056,1195
915,1713855759821432479,2062,2094,2112,2067,2043,2050,1198
916,1713855759831433269,2050,2038,1988,2044,2061,2052,1193
917,1713855759841432887,2057,2057,2065,2065,2044,2054,1197
918,1713855759851433817,2050,2031,2040,2044,2067,2056,1195
919,1713855759861433455,2053,2042,1979,2056,2033,2045,1193
920,1713855759871439305,2068,2056,2046,2041,2070,2053,1197
921,1713855759881434103,2065,2066,2022,2067,2036,2047,1193
922,1713855759891434593,2057,2057,2093,2046,2065,2058,1196
923,1713855759901434110,2064,2052,2039,2062,2037,2051,1196
924,1713855759911434189,2052,2041,2037,2042,2064,2057,1197
925,1713855759921434148,2052,2045,2022,2052,2030,2042,1193
926,1713855759931429167,2049,2017,1964,2040,2070,2057,1195
927,1713855759941431360,2065,2068,2054,2068,2045,2045,1194
928,1713855759951432521,2070,2068,2060,2052,2070,2062,1196
929,1713855759961433071,2061,2059,2074,2069,2040,2053,1194
930,1713855759971435975,2058,2052,2018,2044,2061,2054,1196
931,1713855759981435212,2050,2038,2023,2063,2031,2045,1193
932,1713855759991433428,2056,2050,2047,2048,2070,2059,1197
933,1713855760001435270,2072,2092,2090,2076,2046,2052,1194
934,1713855760011440038,2044,2050,2068,2041,2064,2047,1192
935,1713855760021437001,2053,2034,2064,2070,2050,2072,1196
936,1713855760031433573,2050,2043,1988,2042,2061,2047,1193
937,1713855760041437990,2053,2047,2010,2064,2040,2046,1195
938,1713855760051432658,2065,2067,2085,2043,2066,2054,1196
939,1713855760061459447,2063,2070,2133,2073,2049,2057,1197
940,1713855760071433216,2060,2037,1999,2036,2060,2053,1195
941,1713855760081435519,2048,2026,1956,2058,2033,2054,1197
942,1713855760091432853,2053,2038,2005,2045,2069,2053,1195
943,1713855760101431349,2054,2056,2062,2064,2036,2043,1194
944,1713855760111409196,2054,2044,2045,2044,2066,2053,1197
945,1713855760121433991,2052,2047,2058,2065,2041,2052,1195
946,1713855760131434250,2058,2037,2016,2042,2060,2053,1195
947,1713855760141430582,2053,2057,2045,2075,2040,2056,1196
948,1713855760151431122,2045,2026,2002,2041,2061,2051,1197
949,1713855760161430961,2061,2059,2050,2072,2041,2050,1195
950,1713855760171432953,2059,2081,2093,2048,2072,2057,1196
951,1713855760181434504,2046,2025,2013,2062,2033,2054,1198
952,1713855760191432208,2056,2052,2038,2047,2072,2057,1197
953,1713855760201435022,2050,2032,1983,2063,2047,2050,1196
954,1713855760211432756,2058,2045,2032,2048,2061,2056,1196
955,1713855760221449176,2060,2053,2042,2069,2052,2053,1195
956,1713855760231441490,2050,2045,2047,2048,2074,2060,1196
957,1713855760241442892,2084,2129,2140,2080,2043,2064,1197
958,1713855760251435376,2057,2053,2086,2044,2034,2057,1198
959,1713855760261441597,2046,2049,2036,2059,2069,2034,1194
960,1713855760271434923,2049,2041,2035,2043,2046,2062,1197
961,1713855760281461381,2049,2046,2022,2061,2038,2053,1196
962,1713855760291433327,2084,2117,2154,2055,2060,2057,1196
963,1713855760301438466,2057,2049,2048,2057,2041,2047,1193
964,1713855760311437612,2048,2053,2034,2048,2064,2063,1195
965,1713855760321454202,2066,2063,2041,2069,2051,2046,1194
966,1713855760331431458,2070,2057,2046,2048,2063,2047,1192
967,1713855760341436927,2073,2096,2130,2072,2061,2059,1196
968,1713855760351437236,2046,2039,2023,2037,2064,2045,1192
969,1713855760361438287,2057,2047,2036,2059,2028,2056,1195
970,1713855760371437835,2052,2052,2072,2049,2072,2058,1197
971,1713855760381443784,2053,2049,2049,2062,2011,2051,1196
972,1713855760391438082,2053,2046,2069,2046,2074,2054,1195
973,1713855760401438322,2058,2042,2058,2068,2040,2049,1196
974,1713855760411438070,2051,2021,1987,2040,2064,2056,1194
975,1713855760421439441,2070,2113,2168,2073,2043,2049,1193
976,1713855760431439670,2058,2053,2068,2047,2064,2060,1196
977,1713855760441439418,2061,2056,2049,2069,2041,2051,1198
978,1713855760451438004,2050,2051,2047,2051,2075,2054,1197
979,1713855760461439756,2057,2041,2052,2064,2036,2045,1194
980,1713855760471438843,2061,2040,2052,2045,2060,2058,1195
981,1713855760481440575,2050,2032,2034,2061,2040,2054,1197
982,1713855760491436205,2046,2012,1971,2044,2061,2053,1196
983,1713855760501442145,2053,2042,2002,2068,2049,2052,1197
984,1713855760511440611,2056,2049,2053,2051,2066,2057,1196
985,1713855760521465336,2064,2063,2089,2060,2036,2054,1197
986,1713855760531440178,2066,2065,2046,2056,2069,2068,1196
987,1713855760541438533,2048,2057,2030,2060,2050,2046,1193
988,1713855760551441748,2057,2054,2050,2050,2066,2056,1194
989,1713855760561440224,2072,2100,2080,2072,2047,2057,1195
990,1713855760571444169,2062,2081,2101,2052,2069,2060,1198
991,1713855760581440681,2053,2056,2048,2064,2035,2053,1195
992,1713855760591441161,2060,2048,2049,2049,2062,2057,1198
993,1713855760601441901,2062,2052,1943,2068,2041,2053,1196
994,1713855760611441228,2053,2069,2059,2052,2065,2066,1195
995,1713855760621441167,2049,2050,2047,2064,2040,2049,1195
996,1713855760631444712,2048,2036,2042,2045,2053,2045,1193
997,1713855760641441866,2068,2062,2020,2065,2042,2059,1196
998,1713855760651441874,2048,2034,2034,2051,2064,2053,1196
999,1713855760661441583,2052,2056,2082,2061,2043,2050,1195
1000,1713855760671442082,2062,2058,2170,2054,2067,2053,1196
1001,1713855760681453793,2040,2043,2025,2053,2038,2053,1195
1002,1713855760691442761,2052,2052,2053,2050,2072,2061,1197
1003,1713855760701444452,2054,2053,2056,2065,2043,2054,1196
1004,1713855760711441104,2061,2053,2062,2047,2064,2057,1195
1005,1713855760721440061,2056,2053,2052,2064,2045,2049,1194
1006,1713855760731443967,2055,2049,2044,2047,2072,2056,1197
1007,1713855760741435450,2049,2044,2030,2065,2040,2048,1199
1008,1713855760751428806,2056,2057,2052,2045,2059,2051,1197
1009,1713855760761441188,2064,2069,2067,2067,2042,2058,1196
1010,1713855760771427601,2042,2034,2039,2047,2068,2057,1196
1011,1713855760781441246,2052,2051,2049,2065,2036,2047,1194
1012,1713855760791430344,2046,2068,2127,2051,2070,2056,1196
1013,1713855760801427638,2056,2054,2037,2068,2043,2057,1195
1014,1713855760811428448,2058,2072,2083,2048,2066,2056,1193
1015,1713855760821427645,2060,2066,2073,2060,2030,2043,1193
1016,1713855760831431590,2062,2056,2033,2049,2068,2053,1196
1017,1713855760841429725,2074,2089,2163,2073,2056,2056,1196
1018,1713855760851429714,2059,2045,2014,2046,2051,2044,1194
1019,1713855760861429392,2049,2048,2052,2065,2050,2050,1197
1020,1713855760871436053,2057,2040,2009,2043,2058,2056,1196
1021,1713855760881428879,2061,2052,2005,2058,2047,2057,1197
1022,1713855760891429449,2060,2061,2048,2044,2064,2056,1196
1023,1713855760901431571,2033,2032,2048,2057,2034,2047,1196
1024,1713855760911430067,2042,2052,2014,2047,2057,2042,1193
1025,1713855760921444864,2064,2096,2138,2072,2061,2077,1199
1026,1713855760931429974,2050,2044,2037,2047,2072,2052,1196
1027,1713855760941431135,2055,2051,2047,2061,2046,2048,1195
1028,1713855760951435502,2064,2066,2072,2054,2068,2059,1195
1029,1713855760961431202,2067,2081,2059,2072,2050,2059,1196
1030,1713855760971432042,2044,2059,2084,2047,2061,2053,1196
1031,1713855760981448993,2050,2070,2097,2061,2036,2047,1194
1032,1713855760991430477,2052,2062,2064,2046,2067,2054,1198
1033,1713855761001432259,2050,2044,2042,2061,2045,2057,1196
1034,1713855761011437597,2056,2044,2049,2047,2064,2054,1194
1035,1713855761021443998,2053,2068,2099,2060,2046,2050,1196
1036,1713855761031433748,2048,2040,2012,2051,2062,2059,1195
1037,1713855761041435720,2050,2068,2065,2066,2041,2056,1194
1038,1713855761051431541,2065,2075,2093,2053,2063,2061,1196
1039,1713855761061430157,2056,2056,2058,2061,2041,2045,1195
1040,1713855761071434794,2064,2057,2049,2050,2066,2052,1195
1041,1713855761081435494,2056,2039,2027,2064,2045,2047,1192
1042,1713855761091430884,2053,2050,2072,2049,2077,2051,1196
1043,1713855761101432385,2052,2046,2046,2064,2041,2048,1197
1044,1713855761111430731,2061,2064,2140,2051,2060,2057,1196
1045,1713855761121428616,2077,2076,2128,2066,2049,2053,1197
1046,1713855761131432762,2056,2062,2076,2053,2069,2063,1197
1047,1713855761141431809,2062,2069,2073,2068,2045,2053,1196
1048,1713855761151429754,2059,2052,2052,2048,2061,2053,1198
1049,1713855761161429681,2053,2050,2092,2065,2046,2057,1197
1050,1713855761171430963,2049,2053,2043,2052,2075,2064,1196
1051,1713855761181432063,2055,2044,2041,2057,2038,2051,1197
1052,1713855761191431070,2059,2057,2015,2048,2063,2053,1194
1053,1713855761201430668,2047,2036,2031,2058,2041,2049,1193
1054,1713855761211427741,2053,2037,2013,2047,2059,2056,1194
1055,1713855761221460572,2064,2068,2042,2057,2040,2044,1193
1056,1713855761231394747,2061,2035,2033,2050,2064,2058,1194
1057,1713855761241430363,2044,2024,1994,2062,2036,2046,1194
1058,1713855761251433337,2051,2036,2008,2047,2072,2064,1195
1059,1713855761261432803,2048,2051,2042,2060,2038,2042,1194
1060,1713855761271432311,2038,2031,2021,2051,2061,2054,1195
1061,1713855761281435656,2050,2042,2044,2060,2042,2050,1196
1062,1713855761291435304,2051,2041,2038,2052,2060,2054,1195
1063,1713855761301431235,2060,2060,2026,2058,2039,2053,1196
1064,1713855761311434410,2053,2040,2044,2052,2067,2056,1195
1065,1713855761321444768,2058,2058,2057,2067,2052,2057,1197
1066,1713855761331432785,2061,2056,2092,2052,2064,2056,1197
1067,1713855761341427754,2065,2061,2047,2060,2041,2046,1194
1068,1713855761351390934,2036,2021,2029,2049,2064,2054,1197
1069,1713855761361429604,2056,2042,2037,2061,2052,2051,1197
1070,1713855761371430805,2048,2027,2020,2056,2062,2060,1196
1071,1713855761381437827,2050,2041,2015,2057,2038,2049,1197
1072,1713855761391430351,2061,2057,2066,2056,2069,2065,1197
1073,1713855761401435379,2053,2049,2052,2059,2043,2047,1195
1074,1713855761411429197,2050,2040,2018,2051,2062,2059,1195
1075,1713855761421483697,2057,2071,2028,2061,2049,2052,1197
1076,1713855761431430296,2046,2029,2033,2048,2061,2056,1194
1077,1713855761441427680,2064,2068,2037,2064,2044,2052,1195
1078,1713855761451430493,2056,2048,2044,2054,2067,2057,1196
1079,1713855761461427316,2063,2089,2106,2066,2046,2055,1197
1080,1713855761471432414,2062,2068,2051,2051,2064,2058,1193
1081,1713855761481474502,2067,2086,2067,2061,2042,2047,1193
1082,1713855761491432041,2058,2073,2068,2049,2066,2060,1193
1083,1713855761501428753,2062,2064,2042,2061,2036,2046,1193
1084,1713855761511430285,2049,2040,2033,2050,2067,2054,1196
1085,1713855761521467704,2056,2042,2024,2057,2037,2050,1196
1086,1713855761531469325,2059,2044,2027,2056,2066,2056,1197
1087,1713855761541428267,2052,2056,2049,2059,2045,2053,1197
1088,1713855761551466967,2055,2051,2052,2052,2068,2053,1194
1089,1713855761561466295,2039,2038,2074,2060,2040,2052,1197
1090,1713855761571465512,2056,2066,2080,2052,2065,2056,1196
1091,1713855761581464379,2063,2056,2074,2061,2043,2050,1195
1092,1713855761591463746,2056,2050,2052,2047,2062,2047,1193
1093,1713855761601461531,2052,2042,2050,2057,2045,2047,1194
1094,1713855761611461910,2051,2045,2022,2056,2063,2058,1193
1095,1713855761621462540,2060,2062,2082,2065,2048,2058,1194
1096,1713855761631460535,2057,2067,2079,2056,2068,2058,1194
1097,1713855761641458701,2049,2065,2085,2061,2048,2055,1194
1098,1713855761651459760,2065,2064,2050,2051,2061,2057,1194
1099,1713855761661457194,2100,2177,2245,2069,2051,2057,1194
1100,1713855761671457313,2052,2044,2045,2051,2062,2056,1195
1101,1713855761681453715,2048,2036,2012,2052,2040,2050,1196
1102,1713855761691468401,2058,2057,2013,2056,2064,2057,1196
1103,1713855761701456528,2049,2061,2043,2062,2044,2051,1196
1104,1713855761711454723,2057,2046,2045,2056,2057,2054,1198
1105,1713855761721455243,2040,2050,2074,2057,2044,2050,1195
1106,1713855761731452146,2041,2044,2012,2047,2062,2056,1197
1107,1713855761741453818,2066,2058,2004,2073,2047,2053,1197
1108,1713855761751450058,2064,2064,2057,2050,2066,2056,1194
1109,1713855761761449476,2049,2056,2050,2063,2045,2050,1196
1110,1713855761771449605,2062,2065,2039,2054,2073,2061,1196
1111,1713855761781451126,2048,2040,2048,2056,2047,2051,1197
1112,1713855761791449542,2062,2046,2054,2052,2061,2057,1197
1113,1713855761801446696,2053,2036,1995,2056,2044,2050,1196
1114,1713855761811443929,2050,2029,2013,2047,2062,2059,1194
1115,1713855761821443778,2057,2062,2049,2061,2047,2057,1195
1116,1713855761831451881,2061,2070,2080,2055,2061,2054,1196
1117,1713855761841444525,2063,2104,2101,2065,2046,2055,1196
1118,1713855761851444644,2056,2045,2024,2044,2064,2053,1196
1119,1713855761861440786,2056,2045,2042,2064,2049,2057,1194
1120,1713855761871442137,2068,2086,2128,2057,2067,2060,1198
1121,1713855761881440693,2047,2044,2026,2058,2040,2046,1192
1122,1713855761891444198,2065,2081,2117,2056,2065,2060,1194
1123,1713855761901441953,2049,2050,2037,2064,2049,2050,1195
1124,1713855761911441771,2058,2061,2056,2054,2070,2056,1196
1125,1713855761921441910,2050,2033,2040,2054,2044,2051,1194
1126,1713855761931438593,2056,2052,2053,2053,2066,2059,1196
1127,1713855761941441095,2054,2049,2065,2056,2045,2051,1197
1128,1713855761951441394,2070,2052,2056,2051,2064,2056,1197
1129,1713855761961441593,2056,2040,2031,2056,2046,2056,1195
1130,1713855761971441091,2068,2052,2029,2050,2057,2048,1198
1131,1713855761981441651,2049,2050,2052,2058,2046,2057,1197
1132,1713855761991442692,2057,2052,2049,2049,2061,2055,1198
1133,1713855762001440346,2058,2065,2047,2056,2051,2055,1196
1134,1713855762011440215,2062,2066,2152,2058,2060,2053,1194
1135,1713855762021441696,2058,2064,2046,2061,2047,2052,1195
1136,1713855762031439981,2061,2065,2021,2047,2064,2057,1194
1137,1713855762041441252,2060,2056,2057,2056,2042,2050,1196
1138,1713855762051442994,2067,2066,2063,2053,2060,2060,1197
1139,1713855762061444124,2065,2044,2030,2059,2042,2047,1193
1140,1713855762071440847,2057,2034,1998,2056,2066,2057,1197
1141,1713855762081440625,2056,2052,2037,2054,2054,2056,1195
1142,1713855762091444321,2043,2058,2046,2054,2069,2059,1198
1143,1713855762101443538,2048,2052,2033,2056,2045,2048,1195
1144,1713855762111443937,2088,2080,2163,2059,2068,2058,1197
1145,1713855762121435590,2057,2070,2070,2060,2041,2049,1196
1146,1713855762131438424,2060,2075,2157,2058,2066,2064,1198
1147,1713855762141442400,2076,2077,2023,2063,2048,2056,1195
1148,1713855762151441327,2052,2034,2008,2048,2061,2056,1195
1149,1713855762161438220,2068,2054,2051,2056,2047,2052,1196
1150,1713855762171439861,2052,2041,2022,2044,2057,2048,1197
1151,1713855762181439039,2053,2044,2048,2056,2052,2060,1196
1152,1713855762191441511,2049,2040,2036,2049,2066,2056,1197
1153,1713855762201439335,2040,2029,2047,2053,2048,2046,1192
1154,1713855762211439074,2051,2056,2068,2053,2069,2054,1196
1155,1713855762221441858,2046,2042,2036,2050,2038,2051,1194
1156,1713855762231449952,2067,2044,2040,2052,2062,2054,1195
1157,1713855762241442446,2050,2041,2031,2052,2040,2052,1196
1158,1713855762251440922,2060,2052,2031,2050,2061,2048,1195
1159,1713855762261441041,2052,2031,2017,2056,2047,2053,1196
1160,1713855762271440347,2070,2072,2045,2052,2062,2057,1196
1161,1713855762281444794,2056,2032,2008,2061,2051,2060,1198
1162,1713855762291442018,2044,2034,2042,2057,2063,2056,1195
1163,1713855762301435955,2053,2047,2047,2056,2043,2049,1194
1164,1713855762311443017,2053,2032,2029,2061,2068,2052,1197
1165,1713855762321441233,2047,2036,2036,2056,2040,2052,1197
1166,1713855762331440911,2057,2058,2056,2057,2061,2056,1197
1167,1713855762341442312,2055,2049,2046,2056,2042,2047,1194
1168,1713855762351438813,2068,2052,2030,2057,2064,2056,1194
1169,1713855762361438972,2043,2045,2074,2055,2045,2054,1196
1170,1713855762371442187,2053,2056,2067,2059,2070,2063,1196
1171,1713855762381439871,2050,2032,2028,2057,2038,2044,1194
1172,1713855762391437586,2065,2057,2072,2058,2064,2054,1196
1173,1713855762401470897,2041,2035,1962,2050,2047,2049,1195
1174,1713855762411467840,2046,2024,1957,2053,2064,2062,1194
1175,1713855762421467638,2061,2061,2035,2052,2047,2048,1195
1176,1713855762431470241,2056,2041,2027,2056,2065,2054,1196
1177,1713855762441467474,2060,2057,2022,2056,2043,2053,1196
1178,1713855762451443839,2047,2029,2022,2052,2056,2056,1196
1179,1713855762461462122,2046,2038,2038,2056,2046,2053,1196
1180,1713855762471463453,2066,2066,2085,2062,2066,2052,1195
1181,1713855762481463312,2057,2063,2061,2058,2050,2056,1197
1182,1713855762491460565,2056,2056,2088,2057,2065,2056,1196
1183,1713855762501464120,2060,2080,2096,2064,2058,2058,1195
1184,1713855762511457265,2058,2050,2059,2052,2057,2054,1194
1185,1713855762521456903,2059,2052,1986,2057,2053,2049,1195
1186,1713855762531456191,2054,2047,2062,2053,2060,2056,1196
1187,1713855762541454867,2042,2040,2031,2058,2047,2055,1197
1188,1713855762551466968,2057,2065,2072,2056,2062,2057,1194
1189,1713855762561456948,2045,2033,2034,2061,2050,2046,1192
1190,1713855762571455164,2059,2072,2116,2060,2064,2064,1196
1191,1713855762581454160,2052,2050,2036,2064,2048,2054,1195
1192,1713855762591454379,2050,2041,2024,2047,2062,2051,1195
1193,1713855762601454888,2042,2028,2002,2052,2042,2050,1195
1194,1713855762611455017,2053,2054,2074,2058,2068,2059,1192
1195,1713855762621452682,2038,2034,2040,2058,2045,2053,1197
1196,1713855762631453592,2053,2047,2049,2051,2058,2052,1198
1197,1713855762641452629,2044,2032,2031,2053,2047,2049,1196
1198,1713855762651451957,2056,2055,2051,2057,2065,2054,1197
1199,1713855762661450792,2050,2050,2061,2053,2048,2052,1196
1200,1713855762671448937,2063,2076,2056,2053,2061,2050,1194
1201,1713855762681448746,2046,2061,2065,2057,2049,2052,1196
1202,1713855762691452652,2050,2040,2046,2053,2065,2054,1195
1203,1713855762701447070,2056,2042,2034,2052,2046,2052,1196
1204,1713855762711450736,2059,2067,2072,2058,2060,2053,1197
1205,1713855762721452898,2064,2074,2146,2063,2052,2055,1195
1206,1713855762731440123,2056,2062,2063,2056,2060,2056,1198
1207,1713855762741443988,2049,2049,2038,2056,2050,2053,1197
1208,1713855762751441472,2057,2049,2039,2053,2065,2056,1196
1209,1713855762761443144,2069,2085,2090,2056,2046,2051,1198
1210,1713855762771439756,2049,2041,2027,2055,2056,2056,1195
1211,1713855762781440466,2044,2040,2056,2050,2048,2055,1196
1212,1713855762791448360,2064,2051,2050,2058,2062,2050,1197
1213,1713855762801437007,2064,2096,2076,2056,2045,2056,1197
1214,1713855762811437457,2054,2036,2044,2052,2057,2054,1196
1215,1713855762821436443,2051,2044,2048,2054,2043,2052,1194
1216,1713855762831438826,2052,2056,2057,2053,2060,2056,1196
1217,1713855762841434617,2076,2105,2158,2059,2051,2056,1195
1218,1713855762851434976,2048,2044,2071,2053,2058,2053,1196
1219,1713855762861434444,2050,2053,2049,2058,2047,2052,1196
1220,1713855762871432659,2065,2096,2085,2062,2064,2050,1196
1221,1713855762881432207,2052,2045,2029,2050,2046,2048,1195
1222,1713855762891432897,2054,2039,2044,2060,2061,2059,1196
1223,1713855762901435349,2057,2057,2067,2058,2040,2049,1197
1224,1713855762911428756,2064,2070,2034,2058,2069,2062,1196
1225,1713855762921469361,2059,2056,2003,2056,2046,2045,1194
1226,1713855762931430737,2050,2043,2036,2052,2061,2050,1197
1227,1713855762941432699,2048,2068,2142,2064,2053,2058,1198
1228,1713855762951429502,2048,2043,2046,2049,2058,2054,1197
1229,1713855762961425413,2054,2053,2054,2059,2046,2052,1197
1230,1713855762971429259,2056,2060,2076,2056,2064,2057,1198
1231,1713855762981431631,2061,2060,2058,2058,2052,2053,1197
1232,1713855762991430017,2051,2047,2049,2054,2063,2056,1196
1233,1713855763001463729,2058,2063,2069,2055,2042,2052,1197
1234,1713855763011436436,2048,2054,2059,2059,2066,2058,1194
1235,1713855763021443598,2059,2068,2071,2052,2047,2049,1196
1236,1713855763031429320,2053,2053,2028,2059,2065,2056,1195
1237,1713855763041434228,2056,2064,2061,2051,2056,2050,1195
1238,1713855763051428135,2057,2056,2083,2053,2058,2052,1197
1239,1713855763061429646,2050,2040,1996,2057,2048,2050,1194
1240,1713855763071427641,2057,2072,2089,2058,2057,2057,1195
1241,1713855763081434162,2053,2050,2038,2052,2039,2046,1193
1242,1713855763091428119,2065,2058,2001,2054,2064,2056,1196
1243,1713855763101428559,2049,2056,2064,2050,2052,2051,1196
1244,1713855763111433486,2062,2055,2056,2053,2058,2057,1197
1245,1713855763121453903,2052,2059,2082,2055,2045,2052,1196
1246,1713855763131429456,2056,2065,2060,2057,2059,2056,1198
1247,1713855763141429154,2046,2044,2034,2053,2051,2050,1196
1248,1713855763151429513,2064,2074,2048,2061,2058,2051,1196
1249,1713855763161449079,2056,2033,2018,2057,2052,2053,1197
1250,1713855763171431655,2057,2037,2000,2052,2052,2052,1196
1251,1713855763181429018,2059,2051,2014,2055,2048,2051,1198
1252,1713855763191430249,2058,2049,2047,2058,2057,2052,1197
1253,1713855763201449553,2056,2064,2063,2052,2045,2046,1194
1254,1713855763211447438,2062,2056,2051,2057,2068,2057,1194
1255,1713855763221426388,2058,2048,2032,2052,2044,2053,1195
1256,1713855763231437407,2045,2056,2070,2053,2056,2053,1195
1257,1713855763241441743,2049,2033,2016,2054,2051,2052,1195
1258,1713855763251442573,2056,2044,2033,2054,2059,2050,1196
1259,1713855763261441790,2053,2061,2104,2059,2051,2052,1196
1260,1713855763271431940,2060,2076,2089,2061,2062,2061,1195
1261,1713855763281427872,2053,2049,2044,2048,2038,2050,1198
1262,1713855763291438941,2063,2092,2091,2056,2060,2059,1195
1263,1713855763301426096,2049,2042,2019,2056,2050,2054,1198
1264,1713855763311426194,2059,2049,2011,2055,2065,2056,1197
1265,1713855763321433827,2057,2057,2045,2057,2050,2055,1197
1266,1713855763331434206,2060,2053,2040,2050,2056,2052,1196
1267,1713855763341430187,2061,2072,2102,2050,2050,2053,1197
1268,1713855763351430376,2053,2053,2003,2059,2068,2054,1196
1269,1713855763361428471,2061,2079,2154,2048,2047,2052,1198
1270,1713855763371429932,2066,2056,2037,2057,2061,2056,1197
1271,1713855763381433938,2060,2028,1982,2059,2048,2051,1197
1272,1713855763391429849,2057,2047,2019,2064,2063,2056,1197
1273,1713855763401432633,2049,2041,2032,2053,2049,2050,1196
1274,1713855763411433574,2044,2036,2068,2052,2059,2056,1195
1275,1713855763421431198,2037,2024,1985,2051,2052,2055,1196
1276,1713855763431429503,2052,2044,2040,2060,2058,2060,1196
1277,1713855763441429711,2054,2047,2020,2052,2043,2049,1198
1278,1713855763451432936,2056,2034,2025,2062,2058,2054,1195
1279,1713855763461428757,2052,2048,2069,2056,2054,2052,1194
1280,1713855763471430720,2050,2052,2052,2056,2059,2056,1195
1281,1713855763481441138,2044,2035,2032,2051,2047,2053,1196
1282,1713855763491430336,2069,2073,2139,2058,2066,2056,1195
1283,1713855763501429553,2065,2060,2047,2051,2042,2052,1194
1284,1713855763511446433,2061,2072,2079,2058,2065,2057,1196
1285,1713855763521429480,2056,2053,2027,2056,2051,2052,1195
1286,1713855763531427124,2050,2050,2027,2056,2057,2050,1197
1287,1713855763541428986,2045,2028,2006,2052,2050,2053,1196
1288,1713855763551427242,2068,2056,2043,2058,2053,2058,1195
1289,1713855763561427541,2068,2061,2042,2056,2056,2054,1197
1290,1713855763571427709,2072,2089,2096,2062,2061,2058,1196
1291,1713855763581425303,2054,2037,2026,2052,2045,2049,1194
1292,1713855763591428718,2056,2042,2014,2060,2061,2058,1196
1293,1713855763601439187,2053,2047,2059,2050,2045,2056,1200
1294,1713855763611434236,2054,2052,2047,2054,2062,2052,1192
1295,1713855763621438703,2056,2058,2048,2052,2048,2052,1195
1296,1713855763631429534,2057,2058,2048,2056,2057,2056,1195
1297,1713855763641429232,2050,2046,2022,2056,2050,2050,1196
1298,1713855763651432166,2047,2034,2022,2057,2052,2053,1197
1299,1713855763661428909,2068,2060,2033,2052,2047,2051,1198
1300,1713855763671429889,2056,2047,2069,2058,2064,2053,1196
1301,1713855763681431471,2061,2075,2160,2058,2056,2056,1195
1302,1713855763691431720,2053,2052,2048,2058,2058,2053,1196
1303,1713855763701432069,2056,2053,2056,2053,2050,2053,1195
1304,1713855763711428961,2047,2032,2032,2056,2057,2048,1195
1305,1713855763721430132,2064,2100,2159,2057,2052,2058,1196
1306,1713855763731430552,2050,2047,2058,2053,2058,2052,1196
1307,1713855763741453634,2056,2063,2134,2056,2048,2052,1195
1308,1713855763751436641,2063,2085,2080,2053,2055,2056,1195
1309,1713855763761432482,2054,2045,2000,2050,2060,2054,1197
1310,1713855763771431137,2052,2041,2024,2056,2058,2053,1198
1311,1713855763781428430,2060,2049,2035,2042,2049,2054,1195
1312,1713855763791428950,2043,2026,1980,2052,2058,2052,1196
1313,1713855763801430371,2048,2017,1988,2049,2052,2056,1195
1314,1713855763811438365,2065,2045,2004,2049,2057,2051,1194
1315,1713855763821429327,2053,2052,2023,2051,2050,2050,1195
1316,1713855763831428663,2052,2041,2010,2060,2060,2052,1196
1317,1713855763841428372,2055,2045,2021,2052,2056,2055,1195
1318,1713855763851429052,2052,2058,2030,2052,2057,2056,1194
1319,1713855763861434731,2057,2037,2030,2053,2046,2047,1194
1320,1713855763871442304,2054,2046,2064,2060,2059,2058,1194
1321,1713855763881432655,2048,2047,2046,2052,2050,2052,1194
1322,1713855763891433114,2053,2049,2052,2056,2060,2053,1195
1323,1713855763901435316,2050,2054,2065,2047,2049,2051,1195
1324,1713855763911430876,2076,2075,2056,2057,2057,2052,1198
1325,1713855763921431005,2072,2073,2080,2054,2050,2054,1195
1326,1713855763931430784,2070,2104,2213,2063,2065,2061,1198
1327,1713855763941430852,2062,2060,2064,2053,2056,2050,1197
1328,1713855763951432955,2060,2087,2110,2054,2045,2048,1195
1329,1713855763961431991,2051,2030,1999,2051,2056,2056,1196
1330,1713855763971428934,2067,2074,2043,2057,2063,2056,1195
1331,1713855763981431387,2056,2046,2049,2056,2048,2052,1194
1332,1713855763991431937,2047,2041,2043,2059,2065,2054,1196
1333,1713855764001431816,2068,2074,2049,2045,2047,2061,1195
1334,1713855764011429370,2052,2049,2048,2061,2060,2049,1194
1335,1713855764021429949,2056,2057,2059,2056,2053,2048,1195
1336,1713855764031403748,2054,2047,2054,2057,2069,2060,1195
1337,1713855764041432992,2056,2050,2061,2052,2054,2058,1194
1338,1713855764051430325,2046,2045,2044,2055,2058,2053,1195
1339,1713855764061430715,2061,2056,2053,2047,2054,2049,1195
1340,1713855764071435052,2058,2043,2025,2062,2060,2059,1195
1341,1713855764081433987,2064,2092,2248,2056,2050,2058,1195
1342,1713855764091437422,2058,2069,2038,2056,2061,2058,1194
1343,1713855764101437551,2049,2035,2021,2050,2056,2056,1195
1344,1713855764111430948,2050,2035,2059,2058,2055,2054,1196
1345,1713855764121438861,2064,2060,2056,2057,2056,2052,1196
1346,1713855764131428881,2057,2062,2068,2059,2061,2059,1197
1347,1713855764141436804,2040,2036,2052,2052,2048,2055,1196
1348,1713855764151428958,2052,2075,2074,2063,2064,2059,1195
1349,1713855764161431441,2049,2041,2066,2047,2042,2052,1197
1350,1713855764171432141,2052,2030,2041,2052,2056,2051,1198
1351,1713855764181429355,2058,2067,2092,2053,2052,2058,1197
1352,1713855764191435665,2045,2037,2048,2060,2053,2050,1195
1353,1713855764201439139,2054,2050,2041,2056,2053,2057,1194
1354,1713855764211430442,2068,2066,2022,2060,2053,2052,1195
1355,1713855764221437844,2063,2089,2149,2058,2052,2051,1196
1356,1713855764231430680,2058,2065,2061,2053,2056,2054,1196
1357,1713855764241433524,2056,2061,2069,2051,2047,2056,1197
1358,1713855764251433982,2053,2028,2041,2062,2056,2054,1196
1359,1713855764261431086,2061,2069,2094,2053,2051,2061,1197
1360,1713855764271430393,2049,2033,2031,2059,2059,2056,1195
1361,1713855764281434369,2054,2040,1975,2053,2054,2053,1196
1362,1713855764291429870,2085,2164,2204,2068,2062,2060,1195
1363,1713855764301429407,2056,2056,2066,2052,2052,2060,1196
1364,1713855764311429676,2057,2020,1978,2057,2061,2052,1196
1365,1713855764321439483,2056,2040,2038,2047,2052,2056,1196
1366,1713855764331429803,2060,2083,2111,2053,2061,2055,1197
1367,1713855764341442957,2064,2095,2178,2062,2060,2061,1196
1368,1713855764351435511,2052,2044,2145,2062,2053,2049,1196
1369,1713855764361430139,2056,2052,2059,2047,2047,2052,1196
1370,1713855764371430809,2061,2048,2033,2056,2056,2052,1196
1371,1713855764381433022,2061,2068,2093,2041,2045,2052,1194
1372,1713855764391429514,2089,2100,2119,2026,2033,2051,1194
1373,1713855764401430765,2053,2043,2055,2050,2061,2061,1195
1374,1713855764411436905,2073,2072,2083,2060,2052,2053,1193
1375,1713855764421432675,2049,2044,2027,2048,2046,2052,1198
1376,1713855764431428756,2074,2088,2047,2062,2062,2056,1196
1377,1713855764441437211,2047,2017,1964,2045,2048,2052,1196
1378,1713855764451433242,2049,2029,2024,2056,2054,2051,1197
1379,1713855764461434734,2058,2062,2056,2050,2054,2060,1196
1380,1713855764471430384,2054,2060,2080,2052,2057,2051,1196
1381,1713855764481430152,2054,2054,2059,2055,2048,2047,1194
1382,1713855764491436673,2073,2034,1982,2058,2056,2051,1196
1383,1713855764501436281,2067,2077,2070,2061,2060,2065,1196
1384,1713855764511433704,2049,2040,2040,2056,2055,2051,1196
1385,1713855764521450074,2046,2063,2095,2048,2049,2051,1195
1386,1713855764531430946,2060,2065,2045,2062,2057,2054,1197
1387,1713855764541436916,2072,2082,2115,2050,2054,2056,1197
1388,1713855764551426445,2047,2042,2017,2064,2052,2058,1198
1389,1713855764561434188,2048,2041,2026,2046,2045,2050,1196
1390,1713855764571438645,2053,2077,2085,2073,2059,2061,1195
1391,1713855764581407315,2056,2035,1980,2042,2052,2054,1198
1392,1713855764591427861,2052,2037,1993,2054,2053,2049,1195
1393,1713855764601439832,2052,2047,2033,2054,2060,2054,1194
1394,1713855764611435393,2059,2089,2119,2064,2068,2058,1193
1395,1713855764621436433,2057,2025,2008,2046,2052,2049,1197
1396,1713855764631429399,2076,2072,2077,2064,2062,2065,1194
1397,1713855764641433986,2048,2046,2036,2045,2049,2052,1195
1398,1713855764651429065,2061,2056,2058,2061,2061,2050,1198
1399,1713855764661431929,2052,2038,2046,2046,2041,2046,1191
1400,1713855764671433911,2063,2088,2120,2061,2062,2057,1195
1401,1713855764681430584,2051,2028,2013,2047,2053,2053,1196
1402,1713855764691432626,2074,2080,2028,2066,2055,2056,1196
1403,1713855764701429037,2061,2055,2056,2055,2060,2059,1194
1404,1713855764711460094,2049,2056,2054,2058,2053,2048,1194
1405,1713855764721436098,2067,2091,2142,2056,2049,2052,1195
1406,1713855764731431318,2051,2040,2024,2059,2059,2058,1195
1407,1713855764741443850,2042,2041,2058,2048,2042,2052,1197
1408,1713855764751430233,2057,2055,2049,2057,2056,2057,1195
1409,1713855764761432104,2053,2052,2058,2051,2053,2053,1195
1410,1713855764771451980,2041,2030,2019,2057,2054,2050,1197
1411,1713855764781430449,2073,2141,2206,2063,2061,2060,1193
1412,1713855764791431599,2056,2036,2003,2059,2059,2053,1195
1413,1713855764801434253,2057,2044,2049,2047,2050,2055,1196
1414,1713855764811431105,2066,2076,2068,2052,2057,2051,1194
1415,1713855764821437455,2057,2081,2096,2052,2057,2053,1195
1416,1713855764831432625,2056,2075,2091,2062,2057,2050,1197
1417,1713855764841435800,2047,2042,2072,2052,2053,2052,1196
1418,1713855764851429647,2055,2042,2044,2053,2049,2054,1195
1419,1713855764861432211,2040,2036,2060,2048,2052,2057,1194
1420,1713855764871431968,2059,2087,2116,2064,2063,2057,1197
1421,1713855764881431997,2047,2041,2058,2056,2052,2052,1197
1422,1713855764891435692,2051,2085,2153,2064,2053,2048,1195
1423,1713855764901433687,2060,2036,2049,2047,2055,2056,1196
1424,1713855764911432454,2044,2041,2055,2057,2057,2057,1196
1425,1713855764921436400,2053,2056,2050,2044,2049,2051,1194
1426,1713855764931433812,2053,2043,2034,2058,2052,2049,1198
1427,1713855764941433571,2039,2044,2116,2053,2045,2049,1195
1428,1713855764951434291,2049,2053,2066,2064,2061,2053,1196
1429,1713855764961433448,2042,2034,2035,2049,2054,2056,1196
1430,1713855764971389975,2054,2058,2072,2056,2053,2048,1194
1431,1713855764981433985,2049,2033,2033,2048,2057,2057,1194
1432,1713855764991447630,2053,2046,2035,2056,2052,2052,1195
1433,1713855765001433752,2067,2047,2044,2047,2053,2052,1195
1434,1713855765011433992,2053,2052,2052,2057,2054,2056,1194
1435,1713855765021434301,2051,2054,2028,2049,2048,2053,1195
1436,1713855765031433749,2047,2040,2044,2057,2047,2052,1194
1437,1713855765041434267,2064,2061,2068,2048,2054,2056,1197
1438,1713855765051435849,2056,2046,2047,2058,2058,2050,1195
1439,1713855765061435547,2046,2089,2115,2052,2059,2052,1193
1440,1713855765071436468,2056,2079,2101,2064,2058,2053,1196
1441,1713855765081436346,2064,2083,2077,2056,2056,2056,1196
1442,1713855765091436744,2057,2049,2041,2056,2056,2053,1196
1443,1713855765101436853,2066,2053,2099,2052,2045,2052,1195
1444,1713855765111439757,2059,2062,2040,2060,2056,2052,1196
1445,1713855765121450887,2065,2068,2054,2047,2052,2057,1196
1446,1713855765131437570,2049,2048,2042,2061,2055,2054,1197
1447,1713855765141437037,2059,2082,2129,2052,2060,2054,1197
1448,1713855765151437197,2049,2056,2029,2059,2053,2053,1197
1449,1713855765161387542,2040,2029,2034,2044,2056,2056,1197
1450,1713855765171420342,2075,2146,2212,2071,2055,2058,1197
1451,1713855765181381779,2066,2058,2037,2044,2056,2048,1194
1452,1713855765191437992,2048,2036,2039,2062,2047,2052,1197
1453,1713855765201437309,2049,2031,1986,2046,2057,2052,1195
1454,1713855765211439452,2059,2051,2060,2061,2056,2052,1196
1455,1713855765221440142,2056,2044,2045,2048,2052,2052,1197
1456,1713855765231437666,2050,2052,2049,2064,2052,2052,1194
1457,1713855765241438746,2070,2076,2116,2051,2054,2052,1195
1458,1713855765251438654,2058,2068,2110,2066,2058,2054,1196
1459,1713855765261438413,2057,2058,2067,2050,2050,2047,1192
1460,1713855765271440395,2052,2044,2024,2065,2059,2054,1197
1461,1713855765281438920,2064,2096,2066,2059,2064,2059,1197
1462,1713855765291440321,2058,2080,2069,2060,2054,2051,1195
1463,1713855765301439258,2056,2053,2064,2046,2055,2052,1195
1464,1713855765311439607,2056,2052,2073,2065,2056,2052,1193
1465,1713855765321439526,2066,2074,2037,2052,2066,2068,1196
1466,1713855765331445215,2062,2064,2070,2058,2055,2052,1196
1467,1713855765341437899,2045,2048,2101,2046,2052,2057,1196
1468,1713855765351439461,2044,2028,2020,2060,2047,2048,1197
1469,1713855765361439790,2059,2058,2064,2044,2056,2056,1197
1470,1713855765371438256,2050,2043,2041,2058,2051,2048,1195
1471,1713855765381438534,2048,2043,2034,2052,2052,2052,1197
1472,1713855765391439114,2053,2072,2057,2062,2051,2050,1194
1473,1713855765401439193,2049,2046,2042,2046,2058,2054,1194
1474,1713855765411439332,2046,2069,2115,2062,2056,2052,1195
1475,1713855765421439952,2045,2037,2064,2045,2052,2050,1195
1476,1713855765431440631,2058,2063,2071,2066,2057,2062,1196
1477,1713855765441439447,2051,2046,2043,2056,2056,2050,1195
1478,1713855765451439977,2060,2062,2072,2061,2057,2051,1196
1479,1713855765461442100,2064,2073,2073,2064,2060,2057,1195
1480,1713855765471438472,2057,2049,2041,2059,2051,2052,1194
1481,1713855765481441305,2040,2030,2048,2051,2058,2052,1197
1482,1713855765491442656,2046,2030,2042,2059,2058,2052,1193
1483,1713855765501463774,2058,2057,2092,2058,2067,2056,1195
1484,1713855765511442223,2061,2034,2028,2066,2052,2053,1197
1485,1713855765521439827,2049,2052,2060,2041,2047,2054,1196
1486,1713855765531441998,2054,2050,2032,2060,2053,2052,1194
1487,1713855765541442839,2053,2048,2046,2042,2054,2056,1195
1488,1713855765551442958,2066,2067,2041,2068,2057,2056,1196
1489,1713855765561442285,2054,2034,2007,2052,2052,2052,1195
1490,1713855765571442544,2040,2033,2056,2060,2056,2059,1194
1491,1713855765581441620,2056,2050,2079,2051,2056,2052,1195
1492,1713855765591425288,2064,2078,2090,2064,2061,2051,1196
1493,1713855765601426710,2042,2046,2092,2041,2051,2050,1195
1494,1713855765611451285,2064,2055,2030,2056,2055,2060,1194
1495,1713855765621443449,2052,2063,2052,2044,2054,2056,1196
1496,1713855765631444037,2052,2043,2049,2064,2056,2052,1194
1497,1713855765641465045,2050,2041,2024,2043,2050,2055,1196
1498,1713855765651427354,2056,2077,2066,2064,2053,2053,1196
1499,1713855765661444304,2062,2076,2179,2053,2056,2053,1197
1500,1713855765671444203,2040,2034,2028,2064,2044,2048,1197
1501,1713855765681446915,2055,2072,2093,2050,2056,2059,1196
1502,1713855765691473253,2053,2050,2056,2059,2056,2050,1196
1503,1713855765701446292,2072,2107,2109,2048,2057,2059,1196
1504,1713855765711427966,2057,2062,2053,2068,2056,2052,1195
1505,1713855765721455396,2055,2057,2036,2045,2057,2050,1197
1506,1713855765731446467,2047,2052,2066,2064,2044,2050,1196
1507,1713855765741446566,2044,2037,2036,2054,2059,2056,1194
1508,1713855765751428461,2068,2063,2104,2065,2058,2062,1195
1509,1713855765761446483,2049,2036,2021,2044,2049,2052,1195
1510,1713855765771445821,2056,2050,2047,2064,2056,2053,1197
1511,1713855765781427163,2046,2036,2038,2038,2049,2052,1198
1512,1713855765791428274,2061,2081,2080,2064,2057,2056,1200
1513,1713855765801427652,2050,2051,2029,2043,2051,2060,1197
1514,1713855765811429634,2040,2056,2032,2064,2049,2055,1194
1515,1713855765821427779,2051,2036,2010,2043,2053,2057,1194
1516,1713855765831426084,2056,2056,2050,2065,2052,2052,1196
1517,1713855765841429219,2063,2055,2056,2045,2056,2061,1195
1518,1713855765851427163,2060,2083,2081,2063,2052,2049,1196
1519,1713855765861447250,2061,2076,2081,2047,2058,2058,1196
1520,1713855765871484007,2049,2049,2102,2068,2051,2050,1195
1521,1713855765881429373,2040,2024,1997,2044,2056,2056,1197
1522,1713855765891446814,2064,2056,2120,2074,2052,2049,1194
1523,1713855765901428519,2055,2036,2022,2053,2064,2062,1196
1524,1713855765911428838,2052,2052,2041,2067,2049,2047,1195
1525,1713855765921447181,2053,2034,2040,2042,2050,2051,1197
1526,1713855765931427572,2056,2050,2032,2059,2060,2056,1196
1527,1713855765941454962,2056,2068,2084,2046,2056,2060,1196
1528,1713855765951428762,2056,2066,2076,2069,2047,2049,1198
1529,1713855765961430714,2056,2049,2140,2058,2061,2053,1195
1530,1713855765971432365,2056,2056,2045,2064,2049,2057,1196
1531,1713855765981427624,2059,2060,2066,2045,2058,2049,1195
1532,1713855765991447581,2050,2064,2070,2064,2046,2047,1194
1533,1713855766001427602,2049,2051,2069,2045,2056,2056,1195
1534,1713855766011431839,2073,2087,2084,2064,2056,2050,1195
1535,1713855766021430093,2052,2034,2039,2044,2056,2051,1196
1536,1713855766031429440,2072,2064,2030,2066,2052,2050,1196
1537,1713855766041426113,2051,2035,2018,2042,2056,2053,1195
1538,1713855766051426613,2051,2047,2024,2064,2049,2053,1197
1539,1713855766061432913,2076,2102,2188,2063,2060,2053,1197
1540,1713855766071431318,2054,2052,2053,2060,2050,2050,1195
1541,1713855766081431156,2045,2035,2040,2048,2056,2057,1196
1542,1713855766091428480,2069,2136,2129,2078,2060,2060,1196
1543,1713855766101438357,2045,2049,2060,2045,2048,2054,1196
1544,1713855766111430871,2060,2049,2016,2066,2056,2056,1195
1545,1713855766121434216,2052,2037,2047,2045,2056,2053,1196
1546,1713855766131434154,2062,2072,2049,2064,2049,2056,1197
1547,1713855766141426619,2062,2024,1976,2044,2065,2060,1197
1548,1713855766151431186,2046,2034,1994,2063,2047,2047,1193
1549,1713855766161430292,2060,2061,2054,2042,2059,2052,1196
1550,1713855766171432014,2054,2048,2036,2056,2050,2047,1192
1551,1713855766181433255,2052,2046,2056,2050,2058,2056,1195
1552,1713855766191431731,2064,2056,2057,2058,2047,2043,1194
1553,1713855766201432580,2062,2056,2044,2042,2065,2060,1196
1554,1713855766211433250,2062,2052,2038,2067,2056,2052,1194
1555,1713855766221428540,2056,2059,2072,2046,2058,2051,1196
1556,1713855766231431434,2046,2029,2024,2060,2051,2048,1194
1557,1713855766241429368,2056,2060,2044,2041,2052,2053,1196
1558,1713855766251434496,2074,2090,2196,2075,2060,2058,1196
1559,1713855766261430017,2060,2045,2035,2059,2058,2053,1197
1560,1713855766271430947,2058,2056,2061,2066,2047,2054,1196
1561,1713855766281429333,2056,2047,2056,2047,2064,2056,1196
1562,1713855766291406448,2050,2033,2038,2065,2053,2058,1195
1563,1713855766301432355,2060,2090,2124,2043,2060,2051,1197
1564,1713855766311429068,2048,2029,2009,2064,2059,2056,1195
1565,1713855766321437823,2059,2045,2050,2041,2052,2048,1196
1566,1713855766331430667,2052,2044,2029,2054,2052,2049,1195
1567,1713855766341429223,2057,2064,2069,2044,2056,2053,1198
1568,1713855766351432548,2055,2050,2047,2068,2051,2052,1198
1569,1713855766361456461,2053,2046,2056,2041,2048,2053,1194
1570,1713855766371429820,2057,2036,2022,2063,2051,2050,1195
1571,1713855766381429557,2043,2041,2051,2056,2061,2057,1195
1572,1713855766391429376,2057,2042,2047,2061,2048,2052,1197
1573,1713855766401439013,2057,2046,2058,2040,2064,2057,1196
1574,1713855766411427690,2073,2129,2162,2070,2053,2051,1194
1575,1713855766421424862,2052,2050,2073,2052,2069,2061,1196
1576,1713855766431427476,2056,2052,2052,2060,2044,2052,1196
1577,1713855766441424419,2053,2045,2079,2040,2058,2056,1196
1578,1713855766451427303,2061,2056,2103,2067,2053,2056,1195
1579,1713855766461427922,2037,2030,2040,2044,2060,2053,1196
1580,1713855766471456975,2052,2053,2044,2068,2049,2052,1196
1581,1713855766481434021,2048,2058,2041,2052,2052,2053,1196
1582,1713855766491430573,2046,2018,1993,2065,2040,2050,1195
1583,1713855766501425673,2052,2044,2021,2050,2064,2052,1196
1584,1713855766511430048,2056,2047,2050,2064,2048,2054,1196
1585,1713855766521426811,2062,2067,2061,2045,2058,2053,1195
1586,1713855766531430006,2070,2068,2054,2066,2050,2052,1198
1587,1713855766541438501,2053,2032,2016,2035,2051,2054,1197
1588,1713855766551429241,2062,2074,2141,2067,2052,2056,1196
1589,1713855766561463263,2062,2058,2047,2047,2060,2052,1194
1590,1713855766571433075,2052,2045,2037,2065,2052,2052,1195
1591,1713855766581430079,2060,2084,2112,2056,2057,2056,1197
1592,1713855766591428684,2066,2073,2064,2060,2054,2056,1196
1593,1713855766601436527,2041,2045,2067,2046,2062,2056,1196
1594,1713855766611436015,2050,2040,1996,2060,2048,2052,1193
1595,1713855766621429331,2076,2056,2045,2044,2058,2053,1195
1596,1713855766631432476,2052,2051,2051,2057,2053,2050,1196
1597,1713855766641435689,2064,2060,2042,2033,2053,2052,1195
1598,1713855766651431310,2056,2077,2138,2075,2047,2052,1195
1599,1713855766661466134,2053,2044,2034,2041,2047,2053,1196
1600,1713855766671424955,2056,2042,2020,2056,2049,2054,1197
1601,1713855766681425364,2055,2060,2030,2053,2057,2058,1196
1602,1713855766691430432,2060,2050,2022,2070,2047,2049,1193
1603,1713855766701435480,2079,2065,2040,2049,2056,2060,1197
1604,1713855766711444636,2060,2045,1946,2071,2049,2056,1197
1605,1713855766721424918,2052,2036,2029,2037,2065,2060,1196
1606,1713855766731434393,2053,2048,2056,2064,2050,2053,1198
1607,1713855766741432108,2059,2080,2148,2058,2065,2058,1195
1608,1713855766751431345,2050,2040,2052,2064,2052,2053,1197
1609,1713855766761469225,2050,2045,2044,2040,2062,2056,1195
1610,1713855766771431241,2056,2052,2046,2064,2052,2056,1194
1611,1713855766781429777,2057,2043,2029,2037,2063,2056,1196
1612,1713855766791431399,2040,2060,2061,2077,2044,2052,1194
1613,1713855766801427110,2047,2064,2065,2056,2065,2061,1197
1614,1713855766811430133,2050,2032,2025,2067,2046,2051,1195
1615,1713855766821429721,2054,2060,2064,2045,2069,2056,1195
1616,1713855766831433106,2064,2049,2045,2066,2047,2053,1195
1617,1713855766841429388,2066,2074,2084,2044,2059,2056,1197
1618,1713855766851430699,2062,2046,2032,2065,2054,2054,1194
1619,1713855766861452157,2052,2047,2050,2048,2061,2056,1194
1620,1713855766871429894,2052,2048,2056,2058,2052,2053,1196
1621,1713855766881427658,2062,2088,2169,2049,2060,2060,1195
1622,1713855766891429781,2059,2081,2089,2068,2053,2049,1196
1623,1713855766901413668,2047,2040,2022,2040,2064,2053,1194
1624,1713855766911430138,2058,2061,2117,2060,2047,2051,1196
1625,1713855766921430467,2052,2032,2017,2074,2059,2052,1197
1626,1713855766931427150,2056,2061,2029,2066,2059,2060,1195
1627,1713855766941429763,2059,2044,2036,2045,2064,2050,1196
1628,1713855766951434520,2053,2070,2087,2067,2052,2056,1196
1629,1713855766961465897,2054,2084,2138,2047,2048,2055,1195
1630,1713855766971433806,2050,2054,2044,2064,2051,2056,1197
1631,1713855766981426531,2069,2061,2072,2056,2059,2057,1197
1632,1713855766991432410,2050,2040,2018,2056,2042,2056,1196
1633,1713855767001434462,2049,2032,1999,2042,2061,2049,1195
1634,1713855767011438589,2052,2081,2098,2067,2048,2053,1196
1635,1713855767021433097,2055,2056,2028,2042,2057,2058,1195
1636,1713855767031431312,2053,2041,2038,2065,2048,2049,1195
1637,1713855767041442161,2062,2040,2024,2033,2056,2054,1197
1638,1713855767051430127,2050,2055,2085,2068,2044,2053,1195
1639,1713855767061468007,2059,2068,2074,2049,2068,2061,1195
1640,1713855767071426918,2054,2056,2045,2064,2044,2055,1195
1641,1713855767081432336,2053,2061,2073,2044,2056,2056,1196
1642,1713855767091429530,2046,2050,2021,2074,2054,2058,1194
1643,1713855767101441431,2056,2023,2034,2044,2057,2048,1195
1644,1713855767111446218,2050,2045,2053,2066,2050,2050,1197
1645,1713855767121426679,2056,2050,2052,2046,2057,2056,1200
1646,1713855767131431798,2046,2036,2001,2070,2058,2050,1196
1647,1713855767141430855,2056,2045,2056,2050,2059,2061,1194
1648,1713855767151428869,2056,2040,2000,2070,2044,2049,1195
1649,1713855767161470004,2049,2037,2035,2037,2060,2053,1197
1650,1713855767171429948,2065,2072,2052,2069,2052,2052,1197
1651,1713855767181427432,2078,2084,2079,2046,2060,2056,1196
1652,1713855767191428562,2063,2060,2051,2064,2053,2052,1196
1653,1713855767201435063,2053,2045,2035,2036,2056,2056,1198
1654,1713855767211445982,2054,2044,2016,2069,2046,2049,1194
1655,1713855767221425011,2060,2036,1992,2044,2064,2057,1195
1656,1713855767231434376,2069,2093,2112,2072,2056,2058,1197
1657,1713855767241430628,2053,2052,2032,2050,2062,2058,1194
1658,1713855767251430386,2060,2068,2034,2067,2048,2050,1195
1659,1713855767261471402,2047,2036,2024,2043,2058,2056,1196
1660,1713855767271427197,2056,2046,2031,2064,2054,2059,1195
1661,1713855767281429059,2074,2125,2214,2059,2067,2057,1197
1662,1713855767291431262,2050,2046,2064,2065,2056,2049,1195
1663,1713855767301437432,2080,2052,2055,2042,2056,2056,1195
1664,1713855767311449112,2052,2064,2070,2058,2045,2044,1196
1665,1713855767321423683,2064,2050,2004,2046,2065,2056,1197
1666,1713855767331429232,2056,2045,2041,2056,2044,2050,1199
1667,1713855767341427257,2061,2064,2077,2037,2063,2056,1195
1668,1713855767351430110,2065,2085,2117,2069,2050,2056,1195
1669,1713855767361480052,2056,2057,2132,2060,2068,2060,1198
1670,1713855767371435177,2058,2058,2059,2068,2045,2048,1196
1671,1713855767381429385,2047,2049,2061,2040,2059,2057,1197
1672,1713855767391430284,2081,2074,2054,2066,2048,2053,1197
1673,1713855767401435553,2057,2051,2051,2041,2058,2056,1195
1674,1713855767411432726,2047,2030,2044,2061,2052,2050,1196
1675,1713855767421425431,2056,2045,2044,2051,2052,2058,1196
1676,1713855767431429727,2056,2044,2100,2064,2048,2056,1195
1677,1713855767441428403,2053,2036,2032,2040,2060,2056,1195
1678,1713855767451428442,2065,2064,2112,2059,2053,2049,1196
1679,1713855767461480278,2050,2044,2045,2042,2058,2064,1197
1680,1713855767471438898,2059,2036,2027,2074,2047,2051,1196
1681,1713855767481432905,2056,2072,2108,2047,2059,2060,1196
1682,1713855767491432113,2050,2047,2027,2065,2046,2050,1196
1683,1713855767501435267,2049,2056,2042,2042,2060,2059,1194
1684,1713855767511431388,2062,2086,2075,2061,2045,2050,1197
1685,1713855767521423822,2050,2038,2056,2041,2060,2056,1196
1686,1713855767531431826,2057,2058,2084,2068,2046,2053,1196
1687,1713855767541432035,2046,2051,2026,2042,2062,2056,1196
1688,1713855767551428306,2062,2072,2149,2067,2041,2055,1197
1689,1713855767561461537,2049,2064,2098,2043,2065,2056,1197
1690,1713855767571426760,2049,2088,2077,2068,2046,2052,1196
1691,1713855767581429464,2062,2092,2128,2045,2060,2056,1197
1692,1713855767591435172,2057,2055,2056,2064,2048,2053,1196
1693,1713855767601439349,2057,2042,2024,2040,2059,2050,1196
1694,1713855767611439318,2066,2073,2105,2072,2053,2056,1194
1695,1713855767621431472,2058,2047,2052,2045,2061,2052,1194
1696,1713855767631432601,2056,2040,2028,2078,2047,2050,1196
1697,1713855767641431217,2056,2019,1960,2040,2059,2058,1196
1698,1713855767651430525,2056,2054,2054,2066,2046,2046,1194
1699,1713855767661475468,2047,2040,2036,2040,2059,2054,1198
1700,1713855767671435731,2051,2022,1972,2066,2040,2050,1199
1701,1713855767681427755,2058,2065,2107,2044,2059,2051,1196
1702,1713855767691431490,2059,2064,2104,2060,2040,2046,1193
1703,1713855767701428804,2044,2008,2004,2044,2055,2057,1197
1704,1713855767711436546,2052,2053,2037,2064,2052,2056,1199
1705,1713855767721432818,2060,2069,2045,2044,2064,2058,1196
1706,1713855767731434680,2052,2076,2079,2068,2049,2056,1198
1707,1713855767741434489,2044,2048,2018,2038,2064,2054,1196
1708,1713855767751430489,2062,2089,2094,2070,2051,2056,1197
1709,1713855767761450715,2057,2078,2180,2044,2057,2056,1196
1710,1713855767771436247,2072,2089,2070,2059,2042,2053,1195
1711,1713855767781428962,2064,2068,2019,2052,2062,2053,1197
1712,1713855767791429621,2054,2044,2041,2067,2045,2046,1194
1713,1713855767801433777,2053,2065,2071,2047,2055,2053,1196
1714,1713855767811431792,2064,2056,2050,2070,2046,2048,1194
1715,1713855767821432653,2058,2045,1988,2053,2056,2056,1197
1716,1713855767831434564,2042,2032,2013,2063,2042,2050,1195
1717,1713855767841431687,2058,2046,2048,2036,2066,2057,1197
1718,1713855767851430063,2051,2053,2059,2069,2041,2054,1194
1719,1713855767861460759,2052,2044,2040,2038,2062,2059,1197
1720,1713855767871429068,2054,2053,2056,2065,2045,2051,1197
1721,1713855767881431200,2045,2043,2040,2044,2061,2058,1197
1722,1713855767891430117,2058,2059,2056,2064,2052,2051,1197
1723,1713855767901430076,2068,2056,2091,2038,2057,2056,1195
1724,1713855767911430073,2047,2042,1993,2073,2052,2053,1194
1725,1713855767921430483,2071,2074,2011,2038,2064,2060,1196
1726,1713855767931432125,2049,2038,1998,2062,2044,2052,1198
1727,1713855767941430150,2046,2041,2029,2044,2060,2056,1195
1728,1713855767951429977,2056,2061,2052,2063,2046,2052,1196
1729,1713855767961466023,2054,2038,2000,2049,2065,2057,1196
1730,1713855767971435254,2050,2056,2064,2069,2046,2047,1195
1731,1713855767981429422,2056,2075,2101,2043,2068,2056,1198
1732,1713855767991432325,2046,2044,2068,2067,2039,2051,1196
1733,1713855768001440900,2064,2052,2011,2041,2069,2055,1197
1734,1713855768011439596,2056,2037,2028,2061,2042,2055,1194
1735,1713855768021432021,2053,2035,2027,2054,2059,2060,1195
1736,1713855768031425206,2054,2066,2046,2068,2035,2049,1197
1737,1713855768041429372,2057,2050,2042,2043,2067,2053,1196
1738,1713855768051438127,2050,2060,2072,2073,2040,2053,1197
1739,1713855768061459625,2052,2052,2068,2042,2062,2056,1197
1740,1713855768071427734,2059,2054,2048,2062,2050,2050,1197
1741,1713855768081423635,2040,2022,1997,2040,2060,2056,1198
1742,1713855768091428944,2051,2041,2036,2060,2046,2045,1193
1743,1713855768101430374,2053,2040,2040,2044,2057,2059,1196
1744,1713855768111428880,2056,2048,2058,2068,2054,2057,1196
1745,1713855768121431394,2060,2028,2009,2035,2064,2056,1196
1746,1713855768131438375,2060,2088,2141,2072,2046,2056,1196
1747,1713855768141431650,2061,2053,2050,2042,2058,2056,1196
1748,1713855768151428844,2058,2057,2054,2072,2048,2052,1197
1749,1713855768161448099,2080,2106,2108,2052,2064,2056,1196
1750,1713855768171426456,2056,2049,2049,2064,2040,2049,1194
1751,1713855768181426174,2064,2064,2077,2044,2062,2055,1194
1752,1713855768191429188,2049,2049,2063,2068,2042,2056,1196
1753,1713855768201428947,2072,2108,2118,2056,2063,2059,1197
1754,1713855768211431309,2072,2100,2116,2072,2049,2043,1192
1755,1713855768221429644,2045,2041,2041,2039,2059,2056,1196
1756,1713855768231427549,2074,2132,2180,2073,2051,2053,1196
1757,1713855768241428318,2054,2045,2031,2036,2053,2058,1196
1758,1713855768251430491,2066,2084,2089,2073,2046,2056,1196
1759,1713855768261427454,2061,2040,2029,2035,2064,2060,1195
1760,1713855768271430859,2052,2059,2077,2065,2052,2052,1197
1761,1713855768281427651,2056,2023,2008,2046,2069,2061,1196
1762,1713855768291434282,2046,2039,2048,2080,2038,2044,1193
1763,1713855768301431125,2042,2036,2018,2057,2060,2056,1197
1764,1713855768311433507,2060,2050,2051,2074,2049,2055,1198
1765,1713855768321431933,2050,2045,2028,2036,2065,2056,1195
1766,1713855768331434155,2054,2063,2064,2071,2047,2053,1197
1767,1713855768341431539,2058,2082,2058,2040,2062,2057,1197
1768,1713855768351433070,2047,2050,2049,2066,2045,2047,1194
1769,1713855768361452635,2046,2040,2056,2030,2056,2053,1197
1770,1713855768371434189,2052,2047,2042,2072,2044,2048,1197
1771,1713855768381432365,2069,2061,2051,2040,2065,2058,1196
1772,1713855768391432513,2052,2069,2085,2068,2044,2053,1195
1773,1713855768401433072,2052,2056,2052,2038,2064,2057,1195
1774,1713855768411435125,2051,2054,2082,2070,2041,2049,1194
1775,1713855768421433730,2088,2124,2150,2061,2064,2060,1195
1776,1713855768431431414,2058,2068,2041,2075,2044,2056,1197
1777,1713855768441438767,2058,2057,2057,2033,2068,2056,1194
1778,1713855768451433446,2050,2051,2052,2072,2044,2052,1196
1779,1713855768461461486,2060,2051,2058,2046,2060,2053,1195
1780,1713855768471434133,2048,2041,2049,2067,2042,2050,1197
1781,1713855768481435675,2058,2049,2044,2033,2064,2058,1196
1782,1713855768491433950,2055,2068,2074,2073,2043,2055,1195
1783,1713855768501437925,2037,2046,2042,2037,2069,2058,1198
1784,1713855768511438024,2057,2036,2017,2056,2042,2055,1197
1785,1713855768521435348,2060,2060,2070,2045,2062,2056,1194
1786,1713855768531436548,2037,2042,2046,2070,2048,2053,1197
1787,1713855768541434613,2053,2078,2120,2046,2064,2058,1197
1788,1713855768551435002,2060,2067,2044,2077,2044,2055,1198
1789,1713855768561466791,2061,2077,2112,2036,2069,2056,1197
1790,1713855768571440840,2060,2048,2036,2068,2047,2049,1196
1791,1713855768581435468,2039,2037,2089,2052,2072,2064,1196
1792,1713855768591449493,2055,2041,2017,2076,2041,2055,1196
1793,1713855768601436978,2047,2046,2031,2040,2068,2054,1197
1794,1713855768611446284,2070,2060,2106,2076,2043,2049,1193
1795,1713855768621437777,2048,2038,2035,2037,2072,2058,1196
1796,1713855768631435501,2061,2058,2060,2065,2041,2050,1196
1797,1713855768641438344,2052,2056,2048,2038,2064,2057,1196
1798,1713855768651435938,2054,2045,2034,2065,2036,2050,1197
1799,1713855768661455053,2054,2047,2051,2035,2065,2057,1197
1800,1713855768671439271,2042,2045,2068,2082,2035,2049,1195
1801,1713855768681434541,2062,2069,2080,2042,2065,2054,1194
1802,1713855768691437084,2076,2082,2188,2069,2040,2056,1196
1803,1713855768701437844,2055,2052,2076,2047,2068,2057,1196
1804,1713855768711437852,2052,2052,2030,2075,2037,2042,1194
1805,1713855768721434935,2058,2064,2097,2042,2074,2058,1196
1806,1713855768731432419,2048,2062,2059,2068,2040,2057,1199
1807,1713855768741438259,2052,2046,2047,2036,2064,2058,1195
1808,1713855768751438156,2063,2059,2042,2061,2047,2052,1196
1809,1713855768761466368,2056,2045,2042,2034,2065,2055,1197
1810,1713855768771434116,2060,2066,2160,2079,2054,2056,1195
1811,1713855768781438562,2045,2026,2053,2043,2064,2052,1194
1812,1713855768791438210,2056,2056,2035,2074,2045,2050,1197
1813,1713855768801445002,2053,2050,2042,2036,2070,2057,1195
1814,1713855768811451793,2053,2045,2045,2072,2043,2053,1194
1815,1713855768821438055,2060,2058,2047,2039,2063,2060,1195
1816,1713855768831444225,2065,2078,2077,2067,2048,2052,1195
1817,1713855768841437291,2044,2026,2024,2040,2063,2053,1195
1818,1713855768851438852,2046,2030,2004,2065,2036,2049,1198
1819,1713855768861465751,2066,2085,2100,2040,2072,2059,1196
1820,1713855768871435833,2052,2044,2040,2073,2031,2048,1197
1821,1713855768881437756,2056,2056,2048,2036,2068,2052,1196
1822,1713855768891442973,2072,2069,2026,2072,2047,2049,1195
1823,1713855768901440678,2047,2038,2025,2035,2063,2057,1197
1824,1713855768911444203,2052,2067,2089,2072,2041,2052,1195
1825,1713855768921441176,2054,2041,2033,2041,2059,2059,1197
1826,1713855768931462453,2053,2041,2027,2074,2045,2049,1198
1827,1713855768941442044,2053,2044,2035,2040,2068,2060,1196
1828,1713855768951440360,2058,2050,2045,2078,2040,2044,1193
1829,1713855768961477598,2040,2034,2027,2029,2074,2056,1196
1830,1713855768971440366,2072,2095,2070,2077,2041,2052,1197
1831,1713855768981440916,2049,2050,2033,2046,2058,2057,1196
1832,1713855768991442277,2054,2064,2065,2067,2042,2048,1197
1833,1713855769001441974,2060,2058,2046,2038,2066,2060,1197
1834,1713855769011448675,2053,2054,2046,2075,2040,2048,1196
1835,1713855769021441360,2056,2049,2046,2036,2060,2056,1197
1836,1713855769031442320,2072,2052,2028,2072,2040,2048,1197
1837,1713855769041442940,2052,2043,2027,2041,2065,2054,1195
1838,1713855769051443139,2050,2058,2052,2068,2041,2051,1195
1839,1713855769061442667,2065,2053,2032,2041,2068,2054,1195
1840,1713855769071445079,2067,2104,2163,2081,2041,2054,1195
1841,1713855769081437002,2052,2045,2034,2040,2067,2060,1197
1842,1713855769091433635,2060,2060,2036,2074,2042,2054,1196
1843,1713855769101443842,2056,2044,2065,2042,2064,2053,1195
1844,1713855769111460091,2052,2044,1991,2077,2034,2049,1196
1845,1713855769121441124,2047,2044,2036,2043,2066,2056,1196
1846,1713855769131443667,2047,2044,2032,2075,2043,2056,1197
1847,1713855769141440920,2068,2066,2065,2037,2067,2056,1195
1848,1713855769151460185,2045,2045,2044,2063,2047,2049,1196
1849,1713855769161444223,2047,2035,2026,2040,2065,2061,1194
1850,1713855769171441185,2056,2052,2058,2074,2042,2045,1195
1851,1713855769181427699,2034,2010,2003,2034,2061,2052,1196
1852,1713855769191424772,2050,2040,2041,2079,2042,2050,1194
1853,1713855769201447032,2054,2056,2114,2037,2060,2056,1195
1854,1713855769211472718,2072,2068,2027,2067,2035,2047,1192
1855,1713855769221425709,2047,2044,2058,2047,2064,2057,1197
1856,1713855769231423263,2061,2064,2130,2074,2038,2045,1192
1857,1713855769241433119,2061,2041,2022,2034,2074,2060,1195
1858,1713855769251445401,2056,2070,2108,2073,2041,2048,1196
1859,1713855769261431954,2050,2029,2016,2040,2072,2059,1195
1860,1713855769271428335,2056,2062,2044,2075,2049,2051,1198
1861,1713855769281431530,2047,2040,2045,2046,2072,2058,1194
1862,1713855769291430617,2057,2053,2072,2064,2038,2044,1192
1863,1713855769301446164,2076,2120,2258,2046,2065,2060,1195
1864,1713855769311458496,2051,2041,2021,2073,2044,2047,1195
1865,1713855769321433467,2049,2073,2072,2040,2064,2058,1197
1866,1713855769331432113,2054,2080,2097,2072,2041,2052,1197
1867,1713855769341431029,2058,2052,2063,2045,2066,2050,1198
1868,1713855769351428714,2071,2128,2203,2071,2049,2049,1196
1869,1713855769361429213,2050,2045,2036,2042,2070,2052,1198
1870,1713855769371432687,2046,2047,2028,2072,2037,2052,1197
1871,1713855769381429791,2052,2043,2031,2036,2060,2052,1195
1872,1713855769391429609,2052,2052,2043,2072,2033,2047,1195
1873,1713855769401431671,2047,2038,2060,2042,2057,2053,1196
1874,1713855769411432771,2057,2059,2064,2069,2047,2052,1193
1875,1713855769421435736,2049,2046,2052,2040,2065,2054,1196
1876,1713855769431445803,2055,2056,2049,2060,2040,2048,1195
1877,1713855769441445751,2072,2067,2040,2042,2067,2065,1196
1878,1713855769451429720,2040,2053,2135,2072,2053,2056,1196
1879,1713855769461451549,2047,2034,2025,2040,2066,2054,1196
1880,1713855769471434876,2057,2077,2070,2066,2048,2051,1194
1881,1713855769481430757,2064,2068,2035,2033,2064,2057,1194
1882,1713855769491435765,2045,2044,2042,2068,2034,2050,1192
1883,1713855769501431554,2051,2045,2050,2041,2070,2056,1195
1884,1713855769511428708,2052,2066,2056,2070,2040,2052,1195
1885,1713855769521433475,2054,2038,2032,2036,2066,2053,1196
1886,1713855769531436279,2056,2052,2040,2078,2053,2060,1196
1887,1713855769541432059,2055,2059,2065,2039,2061,2054,1196
1888,1713855769551429523,2064,2050,2036,2075,2036,2047,1193
1889,1713855769561431225,2048,2035,2038,2036,2064,2058,1198
1890,1713855769571459796,2049,2036,2008,2073,2040,2047,1195
1891,1713855769581431873,2049,2028,2018,2041,2066,2059,1196
1892,1713855769591430288,2048,2061,2136,2065,2040,2050,1196
1893,1713855769601432991,2043,2041,2042,2041,2066,2056,1199
1894,1713855769611456023,2050,2043,2043,2072,2039,2048,1195
1895,1713855769621430674,2045,2052,2096,2045,2072,2059,1194
1896,1713855769631430982,2060,2072,2061,2075,2033,2044,1192
1897,1713855769641431472,2044,2024,1987,2032,2060,2051,1197
1898,1713855769651435128,2048,2042,2022,2064,2047,2046,1192
1899,1713855769661434024,2054,2038,2047,2045,2061,2057,1196
1900,1713855769671431688,2045,2055,2034,2066,2044,2054,1195
1901,1713855769681431115,2050,2047,2042,2036,2052,2051,1195
1902,1713855769691428559,2049,2056,2029,2069,2045,2052,1196
1903,1713855769701430510,2074,2076,2142,2041,2066,2057,1196
1904,1713855769711426592,2056,2061,2105,2073,2044,2056,1196
1905,1713855769721431770,2052,2046,2054,2042,2068,2059,1197
1906,1713855769731432529,2056,2052,2056,2050,2040,2057,1197
1907,1713855769741431476,2072,2068,2047,2040,2065,2054,1194
1908,1713855769751427948,2053,2049,2045,2070,2049,2053,1196
1909,1713855769761429600,2061,2089,2132,2050,2064,2060,1194
1910,1713855769771428105,2059,2061,2019,2069,2044,2050,1195
1911,1713855769781428043,2057,2048,2051,2042,2063,2059,1197
1912,1713855769791428142,2065,2082,2137,2073,2043,2049,1196
1913,1713855769801433179,2045,2028,1984,2040,2064,2058,1196
1914,1713855769811429702,2046,2045,2043,2070,2034,2050,1195
1915,1713855769821429119,2049,2051,2058,2043,2067,2058,1195
1916,1713855769831434647,2060,2072,2130,2076,2047,2053,1195
1917,1713855769841426932,2048,2040,2043,2044,2068,2057,1198
1918,1713855769851431038,2061,2084,2080,2072,2046,2049,1197
1919,1713855769861428833,2056,2040,2037,2040,2065,2056,1196
1920,1713855769871429421,2052,2037,2017,2076,2037,2048,1196
1921,1713855769881428649,2036,2032,2105,2048,2065,2058,1196
1922,1713855769891427245,2052,2068,2033,2070,2043,2047,1192
1923,1713855769901433203,2062,2064,2068,2045,2068,2060,1195
1924,1713855769911431058,2048,2051,2043,2070,2047,2047,1193
1925,1713855769921430055,2060,2056,2048,2040,2065,2056,1197
1926,1713855769931430443,2063,2074,2058,2073,2046,2049,1197
1927,1713855769941431674,2047,2047,2046,2030,2056,2056,1196
1928,1713855769951427666,2050,2042,2030,2072,2048,2052,1194
1929,1713855769961430839,2050,2029,2024,2041,2068,2058,1197
1930,1713855769971432501,2071,2058,2106,2074,2034,2050,1198
1931,1713855769981430726,2049,2030,2020,2037,2061,2057,1197
1932,1713855769991429333,2060,2061,2040,2069,2044,2050,1196
1933,1713855770001428919,2054,2040,2018,2038,2057,2052,1196
1934,1713855770011431713,2057,2084,2064,2054,2042,2047,1192
1935,1713855770021428937,2067,2054,2049,2048,2068,2056,1196
1936,1713855770031429435,2070,2052,2003,2069,2043,2048,1194
1937,1713855770041428903,2056,2057,2070,2041,2066,2056,1194
1938,1713855770051427339,2047,2057,2116,2074,2045,2052,1195
1939,1713855770061432546,2067,2040,2023,2041,2068,2058,1194
1940,1713855770071429820,2062,2082,2069,2072,2043,2048,1197
1941,1713855770081427444,2047,2038,2004,2044,2061,2053,1195
1942,1713855770091428965,2051,2057,2058,2070,2034,2052,1198
1943,1713855770101427441,2048,2041,2064,2044,2069,2056,1195
1944,1713855770111428471,2049,2066,2079,2073,2044,2056,1195
1945,1713855770121427197,2064,2052,2048,2037,2059,2056,1196
1946,1713855770131427245,2056,2065,2060,2073,2042,2050,1197
1947,1713855770141428066,2061,2054,2047,2041,2064,2056,1197
1948,1713855770151427111,2053,2053,2094,2072,2043,2048,1197
1949,1713855770161429775,2058,2088,2127,2047,2065,2059,1197
1950,1713855770171429644,2057,2040,2016,2074,2044,2053,1195
1951,1713855770181432216,2061,2069,2058,2044,2076,2060,1197
1952,1713855770191428378,2048,2042,2022,2072,2034,2044,1193
1953,1713855770201440369,2056,2048,2053,2039,2056,2058,1198
1954,1713855770211429657,2059,2060,2045,2068,2038,2049,1195
1955,1713855770221438422,2049,2050,2045,2040,2058,2048,1196
1956,1713855770231429964,2057,2076,2096,2078,2041,2048,1196
1957,1713855770241428760,2038,2032,2043,2042,2064,2057,1194
1958,1713855770251428969,2056,2054,2057,2077,2035,2050,1195
1959,1713855770261428847,2040,2032,2024,2037,2061,2052,1196
1960,1713855770271456497,2049,2042,2004,2069,2037,2049,1195
1961,1713855770281428683,2049,2058,2054,2042,2072,2060,1197
1962,1713855770291435275,2051,2037,2061,2073,2045,2047,1193
1963,1713855770301435494,2060,2067,2068,2045,2060,2060,1195
1964,1713855770311435111,2044,2042,2010,2069,2035,2051,1196
1965,1713855770321436101,2057,2056,2092,2044,2062,2058,1195
1966,1713855770331434887,2045,2042,2046,2072,2041,2049,1197
1967,1713855770341431830,2056,2059,2064,2048,2063,2054,1195
1968,1713855770351429424,2062,2056,2056,2073,2040,2051,1195
1969,1713855770361427850,2057,2060,2059,2044,2069,2058,1195
1970,1713855770371446923,2049,2042,1993,2068,2037,2048,1195
1971,1713855770381429970,2048,2044,2047,2043,2063,2057,1196
1972,1713855770391432133,2092,2144,2192,2082,2042,2054,1195
1973,1713855770401445916,2066,2045,2044,2046,2069,2052,1195
1974,1713855770411484197,2058,2072,2069,2069,2035,2047,1191
1975,1713855770421424814,2059,2064,2050,2049,2074,2063,1194
1976,1713855770431424892,2052,2036,2048,2072,2041,2050,1195
1977,1713855770441431292,2058,2046,2064,2042,2058,2056,1194
1978,1713855770451437753,2047,2035,2024,2067,2036,2049,1195
1979,1713855770461430277,2067,2082,2072,2044,2067,2059,1196
1980,1713855770471439533,2056,2057,2052,2067,2037,2049,1195
1981,1713855770481426808,2060,2056,2057,2047,2070,2058,1196
1982,1713855770491427898,2049,2039,2040,2070,2042,2052,1195
1983,1713855770501436743,2049,2046,2040,2041,2067,2056,1195
1984,1713855770511480894,2067,2072,2077,2081,2044,2056,1197
1985,1713855770521432601,2042,2030,2033,2041,2060,2059,1196
1986,1713855770531428813,2068,2076,2055,2065,2037,2048,1197
1987,1713855770541429253,2057,2056,2040,2048,2068,2056,1195
1988,1713855770551429270,2066,2104,2071,2073,2045,2057,1195
1989,1713855770561428297,2052,2040,2040,2042,2060,2051,1196
1990,1713855770571430761,2046,2032,2052,2073,2044,2052,1195
1991,1713855770581432942,2055,2049,2044,2044,2066,2056,1195
1992,1713855770591432039,2086,2094,2068,2074,2033,2050,1197
1993,1713855770601442588,2050,2044,2027,2046,2061,2057,1195
1994,1713855770611450851,2048,2051,2039,2065,2045,2050,1195
1995,1713855770621431884,2058,2050,2054,2043,2060,2057,1197
1996,1713855770631405674,2052,2048,2061,2069,2040,2051,1195
1997,1713855770641429105,2052,2032,2041,2046,2064,2059,1196
1998,1713855770651433272,2052,2040,2029,2064,2033,2044,1192
1999,1713855770661429564,2064,2036,2029,2040,2060,2052,1196
2000,1713855770671437246,2060,2052,2029,2062,2037,2047,1194
2001,1713855770681430041,2053,2061,2069,2044,2064,2055,1196
2002,1713855770691445218,2052,2058,2065,2073,2042,2049,1197
2003,1713855770701439415,2056,2047,2059,2042,2065,2056,1195
2004,1713855770711462166,2058,2047,2043,2060,2043,2051,1196
2005,1713855770721431567,2051,2032,2017,2042,2066,2059,1197
2006,1713855770731436154,2051,2076,2110,2072,2042,2051,1197
2007,1713855770741430352,2049,2077,2074,2047,2064,2053,1197
2008,1713855770751433286,2056,2081,2149,2074,2043,2048,1197
2009,1713855770761430159,2056,2041,2038,2053,2069,2059,1196
2010,1713855770771431318,2048,2041,2042,2072,2042,2050,1196
2011,1713855770781430155,2057,2042,2048,2040,2063,2056,1194
2012,1713855770791431096,2064,2036,1992,2068,2041,2048,1195
2013,1713855770801435692,2069,2064,2145,2051,2068,2058,1197
2014,1713855770811463593,2042,2032,2028,2067,2035,2046,1189
2015,1713855770821431171,2048,2041,2047,2041,2060,2048,1196
2016,1713855770831430567,2067,2083,2077,2076,2047,2053,1195
2017,1713855770841429294,2060,2044,2025,2043,2063,2051,1195
2018,1713855770851428641,2049,2044,2044,2066,2035,2047,1193
2019,1713855770861428589,2053,2072,2104,2045,2075,2058,1196
2020,1713855770871439207,2048,2049,1996,2069,2042,2048,1197
2021,1713855770881427093,2044,2020,1984,2046,2065,2057,1194
2022,1713855770891423334,2054,2045,2040,2065,2039,2048,1195
2023,1713855770901446837,2060,2041,2024,2046,2068,2056,1195
2024,1713855770911465991,2061,2060,2115,2076,2040,2050,1197
2025,1713855770921432656,2058,2052,2046,2040,2067,2057,1195
2026,1713855770931429910,2084,2091,2109,2074,2040,2056,1197
2027,1713855770941430620,2061,2090,2172,2049,2073,2059,1195
2028,1713855770951431159,2044,2046,2042,2072,2041,2054,1196
2029,1713855770961437559,2052,2041,2035,2044,2061,2056,1196
2030,1713855770971431657,2052,2045,2025,2069,2048,2056,1197
2031,1713855770981430623,2058,2039,2026,2029,2062,2056,1196
2032,1713855770991431303,2053,2049,2040,2076,2044,2056,1196
2033,1713855771001438715,2051,2044,2045,2052,2070,2054,1196
2034,1713855771011480932,2045,2033,2039,2066,2038,2049,1193
2035,1713855771021429665,2069,2068,2114,2052,2068,2060,1195
2036,1713855771031427019,2056,2057,2069,2072,2037,2049,1197
2037,1713855771041432226,2060,2056,2055,2051,2064,2061,1195
2038,1713855771051431924,2068,2074,2107,2072,2045,2050,1197
2039,1713855771061432043,2057,2058,2049,2045,2062,2056,1196
2040,1713855771071431520,2048,2052,2029,2070,2040,2047,1194
2041,1713855771081429855,2028,2012,2015,2046,2072,2059,1197
2042,1713855771091433591,2045,2038,2043,2061,2040,2049,1196
2043,1713855771101463334,2058,2068,2047,2040,2065,2056,1198
2044,1713855771111420202,2056,2053,2072,2076,2041,2051,1198
2045,1713855771121437463,2052,2049,2048,2040,2060,2056,1196
2046,1713855771131438994,2063,2058,2036,2068,2042,2054,1197
2047,1713855771141433082,2054,2049,2035,2043,2064,2054,1197
2048,1713855771151434322,2058,2052,2038,2070,2040,2048,1196
2049,1713855771161435843,2063,2049,2020,2043,2060,2056,1196
2050,1713855771171435822,2047,2045,2019,2065,2043,2050,1195
2051,1713855771181433094,2060,2068,2070,2047,2067,2059,1199
2052,1713855771191433123,2041,2040,2030,2072,2041,2052,1195
2053,1713855771201436428,2064,2085,2089,2032,2066,2062,1196
2054,1713855771211464929,2063,2071,2081,2071,2045,2053,1194
2055,1713855771221434631,2058,2050,2030,2044,2064,2056,1196
2056,1713855771231439759,2063,2052,2052,2064,2037,2050,1196
2057,1713855771241432603,2052,2030,2056,2047,2068,2055,1196
2058,1713855771251432863,2054,2039,2012,2068,2042,2050,1195
2059,1713855771261430076,2050,2043,2043,2045,2068,2052,1195
2060,1713855771271432779,2058,2048,2035,2061,2042,2053,1194
2061,1713855771281425664,2042,2020,2008,2041,2064,2053,1197
2062,1713855771291433337,2052,2031,1996,2069,2043,2054,1197
2063,1713855771301438074,2078,2083,2050,2043,2061,2054,1196
2064,1713855771311462999,2044,2033,2021,2067,2044,2047,1194
2065,1713855771321428073,2063,2040,2054,2044,2069,2063,1197
2066,1713855771331429272,2056,2038,2047,2060,2041,2049,1198
2067,1713855771341431435,2045,2033,2004,2040,2064,2055,1194
2068,1713855771351431484,2051,2032,1998,2070,2040,2050,1195
2069,1713855771361432343,2060,2060,2044,2023,2065,2057,1197
2070,1713855771371429597,2057,2054,2049,2067,2037,2048,1197
2071,1713855771381424034,2044,2042,2057,2046,2067,2054,1195
2072,1713855771391432579,2052,2056,2051,2065,2039,2048,1197
2073,1713855771401437276,2061,2092,2161,2048,2068,2058,1195
2074,1713855771411454146,2057,2079,2176,2072,2040,2049,1193
2075,1713855771421435179,2051,2045,2046,2044,2064,2052,1193
2076,1713855771431433414,2056,2052,2036,2068,2040,2048,1195
2077,1713855771441430346,2051,2047,2068,2046,2069,2058,1194
2078,1713855771451430886,2076,2080,2053,2077,2040,2049,1195
2079,1713855771461430955,2046,2036,2066,2047,2067,2058,1197
2080,1713855771471432746,2054,2053,2031,2072,2033,2046,1192
2081,1713855771481433987,2066,2077,2130,2045,2074,2058,1197
2082,1713855771491438774,2045,2046,2039,2066,2035,2046,1194
2083,1713855771501438772,2062,2045,2063,2047,2068,2054,1197
2084,1713855771511434162,2053,2054,2047,2068,2034,2044,1195
2085,1713855771521429672,2068,2057,2075,2052,2067,2059,1194
2086,1713855771531430041,2065,2076,2089,2067,2048,2047,1194
2087,1713855771541428116,2052,2040,2047,2049,2060,2056,1197
2088,1713855771551433053,2046,2036,2036,2069,2038,2046,1192
2089,1713855771561430006,2058,2081,2108,2046,2067,2060,1195
2090,1713855771571465772,2052,2056,2088,2068,2042,2052,1196
2091,1713855771581432287,2056,2038,2046,2038,2070,2054,1195
2092,1713855771591432766,2069,2061,2032,2067,2037,2052,1196
2093,1713855771601436662,2068,2069,2060,2048,2068,2060,1195
2094,1713855771611432913,2046,2027,1987,2066,2040,2051,1193
2095,1713855771621430166,2053,2042,2032,2047,2072,2056,1195
2096,1713855771631432419,2056,2064,2062,2073,2042,2053,1198
2097,1713855771641430363,2061,2054,2029,2050,2067,2064,1196
2098,1713855771651430742,2059,2056,2048,2065,2039,2051,1195
2099,1713855771661433116,2043,2036,2035,2042,2060,2055,1197
2100,1713855771671432342,2056,2053,2076,2069,2043,2052,1196
2101,1713855771681441217,2044,2027,2027,2047,2064,2053,1199
2102,1713855771691436717,2061,2089,2245,2065,2046,2050,1195
2103,1713855771701433519,2046,2034,2030,2049,2068,2057,1197
2104,1713855771711434780,2048,2047,2026,2074,2039,2047,1196
2105,1713855771721431843,2050,2045,2024,2045,2064,2055,1196
2106,1713855771731435518,2072,2056,2029,2068,2041,2047,1196
2107,1713855771741458640,2047,2045,2040,2043,2068,2054,1198
2108,1713855771751433461,2052,2057,2040,2064,2044,2049,1196
2109,1713855771761444480,2056,2056,2045,2046,2064,2054,1196
2110,1713855771771436494,2049,2053,2076,2069,2039,2046,1196
2111,1713855771781432604,2052,2027,2021,2051,2076,2058,1198
2112,1713855771791441068,2055,2047,2030,2067,2043,2050,1196
2113,1713855771801439965,2062,2069,2043,2047,2064,2055,1196
2114,1713855771811431958,2072,2069,2055,2067,2041,2050,1193
2115,1713855771821431826,2054,2043,2040,2026,2067,2056,1197
2116,1713855771831435071,2046,2039,2022,2069,2046,2052,1197
2117,1713855771841460226,2058,2067,2084,2045,2060,2056,1197
2118,1713855771851430459,2052,2049,2052,2064,2042,2049,1197
2119,1713855771861434114,2058,2047,2018,2047,2074,2060,1197
2120,1713855771871437118,2050,2047,2045,2064,2045,2053,1196
2121,1713855771881470379,2056,2069,2084,2050,2064,2058,1196
2122,1713855771891427667,2060,2056,2060,2063,2040,2052,1197
2123,1713855771901444076,2052,2050,2058,2045,2069,2060,1197
2124,1713855771911437422,2052,2038,2052,2061,2040,2045,1193
2125,1713855771921428294,2044,2058,2052,2038,2068,2057,1197
2126,1713855771931451775,2047,2029,1980,2064,2033,2044,1196
2127,1713855771941428210,2047,2033,2004,2043,2069,2058,1196
2128,1713855771951425162,2037,2040,2015,2070,2038,2048,1197
2129,1713855771961429539,2042,2041,2032,2044,2066,2058,1196
2130,1713855771971436350,2050,2065,2070,2063,2042,2047,1194
2131,1713855771981464060,2068,2074,2048,2050,2072,2068,1197
2132,1713855771991425456,2052,2061,2076,2064,2038,2052,1196
2133,1713855772001437507,2055,2048,2044,2044,2073,2058,1196
2134,1713855772011417207,2056,2048,2057,2060,2036,2045,1192
2135,1713855772021428567,2056,2048,2081,2041,2072,2062,1196
2136,1713855772031444706,2054,2051,2072,2064,2040,2050,1196
2137,1713855772041425237,2066,2048,2053,2039,2065,2056,1195
2138,1713855772051423042,2052,2045,2060,2061,2040,2047,1195
2139,1713855772061434451,2064,2060,2066,2042,2062,2054,1197
2140,1713855772071431384,2047,2035,2013,2058,2030,2045,1192
2141,1713855772081468201,2074,2103,2173,2040,2075,2064,1196
2142,1713855772091423936,2052,2040,2049,2068,2035,2049,1196
2143,1713855772101427732,2060,2052,2045,2041,2065,2058,1194
2144,1713855772111434523,2060,2072,2050,2072,2044,2051,1198
2145,1713855772121430724,2054,2045,2044,2041,2058,2052,1199
2146,1713855772131432807,2060,2052,1998,2073,2047,2053,1197
2147,1713855772141426983,2045,2041,2047,2042,2066,2056,1197
2148,1713855772151425930,2045,2054,2055,2070,2039,2050,1196
2149,1713855772161432391,2056,2068,2064,2050,2076,2057,1194
2150,1713855772171416398,2050,2036,2002,2071,2037,2048,1198
2151,1713855772181468896,2044,2035,2038,2044,2064,2054,1197
2152,1713855772191428038,2052,2041,2077,2065,2040,2047,1194
2153,1713855772201428386,2050,2046,2043,2041,2073,2056,1194
2154,1713855772211432392,2068,2045,2011,2064,2037,2047,1192
2155,1713855772221431388,2050,2036,2036,2044,2070,2061,1194
2156,1713855772231432489,2056,2057,2061,2069,2042,2052,1195
2157,1713855772241426767,2045,2032,2064,2048,2069,2056,1194
2158,1713855772251424901,2077,2094,2078,2072,2045,2048,1193
2159,1713855772261431753,2052,2077,2088,2048,2057,2057,1196
2160,1713855772271428726,2057,2047,2070,2067,2040,2045,1192
2161,1713855772281463639,2053,2042,2061,2044,2073,2060,1194
2162,1713855772291428722,2053,2033,2018,2060,2028,2040,1194
2163,1713855772301436103,2049,2026,1984,2042,2072,2057,1196
2164,1713855772311432315,2059,2064,2072,2069,2039,2047,1195
2165,1713855772321435179,2062,2059,2049,2047,2067,2058,1196
2166,1713855772331430748,2051,2042,2028,2065,2038,2047,1195
2167,1713855772341445174,2077,2107,2184,2056,2069,2063,1195
2168,1713855772351433311,2047,2040,2032,2068,2040,2056,1196
2169,1713855772361438819,2040,2037,2052,2040,2065,2054,1195
2170,1713855772371433307,2056,2060,2058,2069,2056,2053,1196
2171,1713855772381462239,2056,2039,2009,2046,2072,2054,1197
2172,1713855772391436339,2060,2076,2017,2070,2046,2056,1197
2173,1713855772401433212,2056,2049,2054,2045,2070,2066,1198
2174,1713855772411388245,2060,2090,2168,2077,2030,2042,1193
2175,1713855772421430633,2075,2107,2155,2047,2068,2065,1196
2176,1713855772431428829,2055,2076,2085,2069,2040,2052,1194
2177,1713855772441432103,2064,2096,2230,2049,2074,2053,1195
2178,1713855772451431370,2057,2049,2040,2072,2036,2050,1196
2179,1713855772461441386,2044,2029,2037,2046,2066,2057,1195
2180,1713855772471432328,2057,2066,2066,2068,2035,2053,1196
2181,1713855772481455650,2050,2036,1936,2049,2068,2052,1195
2182,1713855772491433076,2080,2112,2252,2080,2041,2052,1196
2183,1713855772501436561,2054,2049,2104,2044,2072,2060,1196
2184,1713855772511438594,2054,2051,2055,2064,2040,2047,1195
2185,1713855772521430486,2048,2032,2016,2043,2065,2056,1196
2186,1713855772531439852,2061,2049,2058,2068,2040,2050,1199
2187,1713855772541438427,2045,2043,2051,2043,2058,2051,1196
2188,1713855772551431162,2056,2053,2053,2069,2044,2055,1197
2189,1713855772561428266,2060,2053,2097,2052,2059,2061,1198
2190,1713855772571432000,2059,2088,2072,2074,2045,2052,1199
2191,1713855772581458088,2061,2049,2034,2040,2060,2052,1196
2192,1713855772591433521,2065,2056,2088,2067,2034,2048,1196
2193,1713855772601438928,2050,2033,1994,2045,2065,2056,1197
2194,1713855772611441422,2072,2132,2278,2072,2037,2056,1195
2195,1713855772621429187,2069,2088,2176,2053,2079,2053,1195
2196,1713855772631440957,2061,2060,2056,2062,2036,2047,1192
2197,1713855772641439884,2041,2032,2028,2045,2059,2055,1196
2198,1713855772651439020,2067,2115,2192,2076,2041,2052,1196
2199,1713855772661431966,2052,2053,2046,2044,2070,2057,1196
2200,1713855772671431203,2051,2058,2019,2065,2046,2050,1196
2201,1713855772681429888,2064,2084,2044,2042,2066,2055,1195
2202,1713855772691438433,2061,2066,2052,2067,2040,2051,1193
2203,1713855772701443109,2053,2050,2069,2047,2065,2053,1197
2204,1713855772711436345,2069,2098,2124,2070,2036,2053,1195
2205,1713855772721440281,2065,2052,2020,2047,2072,2063,1196
2206,1713855772731435991,2056,2057,2065,2057,2030,2046,1195
2207,1713855772741432844,2049,2040,2028,2047,2066,2056,1197
2208,1713855772751433343,2048,2046,2015,2065,2044,2043,1195
2209,1713855772761424925,2051,2052,1980,2052,2067,2054,1196
2210,1713855772771432248,2057,2084,2058,2064,2039,2051,1197
2211,1713855772781431374,2053,2046,2040,2042,2064,2053,1195
2212,1713855772791429749,2057,2056,2030,2060,2039,2046,1194
