202.0,1.7109254251891238e+18,0.4830287206266319,0.4200913242009132,0.3362162162162162,0.49474199070677427,0.6626373626373626,0.45500420521446594,1196.0
203.0,1.710925425199123e+18,0.4725848563968668,0.4121004566210046,0.34054054054054056,0.4830031792614331,0.5989010989010989,0.432296047098402,1194.0
204.0,1.7109254252091215e+18,0.46866840731070497,0.4098173515981735,0.3291891891891892,0.495964783565664,0.6230769230769231,0.4306139613120269,1192.0
205.0,1.7109254252191232e+18,0.47127937336814624,0.4098173515981735,0.3356756756756757,0.49498654927855223,0.5967032967032967,0.4348191757779647,1197.0
206.0,1.710925425229122e+18,0.4725848563968668,0.4132420091324201,0.3302702702702703,0.4969430178527757,0.6318681318681318,0.4339781328847771,1193.0
207.0,1.7109254252391201e+18,0.47780678851174935,0.4178082191780822,0.34,0.5035460992907801,0.6054945054945055,0.4289318755256518,1195.0
208.0,1.710925425249122e+18,0.47389033942558745,0.410958904109589,0.3291891891891892,0.4988994864269993,0.6197802197802198,0.36921783010933557,1192.0
209.0,1.7109254252591206e+18,0.4725848563968668,0.4143835616438356,0.3372972972972973,0.5037906578625581,0.6043956043956044,0.4289318755256518,1193.0
210.0,1.7109254252691195e+18,0.4765013054830287,0.410958904109589,0.3264864864864865,0.5018341892883346,0.6318681318681318,0.43566021867115223,1198.0
211.0,1.7109254252791206e+18,0.4765013054830287,0.4143835616438356,0.33837837837837836,0.5094155050134507,0.6406593406593407,0.44575273338940286,1197.0
212.0,1.7109254252891213e+18,0.4765013054830287,0.4143835616438356,0.3335135135135135,0.5015896307165566,0.6362637362637362,0.44911690496215306,1197.0
213.0,1.7109254252991206e+18,0.47389033942558745,0.4178082191780822,0.34054054054054056,0.5077035950110051,0.621978021978022,0.43902439024390244,1196.0
214.0,1.710925425309121e+18,0.4804177545691906,0.4223744292237443,0.3345945945945946,0.504524333577892,0.6307692307692307,0.4432296047098402,1195.0
215.0,1.710925425319119e+18,0.4765013054830287,0.4235159817351598,0.34054054054054056,0.49620934213744194,0.6318681318681318,0.4785534062237174,1196.0
216.0,1.7109254253291203e+18,0.47127937336814624,0.408675799086758,0.32972972972972975,0.5003668378576669,0.6362637362637362,0.4381833473507149,1193.0
217.0,1.710925425339121e+18,0.4725848563968668,0.4132420091324201,0.33837837837837836,0.5055025678650037,0.6186813186813187,0.4415475189234651,1197.0
218.0,1.710925425349121e+18,0.47389033942558745,0.410958904109589,0.32594594594594595,0.5001222792858889,0.6395604395604395,0.4440706476030278,1196.0
219.0,1.7109254253591222e+18,0.46475195822454307,0.410958904109589,0.34162162162162163,0.4830031792614331,0.6329670329670329,0.43650126156433977,1195.0
220.0,1.710925425369119e+18,0.4751958224543081,0.4155251141552511,0.3308108108108108,0.5055025678650037,0.6417582417582418,0.4432296047098402,1194.0
221.0,1.7109254253791235e+18,0.47127937336814624,0.4155251141552511,0.3372972972972973,0.49767669356810956,0.6175824175824176,0.44238856181665265,1196.0
222.0,1.7109254253891197e+18,0.4765013054830287,0.4178082191780822,0.3335135135135135,0.5028124235754463,0.6450549450549451,0.4440706476030278,1196.0
223.0,1.71092542539912e+18,0.4765013054830287,0.4178082191780822,0.33405405405405403,0.4803130349718758,0.6021978021978022,0.4482758620689655,1197.0
224.0,1.7109254254091195e+18,0.4765013054830287,0.410958904109589,0.3291891891891892,0.4988994864269993,0.6296703296703297,0.4533221194280908,1196.0
225.0,1.7109254254191217e+18,0.4725848563968668,0.4121004566210046,0.33675675675675676,0.49938860357055515,0.610989010989011,0.43902439024390244,1197.0
226.0,1.7109254254291203e+18,0.4765013054830287,0.4155251141552511,0.3281081081081081,0.4986549278552213,0.6274725274725275,0.43566021867115223,1197.0
227.0,1.710925425439119e+18,0.4725848563968668,0.4121004566210046,0.3345945945945946,0.5015896307165566,0.6164835164835165,0.43650126156433977,1197.0
228.0,1.7109254254491192e+18,0.4725848563968668,0.4132420091324201,0.33675675675675676,0.4798239178283199,0.6054945054945055,0.4146341463414634,1193.0
229.0,1.71092542545912e+18,0.47127937336814624,0.4212328767123288,0.34216216216216216,0.5015896307165566,0.610989010989011,0.4306139613120269,1193.0
230.0,1.7109254254691215e+18,0.4660574412532637,0.4098173515981735,0.3286486486486486,0.4986549278552213,0.6230769230769231,0.4306139613120269,1195.0
231.0,1.7109254254791206e+18,0.47911227154047,0.4143835616438356,0.33837837837837836,0.4996331621423331,0.6142857142857143,0.4381833473507149,1196.0
232.0,1.710925425489123e+18,0.4804177545691906,0.4143835616438356,0.3308108108108108,0.5008559550012228,0.6351648351648351,0.43650126156433977,1197.0
233.0,1.7109254254991278e+18,0.4725848563968668,0.4098173515981735,0.33405405405405403,0.5006113964294449,0.6065934065934065,0.45500420521446594,1197.0
234.0,1.710925425509122e+18,0.47780678851174935,0.408675799086758,0.3291891891891892,0.5086818292981169,0.6450549450549451,0.44911690496215306,1197.0
235.0,1.710925425519123e+18,0.47389033942558745,0.4143835616438356,0.3345945945945946,0.495964783565664,0.5923076923076923,0.432296047098402,1194.0
236.0,1.7109254255291187e+18,0.47389033942558745,0.4143835616438356,0.3335135135135135,0.5028124235754463,0.6296703296703297,0.4381833473507149,1195.0
237.0,1.710925425539125e+18,0.4751958224543081,0.4155251141552511,0.33675675675675676,0.49033993641477136,0.6131868131868132,0.4306139613120269,1193.0
238.0,1.710925425549121e+18,0.47389033942558745,0.4143835616438356,0.33405405405405403,0.4991440449987772,0.6307692307692307,0.4373423044575273,1194.0
239.0,1.7109254255591247e+18,0.4725848563968668,0.4212328767123288,0.34216216216216216,0.5015896307165566,0.5813186813186814,0.4280908326324643,1195.0
240.0,1.710925425569121e+18,0.47389033942558745,0.4155251141552511,0.33405405405405403,0.49816581071166544,0.6186813186813187,0.43566021867115223,1197.0
241.0,1.710925425579124e+18,0.4751958224543081,0.4132420091324201,0.3372972972972973,0.5089263878698949,0.6197802197802198,0.44238856181665265,1198.0
242.0,1.7109254255891249e+18,0.4765013054830287,0.4132420091324201,0.33135135135135135,0.5006113964294449,0.6230769230769231,0.4188393608074012,1193.0
243.0,1.7109254255991014e+18,0.47780678851174935,0.4155251141552511,0.34054054054054056,0.4986549278552213,0.6307692307692307,0.44238856181665265,1194.0
244.0,1.710925425609114e+18,0.4765013054830287,0.4132420091324201,0.3318918918918919,0.5035460992907801,0.6274725274725275,0.4381833473507149,1196.0
245.0,1.7109254256191068e+18,0.46866840731070497,0.4178082191780822,0.3410810810810811,0.49523110785033014,0.5945054945054945,0.4465937762825904,1197.0
246.0,1.710925425629112e+18,0.47389033942558745,0.4132420091324201,0.33135135135135135,0.5047688921496698,0.6318681318681318,0.4432296047098402,1197.0
247.0,1.71092542563913e+18,0.47780678851174935,0.4132420091324201,0.3372972972972973,0.5064808021521154,0.6318681318681318,0.43986543313709,1196.0
248.0,1.7109254256500477e+18,0.4725848563968668,0.4121004566210046,0.3302702702702703,0.49400831499144043,0.621978021978022,0.4314550042052145,1192.0
249.0,1.710925425659123e+18,0.4725848563968668,0.4132420091324201,0.3362162162162162,0.5055025678650037,0.6087912087912087,0.40454163162321277,1196.0
250.0,1.7109254256691233e+18,0.4765013054830287,0.4143835616438356,0.3302702702702703,0.5006113964294449,0.6318681318681318,0.43902439024390244,1195.0
251.0,1.7109254256791252e+18,0.4699738903394256,0.410958904109589,0.33675675675675676,0.5006113964294449,0.6065934065934065,0.4339781328847771,1194.0
252.0,1.7109254256891346e+18,0.46866840731070497,0.4098173515981735,0.33135135135135135,0.4944974321349963,0.6175824175824176,0.4222035323801514,1194.0
253.0,1.710925425699119e+18,0.4725848563968668,0.4132420091324201,0.33675675675675676,0.5015896307165566,0.6274725274725275,0.44575273338940286,1197.0
254.0,1.7109254257091223e+18,0.4765013054830287,0.4155251141552511,0.3345945945945946,0.5111274150158963,0.6450549450549451,0.4339781328847771,1194.0
255.0,1.7109254257191232e+18,0.46866840731070497,0.4121004566210046,0.3345945945945946,0.5030569821472243,0.6164835164835165,0.43650126156433977,1195.0
256.0,1.7109254257291185e+18,0.4699738903394256,0.4075342465753425,0.3281081081081081,0.5096600635852286,0.6494505494505495,0.40454163162321277,1192.0
257.0,1.710925425739139e+18,0.47389033942558745,0.4143835616438356,0.3362162162162162,0.4888725849841037,0.6032967032967033,0.4381833473507149,1196.0
258.0,1.7109254257491261e+18,0.4765013054830287,0.4143835616438356,0.33405405405405403,0.508192712154561,0.6450549450549451,0.4095878889823381,1192.0
259.0,1.7109254257591286e+18,0.47389033942558745,0.4178082191780822,0.3389189189189189,0.49816581071166544,0.6065934065934065,0.43650126156433977,1195.0
260.0,1.7109254257691233e+18,0.47127937336814624,0.4178082191780822,0.3372972972972973,0.5057471264367817,0.6296703296703297,0.4449116904962153,1195.0
261.0,1.710925425779127e+18,0.47127937336814624,0.408675799086758,0.33405405405405403,0.5018341892883346,0.5901098901098901,0.4280908326324643,1191.0
262.0,1.7109254257891238e+18,0.47389033942558745,0.4143835616438356,0.3345945945945946,0.49523110785033014,0.6285714285714286,0.4179983179142136,1194.0
263.0,1.71092542579914e+18,0.4765013054830287,0.4121004566210046,0.33837837837837836,0.5074590364392272,0.6197802197802198,0.43566021867115223,1196.0
264.0,1.7109254258091244e+18,0.4765013054830287,0.4223744292237443,0.3362162162162162,0.4888725849841037,0.6208791208791209,0.4381833473507149,1196.0
265.0,1.7109254258191222e+18,0.47127937336814624,0.4166666666666667,0.34054054054054056,0.5135730007336757,0.6406593406593407,0.43902439024390244,1194.0
266.0,1.7109254258291264e+18,0.47127937336814624,0.4155251141552511,0.3324324324324324,0.48911714355588165,0.6274725274725275,0.4129520605550883,1192.0
267.0,1.7109254258391332e+18,0.47389033942558745,0.4155251141552511,0.3372972972972973,0.5128393250183418,0.6307692307692307,0.4381833473507149,1195.0
268.0,1.7109254258490888e+18,0.47780678851174935,0.4178082191780822,0.33405405405405403,0.504035216434336,0.6274725274725275,0.4440706476030278,1195.0
269.0,1.710925425859123e+18,0.48172323759791125,0.4235159817351598,0.34054054054054056,0.5067253607238934,0.6417582417582418,0.45248107653490327,1196.0
270.0,1.71092542586912e+18,0.4765013054830287,0.408675799086758,0.32972972972972975,0.491562729273661,0.6241758241758242,0.38772077375946173,1194.0
271.0,1.7109254258791322e+18,0.4725848563968668,0.4143835616438356,0.3362162162162162,0.49033993641477136,0.6032967032967033,0.43650126156433977,1196.0
272.0,1.7109254258891249e+18,0.4725848563968668,0.4121004566210046,0.32756756756756755,0.49816581071166544,0.6197802197802198,0.4314550042052145,1193.0
273.0,1.7109254258991217e+18,0.46736292428198434,0.408675799086758,0.33783783783783783,0.4942528735632184,0.6065934065934065,0.44238856181665265,1195.0
274.0,1.7109254259091154e+18,0.4699738903394256,0.4178082191780822,0.33513513513513515,0.5020787478601125,0.6450549450549451,0.4482758620689655,1198.0
275.0,1.71092542591912e+18,0.47127937336814624,0.4121004566210046,0.34054054054054056,0.5270237221814624,0.6417582417582418,0.447434819175778,1195.0
276.0,1.7109254259291208e+18,0.47127937336814624,0.4075342465753425,0.32756756756756755,0.5077035950110051,0.6428571428571429,0.44911690496215306,1195.0
277.0,1.7109254259391447e+18,0.47127937336814624,0.4143835616438356,0.3362162162162162,0.5064808021521154,0.6142857142857143,0.43313708999158956,1193.0
278.0,1.7109254259491261e+18,0.4725848563968668,0.4178082191780822,0.33405405405405403,0.48789435069699194,0.6076923076923076,0.3288477712363331,1194.0
279.0,1.7109254259591278e+18,0.47780678851174935,0.4132420091324201,0.3345945945945946,0.5118610907312301,0.6252747252747253,0.4373423044575273,1197.0
280.0,1.7109254259691261e+18,0.47127937336814624,0.410958904109589,0.32972972972972975,0.5035460992907801,0.6263736263736264,0.44575273338940286,1196.0
281.0,1.7109254259791242e+18,0.4765013054830287,0.4143835616438356,0.33837837837837836,0.5008559550012228,0.6186813186813187,0.43566021867115223,1196.0
282.0,1.710925425989136e+18,0.47780678851174935,0.4235159817351598,0.33783783783783783,0.512350207874786,0.6538461538461539,0.4095878889823381,1192.0
283.0,1.7109254259991237e+18,0.47127937336814624,0.4132420091324201,0.33783783783783783,0.5118610907312301,0.6252747252747253,0.4415475189234651,1196.0
284.0,1.710925426009129e+18,0.4804177545691906,0.4143835616438356,0.33297297297297296,0.5037906578625581,0.6538461538461539,0.4449116904962153,1196.0
285.0,1.7109254260191247e+18,0.4725848563968668,0.410958904109589,0.33513513513513515,0.5086818292981169,0.6450549450549451,0.4575273338940286,1196.0
286.0,1.710925426029123e+18,0.47389033942558745,0.4178082191780822,0.3308108108108108,0.5035460992907801,0.6197802197802198,0.4213624894869638,1194.0
287.0,1.710925426039155e+18,0.4725848563968668,0.4166666666666667,0.33837837837837836,0.5008559550012228,0.6274725274725275,0.44070647603027757,1194.0
288.0,1.710925426049124e+18,0.4765013054830287,0.4166666666666667,0.3345945945945946,0.5099046221570066,0.6208791208791209,0.43313708999158956,1195.0
289.0,1.710925426059126e+18,0.4804177545691906,0.4143835616438356,0.33837837837837836,0.5023233064318905,0.6197802197802198,0.3742640874684609,1194.0
290.0,1.7109254260691244e+18,0.4765013054830287,0.4178082191780822,0.33405405405405403,0.5074590364392272,0.634065934065934,0.44575273338940286,1196.0
291.0,1.7109254260791619e+18,0.4765013054830287,0.4155251141552511,0.33675675675675676,0.5094155050134507,0.6230769230769231,0.4415475189234651,1197.0
292.0,1.710925426089305e+18,0.48172323759791125,0.4178082191780822,0.3372972972972973,0.5013450721447786,0.6285714285714286,0.4373423044575273,1196.0
293.0,1.7109254260991217e+18,0.47911227154047,0.4155251141552511,0.3372972972972973,0.5035460992907801,0.6230769230769231,0.43986543313709,1195.0
294.0,1.7109254261091287e+18,0.4725848563968668,0.4098173515981735,0.327027027027027,0.4812912692589875,0.6208791208791209,0.4339781328847771,1195.0
295.0,1.710925426119133e+18,0.4725848563968668,0.4132420091324201,0.3362162162162162,0.5001222792858889,0.6043956043956044,0.43566021867115223,1196.0
296.0,1.7109254261291274e+18,0.47911227154047,0.4155251141552511,0.3318918918918919,0.5023233064318905,0.6450549450549451,0.43986543313709,1191.0
297.0,1.7109254261391437e+18,0.47911227154047,0.4178082191780822,0.34162162162162163,0.5096600635852286,0.6450549450549451,0.4179983179142136,1191.0
298.0,1.7109254261491295e+18,0.47780678851174935,0.4178082191780822,0.32972972972972975,0.49523110785033014,0.6318681318681318,0.4533221194280908,1194.0
299.0,1.710925426159129e+18,0.4751958224543081,0.4132420091324201,0.33675675675675676,0.5074590364392272,0.6296703296703297,0.4432296047098402,1195.0
300.0,1.7109254261691277e+18,0.47389033942558745,0.410958904109589,0.3318918918918919,0.5020787478601125,0.6307692307692307,0.4381833473507149,1195.0
301.0,1.710925426179133e+18,0.47911227154047,0.4155251141552511,0.3345945945945946,0.5013450721447786,0.6351648351648351,0.4449116904962153,1195.0
302.0,1.7109254261891517e+18,0.4765013054830287,0.4223744292237443,0.34594594594594597,0.4966984592809978,0.6494505494505495,0.39781328847771236,1193.0
303.0,1.7109254261991255e+18,0.47911227154047,0.4189497716894977,0.34,0.5057471264367817,0.6307692307692307,0.4482758620689655,1197.0
304.0,1.710925426209129e+18,0.47911227154047,0.4189497716894977,0.3335135135135135,0.5018341892883346,0.6395604395604395,0.44238856181665265,1196.0
305.0,1.7109254262191311e+18,0.4765013054830287,0.4143835616438356,0.34054054054054056,0.5050134507214478,0.6153846153846154,0.447434819175778,1195.0
306.0,1.71092542622913e+18,0.4765013054830287,0.4132420091324201,0.3302702702702703,0.49474199070677427,0.6241758241758242,0.43566021867115223,1195.0
307.0,1.7109254262391496e+18,0.47389033942558745,0.4155251141552511,0.3389189189189189,0.5103937393005625,0.6428571428571429,0.4465937762825904,1196.0
308.0,1.710925426249124e+18,0.47911227154047,0.4178082191780822,0.33837837837837836,0.5084372707263389,0.6516483516483517,0.447434819175778,1196.0
309.0,1.7109254262591258e+18,0.47389033942558745,0.4143835616438356,0.3362162162162162,0.5018341892883346,0.6142857142857143,0.4255677039529016,1193.0
310.0,1.7109254262691254e+18,0.4765013054830287,0.4178082191780822,0.3345945945945946,0.5064808021521154,0.6373626373626373,0.4449116904962153,1198.0
311.0,1.710925426279128e+18,0.4765013054830287,0.4178082191780822,0.3427027027027027,0.4991440449987772,0.6021978021978022,0.4381833473507149,1196.0
312.0,1.710925426289146e+18,0.47127937336814624,0.4121004566210046,0.32972972972972975,0.5064808021521154,0.6406593406593407,0.43902439024390244,1194.0
313.0,1.710925426299129e+18,0.48172323759791125,0.4235159817351598,0.3389189189189189,0.5013450721447786,0.6252747252747253,0.43902439024390244,1196.0
314.0,1.710925426309132e+18,0.4765013054830287,0.4121004566210046,0.32972972972972975,0.5006113964294449,0.634065934065934,0.45248107653490327,1195.0
315.0,1.7109254263191316e+18,0.48172323759791125,0.4212328767123288,0.34486486486486484,0.5113719735876743,0.6274725274725275,0.44238856181665265,1194.0
316.0,1.710925426329132e+18,0.46866840731070497,0.408675799086758,0.3302702702702703,0.49498654927855223,0.6285714285714286,0.4415475189234651,1192.0
317.0,1.7109254263391342e+18,0.4725848563968668,0.4132420091324201,0.3362162162162162,0.5013450721447786,0.6186813186813187,0.4449116904962153,1196.0
318.0,1.710925426349139e+18,0.47127937336814624,0.4155251141552511,0.3324324324324324,0.4927855221325507,0.6230769230769231,0.4314550042052145,1192.0
319.0,1.7109254263591347e+18,0.4765013054830287,0.4200913242009132,0.34162162162162163,0.4930300807043287,0.6032967032967033,0.43902439024390244,1195.0
320.0,1.7109254263691228e+18,0.4765013054830287,0.4178082191780822,0.3302702702702703,0.5047688921496698,0.6285714285714286,0.43566021867115223,1196.0
321.0,1.71092542637915e+18,0.4765013054830287,0.4132420091324201,0.3389189189189189,0.5006113964294449,0.6142857142857143,0.4348191757779647,1197.0
322.0,1.7109254263891412e+18,0.47911227154047,0.4200913242009132,0.33675675675675676,0.5018341892883346,0.6274725274725275,0.4432296047098402,1196.0
323.0,1.7109254263991322e+18,0.4725848563968668,0.4143835616438356,0.3362162162162162,0.5072144778674492,0.6076923076923076,0.4222035323801514,1193.0
324.0,1.7109254264091382e+18,0.47389033942558745,0.4121004566210046,0.33135135135135135,0.5089263878698949,0.6428571428571429,0.44575273338940286,1195.0
325.0,1.7109254264191245e+18,0.4765013054830287,0.4200913242009132,0.3443243243243243,0.5204206407434581,0.6362637362637362,0.4449116904962153,1195.0
326.0,1.710925426429132e+18,0.47389033942558745,0.410958904109589,0.3308108108108108,0.5055025678650037,0.6252747252747253,0.456686291000841,1195.0
327.0,1.710925426439138e+18,0.46736292428198434,0.4063926940639269,0.3335135135135135,0.5074590364392272,0.6296703296703297,0.4381833473507149,1196.0
328.0,1.7109254264491405e+18,0.4751958224543081,0.4178082191780822,0.3362162162162162,0.5116165321594522,0.6516483516483517,0.4415475189234651,1197.0
329.0,1.7109254264591255e+18,0.47911227154047,0.4212328767123288,0.34216216216216216,0.49082905355832723,0.6241758241758242,0.4507989907485282,1197.0
330.0,1.7109254264691215e+18,0.47780678851174935,0.4143835616438356,0.33405405405405403,0.49229640498899485,0.6461538461538462,0.45164003364171573,1197.0
331.0,1.710925426479128e+18,0.4765013054830287,0.4189497716894977,0.3427027027027027,0.5179750550256786,0.6351648351648351,0.4482758620689655,1196.0
332.0,1.7109254264891277e+18,0.4804177545691906,0.4155251141552511,0.3302702702702703,0.5055025678650037,0.6373626373626373,0.44070647603027757,1196.0
333.0,1.7109254264991268e+18,0.4725848563968668,0.408675799086758,0.3362162162162162,0.5047688921496698,0.6241758241758242,0.45164003364171573,1198.0
334.0,1.7109254265091208e+18,0.4765013054830287,0.4178082191780822,0.3345945945945946,0.504524333577892,0.6186813186813187,0.4314550042052145,1194.0
335.0,1.7109254265191214e+18,0.4725848563968668,0.410958904109589,0.3362162162162162,0.5047688921496698,0.6208791208791209,0.4415475189234651,1198.0
336.0,1.710925426529124e+18,0.47127937336814624,0.4132420091324201,0.3308108108108108,0.504279775006114,0.6395604395604395,0.45164003364171573,1194.0
337.0,1.710925426539129e+18,0.47127937336814624,0.408675799086758,0.34054054054054056,0.5020787478601125,0.6098901098901099,0.4533221194280908,1196.0
338.0,1.7109254265491267e+18,0.4765013054830287,0.4155251141552511,0.3362162162162162,0.5028124235754463,0.6483516483516484,0.44238856181665265,1196.0
339.0,1.7109254265591235e+18,0.47127937336814624,0.4132420091324201,0.3362162162162162,0.4886280264123258,0.5956043956043956,0.4339781328847771,1195.0
340.0,1.7109254265691228e+18,0.47389033942558745,0.4178082191780822,0.33513513513513515,0.5013450721447786,0.6351648351648351,0.43566021867115223,1196.0
341.0,1.7109254265791245e+18,0.4765013054830287,0.4132420091324201,0.33783783783783783,0.504035216434336,0.6274725274725275,0.43986543313709,1196.0
342.0,1.71092542658912e+18,0.4765013054830287,0.4178082191780822,0.3324324324324324,0.5035460992907801,0.6329670329670329,0.4381833473507149,1197.0
343.0,1.7109254265991258e+18,0.4830287206266319,0.4223744292237443,0.3389189189189189,0.5018341892883346,0.5945054945054945,0.4112699747687132,1196.0
344.0,1.7109254266091226e+18,0.47780678851174935,0.4155251141552511,0.32972972972972975,0.4996331621423331,0.6461538461538462,0.4415475189234651,1195.0
345.0,1.7109254266191086e+18,0.5130548302872062,0.4143835616438356,0.3389189189189189,0.4991440449987772,0.6153846153846154,0.43650126156433977,1197.0
346.0,1.7109254266291517e+18,0.48433420365535246,0.4178082191780822,0.3345945945945946,0.4979212521398875,0.6120879120879121,0.43566021867115223,1196.0
347.0,1.7109254266391544e+18,0.47911227154047,0.4200913242009132,0.34216216216216216,0.504035216434336,0.6307692307692307,0.4381833473507149,1196.0
348.0,1.7109254266491274e+18,0.4608355091383812,0.4121004566210046,0.33135135135135135,0.5015896307165566,0.6241758241758242,0.432296047098402,1194.0
349.0,1.7109254266591227e+18,0.4751958224543081,0.4166666666666667,0.34540540540540543,0.5250672536072389,0.6153846153846154,0.43902439024390244,1200.0
350.0,1.7109254266691267e+18,0.4765013054830287,0.4200913242009132,0.34,0.5182196135974566,0.6406593406593407,0.4339781328847771,1192.0
351.0,1.7109254266791265e+18,0.4830287206266319,0.4269406392694064,0.3497297297297297,0.5299584250427978,0.6538461538461539,0.4499579478553406,1195.0
352.0,1.710925426689118e+18,0.4765013054830287,0.410958904109589,0.32972972972972975,0.504035216434336,0.6494505494505495,0.45248107653490327,1197.0
353.0,1.7109254266991168e+18,0.4725848563968668,0.4178082191780822,0.34216216216216216,0.5074590364392272,0.6153846153846154,0.43566021867115223,1196.0
354.0,1.7109254267091249e+18,0.46344647519582244,0.4063926940639269,0.3324324324324324,0.5108828564441183,0.6406593406593407,0.4247266610597141,1193.0
355.0,1.7109254267191424e+18,0.4765013054830287,0.4098173515981735,0.33405405405405403,0.5057471264367817,0.6230769230769231,0.4592094196804037,1196.0
356.0,1.7109254267291246e+18,0.4765013054830287,0.410958904109589,0.3308108108108108,0.5059916850085595,0.6450549450549451,0.4415475189234651,1196.0
357.0,1.7109254267391286e+18,0.4765013054830287,0.4189497716894977,0.3372972972972973,0.504524333577892,0.5989010989010989,0.43650126156433977,1196.0
358.0,1.7109254267491274e+18,0.4765013054830287,0.4257990867579909,0.34054054054054056,0.4991440449987772,0.6098901098901099,0.43566021867115223,1199.0
359.0,1.7109254267591201e+18,0.47780678851174935,0.4166666666666667,0.3427027027027027,0.4788456835412081,0.5747252747252747,0.4432296047098402,1197.0
360.0,1.7109254267691218e+18,0.46866840731070497,0.4041095890410959,0.3248648648648649,0.504524333577892,0.6472527472527473,0.4415475189234651,1196.0
361.0,1.710925426779123e+18,0.47911227154047,0.4143835616438356,0.33945945945945943,0.5084372707263389,0.6307692307692307,0.44238856181665265,1196.0
362.0,1.710925426789132e+18,0.47780678851174935,0.4200913242009132,0.3362162162162162,0.49767669356810956,0.5923076923076923,0.42977291841883936,1193.0
363.0,1.7109254267991206e+18,0.47127937336814624,0.4098173515981735,0.3362162162162162,0.5069699192956714,0.6296703296703297,0.43986543313709,1195.0
364.0,1.7109254268091208e+18,0.47389033942558745,0.4132420091324201,0.3291891891891892,0.49058449498654927,0.621978021978022,0.45164003364171573,1198.0
365.0,1.7109254268191212e+18,0.4804177545691906,0.4178082191780822,0.34054054054054056,0.48740523355343607,0.6318681318681318,0.44911690496215306,1196.0
366.0,1.7109254268291228e+18,0.4751958224543081,0.4121004566210046,0.3291891891891892,0.5062362435803375,0.6450549450549451,0.4482758620689655,1198.0
367.0,1.7109254268391296e+18,0.45691906005221933,0.3972602739726027,0.3335135135135135,0.5072144778674492,0.6197802197802198,0.4339781328847771,1193.0
368.0,1.7109254268491272e+18,0.47911227154047,0.4189497716894977,0.3345945945945946,0.49645390070921985,0.6406593406593407,0.43902439024390244,1197.0
369.0,1.7109254268591212e+18,0.4725848563968668,0.4178082191780822,0.33945945945945943,0.49938860357055515,0.5758241758241758,0.4314550042052145,1194.0
370.0,1.710925426869122e+18,0.4765013054830287,0.4189497716894977,0.3345945945945946,0.5013450721447786,0.6692307692307692,0.4482758620689655,1196.0
371.0,1.7109254268791473e+18,0.4765013054830287,0.4235159817351598,0.3491891891891892,0.5174859378821227,0.7,0.46509671993271656,1196.0
372.0,1.7109254268891497e+18,0.4765013054830287,0.4041095890410959,0.32432432432432434,0.5084372707263389,0.6450549450549451,0.44238856181665265,1195.0
373.0,1.7109254268991165e+18,0.4725848563968668,0.4143835616438356,0.3443243243243243,0.5077035950110051,0.6318681318681318,0.45836837678721615,1197.0
374.0,1.710925426909108e+18,0.49738903394255873,0.432648401826484,0.3410810810810811,0.49082905355832723,0.6494505494505495,0.4533221194280908,1196.0
375.0,1.7109254269191094e+18,0.4765013054830287,0.4235159817351598,0.34162162162162163,0.495720224993886,0.5747252747252747,0.4247266610597141,1196.0
376.0,1.7109254269291136e+18,0.46736292428198434,0.3926940639269406,0.3108108108108108,0.5035460992907801,0.6538461538461539,0.4415475189234651,1196.0
377.0,1.7109254269391112e+18,0.4869451697127937,0.4315068493150685,0.35135135135135137,0.512594766446564,0.6593406593406593,0.4533221194280908,1197.0
378.0,1.7109254269491067e+18,0.47911227154047,0.4200913242009132,0.32594594594594595,0.4966984592809978,0.6252747252747253,0.43902439024390244,1197.0
379.0,1.7109254269591186e+18,0.47911227154047,0.4235159817351598,0.34594594594594597,0.5162631450232331,0.6362637362637362,0.4381833473507149,1197.0
380.0,1.710925426969142e+18,0.48172323759791125,0.4223744292237443,0.33405405405405403,0.49474199070677427,0.6021978021978022,0.43650126156433977,1197.0
381.0,1.7109254269791148e+18,0.47127937336814624,0.4098173515981735,0.33783783783783783,0.5011005135730008,0.610989010989011,0.4238856181665265,1193.0
382.0,1.7109254269891182e+18,0.47911227154047,0.4155251141552511,0.32594594594594595,0.487649792125214,0.6164835164835165,0.4415475189234651,1197.0
383.0,1.7109254269991204e+18,0.46866840731070497,0.4041095890410959,0.3286486486486486,0.5084372707263389,0.6362637362637362,0.4432296047098402,1197.0
384.0,1.710925427009113e+18,0.4751958224543081,0.4041095890410959,0.3216216216216216,0.48985081927121543,0.6252747252747253,0.4415475189234651,1195.0
385.0,1.7109254270191148e+18,0.4765013054830287,0.4200913242009132,0.34054054054054056,0.5057471264367817,0.6450549450549451,0.44070647603027757,1195.0
386.0,1.710925427029113e+18,0.47389033942558745,0.4166666666666667,0.3308108108108108,0.5084372707263389,0.6571428571428571,0.43902439024390244,1196.0
387.0,1.7109254270391127e+18,0.47127937336814624,0.4075342465753425,0.3308108108108108,0.5028124235754463,0.5967032967032967,0.42977291841883936,1194.0
388.0,1.710925427049115e+18,0.47389033942558745,0.4212328767123288,0.33837837837837836,0.5037906578625581,0.6307692307692307,0.43986543313709,1196.0
389.0,1.7109254270591137e+18,0.4856396866840731,0.430365296803653,0.3497297297297297,0.5094155050134507,0.6538461538461539,0.45164003364171573,1196.0
390.0,1.7109254270691133e+18,0.47389033942558745,0.4178082191780822,0.33405405405405403,0.5006113964294449,0.6637362637362637,0.4449116904962153,1196.0
391.0,1.710925427079128e+18,0.46736292428198434,0.4018264840182648,0.33513513513513515,0.5015896307165566,0.6285714285714286,0.4373423044575273,1197.0
392.0,1.71092542708911e+18,0.48172323759791125,0.4189497716894977,0.32972972972972975,0.49767669356810956,0.6472527472527473,0.4507989907485282,1196.0
393.0,1.7109254270991304e+18,0.4765013054830287,0.4212328767123288,0.3497297297297297,0.5077035950110051,0.6021978021978022,0.432296047098402,1192.0
394.0,1.7109254271091036e+18,0.47127937336814624,0.4178082191780822,0.3264864864864865,0.4871606749816581,0.5923076923076923,0.3986543313708999,1193.0
395.0,1.710925427119119e+18,0.4765013054830287,0.4178082191780822,0.33837837837837836,0.504035216434336,0.6010989010989011,0.43650126156433977,1197.0
396.0,1.7109254271291113e+18,0.47127937336814624,0.4052511415525114,0.3232432432432432,0.49816581071166544,0.6450549450549451,0.4415475189234651,1195.0
397.0,1.7109254271391122e+18,0.4765013054830287,0.4132420091324201,0.33675675675675676,0.5050134507214478,0.6208791208791209,0.4272497897392767,1194.0
398.0,1.7109254271491156e+18,0.4725848563968668,0.4143835616438356,0.32972972972972975,0.4969430178527757,0.6230769230769231,0.4306139613120269,1193.0
399.0,1.710925427159114e+18,0.46736292428198434,0.4063926940639269,0.33405405405405403,0.5020787478601125,0.6087912087912087,0.45248107653490327,1196.0
400.0,1.7109254271691108e+18,0.4725848563968668,0.4121004566210046,0.3302702702702703,0.5028124235754463,0.6384615384615384,0.43986543313709,1196.0
401.0,1.710925427179136e+18,0.47911227154047,0.4178082191780822,0.33405405405405403,0.5201760821716801,0.6285714285714286,0.44238856181665265,1195.0
402.0,1.7109254271891192e+18,0.46866840731070497,0.4155251141552511,0.32972972972972975,0.5015896307165566,0.6186813186813187,0.4415475189234651,1195.0
403.0,1.7109254271991217e+18,0.4751958224543081,0.4143835616438356,0.33675675675675676,0.5008559550012228,0.6186813186813187,0.4432296047098402,1196.0
404.0,1.7109254272091277e+18,0.4765013054830287,0.4132420091324201,0.3291891891891892,0.49938860357055515,0.6318681318681318,0.4415475189234651,1196.0
405.0,1.7109254272191142e+18,0.4699738903394256,0.4063926940639269,0.33675675675675676,0.5001222792858889,0.5901098901098901,0.4314550042052145,1192.0
406.0,1.710925427229114e+18,0.47911227154047,0.4223744292237443,0.3372972972972973,0.49229640498899485,0.6428571428571429,0.4449116904962153,1197.0
407.0,1.7109254272391124e+18,0.46866840731070497,0.4075342465753425,0.33405405405405403,0.5006113964294449,0.5945054945054945,0.432296047098402,1193.0
408.0,1.7109254272491215e+18,0.47389033942558745,0.4132420091324201,0.3318918918918919,0.4900953778429934,0.6175824175824176,0.4381833473507149,1197.0
409.0,1.710925427259116e+18,0.46736292428198434,0.4052511415525114,0.33297297297297296,0.5025678650036683,0.5857142857142857,0.42304457527333894,1194.0
410.0,1.7109254272691333e+18,0.47127937336814624,0.410958904109589,0.33135135135135135,0.5089263878698949,0.6505494505494506,0.4415475189234651,1195.0
411.0,1.7109254272791145e+18,0.489556135770235,0.4246575342465753,0.34756756756756757,0.5052580092932257,0.5934065934065934,0.43566021867115223,1196.0
412.0,1.7109254272891213e+18,0.4725848563968668,0.4132420091324201,0.3362162162162162,0.5162631450232331,0.654945054945055,0.44238856181665265,1195.0
413.0,1.7109254272991045e+18,0.4699738903394256,0.4098173515981735,0.33513513513513515,0.5055025678650037,0.6274725274725275,0.4415475189234651,1194.0
414.0,1.7109254273091187e+18,0.47911227154047,0.4200913242009132,0.33405405405405403,0.5018341892883346,0.6483516483516484,0.44238856181665265,1196.0
415.0,1.7109254273191135e+18,0.46866840731070497,0.4098173515981735,0.3335135135135135,0.499877720714111,0.6076923076923076,0.43566021867115223,1194.0
416.0,1.7109254273291136e+18,0.48825065274151436,0.4269406392694064,0.3362162162162162,0.49645390070921985,0.6021978021978022,0.43902439024390244,1194.0
417.0,1.7109254273391647e+18,0.47911227154047,0.4200913242009132,0.34540540540540543,0.4966984592809978,0.610989010989011,0.4432296047098402,1198.0
418.0,1.7109254273491254e+18,0.46866840731070497,0.4143835616438356,0.33405405405405403,0.499877720714111,0.6780219780219781,0.4449116904962153,1197.0
419.0,1.7109254273591132e+18,0.4765013054830287,0.4155251141552511,0.3345945945945946,0.4937637564196625,0.6186813186813187,0.4238856181665265,1193.0
420.0,1.7109254273691284e+18,0.47780678851174935,0.4223744292237443,0.3389189189189189,0.5037906578625581,0.6417582417582418,0.4440706476030278,1197.0
421.0,1.710925427379112e+18,0.46866840731070497,0.408675799086758,0.33675675675675676,0.5064808021521154,0.6274725274725275,0.4735071488645921,1194.0
422.0,1.7109254273891197e+18,0.4765013054830287,0.4223744292237443,0.33297297297297296,0.504035216434336,0.6494505494505495,0.44070647603027757,1198.0
423.0,1.7109254273991242e+18,0.47127937336814624,0.4063926940639269,0.3335135135135135,0.491807287845439,0.5879120879120879,0.4339781328847771,1193.0
424.0,1.7109254274091036e+18,0.4765013054830287,0.4121004566210046,0.33405405405405403,0.5023233064318905,0.6406593406593407,0.43566021867115223,1196.0
425.0,1.7109254274191176e+18,0.4621409921671018,0.4041095890410959,0.3291891891891892,0.49645390070921985,0.5978021978021978,0.4280908326324643,1194.0
426.0,1.7109254274291128e+18,0.4751958224543081,0.4132420091324201,0.3302702702702703,0.5011005135730008,0.6461538461538462,0.4415475189234651,1197.0
427.0,1.7109254274391137e+18,0.46344647519582244,0.4052511415525114,0.3324324324324324,0.5025678650036683,0.5934065934065934,0.42977291841883936,1193.0
428.0,1.7109254274491318e+18,0.48172323759791125,0.4246575342465753,0.33783783783783783,0.4886280264123258,0.6450549450549451,0.40370058873002523,1194.0
429.0,1.7109254274591035e+18,0.48172323759791125,0.4223744292237443,0.34216216216216216,0.5067253607238934,0.6428571428571429,0.447434819175778,1196.0
430.0,1.710925427469113e+18,0.4765013054830287,0.410958904109589,0.3302702702702703,0.4986549278552213,0.6395604395604395,0.46846089150546677,1197.0
431.0,1.7109254274791089e+18,0.4660574412532637,0.410958904109589,0.3362162162162162,0.4969430178527757,0.6,0.4415475189234651,1195.0
432.0,1.7109254274891428e+18,0.4660574412532637,0.4041095890410959,0.3248648648648649,0.49816581071166544,0.6450549450549451,0.4373423044575273,1195.0
433.0,1.7109254274991037e+18,0.47127937336814624,0.4132420091324201,0.3362162162162162,0.5023233064318905,0.6362637362637362,0.4432296047098402,1196.0
434.0,1.7109254275091366e+18,0.4725848563968668,0.4132420091324201,0.3362162162162162,0.4979212521398875,0.6098901098901099,0.4314550042052145,1194.0
435.0,1.7109254275191163e+18,0.4804177545691906,0.4223744292237443,0.34162162162162163,0.4996331621423331,0.6274725274725275,0.4087468460891506,1193.0
436.0,1.7109254275291064e+18,0.4765013054830287,0.4132420091324201,0.33135135135135135,0.504035216434336,0.6384615384615384,0.44575273338940286,1195.0
437.0,1.710925427539141e+18,0.46866840731070497,0.408675799086758,0.3372972972972973,0.49033993641477136,0.5725274725274725,0.4289318755256518,1193.0
438.0,1.7109254275491446e+18,0.47127937336814624,0.4052511415525114,0.3281081081081081,0.495964783565664,0.6329670329670329,0.42977291841883936,1193.0
439.0,1.7109254275591122e+18,0.4765013054830287,0.4132420091324201,0.33675675675675676,0.4927855221325507,0.6098901098901099,0.43566021867115223,1196.0
440.0,1.710925427569105e+18,0.47780678851174935,0.4200913242009132,0.33297297297297296,0.4996331621423331,0.6450549450549451,0.4415475189234651,1195.0
441.0,1.7109254275791055e+18,0.47127937336814624,0.4098173515981735,0.33405405405405403,0.49327463927610665,0.6120879120879121,0.4415475189234651,1196.0
442.0,1.7109254275891116e+18,0.47389033942558745,0.4143835616438356,0.33135135135135135,0.4984103692834434,0.6373626373626373,0.43566021867115223,1196.0
443.0,1.7109254275991242e+18,0.47389033942558745,0.4098173515981735,0.3372972972972973,0.504035216434336,0.6153846153846154,0.4188393608074012,1194.0
444.0,1.710925427609115e+18,0.47911227154047,0.4178082191780822,0.3308108108108108,0.504035216434336,0.6505494505494506,0.45500420521446594,1196.0
445.0,1.7109254276191158e+18,0.47389033942558745,0.4132420091324201,0.33405405405405403,0.5025678650036683,0.6175824175824176,0.471825063078217,1197.0
446.0,1.7109254276291172e+18,0.4699738903394256,0.4132420091324201,0.3281081081081081,0.5015896307165566,0.6197802197802198,0.43313708999158956,1194.0
447.0,1.7109254276391025e+18,0.48172323759791125,0.4212328767123288,0.3427027027027027,0.5155294693078992,0.6241758241758242,0.4482758620689655,1194.0
448.0,1.7109254276490747e+18,0.4725848563968668,0.410958904109589,0.3291891891891892,0.48740523355343607,0.6120879120879121,0.43902439024390244,1198.0
449.0,1.710925427659118e+18,0.4765013054830287,0.4121004566210046,0.3345945945945946,0.5020787478601125,0.6285714285714286,0.4415475189234651,1197.0
450.0,1.710925427669115e+18,0.4725848563968668,0.4121004566210046,0.33135135135135135,0.5001222792858889,0.6175824175824176,0.4499579478553406,1195.0
451.0,1.7109254276791142e+18,0.4608355091383812,0.4006849315068493,0.3324324324324324,0.5059916850085595,0.6021978021978022,0.43313708999158956,1193.0
452.0,1.7109254276891172e+18,0.4830287206266319,0.4189497716894977,0.3318918918918919,0.5033015407190022,0.6461538461538462,0.4465937762825904,1197.0
453.0,1.7109254276991017e+18,0.47911227154047,0.4143835616438356,0.33675675675675676,0.5033015407190022,0.6098901098901099,0.4415475189234651,1196.0
454.0,1.7109254277091177e+18,0.4765013054830287,0.4143835616438356,0.3318918918918919,0.48789435069699194,0.6241758241758242,0.4247266610597141,1194.0
455.0,1.7109254277191173e+18,0.47127937336814624,0.4121004566210046,0.33837837837837836,0.5037906578625581,0.6274725274725275,0.44238856181665265,1194.0
456.0,1.7109254277291136e+18,0.47127937336814624,0.4132420091324201,0.33297297297297296,0.5047688921496698,0.6395604395604395,0.4432296047098402,1196.0
457.0,1.7109254277391163e+18,0.46736292428198434,0.4052511415525114,0.3356756756756757,0.48520420640743456,0.5945054945054945,0.432296047098402,1193.0
458.0,1.7109254277491133e+18,0.4765013054830287,0.4189497716894977,0.33297297297297296,0.5015896307165566,0.6395604395604395,0.44238856181665265,1196.0
459.0,1.7109254277591196e+18,0.4751958224543081,0.4155251141552511,0.33675675675675676,0.504524333577892,0.6197802197802198,0.3952901597981497,1193.0
460.0,1.7109254277691008e+18,0.4765013054830287,0.4143835616438356,0.3302702702702703,0.4859378821227684,0.6120879120879121,0.4348191757779647,1196.0
461.0,1.7109254277791148e+18,0.46866840731070497,0.4121004566210046,0.33945945945945943,0.49767669356810956,0.6021978021978022,0.43650126156433977,1198.0
462.0,1.710925427789129e+18,0.46866840731070497,0.4052511415525114,0.3237837837837838,0.4930300807043287,0.654945054945055,0.4381833473507149,1197.0
463.0,1.7109254277991375e+18,0.47780678851174935,0.4166666666666667,0.3372972972972973,0.49327463927610665,0.6230769230769231,0.4348191757779647,1194.0
464.0,1.7109254278091308e+18,0.46866840731070497,0.4052511415525114,0.32756756756756755,0.5077035950110051,0.6373626373626373,0.43313708999158956,1193.0
465.0,1.7109254278191112e+18,0.47389033942558745,0.4189497716894977,0.3410810810810811,0.4966984592809978,0.6142857142857143,0.43902439024390244,1196.0
466.0,1.710925427829115e+18,0.47127937336814624,0.4132420091324201,0.32972972972972975,0.49205184641721694,0.6406593406593407,0.43902439024390244,1196.0
467.0,1.7109254278391124e+18,0.4725848563968668,0.4200913242009132,0.33837837837837836,0.5028124235754463,0.6076923076923076,0.43650126156433977,1196.0
468.0,1.7109254278491128e+18,0.4765013054830287,0.4155251141552511,0.3324324324324324,0.5035460992907801,0.6373626373626373,0.4087468460891506,1194.0
469.0,1.7109254278591204e+18,0.47127937336814624,0.4121004566210046,0.34216216216216216,0.5057471264367817,0.6164835164835165,0.4449116904962153,1195.0
470.0,1.7109254278691172e+18,0.47911227154047,0.4223744292237443,0.33783783783783783,0.5116165321594522,0.656043956043956,0.4499579478553406,1195.0
471.0,1.710925427879132e+18,0.4869451697127937,0.4223744292237443,0.34216216216216216,0.5106382978723404,0.6252747252747253,0.45500420521446594,1196.0
472.0,1.710925427889124e+18,0.4765013054830287,0.410958904109589,0.33297297297297296,0.5037906578625581,0.6362637362637362,0.4415475189234651,1198.0
473.0,1.7109254278991165e+18,0.47389033942558745,0.4121004566210046,0.33513513513513515,0.495720224993886,0.6065934065934065,0.43902439024390244,1195.0
474.0,1.7109254279091044e+18,0.47389033942558745,0.4121004566210046,0.33135135135135135,0.4988994864269993,0.6384615384615384,0.4381833473507149,1196.0
475.0,1.710925427919115e+18,0.47389033942558745,0.4178082191780822,0.3389189189189189,0.499877720714111,0.6010989010989011,0.4381833473507149,1197.0
476.0,1.7109254279291174e+18,0.4725848563968668,0.4143835616438356,0.3335135135135135,0.5030569821472243,0.6593406593406593,0.4289318755256518,1192.0
477.0,1.7109254279391165e+18,0.47911227154047,0.4223744292237443,0.34702702702702704,0.5059916850085595,0.6098901098901099,0.4348191757779647,1197.0
478.0,1.710925427949119e+18,0.47780678851174935,0.4178082191780822,0.33405405405405403,0.5086818292981169,0.6516483516483517,0.4600504625735913,1196.0
479.0,1.71092542795912e+18,0.4804177545691906,0.4189497716894977,0.3427027027027027,0.4966984592809978,0.5923076923076923,0.4373423044575273,1197.0
480.0,1.7109254279691136e+18,0.4804177545691906,0.4246575342465753,0.34486486486486484,0.5057471264367817,0.6417582417582418,0.44575273338940286,1197.0
481.0,1.710925427979117e+18,0.47127937336814624,0.4132420091324201,0.3362162162162162,0.5006113964294449,0.6065934065934065,0.4306139613120269,1194.0
482.0,1.7109254279891167e+18,0.46866840731070497,0.410958904109589,0.32972972972972975,0.49498654927855223,0.6197802197802198,0.40454163162321277,1193.0
483.0,1.7109254279991206e+18,0.4765013054830287,0.4155251141552511,0.3372972972972973,0.504524333577892,0.589010989010989,0.4289318755256518,1193.0
484.0,1.71092542800912e+18,0.4765013054830287,0.4132420091324201,0.3324324324324324,0.5001222792858889,0.6417582417582418,0.4255677039529016,1195.0
485.0,1.710925428019115e+18,0.4699738903394256,0.4178082191780822,0.33405405405405403,0.49498654927855223,0.6065934065934065,0.3986543313708999,1194.0
486.0,1.7109254280291154e+18,0.4725848563968668,0.4155251141552511,0.3308108108108108,0.48789435069699194,0.6351648351648351,0.4953742640874685,1195.0
487.0,1.7109254280391158e+18,0.4725848563968668,0.4155251141552511,0.33783783783783783,0.49498654927855223,0.5923076923076923,0.43566021867115223,1199.0
488.0,1.710925428049119e+18,0.46866840731070497,0.4052511415525114,0.32756756756756755,0.5020787478601125,0.643956043956044,0.43566021867115223,1197.0
489.0,1.7109254280591101e+18,0.46866840731070497,0.4052511415525114,0.33405405405405403,0.4966984592809978,0.5824175824175825,0.44238856181665265,1195.0
490.0,1.7109254280691108e+18,0.47389033942558745,0.4143835616438356,0.3281081081081081,0.5020787478601125,0.6538461538461539,0.4415475189234651,1197.0
491.0,1.7109254280791107e+18,0.46475195822454307,0.4052511415525114,0.33297297297297296,0.495720224993886,0.6054945054945055,0.4339781328847771,1192.0
492.0,1.7109254280891098e+18,0.4765013054830287,0.410958904109589,0.3286486486486486,0.5028124235754463,0.6395604395604395,0.44238856181665265,1197.0
493.0,1.7109254280991145e+18,0.47389033942558745,0.4052511415525114,0.327027027027027,0.48985081927121543,0.6076923076923076,0.4415475189234651,1197.0
494.0,1.7109254281091072e+18,0.47780678851174935,0.4132420091324201,0.3302702702702703,0.49645390070921985,0.6318681318681318,0.44238856181665265,1194.0
495.0,1.7109254281191127e+18,0.4725848563968668,0.4132420091324201,0.3362162162162162,0.4969430178527757,0.5989010989010989,0.42640874684608915,1193.0
496.0,1.7109254281291128e+18,0.46736292428198434,0.4143835616438356,0.3335135135135135,0.49498654927855223,0.6142857142857143,0.4314550042052145,1192.0
497.0,1.7109254281391132e+18,0.46866840731070497,0.4075342465753425,0.3318918918918919,0.5018341892883346,0.6274725274725275,0.4381833473507149,1197.0
498.0,1.7109254281491123e+18,0.4751958224543081,0.410958904109589,0.32972972972972975,0.5015896307165566,0.6164835164835165,0.456686291000841,1194.0
499.0,1.7109254281591107e+18,0.4765013054830287,0.4189497716894977,0.33783783783783783,0.4839814135485449,0.6076923076923076,0.45836837678721615,1195.0
500.0,1.7109254281691185e+18,0.4660574412532637,0.3972602739726027,0.3216216216216216,0.5006113964294449,0.6263736263736264,0.4272497897392767,1194.0
501.0,1.7109254281791137e+18,0.4765013054830287,0.4200913242009132,0.3427027027027027,0.4966984592809978,0.567032967032967,0.4381833473507149,1199.0
502.0,1.7109254281891205e+18,0.47780678851174935,0.4178082191780822,0.32756756756756755,0.4979212521398875,0.6373626373626373,0.4449116904962153,1197.0
503.0,1.7109254281991104e+18,0.47911227154047,0.4200913242009132,0.3389189189189189,0.49327463927610665,0.6142857142857143,0.4432296047098402,1196.0
504.0,1.710925428209113e+18,0.47127937336814624,0.4041095890410959,0.32432432432432434,0.5103937393005625,0.6417582417582418,0.447434819175778,1195.0
505.0,1.710925428219116e+18,0.47389033942558745,0.4098173515981735,0.33405405405405403,0.5025678650036683,0.6274725274725275,0.40370058873002523,1195.0
506.0,1.7109254282291164e+18,0.4725848563968668,0.410958904109589,0.3302702702702703,0.5006113964294449,0.5989010989010989,0.42977291841883936,1195.0
507.0,1.710925428239117e+18,0.4765013054830287,0.4132420091324201,0.33675675675675676,0.5003668378576669,0.6153846153846154,0.4280908326324643,1193.0
508.0,1.7109254282491208e+18,0.47127937336814624,0.4063926940639269,0.33135135135135135,0.4971875764245537,0.6472527472527473,0.4432296047098402,1195.0
509.0,1.7109254282591165e+18,0.4725848563968668,0.4132420091324201,0.33783783783783783,0.5111274150158963,0.6318681318681318,0.4432296047098402,1197.0
510.0,1.7109254282691162e+18,0.47127937336814624,0.4098173515981735,0.3362162162162162,0.5231107850330154,0.6604395604395604,0.4348191757779647,1196.0
511.0,1.71092542827912e+18,0.4751958224543081,0.4098173515981735,0.33297297297297296,0.504035216434336,0.6054945054945055,0.4449116904962153,1196.0
512.0,1.7109254282891185e+18,0.4725848563968668,0.410958904109589,0.32756756756756755,0.4944974321349963,0.6450549450549451,0.4735071488645921,1195.0
513.0,1.7109254282991176e+18,0.4869451697127937,0.4246575342465753,0.3427027027027027,0.5011005135730008,0.6164835164835165,0.39781328847771236,1192.0
514.0,1.7109254283091185e+18,0.47127937336814624,0.4132420091324201,0.3308108108108108,0.5103937393005625,0.6472527472527473,0.43313708999158956,1195.0
515.0,1.7109254283191196e+18,0.47780678851174935,0.4223744292237443,0.34324324324324323,0.49645390070921985,0.6274725274725275,0.4381833473507149,1195.0
516.0,1.7109254283291205e+18,0.4765013054830287,0.4098173515981735,0.32972972972972975,0.4988994864269993,0.6285714285714286,0.4062237174095879,1192.0
517.0,1.7109254283391206e+18,0.47389033942558745,0.4143835616438356,0.3362162162162162,0.49938860357055515,0.6241758241758242,0.44070647603027757,1197.0
518.0,1.7109254283491256e+18,0.4765013054830287,0.4189497716894977,0.3356756756756757,0.5067253607238934,0.654945054945055,0.4499579478553406,1196.0
519.0,1.7109254283591245e+18,0.4765013054830287,0.4178082191780822,0.3372972972972973,0.4988994864269993,0.6153846153846154,0.43902439024390244,1194.0
520.0,1.7109254283691218e+18,0.4660574412532637,0.4075342465753425,0.3335135135135135,0.5064808021521154,0.6307692307692307,0.43313708999158956,1193.0
521.0,1.7109254283791224e+18,0.4765013054830287,0.4143835616438356,0.34,0.49400831499144043,0.6043956043956044,0.4373423044575273,1196.0
522.0,1.7109254283891546e+18,0.4765013054830287,0.4155251141552511,0.3335135135135135,0.5028124235754463,0.6373626373626373,0.4415475189234651,1198.0
523.0,1.7109254283991201e+18,0.4765013054830287,0.4143835616438356,0.33675675675675676,0.49767669356810956,0.6175824175824176,0.45164003364171573,1196.0
524.0,1.7109254284091228e+18,0.47127937336814624,0.4143835616438356,0.33297297297297296,0.48911714355588165,0.6318681318681318,0.4381833473507149,1196.0
525.0,1.7109254284191245e+18,0.4725848563968668,0.4132420091324201,0.34,0.5074590364392272,0.6131868131868132,0.46846089150546677,1195.0
526.0,1.7109254284291233e+18,0.4751958224543081,0.4166666666666667,0.33405405405405403,0.5030569821472243,0.6307692307692307,0.4163162321278385,1193.0
527.0,1.710925428439124e+18,0.4751958224543081,0.4132420091324201,0.34054054054054056,0.49498654927855223,0.5978021978021978,0.4373423044575273,1194.0
528.0,1.710925428449124e+18,0.4765013054830287,0.4178082191780822,0.3345945945945946,0.5015896307165566,0.6417582417582418,0.43902439024390244,1198.0
529.0,1.710925428459125e+18,0.47389033942558745,0.4143835616438356,0.34540540540540543,0.5028124235754463,0.6373626373626373,0.4415475189234651,1195.0
530.0,1.7109254284691034e+18,0.47780678851174935,0.4121004566210046,0.33135135135135135,0.49107361213010514,0.6307692307692307,0.4465937762825904,1195.0
531.0,1.7109254284791296e+18,0.4725848563968668,0.4098173515981735,0.3362162162162162,0.4839814135485449,0.6120879120879121,0.44911690496215306,1194.0
532.0,1.7109254284891284e+18,0.4804177545691906,0.4143835616438356,0.3335135135135135,0.4988994864269993,0.6417582417582418,0.4415475189234651,1195.0
533.0,1.710925428499134e+18,0.47127937336814624,0.4075342465753425,0.3324324324324324,0.4969430178527757,0.6153846153846154,0.43902439024390244,1196.0
534.0,1.7109254285091272e+18,0.4699738903394256,0.4143835616438356,0.3318918918918919,0.49645390070921985,0.6208791208791209,0.42052144659377627,1193.0
535.0,1.7109254285191276e+18,0.47389033942558745,0.408675799086758,0.33675675675675676,0.48813890926876985,0.6076923076923076,0.43902439024390244,1196.0
536.0,1.7109254285291274e+18,0.4804177545691906,0.432648401826484,0.34594594594594597,0.5025678650036683,0.6120879120879121,0.4381833473507149,1194.0
537.0,1.7109254285391104e+18,0.48433420365535246,0.4212328767123288,0.34378378378378377,0.5133284421618978,0.6153846153846154,0.41379310344827586,1193.0
538.0,1.7109254285491113e+18,0.4765013054830287,0.4098173515981735,0.3318918918918919,0.5064808021521154,0.6505494505494506,0.43986543313709,1194.0
539.0,1.7109254285591073e+18,0.48172323759791125,0.4200913242009132,0.3372972972972973,0.499877720714111,0.6208791208791209,0.4432296047098402,1197.0
540.0,1.7109254285691105e+18,0.47389033942558745,0.4189497716894977,0.3345945945945946,0.4942528735632184,0.6505494505494506,0.44238856181665265,1194.0
541.0,1.7109254285790973e+18,0.47911227154047,0.4178082191780822,0.33675675675675676,0.495964783565664,0.6208791208791209,0.4482758620689655,1196.0
542.0,1.7109254285891116e+18,0.46736292428198434,0.410958904109589,0.33297297297297296,0.4966984592809978,0.6296703296703297,0.432296047098402,1194.0
543.0,1.7109254285991357e+18,0.46344647519582244,0.408675799086758,0.33405405405405403,0.49620934213744194,0.6285714285714286,0.4507989907485282,1195.0
544.0,1.71092542860911e+18,0.4765013054830287,0.4178082191780822,0.32756756756756755,0.5118610907312301,0.654945054945055,0.4465937762825904,1197.0
545.0,1.7109254286191132e+18,0.4765013054830287,0.4098173515981735,0.34,0.5108828564441183,0.6186813186813187,0.4449116904962153,1196.0
546.0,1.7109254286291123e+18,0.46866840731070497,0.408675799086758,0.32756756756756755,0.4966984592809978,0.6417582417582418,0.43650126156433977,1198.0
547.0,1.7109254286391145e+18,0.48172323759791125,0.4223744292237443,0.3410810810810811,0.4966984592809978,0.610989010989011,0.41042893187552565,1194.0
548.0,1.7109254286491372e+18,0.47780678851174935,0.4155251141552511,0.33513513513513515,0.49205184641721694,0.6362637362637362,0.4735071488645921,1197.0
549.0,1.7109254286591322e+18,0.4765013054830287,0.4132420091324201,0.3356756756756757,0.5069699192956714,0.6230769230769231,0.43650126156433977,1195.0
550.0,1.7109254286691172e+18,0.47389033942558745,0.4143835616438356,0.33405405405405403,0.5059916850085595,0.6450549450549451,0.43902439024390244,1195.0
551.0,1.7109254286791168e+18,0.4725848563968668,0.4121004566210046,0.33405405405405403,0.5015896307165566,0.6208791208791209,0.44070647603027757,1196.0
552.0,1.7109254286891139e+18,0.47127937336814624,0.4121004566210046,0.3302702702702703,0.49082905355832723,0.6450549450549451,0.447434819175778,1194.0
553.0,1.7109254286991352e+18,0.47127937336814624,0.4178082191780822,0.33945945945945943,0.5099046221570066,0.621978021978022,0.4482758620689655,1196.0
554.0,1.7109254287091105e+18,0.4765013054830287,0.4075342465753425,0.32432432432432434,0.5011005135730008,0.6373626373626373,0.44575273338940286,1198.0
555.0,1.7109254287191076e+18,0.46736292428198434,0.4075342465753425,0.3318918918918919,0.5059916850085595,0.6098901098901099,0.45500420521446594,1195.0
556.0,1.7109254287291092e+18,0.46344647519582244,0.4018264840182648,0.3281081081081081,0.49938860357055515,0.6065934065934065,0.45164003364171573,1196.0
557.0,1.7109254287391048e+18,0.4608355091383812,0.3995433789954338,0.3254054054054054,0.5108828564441183,0.6098901098901099,0.45248107653490327,1197.0
558.0,1.7109254287491236e+18,0.48172323759791125,0.4189497716894977,0.3372972972972973,0.5084372707263389,0.6582417582417582,0.43902439024390244,1195.0
559.0,1.7109254287591404e+18,0.47911227154047,0.4189497716894977,0.3410810810810811,0.5030569821472243,0.6098901098901099,0.4449116904962153,1195.0
560.0,1.7109254287690824e+18,0.48172323759791125,0.4178082191780822,0.3362162162162162,0.5116165321594522,0.643956043956044,0.4415475189234651,1196.0
561.0,1.710925428779116e+18,0.48172323759791125,0.4178082191780822,0.33945945945945943,0.504524333577892,0.6164835164835165,0.3380992430613961,1192.0
562.0,1.7109254287891236e+18,0.4765013054830287,0.4223744292237443,0.33297297297297296,0.4988994864269993,0.643956043956044,0.43986543313709,1197.0
563.0,1.710925428799097e+18,0.4765013054830287,0.4189497716894977,0.33837837837837836,0.5047688921496698,0.6197802197802198,0.44575273338940286,1196.0
564.0,1.7109254288091185e+18,0.4765013054830287,0.4178082191780822,0.33837837837837836,0.5055025678650037,0.6329670329670329,0.43650126156433977,1196.0
565.0,1.7109254288191145e+18,0.4699738903394256,0.4132420091324201,0.33783783783783783,0.495720224993886,0.567032967032967,0.432296047098402,1194.0
566.0,1.710925428829112e+18,0.47780678851174935,0.4200913242009132,0.3345945945945946,0.504524333577892,0.6373626373626373,0.43902439024390244,1197.0
567.0,1.7109254288391137e+18,0.4830287206266319,0.4269406392694064,0.35027027027027025,0.5094155050134507,0.6120879120879121,0.4440706476030278,1195.0
568.0,1.7109254288491156e+18,0.47389033942558745,0.4178082191780822,0.33513513513513515,0.5003668378576669,0.634065934065934,0.43650126156433977,1198.0
569.0,1.710925428859119e+18,0.4765013054830287,0.408675799086758,0.3362162162162162,0.49620934213744194,0.6252747252747253,0.44238856181665265,1196.0
570.0,1.7109254288691182e+18,0.4765013054830287,0.4178082191780822,0.34,0.5231107850330154,0.6516483516483517,0.42640874684608915,1192.0
571.0,1.7109254288791132e+18,0.47389033942558745,0.4132420091324201,0.3362162162162162,0.4991440449987772,0.6208791208791209,0.43986543313709,1197.0
572.0,1.7109254288891177e+18,0.4725848563968668,0.4132420091324201,0.3318918918918919,0.5030569821472243,0.6395604395604395,0.40370058873002523,1193.0
573.0,1.710925428899142e+18,0.47127937336814624,0.408675799086758,0.3345945945945946,0.5033015407190022,0.6230769230769231,0.43986543313709,1197.0
574.0,1.710925428909116e+18,0.4869451697127937,0.4212328767123288,0.3318918918918919,0.5116165321594522,0.634065934065934,0.44911690496215306,1194.0
575.0,1.710925428919152e+18,0.48172323759791125,0.4246575342465753,0.34756756756756757,0.5067253607238934,0.6274725274725275,0.4852817493692178,1195.0
576.0,1.7109254289291195e+18,0.47389033942558745,0.4132420091324201,0.3291891891891892,0.5001222792858889,0.6406593406593407,0.44575273338940286,1195.0
577.0,1.7109254289391258e+18,0.47127937336814624,0.4132420091324201,0.33675675675675676,0.5011005135730008,0.6230769230769231,0.4415475189234651,1194.0
578.0,1.7109254289491505e+18,0.4725848563968668,0.410958904109589,0.33135135135135135,0.5018341892883346,0.6285714285714286,0.43566021867115223,1196.0
579.0,1.7109254289591278e+18,0.4725848563968668,0.4121004566210046,0.3345945945945946,0.5018341892883346,0.6274725274725275,0.4507989907485282,1195.0
580.0,1.7109254289691205e+18,0.48172323759791125,0.4121004566210046,0.3302702702702703,0.5037906578625581,0.6472527472527473,0.43902439024390244,1195.0
581.0,1.7109254289791288e+18,0.4725848563968668,0.410958904109589,0.33837837837837836,0.4830031792614331,0.6098901098901099,0.4289318755256518,1192.0
582.0,1.7109254289891466e+18,0.4765013054830287,0.4143835616438356,0.3308108108108108,0.5018341892883346,0.6395604395604395,0.43313708999158956,1193.0
583.0,1.7109254289991626e+18,0.47911227154047,0.4178082191780822,0.33945945945945943,0.5030569821472243,0.6318681318681318,0.44238856181665265,1196.0
584.0,1.7109254290091226e+18,0.47911227154047,0.4223744292237443,0.3362162162162162,0.49351919784788456,0.6296703296703297,0.4415475189234651,1194.0
585.0,1.710925429019128e+18,0.46866840731070497,0.4178082191780822,0.34324324324324323,0.508192712154561,0.6230769230769231,0.37510513036164844,1193.0
586.0,1.710925429029127e+18,0.4725848563968668,0.4121004566210046,0.3308108108108108,0.4988994864269993,0.6285714285714286,0.4440706476030278,1195.0
587.0,1.7109254290391258e+18,0.47389033942558745,0.4178082191780822,0.33675675675675676,0.5008559550012228,0.6131868131868132,0.4381833473507149,1196.0
588.0,1.7109254290491574e+18,0.46736292428198434,0.408675799086758,0.3281081081081081,0.4984103692834434,0.621978021978022,0.4289318755256518,1193.0
589.0,1.710925429059129e+18,0.4725848563968668,0.4132420091324201,0.3345945945945946,0.4847150892638787,0.6098901098901099,0.4751892346509672,1197.0
590.0,1.7109254290691459e+18,0.4765013054830287,0.4178082191780822,0.3389189189189189,0.5015896307165566,0.6417582417582418,0.4415475189234651,1195.0
591.0,1.7109254290791183e+18,0.47389033942558745,0.4143835616438356,0.3389189189189189,0.5089263878698949,0.6296703296703297,0.4449116904962153,1195.0
592.0,1.7109254290891144e+18,0.47911227154047,0.4178082191780822,0.33297297297297296,0.4944974321349963,0.6274725274725275,0.4449116904962153,1196.0
593.0,1.71092542909912e+18,0.46866840731070497,0.4098173515981735,0.3389189189189189,0.5062362435803375,0.6120879120879121,0.4339781328847771,1192.0
594.0,1.7109254291091215e+18,0.4765013054830287,0.4143835616438356,0.33297297297297296,0.5028124235754463,0.6318681318681318,0.43986543313709,1196.0
595.0,1.7109254291191127e+18,0.47911227154047,0.4235159817351598,0.3464864864864865,0.5006113964294449,0.6175824175824176,0.4348191757779647,1197.0
596.0,1.7109254291291174e+18,0.46866840731070497,0.4098173515981735,0.33135135135135135,0.49033993641477136,0.6230769230769231,0.4146341463414634,1191.0
597.0,1.710925429139115e+18,0.4765013054830287,0.4121004566210046,0.33675675675675676,0.5035460992907801,0.6285714285714286,0.44575273338940286,1197.0
598.0,1.7109254291491167e+18,0.4804177545691906,0.4178082191780822,0.33405405405405403,0.4988994864269993,0.6186813186813187,0.4465937762825904,1196.0
599.0,1.7109254291591196e+18,0.46866840731070497,0.410958904109589,0.3345945945945946,0.508192712154561,0.6175824175824176,0.4373423044575273,1197.0
600.0,1.7109254291691167e+18,0.4725848563968668,0.410958904109589,0.3281081081081081,0.4996331621423331,0.6307692307692307,0.4432296047098402,1196.0
601.0,1.710925429179122e+18,0.4804177545691906,0.4178082191780822,0.33783783783783783,0.5118610907312301,0.6318681318681318,0.46173254835996635,1195.0
602.0,1.7109254291891162e+18,0.4725848563968668,0.4121004566210046,0.32972972972972975,0.5050134507214478,0.6428571428571429,0.46509671993271656,1197.0
603.0,1.7109254291991235e+18,0.4830287206266319,0.4189497716894977,0.3372972972972973,0.5035460992907801,0.6186813186813187,0.4415475189234651,1196.0
604.0,1.7109254292091576e+18,0.4765013054830287,0.4200913242009132,0.3345945945945946,0.4988994864269993,0.6274725274725275,0.4440706476030278,1194.0
605.0,1.7109254292191222e+18,0.47389033942558745,0.4189497716894977,0.34324324324324323,0.49107361213010514,0.6098901098901099,0.43902439024390244,1195.0
606.0,1.710925429229124e+18,0.47389033942558745,0.4178082191780822,0.33405405405405403,0.5023233064318905,0.6186813186813187,0.4348191757779647,1195.0
607.0,1.7109254292391158e+18,0.4765013054830287,0.4075342465753425,0.3362162162162162,0.5074590364392272,0.6153846153846154,0.4213624894869638,1193.0
608.0,1.7109254292491197e+18,0.47127937336814624,0.4075342465753425,0.3286486486486486,0.5003668378576669,0.6329670329670329,0.4314550042052145,1193.0
609.0,1.7109254292591188e+18,0.47389033942558745,0.4121004566210046,0.3389189189189189,0.4781120078258743,0.6021978021978022,0.4415475189234651,1196.0
610.0,1.7109254292691177e+18,0.4804177545691906,0.4155251141552511,0.33297297297297296,0.49327463927610665,0.6373626373626373,0.43650126156433977,1196.0
611.0,1.7109254292791201e+18,0.47780678851174935,0.4132420091324201,0.33405405405405403,0.49767669356810956,0.6241758241758242,0.4415475189234651,1194.0
612.0,1.7109254292891167e+18,0.47780678851174935,0.4155251141552511,0.3291891891891892,0.4925409635607728,0.6241758241758242,0.4381833473507149,1196.0
613.0,1.710925429299119e+18,0.4725848563968668,0.4155251141552511,0.34054054054054056,0.5111274150158963,0.6175824175824176,0.3969722455845248,1194.0
614.0,1.7109254293091205e+18,0.4765013054830287,0.4189497716894977,0.33297297297297296,0.5047688921496698,0.6197802197802198,0.4373423044575273,1193.0
615.0,1.7109254293191217e+18,0.47389033942558745,0.4189497716894977,0.34162162162162163,0.4944974321349963,0.6010989010989011,0.43902439024390244,1196.0
616.0,1.710925429329117e+18,0.47780678851174935,0.4212328767123288,0.33675675675675676,0.49816581071166544,0.6472527472527473,0.44238856181665265,1195.0
617.0,1.7109254293391168e+18,0.4765013054830287,0.410958904109589,0.3362162162162162,0.5072144778674492,0.6065934065934065,0.4339781328847771,1194.0
618.0,1.7109254293491197e+18,0.47911227154047,0.4235159817351598,0.33405405405405403,0.5121056493030081,0.6373626373626373,0.4415475189234651,1198.0
619.0,1.710925429359162e+18,0.46866840731070497,0.4063926940639269,0.33297297297297296,0.5096600635852286,0.6131868131868132,0.4533221194280908,1196.0
620.0,1.710925429369122e+18,0.4725848563968668,0.4075342465753425,0.3254054054054054,0.4944974321349963,0.6406593406593407,0.4701429772918419,1195.0
621.0,1.7109254293791293e+18,0.4725848563968668,0.4075342465753425,0.3345945945945946,0.5015896307165566,0.6065934065934065,0.4280908326324643,1194.0
622.0,1.7109254293891144e+18,0.47127937336814624,0.4075342465753425,0.32972972972972975,0.5013450721447786,0.6252747252747253,0.4339781328847771,1193.0
623.0,1.7109254293991173e+18,0.47780678851174935,0.4292237442922374,0.34324324324324323,0.5157740278796772,0.6175824175824176,0.4381833473507149,1194.0
624.0,1.7109254294091497e+18,0.4725848563968668,0.4143835616438356,0.32972972972972975,0.4988994864269993,0.6241758241758242,0.4272497897392767,1193.0
625.0,1.7109254294191278e+18,0.47911227154047,0.4200913242009132,0.3410810810810811,0.5064808021521154,0.6252747252747253,0.4432296047098402,1197.0
626.0,1.7109254294291103e+18,0.47389033942558745,0.4166666666666667,0.3335135135135135,0.5006113964294449,0.6318681318681318,0.4482758620689655,1197.0
627.0,1.7109254294391107e+18,0.4765013054830287,0.4178082191780822,0.34216216216216216,0.5025678650036683,0.6208791208791209,0.4465937762825904,1194.0
628.0,1.710925429449113e+18,0.47780678851174935,0.4223744292237443,0.3372972972972973,0.4798239178283199,0.6241758241758242,0.4280908326324643,1194.0
629.0,1.7109254294591114e+18,0.4765013054830287,0.4155251141552511,0.3410810810810811,0.5062362435803375,0.6142857142857143,0.4247266610597141,1195.0
630.0,1.710925429469112e+18,0.47127937336814624,0.4155251141552511,0.3318918918918919,0.5011005135730008,0.6285714285714286,0.43986543313709,1194.0
631.0,1.7109254294791242e+18,0.47780678851174935,0.4132420091324201,0.3372972972972973,0.5020787478601125,0.610989010989011,0.44238856181665265,1196.0
632.0,1.710925429489125e+18,0.47389033942558745,0.410958904109589,0.3286486486486486,0.5003668378576669,0.6274725274725275,0.4348191757779647,1194.0
633.0,1.7109254294991194e+18,0.4765013054830287,0.4143835616438356,0.34,0.49082905355832723,0.6230769230769231,0.4465937762825904,1195.0
634.0,1.7109254295091185e+18,0.46736292428198434,0.4063926940639269,0.32972972972972975,0.5064808021521154,0.6274725274725275,0.44070647603027757,1197.0
635.0,1.7109254295191345e+18,0.47127937336814624,0.410958904109589,0.3372972972972973,0.5133284421618978,0.6186813186813187,0.4373423044575273,1196.0
636.0,1.7109254295291226e+18,0.47780678851174935,0.4155251141552511,0.33297297297297296,0.504035216434336,0.6472527472527473,0.4415475189234651,1196.0
637.0,1.710925429539119e+18,0.47127937336814624,0.4155251141552511,0.34054054054054056,0.5057471264367817,0.6131868131868132,0.432296047098402,1192.0
638.0,1.7109254295491118e+18,0.4725848563968668,0.4155251141552511,0.3291891891891892,0.5084372707263389,0.6362637362637362,0.4121110176619008,1194.0
639.0,1.7109254295591094e+18,0.47127937336814624,0.4143835616438356,0.3362162162162162,0.4991440449987772,0.6153846153846154,0.4381833473507149,1197.0
640.0,1.710925429569113e+18,0.47127937336814624,0.410958904109589,0.3291891891891892,0.5096600635852286,0.6527472527472528,0.4373423044575273,1197.0
641.0,1.7109254295791155e+18,0.4660574412532637,0.4132420091324201,0.3372972972972973,0.5130838835901198,0.6373626373626373,0.43902439024390244,1197.0
642.0,1.7109254295891195e+18,0.47780678851174935,0.4189497716894977,0.3372972972972973,0.5147957935925654,0.6384615384615384,0.432296047098402,1192.0
643.0,1.710925429599112e+18,0.47127937336814624,0.4052511415525114,0.33513513513513515,0.5059916850085595,0.6164835164835165,0.4348191757779647,1195.0
644.0,1.7109254296091126e+18,0.4765013054830287,0.4143835616438356,0.3302702702702703,0.4954756664221081,0.621978021978022,0.4289318755256518,1191.0
645.0,1.7109254296191252e+18,0.4765013054830287,0.4121004566210046,0.34216216216216216,0.5062362435803375,0.621978021978022,0.4373423044575273,1195.0
646.0,1.7109254296291443e+18,0.4765013054830287,0.4166666666666667,0.33405405405405403,0.5086818292981169,0.6505494505494506,0.4432296047098402,1196.0
647.0,1.710925429639108e+18,0.47389033942558745,0.4178082191780822,0.34054054054054056,0.48080215211543165,0.6142857142857143,0.4432296047098402,1193.0
648.0,1.7109254296491075e+18,0.47389033942558745,0.4143835616438356,0.3324324324324324,0.5047688921496698,0.6373626373626373,0.43566021867115223,1198.0
649.0,1.7109254296591089e+18,0.47127937336814624,0.4178082191780822,0.3372972972972973,0.5008559550012228,0.6186813186813187,0.45164003364171573,1196.0
650.0,1.7109254296691082e+18,0.47127937336814624,0.4121004566210046,0.33135135135135135,0.4991440449987772,0.6054945054945055,0.4280908326324643,1193.0
651.0,1.7109254296791342e+18,0.4725848563968668,0.410958904109589,0.3335135135135135,0.504035216434336,0.6307692307692307,0.4348191757779647,1197.0
652.0,1.7109254296891172e+18,0.47389033942558745,0.4178082191780822,0.3302702702702703,0.5035460992907801,0.6417582417582418,0.43566021867115223,1198.0
653.0,1.7109254296991168e+18,0.4765013054830287,0.410958904109589,0.33405405405405403,0.5001222792858889,0.621978021978022,0.43986543313709,1196.0
654.0,1.7109254297091139e+18,0.47389033942558745,0.408675799086758,0.3302702702702703,0.5025678650036683,0.6362637362637362,0.4381833473507149,1196.0
655.0,1.7109254297191168e+18,0.4765013054830287,0.4132420091324201,0.34054054054054056,0.5064808021521154,0.6164835164835165,0.4415475189234651,1197.0
656.0,1.7109254297291274e+18,0.47780678851174935,0.4178082191780822,0.32972972972972975,0.49816581071166544,0.6406593406593407,0.4449116904962153,1193.0
657.0,1.7109254297391158e+18,0.47780678851174935,0.4143835616438356,0.33675675675675676,0.48789435069699194,0.6098901098901099,0.43650126156433977,1197.0
658.0,1.7109254297491146e+18,0.47127937336814624,0.410958904109589,0.3302702702702703,0.5025678650036683,0.6285714285714286,0.4381833473507149,1196.0
659.0,1.7109254297591153e+18,0.4660574412532637,0.410958904109589,0.33513513513513515,0.49645390070921985,0.6065934065934065,0.4348191757779647,1194.0
660.0,1.7109254297691162e+18,0.48172323759791125,0.4143835616438356,0.3324324324324324,0.5008559550012228,0.6274725274725275,0.4373423044575273,1195.0
661.0,1.7109254297791117e+18,0.47127937336814624,0.4121004566210046,0.3362162162162162,0.5028124235754463,0.6208791208791209,0.44238856181665265,1196.0
662.0,1.710925429789142e+18,0.47780678851174935,0.4178082191780822,0.3362162162162162,0.4900953778429934,0.6329670329670329,0.4415475189234651,1194.0
663.0,1.710925429799113e+18,0.47780678851174935,0.4143835616438356,0.3372972972972973,0.5086818292981169,0.6296703296703297,0.4440706476030278,1198.0
664.0,1.710925429809117e+18,0.47911227154047,0.4178082191780822,0.33513513513513515,0.5006113964294449,0.6351648351648351,0.43313708999158956,1193.0
665.0,1.7109254298191347e+18,0.47389033942558745,0.4098173515981735,0.3362162162162162,0.512350207874786,0.6307692307692307,0.4415475189234651,1195.0
666.0,1.7109254298291187e+18,0.47127937336814624,0.410958904109589,0.3324324324324324,0.5096600635852286,0.6186813186813187,0.4280908326324643,1193.0
667.0,1.7109254298391194e+18,0.47780678851174935,0.4098173515981735,0.33513513513513515,0.5077035950110051,0.6230769230769231,0.432296047098402,1193.0
668.0,1.7109254298491144e+18,0.46866840731070497,0.408675799086758,0.3302702702702703,0.48520420640743456,0.6241758241758242,0.4306139613120269,1194.0
669.0,1.7109254298591122e+18,0.47127937336814624,0.4121004566210046,0.33837837837837836,0.5067253607238934,0.6208791208791209,0.4415475189234651,1197.0
670.0,1.7109254298691123e+18,0.4699738903394256,0.408675799086758,0.3308108108108108,0.5003668378576669,0.6098901098901099,0.4348191757779647,1198.0
671.0,1.7109254298791135e+18,0.4765013054830287,0.4178082191780822,0.33675675675675676,0.504035216434336,0.6054945054945055,0.4432296047098402,1196.0
672.0,1.7109254298891177e+18,0.4725848563968668,0.4121004566210046,0.32756756756756755,0.4856933235509905,0.5978021978021978,0.41715727502102606,1193.0
673.0,1.7109254298991306e+18,0.4765013054830287,0.4143835616438356,0.3410810810810811,0.5059916850085595,0.6274725274725275,0.4415475189234651,1196.0
674.0,1.710925429909121e+18,0.46736292428198434,0.4098173515981735,0.33135135135135135,0.4986549278552213,0.6274725274725275,0.4415475189234651,1196.0
675.0,1.710925429919144e+18,0.4765013054830287,0.4143835616438356,0.3345945945945946,0.5001222792858889,0.6208791208791209,0.4432296047098402,1196.0
676.0,1.7109254299291233e+18,0.4765013054830287,0.4178082191780822,0.33513513513513515,0.5077035950110051,0.6362637362637362,0.43566021867115223,1196.0
677.0,1.710925429939125e+18,0.47389033942558745,0.4121004566210046,0.34162162162162163,0.5057471264367817,0.6197802197802198,0.4449116904962153,1194.0
678.0,1.7109254299491338e+18,0.4725848563968668,0.4178082191780822,0.33405405405405403,0.49816581071166544,0.6285714285714286,0.44575273338940286,1193.0
679.0,1.710925429959131e+18,0.48172323759791125,0.4178082191780822,0.34216216216216216,0.5055025678650037,0.6208791208791209,0.432296047098402,1194.0
680.0,1.7109254299691333e+18,0.4660574412532637,0.4052511415525114,0.32756756756756755,0.499877720714111,0.6208791208791209,0.4339781328847771,1192.0
681.0,1.7109254299791352e+18,0.4765013054830287,0.410958904109589,0.3362162162162162,0.5047688921496698,0.6164835164835165,0.43986543313709,1195.0
682.0,1.7109254299891323e+18,0.47127937336814624,0.4132420091324201,0.3291891891891892,0.49816581071166544,0.6208791208791209,0.43650126156433977,1195.0
683.0,1.7109254299991342e+18,0.46866840731070497,0.408675799086758,0.33405405405405403,0.5015896307165566,0.6208791208791209,0.4751892346509672,1197.0
684.0,1.710925430009135e+18,0.4751958224543081,0.4178082191780822,0.3324324324324324,0.48618244069454636,0.6230769230769231,0.4415475189234651,1195.0
685.0,1.710925430019134e+18,0.4765013054830287,0.410958904109589,0.33405405405405403,0.49474199070677427,0.6120879120879121,0.45164003364171573,1195.0
686.0,1.710925430029136e+18,0.4699738903394256,0.4121004566210046,0.3308108108108108,0.49767669356810956,0.6263736263736264,0.4306139613120269,1193.0
687.0,1.7109254300391352e+18,0.47389033942558745,0.4155251141552511,0.33675675675675676,0.5067253607238934,0.6098901098901099,0.4449116904962153,1195.0
688.0,1.7109254300491525e+18,0.4765013054830287,0.4132420091324201,0.33297297297297296,0.5103937393005625,0.6351648351648351,0.44070647603027757,1196.0
689.0,1.710925430059136e+18,0.4725848563968668,0.4132420091324201,0.33837837837837836,0.5096600635852286,0.621978021978022,0.4440706476030278,1197.0
690.0,1.7109254300691366e+18,0.47127937336814624,0.410958904109589,0.32972972972972975,0.5018341892883346,0.6318681318681318,0.4373423044575273,1197.0
691.0,1.7109254300791406e+18,0.47780678851174935,0.4178082191780822,0.33837837837837836,0.5113719735876743,0.621978021978022,0.4465937762825904,1196.0
692.0,1.7109254300891412e+18,0.47389033942558745,0.4121004566210046,0.3324324324324324,0.5030569821472243,0.6428571428571429,0.42977291841883936,1194.0
693.0,1.7109254300991421e+18,0.4725848563968668,0.4178082191780822,0.3427027027027027,0.5020787478601125,0.6208791208791209,0.4533221194280908,1196.0
694.0,1.7109254301091187e+18,0.4725848563968668,0.4121004566210046,0.32972972972972975,0.504524333577892,0.6142857142857143,0.4339781328847771,1193.0
695.0,1.7109254301191263e+18,0.47389033942558745,0.408675799086758,0.32972972972972975,0.4991440449987772,0.6076923076923076,0.4381833473507149,1196.0
696.0,1.7109254301291164e+18,0.47127937336814624,0.4178082191780822,0.33675675675675676,0.5064808021521154,0.6406593406593407,0.43313708999158956,1191.0
697.0,1.7109254301391534e+18,0.47911227154047,0.4189497716894977,0.33837837837837836,0.49474199070677427,0.6175824175824176,0.44575273338940286,1197.0
698.0,1.7109254301491382e+18,0.4765013054830287,0.4155251141552511,0.3308108108108108,0.49082905355832723,0.6296703296703297,0.42640874684608915,1194.0
699.0,1.710925430159117e+18,0.4765013054830287,0.4132420091324201,0.33675675675675676,0.5077035950110051,0.6252747252747253,0.4465937762825904,1198.0
700.0,1.7109254301691791e+18,0.4765013054830287,0.4132420091324201,0.3308108108108108,0.5008559550012228,0.6329670329670329,0.4348191757779647,1197.0
701.0,1.7109254301791365e+18,0.47127937336814624,0.4121004566210046,0.3362162162162162,0.49498654927855223,0.5978021978021978,0.4289318755256518,1195.0
702.0,1.7109254301891008e+18,0.4699738903394256,0.4121004566210046,0.3302702702702703,0.5023233064318905,0.6263736263736264,0.447434819175778,1199.0
703.0,1.7109254301991327e+18,0.47911227154047,0.4143835616438356,0.33675675675675676,0.5055025678650037,0.6175824175824176,0.45164003364171573,1196.0
704.0,1.7109254302091092e+18,0.4765013054830287,0.4155251141552511,0.3345945945945946,0.5055025678650037,0.6461538461538462,0.4482758620689655,1195.0
705.0,1.7109254302191135e+18,0.47127937336814624,0.410958904109589,0.3389189189189189,0.5069699192956714,0.6164835164835165,0.4373423044575273,1196.0
706.0,1.710925430229112e+18,0.4765013054830287,0.4143835616438356,0.33297297297297296,0.5003668378576669,0.6362637362637362,0.43986543313709,1199.0
707.0,1.7109254302391173e+18,0.48172323759791125,0.4189497716894977,0.34324324324324323,0.4969430178527757,0.6131868131868132,0.45500420521446594,1197.0
708.0,1.7109254302491167e+18,0.4751958224543081,0.408675799086758,0.3286486486486486,0.5015896307165566,0.6384615384615384,0.43986543313709,1198.0
709.0,1.710925430259115e+18,0.4725848563968668,0.4132420091324201,0.3372972972972973,0.5030569821472243,0.6142857142857143,0.43650126156433977,1197.0
710.0,1.7109254302691156e+18,0.47127937336814624,0.4132420091324201,0.3302702702702703,0.4974321349963316,0.6329670329670329,0.41968040370058873,1196.0
711.0,1.7109254302791178e+18,0.4765013054830287,0.4143835616438356,0.33837837837837836,0.5020787478601125,0.6087912087912087,0.4432296047098402,1196.0
712.0,1.7109254302891036e+18,0.4804177545691906,0.4246575342465753,0.33783783783783783,0.5094155050134507,0.6384615384615384,0.4558452481076535,1196.0
713.0,1.7109254302991165e+18,0.47127937336814624,0.4178082191780822,0.33783783783783783,0.5074590364392272,0.6230769230769231,0.43902439024390244,1196.0
714.0,1.7109254303091123e+18,0.46736292428198434,0.410958904109589,0.32972972972972975,0.4937637564196625,0.6208791208791209,0.4306139613120269,1195.0
715.0,1.710925430319112e+18,0.48172323759791125,0.410958904109589,0.33837837837837836,0.5055025678650037,0.6197802197802198,0.4693019343986543,1200.0
716.0,1.7109254303291116e+18,0.4765013054830287,0.4178082191780822,0.33513513513513515,0.5086818292981169,0.6428571428571429,0.4381833473507149,1196.0
717.0,1.71092543033912e+18,0.4699738903394256,0.4132420091324201,0.33945945945945943,0.5074590364392272,0.6208791208791209,0.4163162321278385,1194.0
718.0,1.7109254303491167e+18,0.47911227154047,0.4178082191780822,0.33405405405405403,0.4937637564196625,0.6285714285714286,0.4432296047098402,1195.0
719.0,1.7109254303591048e+18,0.4725848563968668,0.4143835616438356,0.33837837837837836,0.5072144778674492,0.6307692307692307,0.4558452481076535,1196.0
720.0,1.7109254303691154e+18,0.46866840731070497,0.4075342465753425,0.3281081081081081,0.4942528735632184,0.6142857142857143,0.4339781328847771,1193.0
721.0,1.7109254303791299e+18,0.48172323759791125,0.4189497716894977,0.34054054054054056,0.5074590364392272,0.6362637362637362,0.4499579478553406,1197.0
722.0,1.7109254303891123e+18,0.4765013054830287,0.4166666666666667,0.3291891891891892,0.5008559550012228,0.6318681318681318,0.46509671993271656,1197.0
723.0,1.7109254303991227e+18,0.47911227154047,0.4189497716894977,0.3427027027027027,0.4944974321349963,0.6043956043956044,0.47098402018502944,1197.0
724.0,1.710925430409117e+18,0.46736292428198434,0.410958904109589,0.32594594594594595,0.4969430178527757,0.6142857142857143,0.456686291000841,1196.0
725.0,1.710925430419115e+18,0.4751958224543081,0.4178082191780822,0.3362162162162162,0.5028124235754463,0.621978021978022,0.44238856181665265,1196.0
726.0,1.7109254304291192e+18,0.47389033942558745,0.4132420091324201,0.3291891891891892,0.5020787478601125,0.6296703296703297,0.43566021867115223,1196.0
727.0,1.7109254304391137e+18,0.47911227154047,0.4178082191780822,0.33945945945945943,0.5069699192956714,0.6208791208791209,0.4449116904962153,1196.0
728.0,1.7109254304491156e+18,0.47127937336814624,0.408675799086758,0.3291891891891892,0.5025678650036683,0.6274725274725275,0.43986543313709,1197.0
729.0,1.7109254304591145e+18,0.4830287206266319,0.4235159817351598,0.34324324324324323,0.5015896307165566,0.6208791208791209,0.4272497897392767,1193.0
730.0,1.7109254304691095e+18,0.4765013054830287,0.4178082191780822,0.33297297297297296,0.5050134507214478,0.6461538461538462,0.40454163162321277,1194.0
731.0,1.7109254304791153e+18,0.4725848563968668,0.4098173515981735,0.33405405405405403,0.5023233064318905,0.6142857142857143,0.4348191757779647,1195.0
732.0,1.7109254304891415e+18,0.47389033942558745,0.4155251141552511,0.33297297297297296,0.495720224993886,0.6252747252747253,0.4449116904962153,1197.0
733.0,1.7109254304991165e+18,0.4765013054830287,0.4121004566210046,0.33675675675675676,0.5028124235754463,0.6274725274725275,0.44070647603027757,1197.0
734.0,1.7109254305091197e+18,0.4869451697127937,0.410958904109589,0.32972972972972975,0.5013450721447786,0.634065934065934,0.44575273338940286,1197.0
735.0,1.710925430519114e+18,0.47389033942558745,0.4178082191780822,0.33783783783783783,0.4888725849841037,0.6098901098901099,0.45248107653490327,1195.0
736.0,1.7109254305291185e+18,0.47127937336814624,0.4246575342465753,0.32972972972972975,0.49205184641721694,0.6274725274725275,0.44575273338940286,1194.0
737.0,1.7109254305391176e+18,0.4725848563968668,0.4178082191780822,0.34054054054054056,0.5084372707263389,0.6318681318681318,0.4348191757779647,1193.0
738.0,1.7109254305491208e+18,0.5039164490861618,0.4280821917808219,0.34,0.499877720714111,0.6010989010989011,0.41042893187552565,1196.0
739.0,1.7109254305591163e+18,0.47780678851174935,0.4178082191780822,0.33783783783783783,0.48691611640988014,0.6197802197802198,0.4095878889823381,1194.0
740.0,1.7109254305691205e+18,0.47389033942558745,0.4132420091324201,0.33297297297297296,0.5015896307165566,0.6274725274725275,0.43566021867115223,1197.0
741.0,1.7109254305791178e+18,0.4765013054830287,0.4132420091324201,0.34054054054054056,0.49229640498899485,0.6098901098901099,0.44575273338940286,1198.0
742.0,1.7109254305891118e+18,0.48172323759791125,0.4223744292237443,0.34162162162162163,0.5079481535827831,0.6516483516483517,0.4499579478553406,1194.0
743.0,1.7109254305991153e+18,0.46866840731070497,0.4041095890410959,0.3345945945945946,0.5057471264367817,0.6175824175824176,0.45164003364171573,1198.0
744.0,1.7109254306091146e+18,0.4725848563968668,0.4178082191780822,0.3362162162162162,0.5055025678650037,0.6329670329670329,0.42977291841883936,1192.0
745.0,1.7109254306191199e+18,0.4751958224543081,0.4178082191780822,0.33837837837837836,0.5074590364392272,0.6274725274725275,0.4482758620689655,1196.0
746.0,1.7109254306291156e+18,0.4765013054830287,0.410958904109589,0.32756756756756755,0.4771337735387625,0.6098901098901099,0.43566021867115223,1199.0
747.0,1.710925430639137e+18,0.4725848563968668,0.4155251141552511,0.3356756756756757,0.5028124235754463,0.6153846153846154,0.447434819175778,1197.0
748.0,1.7109254306491139e+18,0.4725848563968668,0.4098173515981735,0.3286486486486486,0.5035460992907801,0.6197802197802198,0.43650126156433977,1197.0
749.0,1.710925430659119e+18,0.47389033942558745,0.4132420091324201,0.33837837837837836,0.5030569821472243,0.6120879120879121,0.4482758620689655,1196.0
750.0,1.7109254306691246e+18,0.4765013054830287,0.4143835616438356,0.3302702702702703,0.504035216434336,0.6362637362637362,0.44575273338940286,1198.0
751.0,1.7109254306791196e+18,0.4765013054830287,0.410958904109589,0.33513513513513515,0.5059916850085595,0.610989010989011,0.4415475189234651,1196.0
752.0,1.7109254306891164e+18,0.47389033942558745,0.4143835616438356,0.33405405405405403,0.49938860357055515,0.6285714285714286,0.43650126156433977,1196.0
753.0,1.7109254306991155e+18,0.47780678851174935,0.4155251141552511,0.33783783783783783,0.4937637564196625,0.610989010989011,0.456686291000841,1195.0
754.0,1.710925430709111e+18,0.4765013054830287,0.410958904109589,0.3324324324324324,0.5035460992907801,0.6142857142857143,0.4314550042052145,1193.0
755.0,1.7109254307191137e+18,0.47389033942558745,0.4155251141552511,0.34162162162162163,0.5086818292981169,0.6175824175824176,0.43902439024390244,1195.0
756.0,1.7109254307291136e+18,0.47127937336814624,0.410958904109589,0.32594594594594595,0.5006113964294449,0.6120879120879121,0.43650126156433977,1195.0
757.0,1.7109254307391278e+18,0.47780678851174935,0.4143835616438356,0.3389189189189189,0.5059916850085595,0.6329670329670329,0.4339781328847771,1194.0
758.0,1.7109254307491075e+18,0.4804177545691906,0.4189497716894977,0.33837837837837836,0.5079481535827831,0.6406593406593407,0.43566021867115223,1197.0
759.0,1.7109254307591117e+18,0.47389033942558745,0.4121004566210046,0.33513513513513515,0.49474199070677427,0.6098901098901099,0.4625735912531539,1195.0
760.0,1.7109254307691154e+18,0.46866840731070497,0.410958904109589,0.33297297297297296,0.5035460992907801,0.6296703296703297,0.4348191757779647,1198.0
761.0,1.7109254307791613e+18,0.4725848563968668,0.4121004566210046,0.3362162162162162,0.4847150892638787,0.5945054945054945,0.4415475189234651,1196.0
762.0,1.7109254307891372e+18,0.47127937336814624,0.4178082191780822,0.33675675675675676,0.5057471264367817,0.6406593406593407,0.4381833473507149,1196.0
763.0,1.7109254307991153e+18,0.47127937336814624,0.408675799086758,0.3372972972972973,0.5015896307165566,0.6043956043956044,0.4381833473507149,1199.0
764.0,1.710925430809122e+18,0.47389033942558745,0.4132420091324201,0.32756756756756755,0.4800684764000978,0.6274725274725275,0.45500420521446594,1199.0
765.0,1.7109254308191176e+18,0.47127937336814624,0.410958904109589,0.33405405405405403,0.5020787478601125,0.6175824175824176,0.43902439024390244,1195.0
766.0,1.7109254308291151e+18,0.47389033942558745,0.4178082191780822,0.33405405405405403,0.5008559550012228,0.6274725274725275,0.43313708999158956,1194.0
767.0,1.7109254308391227e+18,0.47780678851174935,0.4143835616438356,0.34162162162162163,0.5057471264367817,0.6208791208791209,0.44070647603027757,1198.0
768.0,1.710925430849118e+18,0.47127937336814624,0.4132420091324201,0.3302702702702703,0.5028124235754463,0.6318681318681318,0.43313708999158956,1198.0
769.0,1.710925430859111e+18,0.4725848563968668,0.4098173515981735,0.3345945945945946,0.5006113964294449,0.6098901098901099,0.4440706476030278,1197.0
770.0,1.710925430869118e+18,0.47911227154047,0.4200913242009132,0.33837837837837836,0.5028124235754463,0.634065934065934,0.43650126156433977,1195.0
771.0,1.7109254308791352e+18,0.4765013054830287,0.4132420091324201,0.3362162162162162,0.4944974321349963,0.6010989010989011,0.42977291841883936,1194.0
772.0,1.7109254308891164e+18,0.47127937336814624,0.4132420091324201,0.33135135135135135,0.5001222792858889,0.6373626373626373,0.4415475189234651,1198.0
773.0,1.7109254308991155e+18,0.47127937336814624,0.4075342465753425,0.3324324324324324,0.49767669356810956,0.6065934065934065,0.43566021867115223,1197.0
774.0,1.7109254309091123e+18,0.4751958224543081,0.4143835616438356,0.3286486486486486,0.4971875764245537,0.6472527472527473,0.4432296047098402,1198.0
775.0,1.710925430919116e+18,0.4725848563968668,0.410958904109589,0.33405405405405403,0.5077035950110051,0.6241758241758242,0.4095878889823381,1196.0
776.0,1.710925430929115e+18,0.4699738903394256,0.4155251141552511,0.3302702702702703,0.4937637564196625,0.6384615384615384,0.44070647603027757,1195.0
777.0,1.7109254309391314e+18,0.47127937336814624,0.4132420091324201,0.3389189189189189,0.5006113964294449,0.6241758241758242,0.4381833473507149,1196.0
778.0,1.7109254309491156e+18,0.47389033942558745,0.4155251141552511,0.33675675675675676,0.5101491807287846,0.6494505494505495,0.4306139613120269,1195.0
779.0,1.710925430959116e+18,0.4765013054830287,0.4212328767123288,0.34324324324324323,0.5130838835901198,0.6153846153846154,0.44070647603027757,1197.0
780.0,1.7109254309691156e+18,0.4765013054830287,0.4155251141552511,0.33135135135135135,0.5047688921496698,0.6417582417582418,0.4381833473507149,1197.0
781.0,1.710925430979117e+18,0.4725848563968668,0.4178082191780822,0.3389189189189189,0.4969430178527757,0.6120879120879121,0.4415475189234651,1195.0
782.0,1.7109254309891167e+18,0.4830287206266319,0.4200913242009132,0.33675675675675676,0.49938860357055515,0.6373626373626373,0.4432296047098402,1196.0
783.0,1.7109254309991186e+18,0.47389033942558745,0.4189497716894977,0.34054054054054056,0.5025678650036683,0.6120879120879121,0.42640874684608915,1195.0
784.0,1.7109254310091162e+18,0.4765013054830287,0.4155251141552511,0.3324324324324324,0.49767669356810956,0.6296703296703297,0.4339781328847771,1193.0
785.0,1.710925431019111e+18,0.48433420365535246,0.4155251141552511,0.3362162162162162,0.4991440449987772,0.6065934065934065,0.44575273338940286,1196.0
786.0,1.7109254310291108e+18,0.4765013054830287,0.4132420091324201,0.32972972972972975,0.5013450721447786,0.6230769230769231,0.42640874684608915,1194.0
787.0,1.7109254310391117e+18,0.4725848563968668,0.4132420091324201,0.3362162162162162,0.5023233064318905,0.6098901098901099,0.4373423044575273,1197.0
788.0,1.7109254310491123e+18,0.4765013054830287,0.4178082191780822,0.3308108108108108,0.5008559550012228,0.6208791208791209,0.4339781328847771,1195.0
789.0,1.7109254310591214e+18,0.4725848563968668,0.4075342465753425,0.3356756756756757,0.5028124235754463,0.621978021978022,0.44575273338940286,1195.0
790.0,1.7109254310691128e+18,0.4725848563968668,0.4178082191780822,0.3302702702702703,0.49523110785033014,0.6208791208791209,0.4339781328847771,1192.0
791.0,1.7109254310791296e+18,0.47389033942558745,0.4178082191780822,0.34054054054054056,0.49033993641477136,0.6153846153846154,0.4465937762825904,1196.0
792.0,1.710925431089116e+18,0.47127937336814624,0.4132420091324201,0.3308108108108108,0.5020787478601125,0.6230769230769231,0.432296047098402,1193.0
793.0,1.7109254310991224e+18,0.4725848563968668,0.4132420091324201,0.33783783783783783,0.4896062606994375,0.5945054945054945,0.43650126156433977,1196.0
794.0,1.7109254311091098e+18,0.4725848563968668,0.410958904109589,0.3291891891891892,0.5023233064318905,0.6197802197802198,0.43902439024390244,1197.0
795.0,1.7109254311191153e+18,0.4725848563968668,0.408675799086758,0.3356756756756757,0.495720224993886,0.6098901098901099,0.43650126156433977,1197.0
796.0,1.7109254311291103e+18,0.47127937336814624,0.410958904109589,0.3335135135135135,0.5028124235754463,0.6296703296703297,0.43313708999158956,1196.0
797.0,1.7109254311391096e+18,0.47389033942558745,0.4098173515981735,0.3308108108108108,0.5057471264367817,0.6274725274725275,0.44238856181665265,1200.0
798.0,1.7109254311491123e+18,0.4765013054830287,0.4189497716894977,0.3345945945945946,0.5001222792858889,0.634065934065934,0.4306139613120269,1194.0
799.0,1.7109254311591186e+18,0.47780678851174935,0.4155251141552511,0.34054054054054056,0.5101491807287846,0.6373626373626373,0.4339781328847771,1194.0
800.0,1.7109254311691144e+18,0.4725848563968668,0.4143835616438356,0.3308108108108108,0.5006113964294449,0.6406593406593407,0.43986543313709,1195.0
801.0,1.7109254311791165e+18,0.47780678851174935,0.4189497716894977,0.34162162162162163,0.5003668378576669,0.6186813186813187,0.43986543313709,1195.0
802.0,1.7109254311891162e+18,0.47389033942558745,0.4132420091324201,0.3302702702702703,0.5020787478601125,0.6296703296703297,0.4348191757779647,1196.0
803.0,1.7109254311991716e+18,0.4725848563968668,0.4155251141552511,0.34054054054054056,0.5023233064318905,0.6164835164835165,0.4415475189234651,1197.0
804.0,1.7109254312091075e+18,0.4765013054830287,0.4132420091324201,0.3302702702702703,0.5001222792858889,0.6318681318681318,0.43650126156433977,1195.0
805.0,1.710925431219133e+18,0.4765013054830287,0.4155251141552511,0.3372972972972973,0.5074590364392272,0.6197802197802198,0.4020185029436501,1193.0
806.0,1.7109254312291192e+18,0.4869451697127937,0.4280821917808219,0.34162162162162163,0.5079481535827831,0.6450549450549451,0.4558452481076535,1195.0
807.0,1.7109254312391037e+18,0.48172323759791125,0.4212328767123288,0.34540540540540543,0.5079481535827831,0.6098901098901099,0.4306139613120269,1194.0
808.0,1.710925431249172e+18,0.47780678851174935,0.4223744292237443,0.3389189189189189,0.4979212521398875,0.6098901098901099,0.4373423044575273,1198.0
809.0,1.7109254312591327e+18,0.4830287206266319,0.4212328767123288,0.34162162162162163,0.5059916850085595,0.621978021978022,0.4432296047098402,1197.0
810.0,1.7109254312691244e+18,0.4725848563968668,0.4143835616438356,0.33405405405405403,0.504279775006114,0.6362637362637362,0.4087468460891506,1193.0
811.0,1.710925431279132e+18,0.46736292428198434,0.4075342465753425,0.33405405405405403,0.495964783565664,0.6120879120879121,0.4415475189234651,1196.0
812.0,1.7109254312891308e+18,0.47127937336814624,0.4121004566210046,0.3302702702702703,0.49816581071166544,0.6186813186813187,0.44238856181665265,1198.0
813.0,1.710925431299133e+18,0.47780678851174935,0.410958904109589,0.33513513513513515,0.499877720714111,0.6274725274725275,0.43986543313709,1196.0
814.0,1.7109254313091256e+18,0.47127937336814624,0.4132420091324201,0.32972972972972975,0.5015896307165566,0.6285714285714286,0.43650126156433977,1197.0
815.0,1.7109254313191158e+18,0.46866840731070497,0.4155251141552511,0.33837837837837836,0.48911714355588165,0.5978021978021978,0.42640874684608915,1196.0
816.0,1.710925431329116e+18,0.46866840731070497,0.4132420091324201,0.33297297297297296,0.504524333577892,0.6406593406593407,0.432296047098402,1191.0
817.0,1.710925431339116e+18,0.47389033942558745,0.4143835616438356,0.3345945945945946,0.4930300807043287,0.5956043956043956,0.4306139613120269,1193.0
818.0,1.7109254313491313e+18,0.47780678851174935,0.410958904109589,0.33135135135135135,0.5035460992907801,0.6406593406593407,0.44575273338940286,1195.0
819.0,1.7109254313591324e+18,0.4699738903394256,0.4155251141552511,0.34054054054054056,0.5140621178772316,0.6241758241758242,0.4440706476030278,1197.0
820.0,1.710925431369136e+18,0.4765013054830287,0.4189497716894977,0.33513513513513515,0.5030569821472243,0.6450549450549451,0.4381833473507149,1194.0
821.0,1.71092543137912e+18,0.47389033942558745,0.4075342465753425,0.33675675675675676,0.4913181707018831,0.6175824175824176,0.4373423044575273,1195.0
822.0,1.710925431389121e+18,0.4725848563968668,0.4075342465753425,0.3286486486486486,0.4988994864269993,0.6274725274725275,0.4306139613120269,1195.0
823.0,1.7109254313991258e+18,0.4765013054830287,0.410958904109589,0.3362162162162162,0.5118610907312301,0.6263736263736264,0.4449116904962153,1197.0
824.0,1.71092543140911e+18,0.47780678851174935,0.4178082191780822,0.33297297297297296,0.4900953778429934,0.6307692307692307,0.43902439024390244,1195.0
825.0,1.7109254314191158e+18,0.47127937336814624,0.4178082191780822,0.3356756756756757,0.49767669356810956,0.6230769230769231,0.4465937762825904,1197.0
826.0,1.7109254314291136e+18,0.4699738903394256,0.4098173515981735,0.32756756756756755,0.4991440449987772,0.6329670329670329,0.4415475189234651,1196.0
827.0,1.7109254314391137e+18,0.47127937336814624,0.4098173515981735,0.3372972972972973,0.5094155050134507,0.6230769230769231,0.4465937762825904,1195.0
828.0,1.710925431449134e+18,0.4765013054830287,0.4178082191780822,0.3372972972972973,0.5069699192956714,0.634065934065934,0.43650126156433977,1197.0
829.0,1.7109254314591112e+18,0.47127937336814624,0.4075342465753425,0.3362162162162162,0.499877720714111,0.5967032967032967,0.43313708999158956,1193.0
830.0,1.7109254314691082e+18,0.47127937336814624,0.410958904109589,0.327027027027027,0.49400831499144043,0.6406593406593407,0.43566021867115223,1195.0
831.0,1.710925431479116e+18,0.4804177545691906,0.4155251141552511,0.33513513513513515,0.5015896307165566,0.6142857142857143,0.456686291000841,1197.0
832.0,1.7109254314891187e+18,0.4725848563968668,0.4121004566210046,0.3281081081081081,0.5028124235754463,0.6406593406593407,0.4373423044575273,1197.0
833.0,1.7109254314991457e+18,0.4725848563968668,0.4178082191780822,0.3389189189189189,0.5025678650036683,0.6230769230769231,0.3885618166526493,1194.0
834.0,1.7109254315091238e+18,0.46866840731070497,0.4121004566210046,0.32594594594594595,0.5015896307165566,0.6318681318681318,0.4415475189234651,1194.0
835.0,1.7109254315191194e+18,0.4765013054830287,0.4166666666666667,0.3362162162162162,0.49327463927610665,0.6153846153846154,0.43986543313709,1198.0
836.0,1.710925431529115e+18,0.4751958224543081,0.4132420091324201,0.33297297297297296,0.5072144778674492,0.6417582417582418,0.4415475189234651,1195.0
837.0,1.7109254315391178e+18,0.48172323759791125,0.4178082191780822,0.33783783783783783,0.5064808021521154,0.634065934065934,0.44238856181665265,1198.0
838.0,1.7109254315491172e+18,0.4725848563968668,0.410958904109589,0.3281081081081081,0.49033993641477136,0.621978021978022,0.4179983179142136,1194.0
839.0,1.7109254315591201e+18,0.47389033942558745,0.4121004566210046,0.3362162162162162,0.4927855221325507,0.6131868131868132,0.43650126156433977,1196.0
840.0,1.710925431569118e+18,0.46866840731070497,0.410958904109589,0.3291891891891892,0.49620934213744194,0.6197802197802198,0.4381833473507149,1195.0
841.0,1.7109254315791176e+18,0.47127937336814624,0.4098173515981735,0.33837837837837836,0.4944974321349963,0.6010989010989011,0.4373423044575273,1196.0
842.0,1.7109254315891187e+18,0.4765013054830287,0.4166666666666667,0.3335135135135135,0.4988994864269993,0.6329670329670329,0.4499579478553406,1197.0
843.0,1.7109254315991245e+18,0.47780678851174935,0.4178082191780822,0.34162162162162163,0.5069699192956714,0.6263736263736264,0.4373423044575273,1194.0
844.0,1.7109254316091092e+18,0.47127937336814624,0.4098173515981735,0.32972972972972975,0.49523110785033014,0.6417582417582418,0.4348191757779647,1196.0
845.0,1.7109254316191158e+18,0.47780678851174935,0.4178082191780822,0.34162162162162163,0.5047688921496698,0.6241758241758242,0.44575273338940286,1196.0
846.0,1.7109254316291187e+18,0.4830287206266319,0.4143835616438356,0.32756756756756755,0.495720224993886,0.6296703296703297,0.43902439024390244,1197.0
847.0,1.7109254316391145e+18,0.47389033942558745,0.4143835616438356,0.3362162162162162,0.4883834678405478,0.6175824175824176,0.4381833473507149,1196.0
848.0,1.7109254316491338e+18,0.48172323759791125,0.4189497716894977,0.3318918918918919,0.49058449498654927,0.6153846153846154,0.43313708999158956,1193.0
849.0,1.7109254316590543e+18,0.47911227154047,0.4143835616438356,0.33837837837837836,0.5037906578625581,0.621978021978022,0.4255677039529016,1192.0
850.0,1.7109254316690783e+18,0.4830287206266319,0.4178082191780822,0.33297297297297296,0.495720224993886,0.6384615384615384,0.43986543313709,1195.0
851.0,1.710925431679086e+18,0.47780678851174935,0.4143835616438356,0.3356756756756757,0.5030569821472243,0.6197802197802198,0.44911690496215306,1194.0
852.0,1.710925431689115e+18,0.4765013054830287,0.4132420091324201,0.3302702702702703,0.5008559550012228,0.6274725274725275,0.4415475189234651,1196.0
853.0,1.7109254316991188e+18,0.4765013054830287,0.4189497716894977,0.34162162162162163,0.4925409635607728,0.6307692307692307,0.45164003364171573,1196.0
854.0,1.7109254317091108e+18,0.47127937336814624,0.4143835616438356,0.3281081081081081,0.4937637564196625,0.6318681318681318,0.4247266610597141,1194.0
855.0,1.7109254317191148e+18,0.4725848563968668,0.4098173515981735,0.33837837837837836,0.5047688921496698,0.6153846153846154,0.4381833473507149,1197.0
856.0,1.710925431729117e+18,0.47389033942558745,0.410958904109589,0.32972972972972975,0.5003668378576669,0.6362637362637362,0.43902439024390244,1193.0
857.0,1.7109254317391142e+18,0.47911227154047,0.4143835616438356,0.3362162162162162,0.5011005135730008,0.6164835164835165,0.4280908326324643,1193.0
858.0,1.7109254317491136e+18,0.4830287206266319,0.4155251141552511,0.3335135135135135,0.5018341892883346,0.634065934065934,0.40706476030277544,1193.0
859.0,1.7109254317591214e+18,0.4765013054830287,0.4155251141552511,0.33675675675675676,0.5101491807287846,0.6252747252747253,0.4482758620689655,1193.0
860.0,1.710925431769119e+18,0.47389033942558745,0.4143835616438356,0.3281081081081081,0.4966984592809978,0.6362637362637362,0.447434819175778,1197.0
861.0,1.7109254317791311e+18,0.47911227154047,0.4212328767123288,0.34,0.5015896307165566,0.6175824175824176,0.44238856181665265,1195.0
862.0,1.710925431789121e+18,0.47127937336814624,0.4143835616438356,0.33135135135135135,0.49620934213744194,0.6296703296703297,0.432296047098402,1192.0
863.0,1.710925431799127e+18,0.4765013054830287,0.4166666666666667,0.3389189189189189,0.5050134507214478,0.610989010989011,0.45164003364171573,1195.0
864.0,1.7109254318090962e+18,0.4751958224543081,0.4155251141552511,0.33135135135135135,0.5008559550012228,0.6373626373626373,0.4373423044575273,1195.0
865.0,1.7109254318191165e+18,0.4765013054830287,0.4178082191780822,0.34054054054054056,0.5015896307165566,0.6230769230769231,0.44238856181665265,1197.0
866.0,1.7109254318291126e+18,0.46736292428198434,0.4075342465753425,0.32756756756756755,0.49082905355832723,0.6010989010989011,0.456686291000841,1197.0
867.0,1.7109254318391237e+18,0.4725848563968668,0.4132420091324201,0.3372972972972973,0.4988994864269993,0.6131868131868132,0.43650126156433977,1196.0
868.0,1.7109254318491187e+18,0.4725848563968668,0.4155251141552511,0.33405405405405403,0.5006113964294449,0.634065934065934,0.43566021867115223,1197.0
869.0,1.7109254318590536e+18,0.47127937336814624,0.4132420091324201,0.33675675675675676,0.5033015407190022,0.6230769230769231,0.4440706476030278,1198.0
870.0,1.7109254318691604e+18,0.47389033942558745,0.4155251141552511,0.33405405405405403,0.5084372707263389,0.6428571428571429,0.43902439024390244,1194.0
871.0,1.7109254318791142e+18,0.4660574412532637,0.4052511415525114,0.3356756756756757,0.48520420640743456,0.610989010989011,0.4415475189234651,1196.0
872.0,1.7109254318891607e+18,0.46344647519582244,0.4041095890410959,0.3264864864864865,0.4984103692834434,0.6142857142857143,0.45836837678721615,1195.0
873.0,1.7109254318991194e+18,0.4765013054830287,0.4178082191780822,0.3389189189189189,0.5079481535827831,0.6164835164835165,0.43650126156433977,1196.0
874.0,1.7109254319091167e+18,0.47127937336814624,0.4178082191780822,0.3318918918918919,0.504035216434336,0.6307692307692307,0.4339781328847771,1194.0
875.0,1.710925431919162e+18,0.46866840731070497,0.4098173515981735,0.3362162162162162,0.48985081927121543,0.6021978021978022,0.41379310344827586,1192.0
876.0,1.7109254319291174e+18,0.4725848563968668,0.4155251141552511,0.33837837837837836,0.5006113964294449,0.6450549450549451,0.43902439024390244,1193.0
877.0,1.710925431939157e+18,0.4765013054830287,0.4155251141552511,0.34162162162162163,0.5089263878698949,0.6241758241758242,0.43650126156433977,1196.0
878.0,1.7109254319491569e+18,0.4725848563968668,0.4132420091324201,0.32972972972972975,0.49816581071166544,0.6142857142857143,0.43902439024390244,1195.0
879.0,1.7109254319591583e+18,0.47127937336814624,0.4178082191780822,0.33675675675675676,0.49645390070921985,0.6021978021978022,0.4238856181665265,1193.0
880.0,1.7109254319691574e+18,0.47911227154047,0.4178082191780822,0.33513513513513515,0.4927855221325507,0.6318681318681318,0.4314550042052145,1196.0
881.0,1.7109254319791583e+18,0.4765013054830287,0.4178082191780822,0.3427027027027027,0.504524333577892,0.6252747252747253,0.44575273338940286,1196.0
882.0,1.7109254319891564e+18,0.4725848563968668,0.4075342465753425,0.32756756756756755,0.48936170212765956,0.6417582417582418,0.4432296047098402,1197.0
883.0,1.710925431999158e+18,0.4751958224543081,0.4200913242009132,0.34054054054054056,0.4996331621423331,0.6164835164835165,0.4272497897392767,1192.0
884.0,1.7109254320091566e+18,0.48172323759791125,0.4143835616438356,0.3345945945945946,0.495720224993886,0.6384615384615384,0.4289318755256518,1193.0
885.0,1.7109254320191585e+18,0.4765013054830287,0.4178082191780822,0.3427027027027027,0.49400831499144043,0.621978021978022,0.4415475189234651,1198.0
886.0,1.7109254320291584e+18,0.4725848563968668,0.4121004566210046,0.32972972972972975,0.5047688921496698,0.6362637362637362,0.44238856181665265,1196.0
887.0,1.710925432039161e+18,0.4725848563968668,0.4132420091324201,0.3372972972972973,0.5094155050134507,0.6274725274725275,0.4306139613120269,1192.0
888.0,1.7109254320491592e+18,0.47389033942558745,0.4121004566210046,0.3308108108108108,0.5099046221570066,0.6483516483516484,0.4415475189234651,1194.0
889.0,1.7109254320591598e+18,0.4765013054830287,0.4132420091324201,0.33837837837837836,0.5035460992907801,0.6230769230769231,0.4432296047098402,1196.0
890.0,1.7109254320691617e+18,0.47780678851174935,0.4143835616438356,0.3324324324324324,0.5059916850085595,0.6186813186813187,0.43566021867115223,1195.0
891.0,1.7109254320791624e+18,0.4699738903394256,0.410958904109589,0.3345945945945946,0.499877720714111,0.6208791208791209,0.44238856181665265,1194.0
892.0,1.7109254320891594e+18,0.49738903394255873,0.4417808219178082,0.34054054054054056,0.5028124235754463,0.6461538461538462,0.41715727502102606,1193.0
893.0,1.7109254320991608e+18,0.46475195822454307,0.410958904109589,0.33837837837837836,0.49620934213744194,0.6142857142857143,0.43650126156433977,1195.0
894.0,1.7109254321091507e+18,0.48172323759791125,0.4246575342465753,0.3291891891891892,0.49523110785033014,0.6208791208791209,0.43313708999158956,1193.0
895.0,1.710925432119149e+18,0.489556135770235,0.4132420091324201,0.3345945945945946,0.5035460992907801,0.6076923076923076,0.415475189234651,1195.0
896.0,1.7109254321291453e+18,0.4516971279373368,0.4143835616438356,0.3324324324324324,0.4927855221325507,0.6428571428571429,0.43313708999158956,1192.0
897.0,1.7109254321391465e+18,0.4321148825065274,0.4063926940639269,0.3389189189189189,0.5018341892883346,0.6120879120879121,0.43313708999158956,1192.0
898.0,1.7109254321491448e+18,0.4595300261096606,0.4235159817351598,0.33297297297297296,0.49498654927855223,0.6043956043956044,0.4280908326324643,1193.0
899.0,1.7109254321591442e+18,0.47911227154047,0.4178082191780822,0.34486486486486484,0.49767669356810956,0.5791208791208792,0.4255677039529016,1192.0
900.0,1.710925432169144e+18,0.4765013054830287,0.4155251141552511,0.3335135135135135,0.4974321349963316,0.6241758241758242,0.4314550042052145,1192.0
901.0,1.710925432179139e+18,0.4725848563968668,0.410958904109589,0.33675675675675676,0.4979212521398875,0.6164835164835165,0.4465937762825904,1194.0
902.0,1.7109254321891412e+18,0.47780678851174935,0.4178082191780822,0.3308108108108108,0.49327463927610665,0.6329670329670329,0.4482758620689655,1196.0
903.0,1.7109254321991414e+18,0.4725848563968668,0.4143835616438356,0.33945945945945943,0.5096600635852286,0.6230769230769231,0.45164003364171573,1197.0
904.0,1.710925432209146e+18,0.47127937336814624,0.4132420091324201,0.3302702702702703,0.5069699192956714,0.6384615384615384,0.4415475189234651,1196.0
905.0,1.7109254322191404e+18,0.4725848563968668,0.4178082191780822,0.3372972972972973,0.5018341892883346,0.6021978021978022,0.43986543313709,1198.0
906.0,1.7109254322291484e+18,0.47127937336814624,0.4121004566210046,0.3308108108108108,0.495720224993886,0.6318681318681318,0.4415475189234651,1197.0
907.0,1.7109254322391373e+18,0.47911227154047,0.4212328767123288,0.34486486486486484,0.5050134507214478,0.5978021978021978,0.43566021867115223,1197.0
908.0,1.7109254322491374e+18,0.4765013054830287,0.4178082191780822,0.3362162162162162,0.5008559550012228,0.6318681318681318,0.43650126156433977,1197.0
909.0,1.7109254322591378e+18,0.4765013054830287,0.4178082191780822,0.34,0.5015896307165566,0.6,0.38519764507989906,1196.0
910.0,1.7109254322691364e+18,0.47389033942558745,0.408675799086758,0.3237837837837838,0.4986549278552213,0.6032967032967033,0.42304457527333894,1192.0
911.0,1.7109254322791378e+18,0.4699738903394256,0.408675799086758,0.3356756756756757,0.5064808021521154,0.6208791208791209,0.43650126156433977,1196.0
912.0,1.7109254322891364e+18,0.46866840731070497,0.4155251141552511,0.33297297297297296,0.5037906578625581,0.6483516483516484,0.43902439024390244,1196.0
913.0,1.7109254322991347e+18,0.4660574412532637,0.408675799086758,0.3335135135135135,0.5006113964294449,0.6241758241758242,0.4314550042052145,1194.0
914.0,1.7109254323091333e+18,0.4751958224543081,0.4132420091324201,0.32972972972972975,0.495720224993886,0.6494505494505495,0.4482758620689655,1197.0
915.0,1.710925432319135e+18,0.47127937336814624,0.410958904109589,0.33837837837837836,0.5067253607238934,0.6120879120879121,0.43650126156433977,1195.0
916.0,1.710925432329151e+18,0.4804177545691906,0.4143835616438356,0.3281081081081081,0.4988994864269993,0.6494505494505495,0.4432296047098402,1195.0
917.0,1.710925432339134e+18,0.47780678851174935,0.4132420091324201,0.3335135135135135,0.5059916850085595,0.6164835164835165,0.4247266610597141,1193.0
918.0,1.7109254323491528e+18,0.46736292428198434,0.4098173515981735,0.3291891891891892,0.499877720714111,0.6296703296703297,0.4432296047098402,1196.0
919.0,1.7109254323591311e+18,0.47127937336814624,0.4155251141552511,0.33837837837837836,0.49816581071166544,0.6175824175824176,0.4415475189234651,1196.0
920.0,1.7109254323691302e+18,0.4660574412532637,0.4075342465753425,0.3302702702702703,0.5020787478601125,0.643956043956044,0.4381833473507149,1194.0
921.0,1.710925432379153e+18,0.4699738903394256,0.4143835616438356,0.34054054054054056,0.5086818292981169,0.6197802197802198,0.4381833473507149,1197.0
922.0,1.7109254323891323e+18,0.46475195822454307,0.4098173515981735,0.32756756756756755,0.4991440449987772,0.6296703296703297,0.4381833473507149,1195.0
923.0,1.710925432399128e+18,0.47780678851174935,0.4200913242009132,0.3427027027027027,0.5055025678650037,0.6175824175824176,0.4381833473507149,1196.0
924.0,1.7109254324091305e+18,0.46736292428198434,0.4052511415525114,0.32756756756756755,0.5057471264367817,0.643956043956044,0.4381833473507149,1196.0
925.0,1.7109254324191278e+18,0.47127937336814624,0.408675799086758,0.3362162162162162,0.5035460992907801,0.5868131868131868,0.40117746005046256,1194.0
926.0,1.7109254324291292e+18,0.47780678851174935,0.4178082191780822,0.33675675675675676,0.5023233064318905,0.6230769230769231,0.4415475189234651,1197.0
927.0,1.7109254324391255e+18,0.4765013054830287,0.410958904109589,0.33675675675675676,0.5006113964294449,0.6076923076923076,0.43566021867115223,1194.0
928.0,1.7109254324491261e+18,0.4751958224543081,0.4143835616438356,0.33405405405405403,0.5055025678650037,0.6373626373626373,0.4381833473507149,1198.0
929.0,1.710925432459126e+18,0.46866840731070497,0.410958904109589,0.33783783783783783,0.5106382978723404,0.6153846153846154,0.4272497897392767,1194.0
930.0,1.7109254324691261e+18,0.47389033942558745,0.4178082191780822,0.33405405405405403,0.49523110785033014,0.6274725274725275,0.4339781328847771,1194.0
931.0,1.7109254324791437e+18,0.47127937336814624,0.4143835616438356,0.33675675675675676,0.5035460992907801,0.6164835164835165,0.4339781328847771,1193.0
932.0,1.7109254324891226e+18,0.47780678851174935,0.4132420091324201,0.32972972972972975,0.5047688921496698,0.6505494505494506,0.4482758620689655,1196.0
933.0,1.7109254324991224e+18,0.46475195822454307,0.4098173515981735,0.3372972972972973,0.5089263878698949,0.6186813186813187,0.4415475189234651,1196.0
934.0,1.7109254325091272e+18,0.46866840731070497,0.4041095890410959,0.3302702702702703,0.4966984592809978,0.6285714285714286,0.4415475189234651,1196.0
935.0,1.710925432519125e+18,0.4765013054830287,0.4132420091324201,0.3362162162162162,0.5015896307165566,0.6142857142857143,0.4415475189234651,1198.0
936.0,1.7109254325291254e+18,0.47780678851174935,0.4200913242009132,0.33405405405405403,0.4942528735632184,0.6296703296703297,0.4381833473507149,1195.0
937.0,1.7109254325391255e+18,0.47127937336814624,0.4246575342465753,0.3362162162162162,0.5077035950110051,0.6307692307692307,0.43902439024390244,1196.0
938.0,1.7109254325491244e+18,0.4765013054830287,0.4200913242009132,0.3372972972972973,0.5008559550012228,0.634065934065934,0.4247266610597141,1195.0
939.0,1.7109254325591214e+18,0.4830287206266319,0.4235159817351598,0.34702702702702704,0.48495964783565665,0.6164835164835165,0.45500420521446594,1196.0
940.0,1.7109254325691238e+18,0.47127937336814624,0.410958904109589,0.3286486486486486,0.4996331621423331,0.6450549450549451,0.46846089150546677,1196.0
941.0,1.710925432579125e+18,0.4725848563968668,0.410958904109589,0.33783783783783783,0.499877720714111,0.6186813186813187,0.45248107653490327,1193.0
942.0,1.7109254325891238e+18,0.47127937336814624,0.4121004566210046,0.3324324324324324,0.5025678650036683,0.6241758241758242,0.43650126156433977,1196.0
943.0,1.7109254325991232e+18,0.4725848563968668,0.4132420091324201,0.34054054054054056,0.5140621178772316,0.6230769230769231,0.4415475189234651,1197.0
944.0,1.7109254326091249e+18,0.47911227154047,0.4269406392694064,0.33837837837837836,0.49816581071166544,0.6362637362637362,0.4415475189234651,1196.0
945.0,1.7109254326191224e+18,0.47127937336814624,0.4075342465753425,0.3324324324324324,0.5033015407190022,0.6164835164835165,0.4440706476030278,1196.0
946.0,1.710925432629125e+18,0.4660574412532637,0.4121004566210046,0.3291891891891892,0.504279775006114,0.6395604395604395,0.4415475189234651,1193.0
947.0,1.710925432639147e+18,0.4765013054830287,0.4143835616438356,0.3410810810810811,0.5074590364392272,0.6230769230769231,0.4381833473507149,1196.0
948.0,1.7109254326491256e+18,0.47127937336814624,0.4121004566210046,0.3308108108108108,0.4927855221325507,0.6164835164835165,0.432296047098402,1193.0
949.0,1.7109254326591235e+18,0.47389033942558745,0.4155251141552511,0.34054054054054056,0.5103937393005625,0.6384615384615384,0.4306139613120269,1195.0
950.0,1.7109254326691238e+18,0.4725848563968668,0.4121004566210046,0.32972972972972975,0.5055025678650037,0.6626373626373626,0.43566021867115223,1197.0
951.0,1.710925432679123e+18,0.47911227154047,0.4132420091324201,0.3362162162162162,0.4900953778429934,0.6208791208791209,0.4381833473507149,1196.0
952.0,1.710925432689124e+18,0.46475195822454307,0.410958904109589,0.32972972972972975,0.5030569821472243,0.6362637362637362,0.43902439024390244,1195.0
953.0,1.7109254326991268e+18,0.47127937336814624,0.4166666666666667,0.3389189189189189,0.5030569821472243,0.6274725274725275,0.456686291000841,1196.0
954.0,1.7109254327091223e+18,0.4765013054830287,0.4132420091324201,0.3281081081081081,0.49938860357055515,0.6318681318681318,0.4381833473507149,1195.0
955.0,1.710925432719123e+18,0.4725848563968668,0.408675799086758,0.3345945945945946,0.5072144778674492,0.6175824175824176,0.43650126156433977,1197.0
956.0,1.7109254327291238e+18,0.46736292428198434,0.4098173515981735,0.3286486486486486,0.5059916850085595,0.6307692307692307,0.42640874684608915,1191.0
957.0,1.710925432739124e+18,0.4765013054830287,0.4143835616438356,0.33945945945945943,0.5030569821472243,0.6131868131868132,0.4339781328847771,1194.0
958.0,1.7109254327491244e+18,0.4725848563968668,0.4143835616438356,0.3362162162162162,0.504524333577892,0.634065934065934,0.4449116904962153,1195.0
959.0,1.710925432759122e+18,0.4725848563968668,0.4178082191780822,0.33945945945945943,0.5072144778674492,0.6175824175824176,0.4432296047098402,1196.0
960.0,1.710925432769125e+18,0.46866840731070497,0.4132420091324201,0.33135135135135135,0.4773783321105405,0.6318681318681318,0.42977291841883936,1194.0
961.0,1.7109254327791235e+18,0.46866840731070497,0.4178082191780822,0.3389189189189189,0.5033015407190022,0.6142857142857143,0.4432296047098402,1195.0
962.0,1.7109254327891228e+18,0.47911227154047,0.4189497716894977,0.33135135135135135,0.5047688921496698,0.6362637362637362,0.43313708999158956,1194.0
963.0,1.7109254327991186e+18,0.47127937336814624,0.410958904109589,0.3356756756756757,0.4944974321349963,0.6098901098901099,0.4348191757779647,1196.0
964.0,1.7109254328091246e+18,0.48172323759791125,0.4280821917808219,0.34324324324324323,0.495720224993886,0.6241758241758242,0.43313708999158956,1193.0
965.0,1.7109254328191235e+18,0.4725848563968668,0.4075342465753425,0.3318918918918919,0.4979212521398875,0.6186813186813187,0.4339781328847771,1193.0
966.0,1.7109254328291238e+18,0.4699738903394256,0.410958904109589,0.3286486486486486,0.4971875764245537,0.6406593406593407,0.4449116904962153,1196.0
967.0,1.7109254328391242e+18,0.47780678851174935,0.4121004566210046,0.33783783783783783,0.5064808021521154,0.6197802197802198,0.4432296047098402,1195.0
968.0,1.7109254328491274e+18,0.4765013054830287,0.4178082191780822,0.33513513513513515,0.5084372707263389,0.6428571428571429,0.43986543313709,1196.0
969.0,1.7109254328591252e+18,0.47389033942558745,0.4132420091324201,0.34054054054054056,0.5020787478601125,0.6175824175824176,0.43902439024390244,1193.0
970.0,1.7109254328691233e+18,0.47389033942558745,0.4178082191780822,0.3372972972972973,0.4913181707018831,0.6153846153846154,0.4381833473507149,1195.0
971.0,1.710925432879126e+18,0.4765013054830287,0.410958904109589,0.3318918918918919,0.49229640498899485,0.6098901098901099,0.43902439024390244,1196.0
972.0,1.710925432889124e+18,0.4725848563968668,0.4143835616438356,0.3324324324324324,0.4984103692834434,0.6318681318681318,0.44070647603027757,1196.0
973.0,1.7109254328991288e+18,0.47780678851174935,0.4121004566210046,0.3372972972972973,0.491807287845439,0.6208791208791209,0.4415475189234651,1196.0
974.0,1.710925432909128e+18,0.4725848563968668,0.4166666666666667,0.33513513513513515,0.5057471264367817,0.6329670329670329,0.4449116904962153,1195.0
975.0,1.7109254329191222e+18,0.47127937336814624,0.4098173515981735,0.33405405405405403,0.5030569821472243,0.6087912087912087,0.4465937762825904,1195.0
976.0,1.7109254329291215e+18,0.4765013054830287,0.4178082191780822,0.33405405405405403,0.504524333577892,0.6351648351648351,0.4802354920100925,1193.0
977.0,1.7109254329391214e+18,0.47389033942558745,0.4143835616438356,0.33945945945945943,0.5072144778674492,0.6252747252747253,0.4373423044575273,1196.0
978.0,1.7109254329491282e+18,0.4765013054830287,0.4178082191780822,0.33675675675675676,0.5020787478601125,0.6230769230769231,0.4339781328847771,1194.0
979.0,1.710925432959125e+18,0.4725848563968668,0.4143835616438356,0.33837837837837836,0.48740523355343607,0.6307692307692307,0.45500420521446594,1196.0
980.0,1.7109254329691228e+18,0.47127937336814624,0.4178082191780822,0.3308108108108108,0.5015896307165566,0.610989010989011,0.4373423044575273,1195.0
981.0,1.7109254329791232e+18,0.48172323759791125,0.4200913242009132,0.34324324324324323,0.5094155050134507,0.6197802197802198,0.4558452481076535,1196.0
982.0,1.7109254329891272e+18,0.4751958224543081,0.4155251141552511,0.3308108108108108,0.5035460992907801,0.6362637362637362,0.43566021867115223,1196.0
983.0,1.71092543299914e+18,0.48172323759791125,0.4235159817351598,0.3427027027027027,0.4925409635607728,0.6208791208791209,0.4280908326324643,1192.0
984.0,1.7109254330090895e+18,0.4725848563968668,0.408675799086758,0.3281081081081081,0.5006113964294449,0.6351648351648351,0.43650126156433977,1196.0
985.0,1.7109254330191235e+18,0.4765013054830287,0.4155251141552511,0.3389189189189189,0.5023233064318905,0.6098901098901099,0.4314550042052145,1194.0
986.0,1.7109254330291261e+18,0.4765013054830287,0.4178082191780822,0.33675675675675676,0.5055025678650037,0.6417582417582418,0.4415475189234651,1197.0
987.0,1.7109254330391258e+18,0.47127937336814624,0.4098173515981735,0.33837837837837836,0.5018341892883346,0.610989010989011,0.44238856181665265,1196.0
988.0,1.7109254330490898e+18,0.47389033942558745,0.4132420091324201,0.33297297297297296,0.48789435069699194,0.6307692307692307,0.4373423044575273,1197.0
989.0,1.7109254330590574e+18,0.4725848563968668,0.410958904109589,0.33675675675675676,0.49767669356810956,0.6120879120879121,0.43650126156433977,1198.0
990.0,1.710925433069077e+18,0.4804177545691906,0.4143835616438356,0.33135135135135135,0.5006113964294449,0.6538461538461539,0.4465937762825904,1195.0
991.0,1.710925433079123e+18,0.47127937336814624,0.4155251141552511,0.34162162162162163,0.5006113964294449,0.5835164835164836,0.4213624894869638,1194.0
992.0,1.7109254330891267e+18,0.46866840731070497,0.4041095890410959,0.32432432432432434,0.49474199070677427,0.6516483516483517,0.44575273338940286,1198.0
993.0,1.710925433099125e+18,0.4699738903394256,0.4200913242009132,0.3318918918918919,0.5064808021521154,0.656043956043956,0.4541631623212784,1198.0
994.0,1.710925433109118e+18,0.47127937336814624,0.408675799086758,0.32756756756756755,0.5074590364392272,0.6428571428571429,0.4465937762825904,1199.0
995.0,1.7109254331191296e+18,0.46866840731070497,0.408675799086758,0.3362162162162162,0.504035216434336,0.6208791208791209,0.4440706476030278,1194.0
996.0,1.7109254331291144e+18,0.47911227154047,0.4143835616438356,0.33297297297297296,0.5057471264367817,0.6516483516483517,0.4432296047098402,1193.0
997.0,1.7109254331391232e+18,0.4765013054830287,0.4143835616438356,0.34054054054054056,0.4810467106872096,0.6153846153846154,0.43986543313709,1196.0
998.0,1.710925433149122e+18,0.4765013054830287,0.410958904109589,0.3318918918918919,0.5008559550012228,0.6384615384615384,0.4449116904962153,1195.0
