202.0,1.7114397461002516e+18,0.4725848563968668,0.4257990867579909,0.3497297297297297,0.4986549278552213,0.6516483516483517,0.4381833473507149,1196.0
203.0,1.711439746110255e+18,0.47127937336814624,0.4315068493150685,0.3389189189189189,0.5018341892883346,0.5967032967032967,0.43902439024390244,1199.0
204.0,1.7114397461202478e+18,0.47780678851174935,0.4200913242009132,0.3427027027027027,0.5011005135730008,0.6626373626373626,0.44070647603027757,1194.0
205.0,1.7114397461302605e+18,0.4765013054830287,0.4223744292237443,0.34324324324324323,0.5059916850085595,0.5879120879120879,0.4348191757779647,1196.0
206.0,1.7114397461402463e+18,0.47389033942558745,0.410958904109589,0.3410810810810811,0.4969430178527757,0.6527472527472528,0.43902439024390244,1197.0
207.0,1.71143974615025e+18,0.49869451697127937,0.454337899543379,0.3491891891891892,0.5047688921496698,0.6054945054945055,0.4432296047098402,1194.0
208.0,1.7114397461602476e+18,0.46736292428198434,0.3767123287671233,0.32972972972972975,0.4988994864269993,0.6516483516483517,0.4381833473507149,1195.0
209.0,1.711439746170245e+18,0.49216710182767626,0.4269406392694064,0.3356756756756757,0.5155294693078992,0.6098901098901099,0.4449116904962153,1198.0
210.0,1.7114397461802476e+18,0.46866840731070497,0.4132420091324201,0.33675675675675676,0.4979212521398875,0.654945054945055,0.4373423044575273,1195.0
211.0,1.71143974619025e+18,0.4765013054830287,0.4155251141552511,0.3308108108108108,0.5079481535827831,0.5791208791208792,0.4348191757779647,1199.0
212.0,1.7114397462002537e+18,0.48172323759791125,0.4075342465753425,0.3410810810810811,0.4944974321349963,0.6637362637362637,0.44070647603027757,1198.0
213.0,1.711439746210255e+18,0.5104438642297651,0.4132420091324201,0.34216216216216216,0.5103937393005625,0.6087912087912087,0.4432296047098402,1197.0
214.0,1.7114397462202614e+18,0.46475195822454307,0.3904109589041096,0.32972972972972975,0.49816581071166544,0.6483516483516484,0.4348191757779647,1197.0
215.0,1.7114397462302428e+18,0.4869451697127937,0.432648401826484,0.34054054054054056,0.5015896307165566,0.6021978021978022,0.4440706476030278,1197.0
216.0,1.7114397462402445e+18,0.46866840731070497,0.4189497716894977,0.33837837837837836,0.5133284421618978,0.6604395604395604,0.4381833473507149,1196.0
217.0,1.7114397462502164e+18,0.4804177545691906,0.4075342465753425,0.33135135135135135,0.5055025678650037,0.6,0.4415475189234651,1195.0
218.0,1.7114397462602665e+18,0.47389033942558745,0.4200913242009132,0.34,0.5035460992907801,0.6571428571428571,0.4381833473507149,1198.0
219.0,1.7114397462702449e+18,0.4725848563968668,0.4063926940639269,0.3318918918918919,0.5037906578625581,0.5978021978021978,0.44238856181665265,1196.0
220.0,1.711439746280229e+18,0.45691906005221933,0.4063926940639269,0.32972972972972975,0.5028124235754463,0.6538461538461539,0.43650126156433977,1196.0
221.0,1.7114397462902743e+18,0.4608355091383812,0.4143835616438356,0.32972972972972975,0.5072144778674492,0.6164835164835165,0.44575273338940286,1198.0
222.0,1.7114397463002624e+18,0.4765013054830287,0.4429223744292237,0.34756756756756757,0.487649792125214,0.6450549450549451,0.43650126156433977,1197.0
223.0,1.7114397463102449e+18,0.49216710182767626,0.4166666666666667,0.33135135135135135,0.49498654927855223,0.5945054945054945,0.43986543313709,1196.0
224.0,1.7114397463202816e+18,0.4765013054830287,0.4121004566210046,0.34216216216216216,0.4756664221080949,0.6384615384615384,0.43566021867115223,1198.0
225.0,1.71143974633025e+18,0.4765013054830287,0.4315068493150685,0.33405405405405403,0.5030569821472243,0.5956043956043956,0.43986543313709,1197.0
226.0,1.7114397463402378e+18,0.48172323759791125,0.408675799086758,0.33405405405405403,0.5006113964294449,0.6582417582417582,0.43902439024390244,1196.0
227.0,1.7114397463502487e+18,0.47127937336814624,0.4121004566210046,0.33405405405405403,0.5055025678650037,0.5967032967032967,0.4415475189234651,1194.0
228.0,1.7114397463602934e+18,0.4725848563968668,0.4178082191780822,0.34162162162162163,0.5015896307165566,0.6626373626373626,0.43986543313709,1196.0
229.0,1.7114397463702436e+18,0.4765013054830287,0.4121004566210046,0.33513513513513515,0.504035216434336,0.6098901098901099,0.4432296047098402,1195.0
230.0,1.7114397463802455e+18,0.47911227154047,0.408675799086758,0.32972972972972975,0.4996331621423331,0.6505494505494506,0.4381833473507149,1196.0
231.0,1.7114397463902482e+18,0.4765013054830287,0.4486301369863014,0.33405405405405403,0.4937637564196625,0.5901098901098901,0.4415475189234651,1196.0
232.0,1.7114397464002499e+18,0.46475195822454307,0.3995433789954338,0.3302702702702703,0.5033015407190022,0.6483516483516484,0.4415475189234651,1198.0
233.0,1.711439746410249e+18,0.4765013054830287,0.4143835616438356,0.3318918918918919,0.5057471264367817,0.6065934065934065,0.4449116904962153,1197.0
234.0,1.7114397464202557e+18,0.47127937336814624,0.4006849315068493,0.3335135135135135,0.48789435069699194,0.6318681318681318,0.42977291841883936,1193.0
235.0,1.71143974643029e+18,0.47780678851174935,0.4223744292237443,0.34540540540540543,0.5023233064318905,0.5934065934065934,0.4415475189234651,1196.0
236.0,1.711439746440259e+18,0.4556135770234987,0.4075342465753425,0.33405405405405403,0.504279775006114,0.6494505494505495,0.4373423044575273,1196.0
237.0,1.711439746450296e+18,0.4725848563968668,0.4429223744292237,0.33783783783783783,0.4937637564196625,0.5967032967032967,0.43986543313709,1197.0
238.0,1.7114397464602575e+18,0.47127937336814624,0.4155251141552511,0.33783783783783783,0.5006113964294449,0.6472527472527473,0.4163162321278385,1193.0
239.0,1.711439746470241e+18,0.4765013054830287,0.4292237442922374,0.3345945945945946,0.5023233064318905,0.5901098901098901,0.4222035323801514,1194.0
240.0,1.7114397464802627e+18,0.4725848563968668,0.4052511415525114,0.3362162162162162,0.5101491807287846,0.654945054945055,0.4381833473507149,1195.0
241.0,1.711439746490259e+18,0.48172323759791125,0.4212328767123288,0.33405405405405403,0.5074590364392272,0.6021978021978022,0.4415475189234651,1196.0
242.0,1.711439746500265e+18,0.47911227154047,0.4394977168949772,0.35027027027027025,0.5113719735876743,0.6571428571428571,0.4373423044575273,1199.0
243.0,1.7114397465102728e+18,0.4908616187989556,0.4075342465753425,0.3324324324324324,0.5133284421618978,0.6010989010989011,0.44238856181665265,1197.0
244.0,1.7114397465202708e+18,0.46736292428198434,0.4189497716894977,0.34378378378378377,0.49620934213744194,0.6241758241758242,0.4306139613120269,1193.0
245.0,1.7114397465302692e+18,0.4765013054830287,0.4360730593607306,0.3372972972972973,0.48740523355343607,0.5879120879120879,0.43566021867115223,1196.0
246.0,1.7114397465402604e+18,0.4765013054830287,0.4098173515981735,0.33675675675675676,0.4988994864269993,0.6417582417582418,0.43566021867115223,1196.0
247.0,1.711439746550243e+18,0.47911227154047,0.4155251141552511,0.33135135135135135,0.504524333577892,0.5879120879120879,0.43650126156433977,1196.0
248.0,1.711439746560272e+18,0.4725848563968668,0.408675799086758,0.3318918918918919,0.49816581071166544,0.6362637362637362,0.432296047098402,1193.0
249.0,1.7114397465702756e+18,0.4804177545691906,0.4178082191780822,0.3410810810810811,0.5050134507214478,0.610989010989011,0.44238856181665265,1195.0
250.0,1.711439746580277e+18,0.48172323759791125,0.4269406392694064,0.3335135135135135,0.49645390070921985,0.6692307692307692,0.45164003364171573,1196.0
251.0,1.7114397465902738e+18,0.47780678851174935,0.4178082191780822,0.33513513513513515,0.5099046221570066,0.6153846153846154,0.4415475189234651,1196.0
252.0,1.711439746600281e+18,0.4765013054830287,0.4143835616438356,0.34162162162162163,0.5015896307165566,0.6626373626373626,0.4381833473507149,1196.0
253.0,1.7114397466102807e+18,0.4765013054830287,0.4337899543378995,0.3389189189189189,0.5074590364392272,0.6065934065934065,0.4381833473507149,1196.0
254.0,1.7114397466202803e+18,0.4869451697127937,0.408675799086758,0.3491891891891892,0.5015896307165566,0.6582417582417582,0.4339781328847771,1194.0
255.0,1.7114397466311542e+18,0.47127937336814624,0.3904109589041096,0.3264864864864865,0.4966984592809978,0.5879120879120879,0.4381833473507149,1196.0
256.0,1.7114397466402476e+18,0.4765013054830287,0.4098173515981735,0.3210810810810811,0.5035460992907801,0.6516483516483517,0.38519764507989906,1193.0
257.0,1.7114397466502554e+18,0.47780678851174935,0.4235159817351598,0.3427027027027027,0.49938860357055515,0.6164835164835165,0.4449116904962153,1198.0
258.0,1.7114397466602568e+18,0.47127937336814624,0.4052511415525114,0.33405405405405403,0.48642699926632427,0.6461538461538462,0.4339781328847771,1193.0
259.0,1.711439746670307e+18,0.46866840731070497,0.4178082191780822,0.3427027027027027,0.49816581071166544,0.589010989010989,0.4339781328847771,1194.0
260.0,1.711439746680289e+18,0.4830287206266319,0.4178082191780822,0.3345945945945946,0.5018341892883346,0.6648351648351648,0.4339781328847771,1195.0
261.0,1.7114397466902482e+18,0.4765013054830287,0.4189497716894977,0.3356756756756757,0.5204206407434581,0.5934065934065934,0.4415475189234651,1196.0
262.0,1.7114397467002552e+18,0.4765013054830287,0.4075342465753425,0.33783783783783783,0.5047688921496698,0.6538461538461539,0.4339781328847771,1196.0
263.0,1.7114397467102559e+18,0.4856396866840731,0.4178082191780822,0.3362162162162162,0.5133284421618978,0.6021978021978022,0.44575273338940286,1197.0
264.0,1.711439746720256e+18,0.4725848563968668,0.4486301369863014,0.3567567567567568,0.5047688921496698,0.6593406593406593,0.4381833473507149,1197.0
265.0,1.7114397467302794e+18,0.47911227154047,0.4269406392694064,0.34702702702702704,0.508192712154561,0.589010989010989,0.4381833473507149,1196.0
266.0,1.7114397467402627e+18,0.4725848563968668,0.3995433789954338,0.3286486486486486,0.5069699192956714,0.6527472527472528,0.43650126156433977,1197.0
267.0,1.711439746750255e+18,0.47389033942558745,0.4041095890410959,0.3362162162162162,0.512350207874786,0.6076923076923076,0.4482758620689655,1195.0
268.0,1.7114397467602675e+18,0.4699738903394256,0.408675799086758,0.3302702702702703,0.4761555392516508,0.621978021978022,0.4306139613120269,1192.0
269.0,1.7114397467702735e+18,0.48433420365535246,0.4417808219178082,0.35405405405405405,0.5135730007336757,0.5758241758241758,0.4751892346509672,1196.0
270.0,1.7114397467802545e+18,0.47127937336814624,0.3972602739726027,0.3362162162162162,0.5013450721447786,0.6538461538461539,0.4247266610597141,1192.0
271.0,1.7114397467902508e+18,0.47780678851174935,0.3995433789954338,0.3286486486486486,0.47933480068476403,0.5736263736263736,0.42640874684608915,1192.0
272.0,1.7114397468002583e+18,0.47127937336814624,0.4143835616438356,0.3345945945945946,0.4888725849841037,0.656043956043956,0.4289318755256518,1193.0
273.0,1.7114397468102564e+18,0.47389033942558745,0.4189497716894977,0.3302702702702703,0.5074590364392272,0.6208791208791209,0.45164003364171573,1196.0
274.0,1.7114397468202586e+18,0.48172323759791125,0.4360730593607306,0.3589189189189189,0.5277573978967963,0.6813186813186813,0.4339781328847771,1192.0
275.0,1.71143974683027e+18,0.4660574412532637,0.4189497716894977,0.32594594594594595,0.45512350207874785,0.578021978021978,0.4255677039529016,1193.0
276.0,1.7114397468402578e+18,0.4660574412532637,0.4063926940639269,0.3232432432432432,0.4966984592809978,0.6571428571428571,0.44238856181665265,1196.0
277.0,1.7114397468502548e+18,0.46866840731070497,0.4269406392694064,0.3356756756756757,0.5001222792858889,0.6318681318681318,0.4179983179142136,1194.0
278.0,1.711439746860255e+18,0.49738903394255873,0.4223744292237443,0.3427027027027027,0.47786744925409635,0.6175824175824176,0.43986543313709,1198.0
279.0,1.7114397468702536e+18,0.4830287206266319,0.4189497716894977,0.3356756756756757,0.4966984592809978,0.5802197802197803,0.43313708999158956,1193.0
280.0,1.711439746880255e+18,0.47127937336814624,0.4554794520547945,0.3427027027027027,0.504524333577892,0.6197802197802198,0.4087468460891506,1193.0
281.0,1.711439746890257e+18,0.47389033942558745,0.4041095890410959,0.3335135135135135,0.5267791636096845,0.6120879120879121,0.46846089150546677,1196.0
282.0,1.7114397469002555e+18,0.46866840731070497,0.4200913242009132,0.3345945945945946,0.491562729273661,0.6362637362637362,0.4289318755256518,1195.0
283.0,1.7114397469102597e+18,0.47127937336814624,0.4121004566210046,0.3302702702702703,0.5304475421863536,0.5824175824175825,0.48359966358284273,1196.0
284.0,1.71143974692026e+18,0.4804177545691906,0.4166666666666667,0.3291891891891892,0.5135730007336757,0.6516483516483517,0.415475189234651,1195.0
285.0,1.7114397469302643e+18,0.4804177545691906,0.4223744292237443,0.34594594594594597,0.4991440449987772,0.5769230769230769,0.432296047098402,1192.0
286.0,1.7114397469402673e+18,0.4869451697127937,0.4246575342465753,0.34216216216216216,0.5023233064318905,0.6505494505494506,0.4163162321278385,1194.0
287.0,1.711439746950261e+18,0.47780678851174935,0.4223744292237443,0.3372972972972973,0.5062362435803375,0.6021978021978022,0.4289318755256518,1190.0
288.0,1.711439746960264e+18,0.4765013054830287,0.4417808219178082,0.3545945945945946,0.5030569821472243,0.6527472527472528,0.4373423044575273,1196.0
289.0,1.711439746970266e+18,0.47780678851174935,0.432648401826484,0.34216216216216216,0.5250672536072389,0.6197802197802198,0.44575273338940286,1198.0
290.0,1.711439746980267e+18,0.47911227154047,0.4063926940639269,0.33297297297297296,0.5128393250183418,0.6483516483516484,0.4432296047098402,1197.0
291.0,1.7114397469902676e+18,0.47127937336814624,0.4200913242009132,0.34162162162162163,0.49327463927610665,0.5967032967032967,0.4415475189234651,1194.0
292.0,1.7114397470002685e+18,0.47389033942558745,0.4155251141552511,0.3410810810810811,0.5047688921496698,0.6571428571428571,0.43902439024390244,1196.0
293.0,1.711439747010271e+18,0.46866840731070497,0.4041095890410959,0.33297297297297296,0.49474199070677427,0.5813186813186814,0.4314550042052145,1194.0
294.0,1.711439747020283e+18,0.47780678851174935,0.4063926940639269,0.3237837837837838,0.4988994864269993,0.6582417582417582,0.43986543313709,1197.0
295.0,1.711439747030276e+18,0.4725848563968668,0.4132420091324201,0.3281081081081081,0.5037906578625581,0.6175824175824176,0.4449116904962153,1195.0
296.0,1.7114397470402808e+18,0.4804177545691906,0.4235159817351598,0.3286486486486486,0.5187087307410124,0.6626373626373626,0.4314550042052145,1193.0
297.0,1.7114397470502812e+18,0.4765013054830287,0.4337899543378995,0.34054054054054056,0.5138175593054537,0.6076923076923076,0.4482758620689655,1197.0
298.0,1.7114397470602824e+18,0.47127937336814624,0.4052511415525114,0.3345945945945946,0.4969430178527757,0.6604395604395604,0.4415475189234651,1198.0
299.0,1.7114397470702845e+18,0.4765013054830287,0.4041095890410959,0.3281081081081081,0.49767669356810956,0.6142857142857143,0.4415475189234651,1197.0
300.0,1.7114397470802847e+18,0.47911227154047,0.4052511415525114,0.3362162162162162,0.4817803864025434,0.6329670329670329,0.4373423044575273,1198.0
301.0,1.7114397470902856e+18,0.47911227154047,0.4166666666666667,0.33783783783783783,0.5062362435803375,0.5989010989010989,0.4507989907485282,1197.0
302.0,1.7114397471002875e+18,0.46736292428198434,0.3778538812785388,0.3335135135135135,0.5147957935925654,0.6461538461538462,0.4381833473507149,1196.0
303.0,1.7114397471102881e+18,0.4856396866840731,0.3949771689497717,0.33297297297297296,0.5250672536072389,0.6373626373626373,0.45836837678721615,1196.0
304.0,1.711439747120248e+18,0.4725848563968668,0.410958904109589,0.3356756756756757,0.4979212521398875,0.6527472527472528,0.447434819175778,1195.0
305.0,1.7114397471302935e+18,0.4830287206266319,0.4189497716894977,0.3362162162162162,0.5028124235754463,0.6197802197802198,0.46173254835996635,1196.0
306.0,1.7114397471402445e+18,0.4699738903394256,0.4360730593607306,0.3491891891891892,0.5116165321594522,0.6648351648351648,0.43650126156433977,1196.0
307.0,1.7114397471502518e+18,0.47780678851174935,0.4178082191780822,0.3345945945945946,0.4966984592809978,0.5879120879120879,0.4280908326324643,1192.0
308.0,1.7114397471602473e+18,0.47780678851174935,0.4223744292237443,0.3389189189189189,0.5006113964294449,0.6494505494505495,0.4373423044575273,1198.0
309.0,1.711439747170251e+18,0.48172323759791125,0.408675799086758,0.33297297297297296,0.5113719735876743,0.6131868131868132,0.4432296047098402,1196.0
310.0,1.711439747180245e+18,0.47911227154047,0.4417808219178082,0.3572972972972973,0.46832966495475664,0.6329670329670329,0.43902439024390244,1197.0
311.0,1.7114397471902449e+18,0.4725848563968668,0.4178082191780822,0.34054054054054056,0.5079481535827831,0.6065934065934065,0.42304457527333894,1195.0
312.0,1.7114397472002476e+18,0.47389033942558745,0.4041095890410959,0.33513513513513515,0.5057471264367817,0.6593406593406593,0.43566021867115223,1196.0
313.0,1.7114397472102484e+18,0.4765013054830287,0.4623287671232877,0.35621621621621624,0.5084372707263389,0.5945054945054945,0.3885618166526493,1193.0
314.0,1.7114397472202557e+18,0.4621409921671018,0.4052511415525114,0.33405405405405403,0.4979212521398875,0.6450549450549451,0.4163162321278385,1195.0
315.0,1.7114397472302574e+18,0.47389033942558745,0.4155251141552511,0.3308108108108108,0.512594766446564,0.6164835164835165,0.4507989907485282,1198.0
316.0,1.7114397472402568e+18,0.46866840731070497,0.4121004566210046,0.33675675675675676,0.5094155050134507,0.6483516483516484,0.43566021867115223,1197.0
317.0,1.7114397472502444e+18,0.49738903394255873,0.4235159817351598,0.33783783783783783,0.5174859378821227,0.6131868131868132,0.45164003364171573,1197.0
318.0,1.7114397472602468e+18,0.4725848563968668,0.4143835616438356,0.33513513513513515,0.49767669356810956,0.6472527472527473,0.4600504625735913,1197.0
319.0,1.7114397472702472e+18,0.4725848563968668,0.4166666666666667,0.33675675675675676,0.5037906578625581,0.6197802197802198,0.43986543313709,1194.0
320.0,1.711439747280261e+18,0.4751958224543081,0.4406392694063927,0.36108108108108106,0.5003668378576669,0.6472527472527473,0.4415475189234651,1196.0
321.0,1.7114397472902584e+18,0.49216710182767626,0.4497716894977169,0.34378378378378377,0.5133284421618978,0.6142857142857143,0.39444911690496215,1194.0
322.0,1.7114397473002563e+18,0.46866840731070497,0.3995433789954338,0.32432432432432434,0.49082905355832723,0.6538461538461539,0.4415475189234651,1196.0
323.0,1.7114397473102533e+18,0.4725848563968668,0.4200913242009132,0.34756756756756757,0.499877720714111,0.5989010989010989,0.4348191757779647,1197.0
324.0,1.7114397473202547e+18,0.47127937336814624,0.4098173515981735,0.33675675675675676,0.504279775006114,0.6472527472527473,0.43313708999158956,1195.0
325.0,1.7114397473303388e+18,0.4765013054830287,0.4189497716894977,0.32972972972972975,0.512350207874786,0.6098901098901099,0.4482758620689655,1199.0
326.0,1.711439747340268e+18,0.4765013054830287,0.4577625570776256,0.34594594594594597,0.5006113964294449,0.6483516483516484,0.39108494533221194,1196.0
327.0,1.7114397473502492e+18,0.4751958224543081,0.4075342465753425,0.33135135135135135,0.48520420640743456,0.5978021978021978,0.43902439024390244,1197.0
328.0,1.7114397473602522e+18,0.4725848563968668,0.4143835616438356,0.34378378378378377,0.4984103692834434,0.6472527472527473,0.4348191757779647,1196.0
329.0,1.7114397473702528e+18,0.4725848563968668,0.4143835616438356,0.3308108108108108,0.5001222792858889,0.5923076923076923,0.4381833473507149,1197.0
330.0,1.7114397473802534e+18,0.46475195822454307,0.4041095890410959,0.33783783783783783,0.48618244069454636,0.6,0.4255677039529016,1194.0
331.0,1.7114397473902492e+18,0.4660574412532637,0.4052511415525114,0.3248648648648649,0.5069699192956714,0.6021978021978022,0.4415475189234651,1195.0
332.0,1.711439747400249e+18,0.4804177545691906,0.4098173515981735,0.3237837837837838,0.49938860357055515,0.6505494505494506,0.44070647603027757,1197.0
333.0,1.7114397474102461e+18,0.4765013054830287,0.4155251141552511,0.33405405405405403,0.5055025678650037,0.589010989010989,0.4373423044575273,1197.0
334.0,1.7114397474202573e+18,0.46866840731070497,0.3972602739726027,0.3308108108108108,0.49498654927855223,0.6516483516483517,0.4600504625735913,1195.0
335.0,1.711439747430255e+18,0.4856396866840731,0.4246575342465753,0.33837837837837836,0.504524333577892,0.6142857142857143,0.44575273338940286,1196.0
336.0,1.711439747440251e+18,0.48172323759791125,0.4452054794520548,0.34756756756756757,0.4966984592809978,0.6538461538461539,0.4339781328847771,1192.0
337.0,1.7114397474502638e+18,0.47127937336814624,0.3984018264840183,0.3302702702702703,0.49082905355832723,0.6065934065934065,0.44238856181665265,1197.0
338.0,1.7114397474602604e+18,0.489556135770235,0.4132420091324201,0.3308108108108108,0.47248716067498164,0.6318681318681318,0.43313708999158956,1194.0
339.0,1.7114397474702802e+18,0.4765013054830287,0.4440639269406393,0.34216216216216216,0.5018341892883346,0.5989010989010989,0.43313708999158956,1194.0
340.0,1.7114397474802486e+18,0.47389033942558745,0.4178082191780822,0.33135135135135135,0.49816581071166544,0.6450549450549451,0.432296047098402,1195.0
341.0,1.711439747490254e+18,0.4830287206266319,0.4052511415525114,0.32972972972972975,0.4984103692834434,0.6,0.4381833473507149,1194.0
342.0,1.7114397475002511e+18,0.46736292428198434,0.4063926940639269,0.31945945945945947,0.49523110785033014,0.6428571428571429,0.43902439024390244,1198.0
343.0,1.711439747510247e+18,0.4804177545691906,0.4200913242009132,0.3227027027027027,0.5067253607238934,0.6,0.44070647603027757,1195.0
344.0,1.7114397475202493e+18,0.489556135770235,0.4315068493150685,0.34162162162162163,0.4827586206896552,0.6505494505494506,0.4482758620689655,1197.0
345.0,1.711439747530243e+18,0.47780678851174935,0.4372146118721461,0.3427027027027027,0.5069699192956714,0.610989010989011,0.43902439024390244,1198.0
346.0,1.7114397475402406e+18,0.47389033942558745,0.4178082191780822,0.3318918918918919,0.5025678650036683,0.6461538461538462,0.43902439024390244,1197.0
347.0,1.7114397475502454e+18,0.4765013054830287,0.4497716894977169,0.3389189189189189,0.48911714355588165,0.6197802197802198,0.45164003364171573,1195.0
348.0,1.7114397475602427e+18,0.4699738903394256,0.4098173515981735,0.34054054054054056,0.504524333577892,0.6527472527472528,0.43650126156433977,1195.0
349.0,1.7114397475702456e+18,0.46736292428198434,0.4269406392694064,0.3281081081081081,0.5099046221570066,0.6153846153846154,0.44575273338940286,1196.0
350.0,1.7114397475802527e+18,0.46866840731070497,0.4041095890410959,0.3281081081081081,0.5035460992907801,0.6516483516483517,0.4339781328847771,1194.0
351.0,1.711439747590244e+18,0.489556135770235,0.4098173515981735,0.32432432432432434,0.5013450721447786,0.6,0.3986543313708999,1195.0
352.0,1.7114397476002447e+18,0.48172323759791125,0.4189497716894977,0.34594594594594597,0.5074590364392272,0.6571428571428571,0.44575273338940286,1198.0
353.0,1.711439747610244e+18,0.46344647519582244,0.4383561643835616,0.34486486486486484,0.5152849107361213,0.6098901098901099,0.4499579478553406,1198.0
354.0,1.711439747620244e+18,0.4765013054830287,0.4098173515981735,0.3389189189189189,0.5025678650036683,0.6373626373626373,0.4280908326324643,1194.0
355.0,1.711439747630265e+18,0.47780678851174935,0.4315068493150685,0.34054054054054056,0.5030569821472243,0.6054945054945055,0.44575273338940286,1196.0
356.0,1.7114397476402468e+18,0.4765013054830287,0.4223744292237443,0.34216216216216216,0.49816581071166544,0.6450549450549451,0.43566021867115223,1196.0
357.0,1.7114397476502523e+18,0.489556135770235,0.4680365296803653,0.34216216216216216,0.5074590364392272,0.6076923076923076,0.4432296047098402,1198.0
358.0,1.7114397476602488e+18,0.46475195822454307,0.4098173515981735,0.3345945945945946,0.5015896307165566,0.6450549450549451,0.43986543313709,1194.0
359.0,1.711439747670257e+18,0.46736292428198434,0.4121004566210046,0.3281081081081081,0.504524333577892,0.5758241758241758,0.41968040370058873,1193.0
360.0,1.7114397476802744e+18,0.47127937336814624,0.4178082191780822,0.34162162162162163,0.516507703595011,0.667032967032967,0.4465937762825904,1197.0
361.0,1.7114397476902413e+18,0.47127937336814624,0.3995433789954338,0.3248648648648649,0.5028124235754463,0.6274725274725275,0.4449116904962153,1197.0
362.0,1.7114397477002522e+18,0.46866840731070497,0.4143835616438356,0.33675675675675676,0.48226950354609927,0.6417582417582418,0.4381833473507149,1197.0
363.0,1.7114397477102502e+18,0.4765013054830287,0.3778538812785388,0.3237837837837838,0.46368305209097577,0.5626373626373626,0.44575273338940286,1198.0
364.0,1.7114397477202532e+18,0.4934725848563969,0.4098173515981735,0.33297297297297296,0.49816581071166544,0.6538461538461539,0.45248107653490327,1196.0
365.0,1.7114397477302543e+18,0.47389033942558745,0.4337899543378995,0.33945945945945943,0.5235999021765713,0.5934065934065934,0.432296047098402,1193.0
366.0,1.711439747740256e+18,0.47780678851174935,0.4132420091324201,0.3345945945945946,0.5033015407190022,0.6428571428571429,0.43313708999158956,1195.0
367.0,1.7114397477502618e+18,0.4660574412532637,0.4098173515981735,0.3308108108108108,0.504524333577892,0.6,0.43566021867115223,1195.0
368.0,1.7114397477602632e+18,0.46866840731070497,0.3949771689497717,0.3443243243243243,0.4954756664221081,0.6384615384615384,0.432296047098402,1195.0
369.0,1.7114397477702482e+18,0.4804177545691906,0.4166666666666667,0.33783783783783783,0.495720224993886,0.5923076923076923,0.4095878889823381,1193.0
370.0,1.7114397477802473e+18,0.4699738903394256,0.4018264840182648,0.33837837837837836,0.4986549278552213,0.6450549450549451,0.43566021867115223,1198.0
371.0,1.7114397477902484e+18,0.47389033942558745,0.3995433789954338,0.33675675675675676,0.4856933235509905,0.5956043956043956,0.43986543313709,1197.0
372.0,1.7114397478002452e+18,0.4765013054830287,0.3949771689497717,0.33405405405405403,0.48324773783321107,0.6076923076923076,0.4188393608074012,1194.0
373.0,1.7114397478102387e+18,0.47780678851174935,0.4189497716894977,0.327027027027027,0.4988994864269993,0.5989010989010989,0.43566021867115223,1197.0
374.0,1.7114397478202522e+18,0.44386422976501305,0.3972602739726027,0.3286486486486486,0.4969430178527757,0.6417582417582418,0.4449116904962153,1195.0
375.0,1.711439747830246e+18,0.46475195822454307,0.4075342465753425,0.33135135135135135,0.5011005135730008,0.5945054945054945,0.4381833473507149,1198.0
376.0,1.7114397478402499e+18,0.47911227154047,0.4383561643835616,0.33837837837837836,0.495964783565664,0.6406593406593407,0.4449116904962153,1197.0
377.0,1.7114397478502495e+18,0.4765013054830287,0.4178082191780822,0.3335135135135135,0.504524333577892,0.6054945054945055,0.4432296047098402,1198.0
378.0,1.7114397478602493e+18,0.47911227154047,0.4143835616438356,0.3345945945945946,0.5074590364392272,0.6637362637362637,0.4415475189234651,1198.0
379.0,1.7114397478702625e+18,0.4765013054830287,0.4212328767123288,0.3345945945945946,0.4771337735387625,0.5923076923076923,0.4432296047098402,1198.0
380.0,1.7114397478802527e+18,0.46736292428198434,0.4269406392694064,0.3491891891891892,0.5094155050134507,0.656043956043956,0.4381833473507149,1198.0
381.0,1.7114397478902467e+18,0.4751958224543081,0.432648401826484,0.34162162162162163,0.5287356321839081,0.6153846153846154,0.4373423044575273,1196.0
382.0,1.7114397479002486e+18,0.47127937336814624,0.410958904109589,0.34324324324324323,0.49620934213744194,0.6461538461538462,0.4314550042052145,1194.0
383.0,1.7114397479102484e+18,0.4830287206266319,0.4417808219178082,0.34702702702702704,0.5015896307165566,0.5945054945054945,0.4415475189234651,1195.0
384.0,1.7114397479202716e+18,0.4765013054830287,0.3995433789954338,0.32756756756756755,0.4974321349963316,0.6450549450549451,0.4381833473507149,1196.0
385.0,1.7114397479302528e+18,0.47780678851174935,0.3961187214611872,0.3362162162162162,0.5035460992907801,0.6032967032967033,0.4415475189234651,1196.0
386.0,1.711439747940259e+18,0.47911227154047,0.4589041095890411,0.35405405405405405,0.5020787478601125,0.6483516483516484,0.43650126156433977,1196.0
387.0,1.7114397479502587e+18,0.47780678851174935,0.432648401826484,0.3362162162162162,0.5020787478601125,0.6032967032967033,0.4415475189234651,1194.0
388.0,1.711439747960261e+18,0.46736292428198434,0.4189497716894977,0.3443243243243243,0.48936170212765956,0.6505494505494506,0.4415475189234651,1197.0
389.0,1.7114397479702433e+18,0.4804177545691906,0.4018264840182648,0.32756756756756755,0.5052580092932257,0.6175824175824176,0.4465937762825904,1195.0
390.0,1.711439747980235e+18,0.4765013054830287,0.4075342465753425,0.33405405405405403,0.4803130349718758,0.6417582417582418,0.4373423044575273,1198.0
391.0,1.711439747990245e+18,0.48433420365535246,0.4417808219178082,0.34594594594594597,0.5059916850085595,0.610989010989011,0.4432296047098402,1197.0
392.0,1.7114397480002447e+18,0.46866840731070497,0.408675799086758,0.33783783783783783,0.5067253607238934,0.6637362637362637,0.4415475189234651,1195.0
393.0,1.7114397480102426e+18,0.46866840731070497,0.408675799086758,0.34486486486486484,0.49767669356810956,0.6,0.4381833473507149,1197.0
394.0,1.711439748020245e+18,0.47127937336814624,0.4178082191780822,0.3389189189189189,0.5001222792858889,0.6505494505494506,0.4373423044575273,1196.0
395.0,1.7114397480302595e+18,0.47911227154047,0.4235159817351598,0.34594594594594597,0.5101491807287846,0.5967032967032967,0.4381833473507149,1197.0
396.0,1.7114397480402465e+18,0.49738903394255873,0.454337899543379,0.3410810810810811,0.49767669356810956,0.6626373626373626,0.4373423044575273,1198.0
397.0,1.711439748050244e+18,0.47911227154047,0.4098173515981735,0.3324324324324324,0.5152849107361213,0.6208791208791209,0.45248107653490327,1199.0
398.0,1.7114397480602488e+18,0.46866840731070497,0.386986301369863,0.32756756756756755,0.49938860357055515,0.6318681318681318,0.4314550042052145,1194.0
399.0,1.711439748070245e+18,0.47780678851174935,0.3892694063926941,0.31891891891891894,0.5018341892883346,0.5835164835164836,0.4373423044575273,1197.0
400.0,1.7114397480802412e+18,0.47127937336814624,0.3926940639269406,0.3302702702702703,0.4986549278552213,0.6450549450549451,0.43566021867115223,1195.0
401.0,1.7114397480902477e+18,0.48433420365535246,0.4463470319634703,0.35405405405405405,0.5096600635852286,0.6098901098901099,0.4440706476030278,1197.0
402.0,1.7114397481002496e+18,0.4869451697127937,0.4189497716894977,0.3621621621621622,0.5138175593054537,0.6626373626373626,0.4499579478553406,1197.0
403.0,1.711439748110247e+18,0.489556135770235,0.4235159817351598,0.3264864864864865,0.5182196135974566,0.5978021978021978,0.44238856181665265,1198.0
404.0,1.7114397481202473e+18,0.47127937336814624,0.4132420091324201,0.3324324324324324,0.5003668378576669,0.6626373626373626,0.4415475189234651,1196.0
405.0,1.7114397481302474e+18,0.47127937336814624,0.4337899543378995,0.32972972972972975,0.4805575935436537,0.5747252747252747,0.4373423044575273,1196.0
406.0,1.7114397481402455e+18,0.4765013054830287,0.4223744292237443,0.3410810810810811,0.5052580092932257,0.6626373626373626,0.4415475189234651,1197.0
407.0,1.7114397481502438e+18,0.48433420365535246,0.4246575342465753,0.35081081081081084,0.5155294693078992,0.6065934065934065,0.4415475189234651,1192.0
408.0,1.711439748160266e+18,0.48825065274151436,0.4315068493150685,0.35567567567567565,0.5001222792858889,0.6428571428571429,0.43986543313709,1196.0
409.0,1.7114397481702546e+18,0.4765013054830287,0.4178082191780822,0.32756756756756755,0.5020787478601125,0.6065934065934065,0.4415475189234651,1196.0
410.0,1.7114397481802583e+18,0.47911227154047,0.4509132420091324,0.3518918918918919,0.49767669356810956,0.654945054945055,0.44238856181665265,1196.0
411.0,1.7114397481902382e+18,0.4660574412532637,0.3675799086757991,0.3232432432432432,0.48324773783321107,0.5989010989010989,0.4449116904962153,1196.0
412.0,1.7114397482002437e+18,0.5065274151436031,0.4200913242009132,0.33297297297297296,0.49938860357055515,0.6538461538461539,0.4381833473507149,1195.0
413.0,1.711439748210246e+18,0.4699738903394256,0.3938356164383562,0.33135135135135135,0.5138175593054537,0.6131868131868132,0.44575273338940286,1194.0
414.0,1.71143974822025e+18,0.4869451697127937,0.4600456621004566,0.36324324324324325,0.49767669356810956,0.6516483516483517,0.43986543313709,1197.0
415.0,1.711439748230253e+18,0.46344647519582244,0.3938356164383562,0.3254054054054054,0.5037906578625581,0.5945054945054945,0.43650126156433977,1195.0
416.0,1.7114397482402568e+18,0.4765013054830287,0.432648401826484,0.3443243243243243,0.5006113964294449,0.654945054945055,0.43902439024390244,1197.0
417.0,1.7114397482502408e+18,0.47127937336814624,0.3915525114155251,0.32,0.5020787478601125,0.6010989010989011,0.4432296047098402,1197.0
418.0,1.7114397482602452e+18,0.4765013054830287,0.4029680365296804,0.3216216216216216,0.4996331621423331,0.6450549450549451,0.4373423044575273,1197.0
419.0,1.711439748270246e+18,0.489556135770235,0.4383561643835616,0.34216216216216216,0.512350207874786,0.6043956043956044,0.4558452481076535,1196.0
420.0,1.711439748280241e+18,0.4908616187989556,0.4257990867579909,0.3318918918918919,0.49474199070677427,0.654945054945055,0.44911690496215306,1194.0
421.0,1.7114397482902467e+18,0.4765013054830287,0.4223744292237443,0.3308108108108108,0.5018341892883346,0.5901098901098901,0.4449116904962153,1197.0
422.0,1.7114397483002465e+18,0.4765013054830287,0.408675799086758,0.3291891891891892,0.491807287845439,0.6582417582417582,0.44070647603027757,1195.0
423.0,1.711439748310246e+18,0.46866840731070497,0.4018264840182648,0.3232432432432432,0.491562729273661,0.5923076923076923,0.4373423044575273,1197.0
424.0,1.7114397483202447e+18,0.48825065274151436,0.4520547945205479,0.34054054054054056,0.5020787478601125,0.6417582417582418,0.43902439024390244,1195.0
425.0,1.711439748330255e+18,0.4765013054830287,0.4360730593607306,0.34486486486486484,0.5062362435803375,0.6131868131868132,0.4381833473507149,1197.0
426.0,1.7114397483402388e+18,0.47127937336814624,0.4121004566210046,0.33837837837837836,0.5050134507214478,0.6417582417582418,0.4348191757779647,1195.0
427.0,1.711439748350249e+18,0.47780678851174935,0.4315068493150685,0.34486486486486484,0.5055025678650037,0.6010989010989011,0.4440706476030278,1195.0
428.0,1.7114397483602532e+18,0.48172323759791125,0.4178082191780822,0.3362162162162162,0.5064808021521154,0.6461538461538462,0.4314550042052145,1193.0
429.0,1.711439748370248e+18,0.48172323759791125,0.4372146118721461,0.3345945945945946,0.5052580092932257,0.6043956043956044,0.4415475189234651,1195.0
430.0,1.7114397483802524e+18,0.45822454308093996,0.4052511415525114,0.3362162162162162,0.49327463927610665,0.6538461538461539,0.4381833473507149,1196.0
431.0,1.7114397483902454e+18,0.47911227154047,0.4006849315068493,0.3286486486486486,0.5094155050134507,0.6054945054945055,0.4432296047098402,1195.0
432.0,1.7114397484002414e+18,0.4660574412532637,0.4052511415525114,0.3362162162162162,0.5133284421618978,0.656043956043956,0.4381833473507149,1197.0
433.0,1.7114397484102472e+18,0.4765013054830287,0.4269406392694064,0.327027027027027,0.4986549278552213,0.5846153846153846,0.4314550042052145,1193.0
434.0,1.7114397484202458e+18,0.47127937336814624,0.3984018264840183,0.33297297297297296,0.4991440449987772,0.6571428571428571,0.4415475189234651,1195.0
435.0,1.7114397484302305e+18,0.49216710182767626,0.4029680365296804,0.3254054054054054,0.5006113964294449,0.6,0.44575273338940286,1196.0
436.0,1.7114397484402473e+18,0.4869451697127937,0.4349315068493151,0.32972972972972975,0.5047688921496698,0.6604395604395604,0.4415475189234651,1195.0
437.0,1.7114397484502515e+18,0.47780678851174935,0.4063926940639269,0.32756756756756755,0.5255563707507949,0.6087912087912087,0.44070647603027757,1197.0
438.0,1.7114397484602378e+18,0.47780678851174935,0.386986301369863,0.3281081081081081,0.512594766446564,0.654945054945055,0.4381833473507149,1198.0
439.0,1.7114397484702717e+18,0.489556135770235,0.4280821917808219,0.3372972972972973,0.5130838835901198,0.610989010989011,0.4432296047098402,1197.0
440.0,1.7114397484802563e+18,0.4725848563968668,0.4315068493150685,0.36,0.5028124235754463,0.6538461538461539,0.4314550042052145,1193.0
441.0,1.711439748490244e+18,0.46866840731070497,0.4029680365296804,0.32756756756756755,0.512594766446564,0.6186813186813187,0.4482758620689655,1196.0
442.0,1.7114397485002458e+18,0.489556135770235,0.4406392694063927,0.3491891891891892,0.5050134507214478,0.6571428571428571,0.4415475189234651,1196.0
443.0,1.7114397485102461e+18,0.46475195822454307,0.4509132420091324,0.33135135135135135,0.4991440449987772,0.6,0.44238856181665265,1199.0
444.0,1.7114397485202486e+18,0.46475195822454307,0.4315068493150685,0.33675675675675676,0.5177304964539007,0.6659340659340659,0.43902439024390244,1197.0
445.0,1.711439748530241e+18,0.47127937336814624,0.408675799086758,0.33783783783783783,0.5062362435803375,0.589010989010989,0.4381833473507149,1197.0
446.0,1.7114397485402511e+18,0.47389033942558745,0.4075342465753425,0.34594594594594597,0.5055025678650037,0.6813186813186813,0.4440706476030278,1197.0
447.0,1.7114397485502725e+18,0.46344647519582244,0.3561643835616438,0.3124324324324324,0.5020787478601125,0.5923076923076923,0.43902439024390244,1194.0
448.0,1.7114397485602483e+18,0.4751958224543081,0.4212328767123288,0.33675675675675676,0.5037906578625581,0.6516483516483517,0.43566021867115223,1195.0
449.0,1.7114397485702505e+18,0.5039164490861618,0.4383561643835616,0.35405405405405405,0.5050134507214478,0.6065934065934065,0.4449116904962153,1194.0
450.0,1.711439748580264e+18,0.4556135770234987,0.4189497716894977,0.32972972972972975,0.4969430178527757,0.6329670329670329,0.42304457527333894,1193.0
451.0,1.7114397485902364e+18,0.47780678851174935,0.4223744292237443,0.3362162162162162,0.49620934213744194,0.6054945054945055,0.4440706476030278,1196.0
452.0,1.7114397486002476e+18,0.47127937336814624,0.4200913242009132,0.3362162162162162,0.4979212521398875,0.6384615384615384,0.4339781328847771,1192.0
453.0,1.7114397486102477e+18,0.47911227154047,0.4623287671232877,0.35783783783783785,0.5008559550012228,0.5879120879120879,0.4381833473507149,1196.0
454.0,1.7114397486202499e+18,0.47127937336814624,0.454337899543379,0.35945945945945945,0.4883834678405478,0.6428571428571429,0.43986543313709,1196.0
455.0,1.7114397486302523e+18,0.4699738903394256,0.4178082191780822,0.3302702702702703,0.47542186353631694,0.5846153846153846,0.43986543313709,1196.0
456.0,1.7114397486402442e+18,0.47911227154047,0.3858447488584475,0.3264864864864865,0.5077035950110051,0.6472527472527473,0.4339781328847771,1194.0
457.0,1.71143974865025e+18,0.4869451697127937,0.4383561643835616,0.34486486486486484,0.5319148936170213,0.6153846153846154,0.4432296047098402,1199.0
458.0,1.7114397486602504e+18,0.47389033942558745,0.4269406392694064,0.3491891891891892,0.5067253607238934,0.6637362637362637,0.447434819175778,1198.0
459.0,1.7114397486702556e+18,0.48172323759791125,0.4703196347031963,0.34054054054054056,0.4830031792614331,0.5978021978021978,0.4507989907485282,1197.0
460.0,1.7114397486802527e+18,0.46475195822454307,0.3915525114155251,0.3302702702702703,0.5001222792858889,0.6472527472527473,0.4415475189234651,1198.0
461.0,1.7114397486902495e+18,0.46475195822454307,0.3744292237442922,0.3124324324324324,0.5250672536072389,0.6054945054945055,0.4432296047098402,1196.0
462.0,1.7114397487002486e+18,0.5026109660574413,0.4452054794520548,0.3621621621621622,0.5074590364392272,0.6461538461538462,0.4339781328847771,1196.0
463.0,1.7114397487102484e+18,0.4765013054830287,0.410958904109589,0.34216216216216216,0.5128393250183418,0.6076923076923076,0.44575273338940286,1197.0
464.0,1.71143974872025e+18,0.47780678851174935,0.4075342465753425,0.3324324324324324,0.49523110785033014,0.6285714285714286,0.4314550042052145,1195.0
465.0,1.711439748730254e+18,0.4725848563968668,0.4075342465753425,0.3427027027027027,0.5106382978723404,0.6065934065934065,0.4415475189234651,1196.0
466.0,1.7114397487402606e+18,0.48433420365535246,0.4235159817351598,0.3345945945945946,0.49767669356810956,0.6505494505494506,0.4381833473507149,1197.0
467.0,1.7114397487502336e+18,0.4804177545691906,0.4143835616438356,0.33405405405405403,0.495964783565664,0.5978021978021978,0.43986543313709,1196.0
468.0,1.7114397487602378e+18,0.47127937336814624,0.3835616438356164,0.3216216216216216,0.5011005135730008,0.6318681318681318,0.4314550042052145,1193.0
469.0,1.711439748770237e+18,0.489556135770235,0.4497716894977169,0.35243243243243244,0.5064808021521154,0.5989010989010989,0.4415475189234651,1198.0
470.0,1.7114397487802386e+18,0.4856396866840731,0.3892694063926941,0.32432432432432434,0.504524333577892,0.667032967032967,0.4415475189234651,1196.0
471.0,1.7114397487902392e+18,0.47389033942558745,0.3767123287671233,0.3216216216216216,0.5133284421618978,0.6010989010989011,0.4432296047098402,1197.0
472.0,1.711439748800236e+18,0.48172323759791125,0.4337899543378995,0.33675675675675676,0.4942528735632184,0.6615384615384615,0.4415475189234651,1195.0
473.0,1.7114397488102484e+18,0.48433420365535246,0.4520547945205479,0.35027027027027025,0.5025678650036683,0.5923076923076923,0.43986543313709,1196.0
474.0,1.711439748820246e+18,0.4621409921671018,0.3789954337899543,0.3210810810810811,0.5140621178772316,0.6736263736263737,0.4381833473507149,1197.0
475.0,1.7114397488302492e+18,0.4765013054830287,0.3904109589041096,0.3362162162162162,0.5099046221570066,0.6010989010989011,0.43986543313709,1196.0
476.0,1.711439748840249e+18,0.48172323759791125,0.4178082191780822,0.3345945945945946,0.4969430178527757,0.6703296703296703,0.4381833473507149,1194.0
477.0,1.7114397488502528e+18,0.4804177545691906,0.4280821917808219,0.3291891891891892,0.49082905355832723,0.5846153846153846,0.4415475189234651,1197.0
478.0,1.7114397488602488e+18,0.49216710182767626,0.4155251141552511,0.3345945945945946,0.4925409635607728,0.654945054945055,0.43902439024390244,1195.0
479.0,1.711439748870246e+18,0.4751958224543081,0.4098173515981735,0.32432432432432434,0.4937637564196625,0.5923076923076923,0.44238856181665265,1197.0
480.0,1.7114397488802593e+18,0.4830287206266319,0.4178082191780822,0.34054054054054056,0.5152849107361213,0.6747252747252748,0.4415475189234651,1198.0
481.0,1.711439748890281e+18,0.4934725848563969,0.4497716894977169,0.34378378378378377,0.5162631450232331,0.5989010989010989,0.4440706476030278,1198.0
482.0,1.7114397489002447e+18,0.48825065274151436,0.4075342465753425,0.34162162162162163,0.5077035950110051,0.667032967032967,0.43902439024390244,1195.0
483.0,1.7114397489102444e+18,0.4699738903394256,0.4280821917808219,0.34540540540540543,0.5118610907312301,0.6098901098901099,0.44575273338940286,1195.0
484.0,1.7114397489202465e+18,0.4830287206266319,0.3732876712328767,0.3372972972972973,0.49351919784788456,0.6582417582417582,0.4415475189234651,1194.0
485.0,1.7114397489302508e+18,0.4908616187989556,0.4474885844748858,0.36,0.504524333577892,0.6032967032967033,0.4440706476030278,1193.0
486.0,1.7114397489402573e+18,0.4556135770234987,0.3915525114155251,0.3308108108108108,0.5011005135730008,0.656043956043956,0.4381833473507149,1197.0
487.0,1.7114397489502513e+18,0.4765013054830287,0.3904109589041096,0.33135135135135135,0.5057471264367817,0.5956043956043956,0.44575273338940286,1195.0
488.0,1.7114397489602555e+18,0.48433420365535246,0.386986301369863,0.3535135135135135,0.4984103692834434,0.6648351648351648,0.44238856181665265,1196.0
489.0,1.7114397489702446e+18,0.46344647519582244,0.3184931506849315,0.3227027027027027,0.5055025678650037,0.6,0.44575273338940286,1194.0
490.0,1.711439748980277e+18,0.4934725848563969,0.3744292237442922,0.33783783783783783,0.4803130349718758,0.6516483516483517,0.4381833473507149,1198.0
491.0,1.7114397489902426e+18,0.45822454308093996,0.3755707762557078,0.312972972972973,0.49523110785033014,0.5945054945054945,0.43902439024390244,1197.0
492.0,1.7114397490002504e+18,0.4869451697127937,0.4372146118721461,0.32756756756756755,0.49033993641477136,0.6604395604395604,0.4381833473507149,1197.0
493.0,1.7114397490102472e+18,0.4869451697127937,0.4383561643835616,0.3389189189189189,0.504035216434336,0.5978021978021978,0.44238856181665265,1197.0
494.0,1.7114397490202527e+18,0.4804177545691906,0.4474885844748858,0.34324324324324323,0.512350207874786,0.6538461538461539,0.4373423044575273,1196.0
495.0,1.7114397490302528e+18,0.45039164490861616,0.3778538812785388,0.3108108108108108,0.5025678650036683,0.5879120879120879,0.43650126156433977,1197.0
496.0,1.7114397490402355e+18,0.4621409921671018,0.3995433789954338,0.3362162162162162,0.4788456835412081,0.6362637362637362,0.43566021867115223,1197.0
497.0,1.7114397490502492e+18,0.47911227154047,0.4223744292237443,0.32432432432432434,0.49400831499144043,0.5813186813186814,0.4373423044575273,1196.0
498.0,1.711439749060247e+18,0.4608355091383812,0.3984018264840183,0.3264864864864865,0.5094155050134507,0.6450549450549451,0.4339781328847771,1195.0
499.0,1.7114397490702548e+18,0.47389033942558745,0.4269406392694064,0.34162162162162163,0.5201760821716801,0.6010989010989011,0.4440706476030278,1198.0
500.0,1.71143974908025e+18,0.4765013054830287,0.4246575342465753,0.33513513513513515,0.5008559550012228,0.6571428571428571,0.4415475189234651,1198.0
501.0,1.7114397490902405e+18,0.4765013054830287,0.4132420091324201,0.3372972972972973,0.5028124235754463,0.6010989010989011,0.44070647603027757,1197.0
502.0,1.7114397491002545e+18,0.48825065274151436,0.4440639269406393,0.34756756756756757,0.5064808021521154,0.6659340659340659,0.4415475189234651,1197.0
503.0,1.7114397491102461e+18,0.4699738903394256,0.3972602739726027,0.31675675675675674,0.504035216434336,0.6054945054945055,0.44238856181665265,1197.0
504.0,1.7114397491202483e+18,0.4804177545691906,0.478310502283105,0.3410810810810811,0.5011005135730008,0.654945054945055,0.4381833473507149,1197.0
505.0,1.7114397491302492e+18,0.47911227154047,0.4098173515981735,0.3254054054054054,0.48691611640988014,0.6021978021978022,0.4449116904962153,1196.0
506.0,1.7114397491402414e+18,0.46866840731070497,0.4155251141552511,0.33945945945945943,0.49400831499144043,0.6494505494505495,0.4373423044575273,1194.0
507.0,1.711439749150241e+18,0.4765013054830287,0.4600456621004566,0.3589189189189189,0.5089263878698949,0.6076923076923076,0.4432296047098402,1195.0
508.0,1.7114397491602432e+18,0.4765013054830287,0.3972602739726027,0.32054054054054054,0.5020787478601125,0.654945054945055,0.43902439024390244,1195.0
509.0,1.711439749170243e+18,0.4765013054830287,0.4383561643835616,0.34486486486486484,0.5059916850085595,0.6010989010989011,0.4415475189234651,1196.0
510.0,1.711439749180248e+18,0.46866840731070497,0.4235159817351598,0.34162162162162163,0.4888725849841037,0.6450549450549451,0.4348191757779647,1196.0
511.0,1.7114397491902467e+18,0.46344647519582244,0.3949771689497717,0.33135135135135135,0.5020787478601125,0.5967032967032967,0.43902439024390244,1194.0
512.0,1.711439749200249e+18,0.48172323759791125,0.4817351598173516,0.36972972972972973,0.5001222792858889,0.6494505494505495,0.43566021867115223,1194.0
513.0,1.7114397492102482e+18,0.489556135770235,0.4360730593607306,0.35135135135135137,0.5055025678650037,0.6065934065934065,0.4440706476030278,1194.0
514.0,1.7114397492202504e+18,0.47127937336814624,0.3904109589041096,0.32756756756756755,0.49523110785033014,0.6538461538461539,0.4373423044575273,1195.0
515.0,1.711439749230267e+18,0.46866840731070497,0.3881278538812785,0.31567567567567567,0.504035216434336,0.6,0.4415475189234651,1195.0
516.0,1.7114397492402621e+18,0.4765013054830287,0.410958904109589,0.32972972972972975,0.5089263878698949,0.6626373626373626,0.43902439024390244,1195.0
517.0,1.7114397492502615e+18,0.49738903394255873,0.4372146118721461,0.352972972972973,0.512350207874786,0.6175824175824176,0.4432296047098402,1195.0
518.0,1.711439749260267e+18,0.47389033942558745,0.4155251141552511,0.3362162162162162,0.5030569821472243,0.6582417582417582,0.43902439024390244,1196.0
519.0,1.7114397492702687e+18,0.4765013054830287,0.4178082191780822,0.33675675675675676,0.5157740278796772,0.6043956043956044,0.44575273338940286,1197.0
520.0,1.7114397492802826e+18,0.4765013054830287,0.4212328767123288,0.33837837837837836,0.5015896307165566,0.654945054945055,0.43986543313709,1197.0
521.0,1.7114397492902456e+18,0.48433420365535246,0.4337899543378995,0.33675675675675676,0.5099046221570066,0.5967032967032967,0.4432296047098402,1196.0
522.0,1.711439749300253e+18,0.4830287206266319,0.4315068493150685,0.3535135135135135,0.5069699192956714,0.667032967032967,0.4415475189234651,1196.0
523.0,1.7114397493102502e+18,0.4856396866840731,0.3915525114155251,0.3172972972972973,0.5280019564685742,0.5901098901098901,0.4381833473507149,1197.0
524.0,1.711439749320251e+18,0.49477806788511747,0.4178082191780822,0.32216216216216215,0.5079481535827831,0.6450549450549451,0.43566021867115223,1197.0
525.0,1.71143974933025e+18,0.47911227154047,0.4269406392694064,0.3362162162162162,0.5013450721447786,0.5945054945054945,0.4381833473507149,1196.0
526.0,1.711439749340248e+18,0.47389033942558745,0.4452054794520548,0.3583783783783784,0.4937637564196625,0.6538461538461539,0.43650126156433977,1197.0
527.0,1.7114397493502492e+18,0.4830287206266319,0.4121004566210046,0.33135135135135135,0.5064808021521154,0.589010989010989,0.4381833473507149,1195.0
528.0,1.7114397493602455e+18,0.48172323759791125,0.4463470319634703,0.3372972972972973,0.5020787478601125,0.6615384615384615,0.4381833473507149,1197.0
529.0,1.7114397493702484e+18,0.4660574412532637,0.4098173515981735,0.32,0.49767669356810956,0.5901098901098901,0.43902439024390244,1196.0
530.0,1.7114397493802511e+18,0.4765013054830287,0.3961187214611872,0.3302702702702703,0.5025678650036683,0.6494505494505495,0.4339781328847771,1192.0
531.0,1.7114397493902467e+18,0.46866840731070497,0.4155251141552511,0.3362162162162162,0.4771337735387625,0.5901098901098901,0.43902439024390244,1197.0
532.0,1.7114397494002445e+18,0.4765013054830287,0.4178082191780822,0.3535135135135135,0.5013450721447786,0.6604395604395604,0.4381833473507149,1197.0
533.0,1.711439749410245e+18,0.4934725848563969,0.4463470319634703,0.34162162162162163,0.5055025678650037,0.6076923076923076,0.4449116904962153,1199.0
534.0,1.7114397494202432e+18,0.47780678851174935,0.410958904109589,0.3335135135135135,0.5006113964294449,0.6538461538461539,0.4381833473507149,1196.0
535.0,1.7114397494303076e+18,0.47911227154047,0.4497716894977169,0.3410810810810811,0.504279775006114,0.6065934065934065,0.4432296047098402,1199.0
536.0,1.7114397494402473e+18,0.49216710182767626,0.4052511415525114,0.31027027027027027,0.491807287845439,0.6153846153846154,0.4188393608074012,1193.0
537.0,1.7114397494502577e+18,0.48433420365535246,0.408675799086758,0.33297297297297296,0.5353387136219124,0.6032967032967033,0.4440706476030278,1197.0
538.0,1.711439749460256e+18,0.4660574412532637,0.408675799086758,0.3345945945945946,0.4984103692834434,0.6527472527472528,0.43566021867115223,1197.0
539.0,1.7114397494702612e+18,0.4869451697127937,0.430365296803653,0.34216216216216216,0.5025678650036683,0.5978021978021978,0.4432296047098402,1197.0
540.0,1.7114397494802644e+18,0.4830287206266319,0.4509132420091324,0.34864864864864864,0.4986549278552213,0.6483516483516484,0.43566021867115223,1197.0
541.0,1.7114397494902592e+18,0.4608355091383812,0.3949771689497717,0.3345945945945946,0.5096600635852286,0.6065934065934065,0.44575273338940286,1198.0
542.0,1.7114397495002483e+18,0.4621409921671018,0.4018264840182648,0.32972972972972975,0.4930300807043287,0.6395604395604395,0.4339781328847771,1193.0
543.0,1.7114397495102525e+18,0.4765013054830287,0.4143835616438356,0.33297297297297296,0.504279775006114,0.5791208791208792,0.4373423044575273,1197.0
544.0,1.7114397495202493e+18,0.48433420365535246,0.4577625570776256,0.33405405405405403,0.5025678650036683,0.6626373626373626,0.44070647603027757,1198.0
545.0,1.7114397495302625e+18,0.489556135770235,0.3949771689497717,0.3237837837837838,0.5018341892883346,0.6054945054945055,0.4449116904962153,1195.0
546.0,1.7114397495402435e+18,0.45300261096605743,0.4041095890410959,0.33297297297297296,0.4913181707018831,0.6285714285714286,0.4314550042052145,1193.0
547.0,1.7114397495502492e+18,0.46475195822454307,0.4143835616438356,0.33297297297297296,0.5101491807287846,0.5945054945054945,0.4415475189234651,1194.0
548.0,1.711439749560244e+18,0.4765013054830287,0.4212328767123288,0.3427027027027027,0.5030569821472243,0.6582417582417582,0.4415475189234651,1195.0
549.0,1.7114397495702513e+18,0.47780678851174935,0.4178082191780822,0.3362162162162162,0.5255563707507949,0.6153846153846154,0.4432296047098402,1195.0
550.0,1.7114397495802514e+18,0.47127937336814624,0.4132420091324201,0.33675675675675676,0.5033015407190022,0.6626373626373626,0.43902439024390244,1195.0
551.0,1.7114397495902564e+18,0.4856396866840731,0.4018264840182648,0.3302702702702703,0.5067253607238934,0.6,0.44070647603027757,1195.0
552.0,1.7114397496002468e+18,0.49216710182767626,0.454337899543379,0.3572972972972973,0.5201760821716801,0.6648351648351648,0.4381833473507149,1195.0
553.0,1.7114397496102508e+18,0.4765013054830287,0.4063926940639269,0.32972972972972975,0.4969430178527757,0.5879120879120879,0.4373423044575273,1197.0
554.0,1.71143974962025e+18,0.4699738903394256,0.3892694063926941,0.31891891891891894,0.504279775006114,0.6527472527472528,0.43566021867115223,1195.0
555.0,1.711439749630264e+18,0.4869451697127937,0.4931506849315068,0.36648648648648646,0.5108828564441183,0.5978021978021978,0.44238856181665265,1195.0
556.0,1.7114397496402499e+18,0.4621409921671018,0.384703196347032,0.3237837837837838,0.4930300807043287,0.6296703296703297,0.4280908326324643,1193.0
557.0,1.7114397496502566e+18,0.46736292428198434,0.4018264840182648,0.3216216216216216,0.48642699926632427,0.5802197802197803,0.43566021867115223,1197.0
558.0,1.7114397496602524e+18,0.48172323759791125,0.4223744292237443,0.33297297297297296,0.48813890926876985,0.6450549450549451,0.43650126156433977,1196.0
559.0,1.7114397496702508e+18,0.47389033942558745,0.3858447488584475,0.3232432432432432,0.5108828564441183,0.6065934065934065,0.43986543313709,1198.0
560.0,1.7114397496802468e+18,0.48172323759791125,0.430365296803653,0.31891891891891894,0.49474199070677427,0.6615384615384615,0.44070647603027757,1196.0
561.0,1.7114397496902382e+18,0.48825065274151436,0.4337899543378995,0.35135135135135137,0.512594766446564,0.6021978021978022,0.4449116904962153,1195.0
562.0,1.7114397497002527e+18,0.4699738903394256,0.4166666666666667,0.3362162162162162,0.4986549278552213,0.6483516483516484,0.43566021867115223,1195.0
563.0,1.7114397497102513e+18,0.4908616187989556,0.4246575342465753,0.32756756756756755,0.5121056493030081,0.610989010989011,0.4432296047098402,1195.0
564.0,1.7114397497202542e+18,0.46866840731070497,0.4006849315068493,0.34486486486486484,0.5055025678650037,0.6505494505494506,0.43566021867115223,1196.0
565.0,1.7114397497310034e+18,0.49216710182767626,0.4132420091324201,0.33297297297297296,0.5064808021521154,0.6021978021978022,0.4449116904962153,1197.0
566.0,1.7114397497402703e+18,0.47780678851174935,0.4121004566210046,0.33837837837837836,0.49816581071166544,0.6571428571428571,0.43902439024390244,1196.0
567.0,1.7114397497502577e+18,0.4934725848563969,0.4520547945205479,0.3589189189189189,0.516507703595011,0.6142857142857143,0.4440706476030278,1195.0
568.0,1.711439749760261e+18,0.46736292428198434,0.4006849315068493,0.3232432432432432,0.4896062606994375,0.6461538461538462,0.43902439024390244,1196.0
569.0,1.711439749770263e+18,0.4765013054830287,0.4155251141552511,0.33675675675675676,0.5069699192956714,0.5934065934065934,0.4432296047098402,1196.0
570.0,1.711439749780317e+18,0.47780678851174935,0.4474885844748858,0.34756756756756757,0.5003668378576669,0.654945054945055,0.43650126156433977,1196.0
571.0,1.7114397497902825e+18,0.4725848563968668,0.4212328767123288,0.34594594594594597,0.5006113964294449,0.6065934065934065,0.4449116904962153,1195.0
572.0,1.7114397498002565e+18,0.46344647519582244,0.365296803652968,0.31891891891891894,0.4859378821227684,0.6604395604395604,0.4415475189234651,1197.0
573.0,1.71143974981026e+18,0.48433420365535246,0.4063926940639269,0.3264864864864865,0.5199315235999021,0.6043956043956044,0.44238856181665265,1197.0
574.0,1.7114397498202609e+18,0.48172323759791125,0.4121004566210046,0.3345945945945946,0.5037906578625581,0.6538461538461539,0.43902439024390244,1193.0
575.0,1.7114397498302643e+18,0.45691906005221933,0.4132420091324201,0.33945945945945943,0.5003668378576669,0.5879120879120879,0.4339781328847771,1193.0
576.0,1.711439749840269e+18,0.46475195822454307,0.4189497716894977,0.34162162162162163,0.495964783565664,0.6274725274725275,0.4314550042052145,1194.0
577.0,1.7114397498502564e+18,0.47127937336814624,0.3949771689497717,0.32216216216216215,0.5072144778674492,0.6,0.4381833473507149,1197.0
578.0,1.7114397498602478e+18,0.48433420365535246,0.4589041095890411,0.3389189189189189,0.49816581071166544,0.6527472527472528,0.4381833473507149,1198.0
579.0,1.711439749870246e+18,0.4765013054830287,0.4063926940639269,0.3308108108108108,0.5030569821472243,0.6054945054945055,0.4415475189234651,1197.0
580.0,1.711439749880299e+18,0.4751958224543081,0.4052511415525114,0.3286486486486486,0.5028124235754463,0.6571428571428571,0.4381833473507149,1195.0
581.0,1.7114397498902515e+18,0.47911227154047,0.4349315068493151,0.3427027027027027,0.5033015407190022,0.5956043956043956,0.4432296047098402,1198.0
582.0,1.711439749900258e+18,0.4856396866840731,0.4155251141552511,0.33945945945945943,0.48667155783810223,0.6406593406593407,0.43566021867115223,1196.0
583.0,1.7114397499102505e+18,0.4765013054830287,0.4155251141552511,0.3362162162162162,0.499877720714111,0.6076923076923076,0.4432296047098402,1196.0
584.0,1.7114397499202578e+18,0.4725848563968668,0.4121004566210046,0.33513513513513515,0.5152849107361213,0.6637362637362637,0.43986543313709,1197.0
585.0,1.7114397499302656e+18,0.4869451697127937,0.4429223744292237,0.34054054054054056,0.5057471264367817,0.6065934065934065,0.4482758620689655,1196.0
586.0,1.711439749940267e+18,0.47127937336814624,0.4052511415525114,0.34324324324324323,0.5025678650036683,0.654945054945055,0.43650126156433977,1196.0
587.0,1.7114397499502612e+18,0.48172323759791125,0.4200913242009132,0.34486486486486484,0.504524333577892,0.6,0.44238856181665265,1196.0
588.0,1.7114397499602752e+18,0.4725848563968668,0.4429223744292237,0.3491891891891892,0.5001222792858889,0.654945054945055,0.43902439024390244,1196.0
589.0,1.7114397499702692e+18,0.4765013054830287,0.3961187214611872,0.3302702702702703,0.5077035950110051,0.5978021978021978,0.4415475189234651,1196.0
590.0,1.7114397499802844e+18,0.4699738903394256,0.4223744292237443,0.33405405405405403,0.4986549278552213,0.6417582417582418,0.43650126156433977,1196.0
591.0,1.7114397499902735e+18,0.47127937336814624,0.3995433789954338,0.33297297297297296,0.504524333577892,0.6021978021978022,0.43986543313709,1196.0
592.0,1.711439750000257e+18,0.4856396866840731,0.4646118721461187,0.3881081081081081,0.504035216434336,0.6505494505494506,0.43650126156433977,1196.0
593.0,1.711439750010254e+18,0.4595300261096606,0.3915525114155251,0.32,0.5057471264367817,0.5901098901098901,0.44238856181665265,1198.0
594.0,1.711439750020259e+18,0.45039164490861616,0.3584474885844749,0.32432432432432434,0.4996331621423331,0.6637362637362637,0.44238856181665265,1197.0
595.0,1.7114397500302828e+18,0.4856396866840731,0.4155251141552511,0.33405405405405403,0.4991440449987772,0.5923076923076923,0.43902439024390244,1198.0
596.0,1.7114397500402793e+18,0.47389033942558745,0.4337899543378995,0.3464864864864865,0.5084372707263389,0.643956043956044,0.432296047098402,1195.0
597.0,1.711439750050255e+18,0.4725848563968668,0.4200913242009132,0.3264864864864865,0.512594766446564,0.5989010989010989,0.4381833473507149,1197.0
598.0,1.7114397500602583e+18,0.4595300261096606,0.3995433789954338,0.3335135135135135,0.5099046221570066,0.6626373626373626,0.43902439024390244,1199.0
599.0,1.7114397500702556e+18,0.5104438642297651,0.430365296803653,0.3254054054054054,0.4991440449987772,0.6054945054945055,0.4465937762825904,1197.0
600.0,1.7114397500802757e+18,0.4765013054830287,0.4372146118721461,0.34756756756756757,0.5011005135730008,0.6604395604395604,0.43902439024390244,1197.0
601.0,1.711439750090269e+18,0.4725848563968668,0.4269406392694064,0.34,0.5030569821472243,0.5879120879120879,0.4381833473507149,1196.0
602.0,1.711439750100268e+18,0.4516971279373368,0.3949771689497717,0.3362162162162162,0.49767669356810956,0.6494505494505495,0.4339781328847771,1194.0
603.0,1.7114397501102671e+18,0.4608355091383812,0.4178082191780822,0.3362162162162162,0.5074590364392272,0.6021978021978022,0.44238856181665265,1195.0
604.0,1.7114397501202537e+18,0.47389033942558745,0.4269406392694064,0.33783783783783783,0.5015896307165566,0.6582417582417582,0.4381833473507149,1195.0
605.0,1.7114397501302548e+18,0.47780678851174935,0.4155251141552511,0.3264864864864865,0.5091709464416728,0.5989010989010989,0.44070647603027757,1196.0
606.0,1.7114397501402755e+18,0.4804177545691906,0.410958904109589,0.33405405405405403,0.5011005135730008,0.6582417582417582,0.43566021867115223,1196.0
607.0,1.7114397501502505e+18,0.4804177545691906,0.4235159817351598,0.3410810810810811,0.5057471264367817,0.6054945054945055,0.44575273338940286,1196.0
608.0,1.711439750160275e+18,0.48172323759791125,0.4132420091324201,0.33135135135135135,0.49498654927855223,0.6571428571428571,0.44238856181665265,1194.0
609.0,1.7114397501702572e+18,0.489556135770235,0.4200913242009132,0.3291891891891892,0.5006113964294449,0.5956043956043956,0.44070647603027757,1195.0
610.0,1.7114397501802578e+18,0.4725848563968668,0.4189497716894977,0.3254054054054054,0.4944974321349963,0.6505494505494506,0.4373423044575273,1196.0
611.0,1.7114397501902866e+18,0.4699738903394256,0.4429223744292237,0.33945945945945943,0.5025678650036683,0.5967032967032967,0.44070647603027757,1195.0
612.0,1.7114397502002819e+18,0.49738903394255873,0.4006849315068493,0.3362162162162162,0.5008559550012228,0.6593406593406593,0.43986543313709,1196.0
613.0,1.7114397502102676e+18,0.48172323759791125,0.4200913242009132,0.33405405405405403,0.5030569821472243,0.6076923076923076,0.4432296047098402,1197.0
614.0,1.7114397502202583e+18,0.44778067885117495,0.4417808219178082,0.33135135135135135,0.4991440449987772,0.6483516483516484,0.4373423044575273,1197.0
615.0,1.7114397502302574e+18,0.4856396866840731,0.384703196347032,0.31891891891891894,0.5008559550012228,0.589010989010989,0.4381833473507149,1198.0
616.0,1.711439750240275e+18,0.4621409921671018,0.4063926940639269,0.35621621621621624,0.5035460992907801,0.6483516483516484,0.4339781328847771,1191.0
617.0,1.71143975025026e+18,0.45822454308093996,0.4006849315068493,0.3210810810810811,0.4856933235509905,0.6010989010989011,0.44238856181665265,1196.0
618.0,1.7114397502602662e+18,0.4725848563968668,0.4132420091324201,0.34054054054054056,0.5143066764490095,0.6417582417582418,0.43566021867115223,1197.0
619.0,1.7114397502702656e+18,0.4660574412532637,0.4121004566210046,0.3356756756756757,0.5067253607238934,0.6021978021978022,0.4415475189234651,1197.0
620.0,1.7114397502802688e+18,0.4595300261096606,0.4132420091324201,0.35621621621621624,0.499877720714111,0.6538461538461539,0.4415475189234651,1195.0
621.0,1.711439750290278e+18,0.4699738903394256,0.3915525114155251,0.3232432432432432,0.5067253607238934,0.5967032967032967,0.4373423044575273,1196.0
622.0,1.7114397503002557e+18,0.46866840731070497,0.408675799086758,0.33405405405405403,0.4859378821227684,0.6505494505494506,0.4339781328847771,1197.0
623.0,1.7114397503102467e+18,0.48433420365535246,0.4292237442922374,0.34594594594594597,0.5089263878698949,0.5923076923076923,0.43986543313709,1198.0
624.0,1.7114397503202588e+18,0.47389033942558745,0.4360730593607306,0.34324324324324323,0.504035216434336,0.6604395604395604,0.43986543313709,1195.0
625.0,1.7114397503302638e+18,0.47780678851174935,0.410958904109589,0.33297297297297296,0.5067253607238934,0.6010989010989011,0.43986543313709,1196.0
626.0,1.711439750340247e+18,0.46475195822454307,0.4315068493150685,0.33837837837837836,0.4988994864269993,0.6527472527472528,0.4381833473507149,1196.0
627.0,1.711439750350252e+18,0.4869451697127937,0.4406392694063927,0.35135135135135137,0.5037906578625581,0.5857142857142857,0.43650126156433977,1195.0
628.0,1.711439750360261e+18,0.4608355091383812,0.3812785388127854,0.3318918918918919,0.4991440449987772,0.6505494505494506,0.4373423044575273,1193.0
629.0,1.7114397503702572e+18,0.48433420365535246,0.3995433789954338,0.3227027027027027,0.4996331621423331,0.5967032967032967,0.4440706476030278,1196.0
630.0,1.711439750380258e+18,0.4856396866840731,0.4178082191780822,0.34054054054054056,0.5064808021521154,0.656043956043956,0.43986543313709,1196.0
631.0,1.7114397503902605e+18,0.5195822454308094,0.4178082191780822,0.3362162162162162,0.5094155050134507,0.5978021978021978,0.4440706476030278,1193.0
632.0,1.7114397504002486e+18,0.4725848563968668,0.3915525114155251,0.33405405405405403,0.4966984592809978,0.6538461538461539,0.43902439024390244,1196.0
633.0,1.7114397504102513e+18,0.5078328981723238,0.4429223744292237,0.34378378378378377,0.5050134507214478,0.6021978021978022,0.4440706476030278,1196.0
634.0,1.7114397504202511e+18,0.45822454308093996,0.4041095890410959,0.3372972972972973,0.4937637564196625,0.6505494505494506,0.43986543313709,1198.0
635.0,1.711439750430258e+18,0.47389033942558745,0.3938356164383562,0.3308108108108108,0.5033015407190022,0.5593406593406594,0.4289318755256518,1192.0
636.0,1.7114397504402808e+18,0.44778067885117495,0.432648401826484,0.33837837837837836,0.5086818292981169,0.6626373626373626,0.4381833473507149,1197.0
637.0,1.711439750450252e+18,0.4765013054830287,0.4235159817351598,0.3345945945945946,0.5035460992907801,0.5934065934065934,0.4415475189234651,1197.0
638.0,1.7114397504602627e+18,0.4765013054830287,0.4223744292237443,0.3372972972972973,0.49498654927855223,0.6450549450549451,0.43902439024390244,1196.0
639.0,1.711439750470266e+18,0.4765013054830287,0.4178082191780822,0.34864864864864864,0.5015896307165566,0.5945054945054945,0.4415475189234651,1197.0
640.0,1.7114397504802655e+18,0.48433420365535246,0.432648401826484,0.3389189189189189,0.49816581071166544,0.6516483516483517,0.4381833473507149,1196.0
641.0,1.7114397504902838e+18,0.4830287206266319,0.4315068493150685,0.33513513513513515,0.5059916850085595,0.6021978021978022,0.4415475189234651,1198.0
642.0,1.7114397505002662e+18,0.45691906005221933,0.3812785388127854,0.31945945945945947,0.49327463927610665,0.6483516483516484,0.4339781328847771,1195.0
643.0,1.7114397505102415e+18,0.46344647519582244,0.4041095890410959,0.3281081081081081,0.512350207874786,0.6043956043956044,0.4415475189234651,1197.0
644.0,1.711439750520257e+18,0.4934725848563969,0.4360730593607306,0.35405405405405405,0.5023233064318905,0.6527472527472528,0.4381833473507149,1196.0
645.0,1.7114397505302794e+18,0.4621409921671018,0.3561643835616438,0.3216216216216216,0.4991440449987772,0.5934065934065934,0.44238856181665265,1197.0
646.0,1.7114397505402609e+18,0.46344647519582244,0.4360730593607306,0.35621621621621624,0.5006113964294449,0.6538461538461539,0.43902439024390244,1196.0
647.0,1.7114397505502461e+18,0.4725848563968668,0.3789954337899543,0.3216216216216216,0.4969430178527757,0.589010989010989,0.4373423044575273,1196.0
648.0,1.7114397505602609e+18,0.4765013054830287,0.4178082191780822,0.3389189189189189,0.5055025678650037,0.6494505494505495,0.43566021867115223,1194.0
649.0,1.711439750570253e+18,0.47389033942558745,0.4143835616438356,0.33405405405405403,0.5008559550012228,0.6,0.44238856181665265,1194.0
650.0,1.7114397505802606e+18,0.47127937336814624,0.4360730593607306,0.3254054054054054,0.49816581071166544,0.6505494505494506,0.4381833473507149,1195.0
651.0,1.7114397505902628e+18,0.47911227154047,0.4052511415525114,0.3518918918918919,0.516507703595011,0.5923076923076923,0.43986543313709,1197.0
652.0,1.7114397506002573e+18,0.4765013054830287,0.4383561643835616,0.34378378378378377,0.49400831499144043,0.6406593406593407,0.432296047098402,1192.0
653.0,1.711439750610247e+18,0.45691906005221933,0.3926940639269406,0.3232432432432432,0.508192712154561,0.5989010989010989,0.4432296047098402,1196.0
654.0,1.711439750620256e+18,0.489556135770235,0.4200913242009132,0.32594594594594595,0.5174859378821227,0.6461538461538462,0.4381833473507149,1197.0
655.0,1.7114397506302917e+18,0.47127937336814624,0.3915525114155251,0.33135135135135135,0.5084372707263389,0.6032967032967033,0.44238856181665265,1197.0
656.0,1.7114397506402744e+18,0.47389033942558745,0.410958904109589,0.33297297297297296,0.5084372707263389,0.6538461538461539,0.43313708999158956,1194.0
657.0,1.711439750650259e+18,0.4765013054830287,0.3858447488584475,0.3145945945945946,0.5113719735876743,0.5989010989010989,0.4432296047098402,1197.0
658.0,1.711439750660265e+18,0.49738903394255873,0.4223744292237443,0.32432432432432434,0.5001222792858889,0.6461538461538462,0.4373423044575273,1196.0
659.0,1.7114397506702513e+18,0.47389033942558745,0.3961187214611872,0.3248648648648649,0.504035216434336,0.6010989010989011,0.4432296047098402,1196.0
660.0,1.7114397506802785e+18,0.4660574412532637,0.4063926940639269,0.3410810810810811,0.49058449498654927,0.654945054945055,0.43902439024390244,1194.0
661.0,1.711439750690259e+18,0.47127937336814624,0.4143835616438356,0.34702702702702704,0.5028124235754463,0.5945054945054945,0.4415475189234651,1197.0
662.0,1.7114397507002598e+18,0.4765013054830287,0.4098173515981735,0.34216216216216216,0.4883834678405478,0.6307692307692307,0.4314550042052145,1192.0
663.0,1.7114397507102543e+18,0.4934725848563969,0.4292237442922374,0.32972972972972975,0.5050134507214478,0.6,0.4440706476030278,1197.0
664.0,1.711439750720257e+18,0.4765013054830287,0.4292237442922374,0.3291891891891892,0.5079481535827831,0.6582417582417582,0.4415475189234651,1197.0
665.0,1.711439750730257e+18,0.4765013054830287,0.4143835616438356,0.34162162162162163,0.5113719735876743,0.589010989010989,0.4373423044575273,1196.0
666.0,1.7114397507402803e+18,0.45691906005221933,0.4269406392694064,0.33675675675675676,0.5299584250427978,0.6659340659340659,0.43902439024390244,1197.0
667.0,1.7114397507502702e+18,0.47127937336814624,0.3972602739726027,0.3254054054054054,0.5006113964294449,0.6010989010989011,0.43650126156433977,1196.0
668.0,1.711439750760258e+18,0.47389033942558745,0.4155251141552511,0.33945945945945943,0.5033015407190022,0.6538461538461539,0.43902439024390244,1196.0
669.0,1.711439750770261e+18,0.4869451697127937,0.4497716894977169,0.3410810810810811,0.5055025678650037,0.5945054945054945,0.4415475189234651,1197.0
670.0,1.7114397507802783e+18,0.46736292428198434,0.4269406392694064,0.3491891891891892,0.5013450721447786,0.6593406593406593,0.43986543313709,1198.0
671.0,1.7114397507902513e+18,0.5156657963446475,0.4417808219178082,0.34324324324324323,0.504035216434336,0.6,0.44238856181665265,1195.0
672.0,1.7114397508002476e+18,0.4699738903394256,0.4052511415525114,0.33405405405405403,0.5035460992907801,0.6494505494505495,0.43313708999158956,1195.0
673.0,1.7114397508102574e+18,0.4934725848563969,0.4189497716894977,0.3264864864864865,0.491807287845439,0.5967032967032967,0.4432296047098402,1196.0
674.0,1.7114397508202568e+18,0.46866840731070497,0.4075342465753425,0.3286486486486486,0.5099046221570066,0.6626373626373626,0.4415475189234651,1199.0
675.0,1.711439750830256e+18,0.4830287206266319,0.4098173515981735,0.34324324324324323,0.5084372707263389,0.6043956043956044,0.4415475189234651,1199.0
676.0,1.7114397508402296e+18,0.46736292428198434,0.3744292237442922,0.32756756756756755,0.5001222792858889,0.6582417582417582,0.43986543313709,1197.0
677.0,1.7114397508502346e+18,0.49216710182767626,0.4155251141552511,0.3427027027027027,0.5025678650036683,0.610989010989011,0.44575273338940286,1197.0
678.0,1.7114397508602542e+18,0.47780678851174935,0.4737442922374429,0.35405405405405405,0.49400831499144043,0.6450549450549451,0.43902439024390244,1200.0
679.0,1.7114397508702505e+18,0.4908616187989556,0.4143835616438356,0.33405405405405403,0.5011005135730008,0.6087912087912087,0.4440706476030278,1198.0
680.0,1.7114397508802532e+18,0.4621409921671018,0.3904109589041096,0.33135135135135135,0.5047688921496698,0.6725274725274726,0.44238856181665265,1198.0
681.0,1.71143975089027e+18,0.49477806788511747,0.4269406392694064,0.3362162162162162,0.4954756664221081,0.6,0.4449116904962153,1198.0
682.0,1.7114397509002563e+18,0.48172323759791125,0.4349315068493151,0.3362162162162162,0.5001222792858889,0.656043956043956,0.43986543313709,1195.0
683.0,1.7114397509102566e+18,0.46866840731070497,0.3767123287671233,0.32432432432432434,0.499877720714111,0.5978021978021978,0.4415475189234651,1198.0
684.0,1.7114397509202578e+18,0.48825065274151436,0.4155251141552511,0.34378378378378377,0.5059916850085595,0.6626373626373626,0.44070647603027757,1196.0
685.0,1.711439750930261e+18,0.47780678851174935,0.3915525114155251,0.3291891891891892,0.49474199070677427,0.5934065934065934,0.43986543313709,1199.0
686.0,1.7114397509402545e+18,0.4765013054830287,0.4143835616438356,0.33783783783783783,0.49523110785033014,0.654945054945055,0.4381833473507149,1198.0
687.0,1.7114397509502528e+18,0.46475195822454307,0.4006849315068493,0.3286486486486486,0.495720224993886,0.6021978021978022,0.4415475189234651,1194.0
688.0,1.71143975096026e+18,0.47389033942558745,0.4360730593607306,0.3308108108108108,0.4984103692834434,0.656043956043956,0.43986543313709,1197.0
689.0,1.7114397509702666e+18,0.47389033942558745,0.4075342465753425,0.3356756756756757,0.4988994864269993,0.6,0.43902439024390244,1195.0
690.0,1.7114397509802665e+18,0.47127937336814624,0.3744292237442922,0.3237837837837838,0.49229640498899485,0.6472527472527473,0.4339781328847771,1193.0
691.0,1.7114397509902502e+18,0.4934725848563969,0.4292237442922374,0.34378378378378377,0.4930300807043287,0.5923076923076923,0.4432296047098402,1195.0
692.0,1.711439751000255e+18,0.48825065274151436,0.4417808219178082,0.34378378378378377,0.5145512350207875,0.6648351648351648,0.43986543313709,1197.0
693.0,1.7114397510102602e+18,0.47911227154047,0.4075342465753425,0.3281081081081081,0.5128393250183418,0.6076923076923076,0.4432296047098402,1196.0
694.0,1.7114397510202972e+18,0.47127937336814624,0.410958904109589,0.33405405405405403,0.5055025678650037,0.6582417582417582,0.43650126156433977,1197.0
695.0,1.7114397510302582e+18,0.4830287206266319,0.4121004566210046,0.3318918918918919,0.5079481535827831,0.610989010989011,0.4440706476030278,1197.0
696.0,1.711439751040253e+18,0.47780678851174935,0.4143835616438356,0.34324324324324323,0.5055025678650037,0.6626373626373626,0.4415475189234651,1197.0
697.0,1.711439751050255e+18,0.4765013054830287,0.4041095890410959,0.3286486486486486,0.495720224993886,0.5967032967032967,0.43986543313709,1197.0
698.0,1.7114397510602583e+18,0.48172323759791125,0.4509132420091324,0.34702702702702704,0.49058449498654927,0.689010989010989,0.44575273338940286,1199.0
699.0,1.7114397510702577e+18,0.47911227154047,0.4052511415525114,0.33135135135135135,0.4942528735632184,0.5978021978021978,0.43986543313709,1197.0
700.0,1.7114397510802906e+18,0.46475195822454307,0.4052511415525114,0.3308108108108108,0.5037906578625581,0.6450549450549451,0.4381833473507149,1199.0
701.0,1.711439751090259e+18,0.48433420365535246,0.4360730593607306,0.34054054054054056,0.5057471264367817,0.5978021978021978,0.4449116904962153,1196.0
702.0,1.7114397511002634e+18,0.5013054830287206,0.4200913242009132,0.3362162162162162,0.48226950354609927,0.6494505494505495,0.4381833473507149,1197.0
703.0,1.71143975111026e+18,0.4869451697127937,0.4315068493150685,0.34702702702702704,0.5272682807532404,0.6142857142857143,0.44238856181665265,1198.0
704.0,1.7114397511202593e+18,0.4660574412532637,0.3835616438356164,0.3227027027027027,0.5011005135730008,0.6494505494505495,0.43566021867115223,1198.0
705.0,1.7114397511302833e+18,0.48172323759791125,0.430365296803653,0.34324324324324323,0.5074590364392272,0.6076923076923076,0.4440706476030278,1198.0
706.0,1.711439751140266e+18,0.4830287206266319,0.4383561643835616,0.34,0.49205184641721694,0.6626373626373626,0.4415475189234651,1197.0
707.0,1.7114397511502464e+18,0.4765013054830287,0.4394977168949772,0.3410810810810811,0.5094155050134507,0.5989010989010989,0.4415475189234651,1196.0
708.0,1.711439751160259e+18,0.4608355091383812,0.3949771689497717,0.32432432432432434,0.499877720714111,0.6362637362637362,0.4314550042052145,1192.0
709.0,1.7114397511702574e+18,0.48825065274151436,0.410958904109589,0.3291891891891892,0.4979212521398875,0.5934065934065934,0.4415475189234651,1197.0
710.0,1.7114397511802627e+18,0.4908616187989556,0.4600456621004566,0.3518918918918919,0.5003668378576669,0.6604395604395604,0.43986543313709,1196.0
711.0,1.7114397511902804e+18,0.48172323759791125,0.4269406392694064,0.3410810810810811,0.5003668378576669,0.589010989010989,0.43902439024390244,1198.0
712.0,1.7114397512002504e+18,0.46866840731070497,0.4132420091324201,0.34054054054054056,0.5067253607238934,0.654945054945055,0.43566021867115223,1195.0
713.0,1.7114397512102438e+18,0.4765013054830287,0.4223744292237443,0.327027027027027,0.5074590364392272,0.5923076923076923,0.43986543313709,1195.0
714.0,1.7114397512202468e+18,0.46475195822454307,0.4041095890410959,0.3324324324324324,0.504279775006114,0.6450549450549451,0.4339781328847771,1194.0
715.0,1.7114397512302492e+18,0.5,0.4075342465753425,0.33513513513513515,0.4842259721203228,0.5879120879120879,0.44238856181665265,1197.0
716.0,1.7114397512402916e+18,0.4869451697127937,0.4668949771689498,0.35567567567567565,0.5015896307165566,0.6582417582417582,0.4373423044575273,1196.0
717.0,1.7114397512502523e+18,0.46475195822454307,0.3767123287671233,0.3356756756756757,0.512350207874786,0.6076923076923076,0.43902439024390244,1196.0
718.0,1.7114397512602568e+18,0.46475195822454307,0.4063926940639269,0.33405405405405403,0.4979212521398875,0.6604395604395604,0.43650126156433977,1198.0
719.0,1.7114397512702592e+18,0.46344647519582244,0.4052511415525114,0.33405405405405403,0.5064808021521154,0.5857142857142857,0.4373423044575273,1198.0
720.0,1.7114397512802427e+18,0.4765013054830287,0.4143835616438356,0.35135135135135137,0.48911714355588165,0.6604395604395604,0.43650126156433977,1196.0
721.0,1.7114397512902653e+18,0.4595300261096606,0.4018264840182648,0.32594594594594595,0.5064808021521154,0.5846153846153846,0.43986543313709,1196.0
722.0,1.7114397513002765e+18,0.46866840731070497,0.4235159817351598,0.34540540540540543,0.5106382978723404,0.6725274725274726,0.4415475189234651,1199.0
723.0,1.711439751310244e+18,0.48825065274151436,0.4178082191780822,0.3362162162162162,0.495720224993886,0.5868131868131868,0.43986543313709,1195.0
724.0,1.7114397513202107e+18,0.4765013054830287,0.4006849315068493,0.3302702702702703,0.4984103692834434,0.667032967032967,0.43902439024390244,1196.0
725.0,1.7114397513302364e+18,0.4869451697127937,0.4360730593607306,0.34162162162162163,0.5067253607238934,0.5978021978021978,0.4432296047098402,1195.0
726.0,1.711439751340252e+18,0.46866840731070497,0.3949771689497717,0.32594594594594595,0.4805575935436537,0.6461538461538462,0.43650126156433977,1196.0
727.0,1.7114397513502367e+18,0.5026109660574413,0.4280821917808219,0.3427027027027027,0.5099046221570066,0.6076923076923076,0.4449116904962153,1195.0
728.0,1.711439751360258e+18,0.46866840731070497,0.4143835616438356,0.33405405405405403,0.48985081927121543,0.6461538461538462,0.4381833473507149,1197.0
729.0,1.711439751370247e+18,0.4751958224543081,0.4098173515981735,0.3308108108108108,0.4810467106872096,0.5681318681318681,0.4348191757779647,1196.0
730.0,1.7114397513802476e+18,0.4804177545691906,0.4349315068493151,0.34594594594594597,0.5020787478601125,0.6626373626373626,0.4415475189234651,1197.0
731.0,1.7114397513902559e+18,0.48825065274151436,0.4406392694063927,0.3356756756756757,0.5067253607238934,0.6,0.4415475189234651,1196.0
732.0,1.7114397514002452e+18,0.47389033942558745,0.4223744292237443,0.33783783783783783,0.5182196135974566,0.667032967032967,0.4415475189234651,1197.0
733.0,1.7114397514102487e+18,0.4765013054830287,0.4189497716894977,0.3281081081081081,0.5028124235754463,0.5956043956043956,0.43986543313709,1197.0
734.0,1.7114397514202473e+18,0.47127937336814624,0.4098173515981735,0.3535135135135135,0.5035460992907801,0.6637362637362637,0.43986543313709,1197.0
735.0,1.7114397514302461e+18,0.4765013054830287,0.4098173515981735,0.3308108108108108,0.5037906578625581,0.5879120879120879,0.4381833473507149,1198.0
736.0,1.7114397514402516e+18,0.489556135770235,0.4406392694063927,0.3362162162162162,0.5020787478601125,0.6681318681318681,0.4415475189234651,1196.0
737.0,1.7114397514502666e+18,0.5052219321148825,0.4703196347031963,0.34702702702702704,0.5001222792858889,0.6010989010989011,0.4449116904962153,1197.0
738.0,1.711439751460245e+18,0.4660574412532637,0.3949771689497717,0.3362162162162162,0.4888725849841037,0.6538461538461539,0.43902439024390244,1196.0
739.0,1.711439751470253e+18,0.4725848563968668,0.4280821917808219,0.3362162162162162,0.5113719735876743,0.6032967032967033,0.44238856181665265,1198.0
740.0,1.7114397514802575e+18,0.47780678851174935,0.4212328767123288,0.34,0.5064808021521154,0.6681318681318681,0.4415475189234651,1197.0
741.0,1.711439751490256e+18,0.47911227154047,0.4200913242009132,0.33297297297297296,0.5086818292981169,0.6032967032967033,0.4432296047098402,1196.0
742.0,1.7114397515002668e+18,0.48433420365535246,0.4212328767123288,0.33945945945945943,0.49816581071166544,0.6472527472527473,0.43313708999158956,1195.0
743.0,1.7114397515102484e+18,0.48433420365535246,0.4417808219178082,0.3389189189189189,0.5015896307165566,0.5835164835164836,0.43902439024390244,1199.0
744.0,1.7114397515202432e+18,0.4869451697127937,0.3995433789954338,0.3254054054054054,0.5047688921496698,0.6571428571428571,0.4348191757779647,1196.0
745.0,1.7114397515302436e+18,0.4699738903394256,0.3961187214611872,0.32432432432432434,0.5116165321594522,0.5956043956043956,0.4415475189234651,1197.0
746.0,1.711439751540264e+18,0.4765013054830287,0.4200913242009132,0.32972972972972975,0.4986549278552213,0.6516483516483517,0.4348191757779647,1196.0
747.0,1.711439751550251e+18,0.46866840731070497,0.4018264840182648,0.32756756756756755,0.5037906578625581,0.5934065934065934,0.43902439024390244,1196.0
748.0,1.7114397515602596e+18,0.4869451697127937,0.4349315068493151,0.34702702702702704,0.4991440449987772,0.6714285714285714,0.4415475189234651,1196.0
749.0,1.7114397515702515e+18,0.4765013054830287,0.454337899543379,0.35135135135135137,0.49327463927610665,0.5714285714285714,0.4373423044575273,1195.0
750.0,1.7114397515802473e+18,0.4360313315926893,0.3881278538812785,0.3281081081081081,0.5059916850085595,0.6659340659340659,0.43650126156433977,1195.0
751.0,1.7114397515902444e+18,0.4621409921671018,0.4041095890410959,0.3286486486486486,0.5086818292981169,0.5989010989010989,0.43902439024390244,1196.0
752.0,1.711439751600246e+18,0.47389033942558745,0.4200913242009132,0.34864864864864864,0.5025678650036683,0.656043956043956,0.43650126156433977,1195.0
753.0,1.711439751610255e+18,0.47911227154047,0.4178082191780822,0.34378378378378377,0.5099046221570066,0.5978021978021978,0.4432296047098402,1195.0
754.0,1.711439751620242e+18,0.47389033942558745,0.4212328767123288,0.3410810810810811,0.49816581071166544,0.6483516483516484,0.4381833473507149,1196.0
755.0,1.7114397516302523e+18,0.47780678851174935,0.4189497716894977,0.3345945945945946,0.49620934213744194,0.5967032967032967,0.44238856181665265,1194.0
756.0,1.711439751640272e+18,0.48172323759791125,0.4337899543378995,0.33837837837837836,0.5025678650036683,0.6659340659340659,0.43566021867115223,1196.0
757.0,1.7114397516502554e+18,0.4869451697127937,0.3915525114155251,0.32972972972972975,0.4925409635607728,0.5967032967032967,0.4449116904962153,1198.0
758.0,1.7114397516602483e+18,0.45691906005221933,0.4269406392694064,0.3345945945945946,0.5023233064318905,0.6483516483516484,0.43566021867115223,1198.0
759.0,1.711439751670249e+18,0.4765013054830287,0.4041095890410959,0.32594594594594595,0.5157740278796772,0.5989010989010989,0.4440706476030278,1197.0
760.0,1.7114397516802435e+18,0.47911227154047,0.4200913242009132,0.34,0.5055025678650037,0.6593406593406593,0.43902439024390244,1196.0
761.0,1.7114397516902444e+18,0.4765013054830287,0.4006849315068493,0.31891891891891894,0.4969430178527757,0.5923076923076923,0.4440706476030278,1198.0
762.0,1.7114397517002522e+18,0.48433420365535246,0.4280821917808219,0.3318918918918919,0.5028124235754463,0.6593406593406593,0.43902439024390244,1197.0
763.0,1.7114397517102487e+18,0.46344647519582244,0.3938356164383562,0.3172972972972973,0.5172413793103449,0.5846153846153846,0.43566021867115223,1196.0
764.0,1.7114397517202455e+18,0.47780678851174935,0.4075342465753425,0.3345945945945946,0.4969430178527757,0.6626373626373626,0.4415475189234651,1197.0
765.0,1.711439751730248e+18,0.47780678851174935,0.4075342465753425,0.33675675675675676,0.512594766446564,0.5912087912087912,0.43986543313709,1197.0
766.0,1.711439751740273e+18,0.48433420365535246,0.4212328767123288,0.34054054054054056,0.4930300807043287,0.656043956043956,0.4381833473507149,1196.0
767.0,1.7114397517510687e+18,0.47389033942558745,0.4360730593607306,0.34378378378378377,0.5035460992907801,0.5857142857142857,0.43902439024390244,1195.0
768.0,1.7114397517601984e+18,0.4699738903394256,0.4006849315068493,0.3308108108108108,0.4783565663976522,0.6406593406593407,0.4314550042052145,1192.0
769.0,1.7114397517702595e+18,0.46344647519582244,0.386986301369863,0.32594594594594595,0.5113719735876743,0.5967032967032967,0.43902439024390244,1197.0
770.0,1.7114397517802442e+18,0.4751958224543081,0.4189497716894977,0.33945945945945943,0.5086818292981169,0.6538461538461539,0.43566021867115223,1197.0
771.0,1.7114397517902472e+18,0.4804177545691906,0.4166666666666667,0.32756756756756755,0.4991440449987772,0.5923076923076923,0.43986543313709,1198.0
772.0,1.7114397518002688e+18,0.4765013054830287,0.4189497716894977,0.33297297297297296,0.49498654927855223,0.6604395604395604,0.43986543313709,1195.0
773.0,1.7114397518102474e+18,0.46344647519582244,0.4075342465753425,0.33513513513513515,0.5047688921496698,0.5846153846153846,0.43650126156433977,1197.0
774.0,1.711439751820249e+18,0.46736292428198434,0.3858447488584475,0.32756756756756755,0.5015896307165566,0.6516483516483517,0.432296047098402,1195.0
775.0,1.7114397518302454e+18,0.49216710182767626,0.4452054794520548,0.3410810810810811,0.46539496209342135,0.5835164835164836,0.4432296047098402,1199.0
776.0,1.7114397518402967e+18,0.46866840731070497,0.4257990867579909,0.34216216216216216,0.5015896307165566,0.6527472527472528,0.4373423044575273,1198.0
777.0,1.7114397518502638e+18,0.4830287206266319,0.4155251141552511,0.3362162162162162,0.5037906578625581,0.6065934065934065,0.4449116904962153,1196.0
778.0,1.7114397518602524e+18,0.46866840731070497,0.3961187214611872,0.3237837837837838,0.4685742235265346,0.6263736263736264,0.42977291841883936,1194.0
779.0,1.7114397518702474e+18,0.4725848563968668,0.4075342465753425,0.3345945945945946,0.5086818292981169,0.5912087912087912,0.43986543313709,1198.0
780.0,1.7114397518802435e+18,0.46475195822454307,0.4246575342465753,0.32432432432432434,0.4996331621423331,0.6450549450549451,0.432296047098402,1194.0
781.0,1.7114397518902428e+18,0.46866840731070497,0.3995433789954338,0.32432432432432434,0.5099046221570066,0.5923076923076923,0.43902439024390244,1196.0
782.0,1.7114397519002616e+18,0.4699738903394256,0.4292237442922374,0.35243243243243244,0.5047688921496698,0.6604395604395604,0.4373423044575273,1195.0
783.0,1.7114397519102886e+18,0.4725848563968668,0.4006849315068493,0.32594594594594595,0.5086818292981169,0.6065934065934065,0.4415475189234651,1196.0
784.0,1.711439751920247e+18,0.47911227154047,0.4041095890410959,0.32972972972972975,0.5147957935925654,0.6747252747252748,0.4415475189234651,1197.0
785.0,1.7114397519302467e+18,0.47911227154047,0.4155251141552511,0.3389189189189189,0.5055025678650037,0.6,0.4432296047098402,1195.0
786.0,1.7114397519402511e+18,0.4765013054830287,0.4189497716894977,0.34540540540540543,0.5055025678650037,0.6516483516483517,0.4348191757779647,1198.0
787.0,1.711439751950253e+18,0.4725848563968668,0.4075342465753425,0.32,0.5055025678650037,0.5813186813186814,0.4339781328847771,1192.0
788.0,1.7114397519602427e+18,0.489556135770235,0.4337899543378995,0.3302702702702703,0.49033993641477136,0.6472527472527473,0.43650126156433977,1197.0
789.0,1.7114397519702528e+18,0.47127937336814624,0.3767123287671233,0.32432432432432434,0.5013450721447786,0.5945054945054945,0.43902439024390244,1197.0
790.0,1.7114397519802547e+18,0.4751958224543081,0.4063926940639269,0.33297297297297296,0.5008559550012228,0.656043956043956,0.43902439024390244,1196.0
791.0,1.711439751990241e+18,0.4699738903394256,0.4041095890410959,0.3291891891891892,0.49767669356810956,0.5879120879120879,0.43650126156433977,1197.0
792.0,1.71143975200025e+18,0.46736292428198434,0.4063926940639269,0.3281081081081081,0.495964783565664,0.6362637362637362,0.4348191757779647,1197.0
793.0,1.7114397520102477e+18,0.48172323759791125,0.4497716894977169,0.34,0.48911714355588165,0.5802197802197803,0.43902439024390244,1196.0
794.0,1.711439752020242e+18,0.4804177545691906,0.4166666666666667,0.32756756756756755,0.495720224993886,0.6461538461538462,0.43902439024390244,1197.0
795.0,1.711439752030241e+18,0.48433420365535246,0.4417808219178082,0.35567567567567565,0.5084372707263389,0.5978021978021978,0.4415475189234651,1194.0
796.0,1.711439752040251e+18,0.4725848563968668,0.3995433789954338,0.3302702702702703,0.5062362435803375,0.6373626373626373,0.4306139613120269,1195.0
797.0,1.7114397520502464e+18,0.48172323759791125,0.4132420091324201,0.33675675675675676,0.504035216434336,0.5846153846153846,0.4314550042052145,1195.0
798.0,1.71143975206025e+18,0.47911227154047,0.4235159817351598,0.3551351351351351,0.5015896307165566,0.6505494505494506,0.4179983179142136,1196.0
799.0,1.711439752070247e+18,0.47127937336814624,0.3995433789954338,0.3172972972972973,0.5001222792858889,0.5824175824175825,0.41968040370058873,1193.0
800.0,1.7114397520802468e+18,0.4869451697127937,0.4235159817351598,0.33297297297297296,0.5030569821472243,0.6450549450549451,0.3961312026913373,1192.0
801.0,1.7114397520902528e+18,0.47389033942558745,0.4178082191780822,0.33837837837837836,0.5084372707263389,0.5989010989010989,0.4533221194280908,1196.0
802.0,1.7114397521002524e+18,0.46866840731070497,0.3858447488584475,0.3362162162162162,0.47957935925654194,0.6505494505494506,0.43902439024390244,1198.0
803.0,1.711439752110248e+18,0.4765013054830287,0.4075342465753425,0.3318918918918919,0.5050134507214478,0.5945054945054945,0.43986543313709,1197.0
804.0,1.7114397521202524e+18,0.48172323759791125,0.4132420091324201,0.34054054054054056,0.5368060650525801,0.6692307692307692,0.4415475189234651,1197.0
805.0,1.7114397521302467e+18,0.47911227154047,0.4280821917808219,0.33135135135135135,0.5086818292981169,0.6230769230769231,0.4415475189234651,1197.0
806.0,1.71143975214025e+18,0.4725848563968668,0.408675799086758,0.32972972972972975,0.4971875764245537,0.6450549450549451,0.432296047098402,1194.0
807.0,1.7114397521503112e+18,0.47911227154047,0.4006849315068493,0.32972972972972975,0.512594766446564,0.6021978021978022,0.4247266610597141,1192.0
808.0,1.7114397521602634e+18,0.47127937336814624,0.3812785388127854,0.30972972972972973,0.4944974321349963,0.6648351648351648,0.4449116904962153,1197.0
809.0,1.7114397521702523e+18,0.4804177545691906,0.4041095890410959,0.3254054054054054,0.5201760821716801,0.6131868131868132,0.4634146341463415,1196.0
810.0,1.711439752180272e+18,0.47389033942558745,0.4246575342465753,0.33405405405405403,0.5015896307165566,0.656043956043956,0.4348191757779647,1197.0
811.0,1.711439752190246e+18,0.47780678851174935,0.4178082191780822,0.34216216216216216,0.5064808021521154,0.6010989010989011,0.43902439024390244,1195.0
812.0,1.711439752200263e+18,0.47127937336814624,0.4143835616438356,0.3324324324324324,0.4937637564196625,0.634065934065934,0.4306139613120269,1197.0
813.0,1.7114397522102536e+18,0.4765013054830287,0.4280821917808219,0.3254054054054054,0.5018341892883346,0.5923076923076923,0.43650126156433977,1197.0
814.0,1.7114397522202476e+18,0.4765013054830287,0.4098173515981735,0.34486486486486484,0.4971875764245537,0.6648351648351648,0.43650126156433977,1197.0
815.0,1.7114397522302474e+18,0.4830287206266319,0.4417808219178082,0.34162162162162163,0.5069699192956714,0.6065934065934065,0.456686291000841,1197.0
816.0,1.7114397522402488e+18,0.4699738903394256,0.3926940639269406,0.3264864864864865,0.45194424064563465,0.6285714285714286,0.43902439024390244,1196.0
817.0,1.71143975225025e+18,0.4765013054830287,0.4223744292237443,0.3264864864864865,0.5250672536072389,0.6076923076923076,0.4415475189234651,1198.0
818.0,1.7114397522602514e+18,0.47127937336814624,0.4132420091324201,0.3362162162162162,0.5201760821716801,0.6604395604395604,0.43902439024390244,1197.0
819.0,1.7114397522702577e+18,0.48172323759791125,0.4143835616438356,0.3308108108108108,0.5037906578625581,0.5934065934065934,0.4482758620689655,1197.0
820.0,1.7114397522802606e+18,0.4765013054830287,0.4315068493150685,0.34540540540540543,0.495720224993886,0.6516483516483517,0.43650126156433977,1196.0
821.0,1.7114397522902456e+18,0.4725848563968668,0.3721461187214612,0.3210810810810811,0.49229640498899485,0.5923076923076923,0.4415475189234651,1198.0
822.0,1.7114397523002422e+18,0.4725848563968668,0.4246575342465753,0.33513513513513515,0.4781120078258743,0.6373626373626373,0.4306139613120269,1194.0
823.0,1.711439752310247e+18,0.48172323759791125,0.4178082191780822,0.3362162162162162,0.5030569821472243,0.6010989010989011,0.40370058873002523,1193.0
824.0,1.7114397523202417e+18,0.4725848563968668,0.4098173515981735,0.3335135135135135,0.49523110785033014,0.6714285714285714,0.4415475189234651,1196.0
825.0,1.7114397523302415e+18,0.4725848563968668,0.4143835616438356,0.3308108108108108,0.5133284421618978,0.5967032967032967,0.44238856181665265,1195.0
826.0,1.711439752340245e+18,0.4699738903394256,0.4269406392694064,0.3481081081081081,0.4996331621423331,0.6527472527472528,0.4163162321278385,1193.0
827.0,1.7114397523502354e+18,0.4765013054830287,0.4200913242009132,0.34054054054054056,0.49107361213010514,0.5945054945054945,0.4146341463414634,1193.0
828.0,1.711439752360252e+18,0.47127937336814624,0.4315068493150685,0.33675675675675676,0.5074590364392272,0.6582417582417582,0.432296047098402,1197.0
829.0,1.7114397523702546e+18,0.4765013054830287,0.4223744292237443,0.3356756756756757,0.4859378821227684,0.5934065934065934,0.45500420521446594,1195.0
830.0,1.711439752380246e+18,0.47389033942558745,0.410958904109589,0.3362162162162162,0.5072144778674492,0.6637362637362637,0.4339781328847771,1196.0
831.0,1.7114397523902454e+18,0.47389033942558745,0.4212328767123288,0.33135135135135135,0.504279775006114,0.610989010989011,0.4373423044575273,1196.0
832.0,1.7114397524002383e+18,0.4765013054830287,0.4360730593607306,0.35135135135135137,0.5280019564685742,0.6868131868131868,0.3927670311185871,1195.0
833.0,1.71143975241025e+18,0.47389033942558745,0.4634703196347032,0.3464864864864865,0.5737344093910491,0.6274725274725275,0.4415475189234651,1197.0
834.0,1.7114397524202465e+18,0.46736292428198434,0.4006849315068493,0.33837837837837836,0.5015896307165566,0.6527472527472528,0.44911690496215306,1195.0
835.0,1.7114397524302456e+18,0.4804177545691906,0.4372146118721461,0.33405405405405403,0.4886280264123258,0.6043956043956044,0.45164003364171573,1198.0
836.0,1.7114397524402468e+18,0.46344647519582244,0.4018264840182648,0.3286486486486486,0.5441428222059184,0.6901098901098901,0.4440706476030278,1196.0
837.0,1.7114397524502656e+18,0.49216710182767626,0.4383561643835616,0.34054054054054056,0.4996331621423331,0.5824175824175825,0.3742640874684609,1192.0
838.0,1.7114397524602675e+18,0.4765013054830287,0.4121004566210046,0.3362162162162162,0.5033015407190022,0.6571428571428571,0.4348191757779647,1197.0
839.0,1.7114397524702554e+18,0.47389033942558745,0.4200913242009132,0.33297297297297296,0.5106382978723404,0.5978021978021978,0.4381833473507149,1197.0
840.0,1.7114397524802604e+18,0.47127937336814624,0.4417808219178082,0.34594594594594597,0.4984103692834434,0.6571428571428571,0.44575273338940286,1197.0
841.0,1.7114397524902467e+18,0.4804177545691906,0.4235159817351598,0.3281081081081081,0.5074590364392272,0.6263736263736264,0.42640874684608915,1192.0
842.0,1.7114397525002642e+18,0.4621409921671018,0.4018264840182648,0.33135135135135135,0.5169968207385669,0.6417582417582418,0.4062237174095879,1193.0
843.0,1.711439752510243e+18,0.47127937336814624,0.4178082191780822,0.3345945945945946,0.4966984592809978,0.6,0.4289318755256518,1195.0
844.0,1.7114397525202532e+18,0.4765013054830287,0.4189497716894977,0.3410810810810811,0.5035460992907801,0.6659340659340659,0.4533221194280908,1197.0
845.0,1.7114397525302467e+18,0.4869451697127937,0.4337899543378995,0.34,0.4974321349963316,0.610989010989011,0.4020185029436501,1195.0
846.0,1.711439752540255e+18,0.4765013054830287,0.4143835616438356,0.3335135135135135,0.4937637564196625,0.6351648351648351,0.43566021867115223,1199.0
847.0,1.7114397525502433e+18,0.47911227154047,0.4246575342465753,0.3356756756756757,0.5079481535827831,0.5934065934065934,0.40454163162321277,1192.0
848.0,1.7114397525602355e+18,0.47911227154047,0.4337899543378995,0.34486486486486484,0.4930300807043287,0.643956043956044,0.4482758620689655,1197.0
849.0,1.7114397525702456e+18,0.48433420365535246,0.410958904109589,0.34162162162162163,0.5250672536072389,0.6098901098901099,0.479394449116905,1196.0
850.0,1.7114397525802458e+18,0.46866840731070497,0.4178082191780822,0.3291891891891892,0.5001222792858889,0.6428571428571429,0.447434819175778,1196.0
851.0,1.7114397525902484e+18,0.4830287206266319,0.4189497716894977,0.3324324324324324,0.49474199070677427,0.5901098901098901,0.44575273338940286,1196.0
852.0,1.7114397526002673e+18,0.47389033942558745,0.4509132420091324,0.3443243243243243,0.4984103692834434,0.6494505494505495,0.43313708999158956,1196.0
853.0,1.711439752610244e+18,0.48433420365535246,0.4360730593607306,0.33135135135135135,0.4942528735632184,0.5934065934065934,0.3969722455845248,1196.0
854.0,1.7114397526202455e+18,0.47127937336814624,0.3995433789954338,0.3345945945945946,0.5059916850085595,0.6637362637362637,0.4348191757779647,1199.0
855.0,1.7114397526302426e+18,0.48433420365535246,0.4132420091324201,0.3291891891891892,0.48202494497432136,0.6054945054945055,0.45248107653490327,1194.0
856.0,1.711439752640266e+18,0.4765013054830287,0.4052511415525114,0.3362162162162162,0.5133284421618978,0.6703296703296703,0.4735071488645921,1193.0
857.0,1.7114397526502643e+18,0.47780678851174935,0.4006849315068493,0.33405405405405403,0.5113719735876743,0.6175824175824176,0.44911690496215306,1195.0
858.0,1.7114397526602522e+18,0.47127937336814624,0.4063926940639269,0.3389189189189189,0.5226216678894595,0.6582417582417582,0.43902439024390244,1197.0
859.0,1.7114397526702464e+18,0.4804177545691906,0.4212328767123288,0.33837837837837836,0.5057471264367817,0.6054945054945055,0.4802354920100925,1198.0
860.0,1.711439752680246e+18,0.46736292428198434,0.4132420091324201,0.33513513513513515,0.5121056493030081,0.6846153846153846,0.4222035323801514,1194.0
861.0,1.7114397526902502e+18,0.4765013054830287,0.4349315068493151,0.34594594594594597,0.4971875764245537,0.6076923076923076,0.4255677039529016,1193.0
862.0,1.7114397527002557e+18,0.47780678851174935,0.4041095890410959,0.32432432432432434,0.49938860357055515,0.6516483516483517,0.4415475189234651,1195.0
863.0,1.711439752710246e+18,0.4765013054830287,0.4029680365296804,0.3264864864864865,0.5008559550012228,0.5978021978021978,0.43902439024390244,1196.0
864.0,1.711439752720245e+18,0.45822454308093996,0.4383561643835616,0.3481081081081081,0.4942528735632184,0.6450549450549451,0.42304457527333894,1194.0
865.0,1.7114397527302474e+18,0.49216710182767626,0.4748858447488584,0.37405405405405406,0.512350207874786,0.5967032967032967,0.45164003364171573,1197.0
866.0,1.711439752740646e+18,0.46866840731070497,0.4029680365296804,0.3286486486486486,0.5084372707263389,0.6494505494505495,0.4339781328847771,1192.0
867.0,1.7114397527502817e+18,0.4856396866840731,0.4383561643835616,0.3308108108108108,0.5091709464416728,0.6208791208791209,0.4482758620689655,1193.0
868.0,1.7114397527602632e+18,0.4490861618798956,0.4121004566210046,0.3362162162162162,0.48985081927121543,0.6461538461538462,0.4432296047098402,1194.0
869.0,1.7114397527702607e+18,0.4608355091383812,0.4269406392694064,0.3248648648648649,0.5147957935925654,0.6021978021978022,0.4440706476030278,1195.0
870.0,1.7114397527802644e+18,0.47127937336814624,0.3938356164383562,0.33405405405405403,0.5001222792858889,0.6538461538461539,0.43566021867115223,1196.0
871.0,1.711439752790266e+18,0.4725848563968668,0.4269406392694064,0.34162162162162163,0.49058449498654927,0.6120879120879121,0.4415475189234651,1196.0
872.0,1.7114397528002696e+18,0.4425587467362924,0.4041095890410959,0.33297297297297296,0.5037906578625581,0.6472527472527473,0.4348191757779647,1195.0
873.0,1.7114397528102907e+18,0.4621409921671018,0.4269406392694064,0.33945945945945943,0.4971875764245537,0.5956043956043956,0.43902439024390244,1195.0
874.0,1.7114397528202906e+18,0.45691906005221933,0.3812785388127854,0.3210810810810811,0.491562729273661,0.654945054945055,0.4415475189234651,1196.0
875.0,1.71143975283026e+18,0.4699738903394256,0.4132420091324201,0.31567567567567567,0.48324773783321107,0.5868131868131868,0.43902439024390244,1198.0
876.0,1.7114397528402394e+18,0.4765013054830287,0.4212328767123288,0.3427027027027027,0.4996331621423331,0.6384615384615384,0.43313708999158956,1192.0
877.0,1.7114397528502638e+18,0.4765013054830287,0.4452054794520548,0.3372972972972973,0.4986549278552213,0.6175824175824176,0.4415475189234651,1197.0
878.0,1.7114397528602557e+18,0.46866840731070497,0.4372146118721461,0.3481081081081081,0.5025678650036683,0.6505494505494506,0.46173254835996635,1197.0
879.0,1.7114397528702574e+18,0.47389033942558745,0.4121004566210046,0.3372972972972973,0.5059916850085595,0.6164835164835165,0.4432296047098402,1198.0
880.0,1.7114397528802596e+18,0.4660574412532637,0.4018264840182648,0.3286486486486486,0.4996331621423331,0.6450549450549451,0.4381833473507149,1195.0
881.0,1.7114397528902817e+18,0.4751958224543081,0.4269406392694064,0.3389189189189189,0.5074590364392272,0.6098901098901099,0.4415475189234651,1197.0
882.0,1.7114397529002673e+18,0.46475195822454307,0.3824200913242009,0.32756756756756755,0.495720224993886,0.6417582417582418,0.43566021867115223,1196.0
883.0,1.7114397529102612e+18,0.4830287206266319,0.4098173515981735,0.33297297297297296,0.5018341892883346,0.6120879120879121,0.44238856181665265,1196.0
884.0,1.7114397529202637e+18,0.47127937336814624,0.4360730593607306,0.34702702702702704,0.495720224993886,0.6483516483516484,0.43986543313709,1197.0
885.0,1.7114397529302659e+18,0.47911227154047,0.4315068493150685,0.33783783783783783,0.5064808021521154,0.5978021978021978,0.4415475189234651,1197.0
886.0,1.7114397529402614e+18,0.46344647519582244,0.4063926940639269,0.33513513513513515,0.5006113964294449,0.6582417582417582,0.43566021867115223,1198.0
887.0,1.7114397529502625e+18,0.5,0.4634703196347032,0.36,0.5069699192956714,0.6010989010989011,0.4449116904962153,1192.0
888.0,1.7114397529602685e+18,0.4765013054830287,0.4041095890410959,0.3302702702702703,0.4954756664221081,0.6450549450549451,0.43566021867115223,1195.0
889.0,1.7114397529702705e+18,0.4725848563968668,0.3858447488584475,0.3286486486486486,0.5020787478601125,0.5989010989010989,0.43902439024390244,1195.0
890.0,1.7114397529802732e+18,0.4765013054830287,0.384703196347032,0.3318918918918919,0.5001222792858889,0.6505494505494506,0.4381833473507149,1193.0
891.0,1.7114397529902787e+18,0.48825065274151436,0.4155251141552511,0.32756756756756755,0.5037906578625581,0.6054945054945055,0.44238856181665265,1196.0
892.0,1.7114397530002742e+18,0.47911227154047,0.4315068493150685,0.33405405405405403,0.4966984592809978,0.6450549450549451,0.4381833473507149,1198.0
893.0,1.7114397530102792e+18,0.4621409921671018,0.4143835616438356,0.32972972972972975,0.5035460992907801,0.6065934065934065,0.4415475189234651,1195.0
894.0,1.7114397530202808e+18,0.47911227154047,0.4075342465753425,0.3183783783783784,0.504035216434336,0.6593406593406593,0.4415475189234651,1196.0
895.0,1.711439753030285e+18,0.4869451697127937,0.4589041095890411,0.34162162162162163,0.5055025678650037,0.6032967032967033,0.4415475189234651,1195.0
896.0,1.7114397530402908e+18,0.47127937336814624,0.3995433789954338,0.3335135135135135,0.49767669356810956,0.6593406593406593,0.4381833473507149,1197.0
897.0,1.7114397530502825e+18,0.4765013054830287,0.410958904109589,0.33297297297297296,0.4842259721203228,0.589010989010989,0.43650126156433977,1197.0
898.0,1.71143975306028e+18,0.47389033942558745,0.4235159817351598,0.3345945945945946,0.5033015407190022,0.6516483516483517,0.43566021867115223,1196.0
899.0,1.7114397530702802e+18,0.47127937336814624,0.4143835616438356,0.3324324324324324,0.5030569821472243,0.5945054945054945,0.4432296047098402,1196.0
900.0,1.7114397530802803e+18,0.4908616187989556,0.3949771689497717,0.3362162162162162,0.4988994864269993,0.6494505494505495,0.43650126156433977,1195.0
901.0,1.7114397530902966e+18,0.46866840731070497,0.4474885844748858,0.3551351351351351,0.504524333577892,0.6054945054945055,0.4440706476030278,1197.0
902.0,1.711439753100281e+18,0.4699738903394256,0.4178082191780822,0.3362162162162162,0.499877720714111,0.6538461538461539,0.4381833473507149,1196.0
903.0,1.7114397531102769e+18,0.47911227154047,0.4143835616438356,0.33405405405405403,0.5018341892883346,0.5989010989010989,0.43902439024390244,1194.0
904.0,1.711439753120284e+18,0.45039164490861616,0.3995433789954338,0.3281081081081081,0.4986549278552213,0.6516483516483517,0.4373423044575273,1195.0
905.0,1.711439753130254e+18,0.4608355091383812,0.4166666666666667,0.33837837837837836,0.4991440449987772,0.6032967032967033,0.44575273338940286,1197.0
906.0,1.7114397531402604e+18,0.45039164490861616,0.4075342465753425,0.33135135135135135,0.49938860357055515,0.6538461538461539,0.43650126156433977,1196.0
907.0,1.7114397531502984e+18,0.4608355091383812,0.410958904109589,0.3318918918918919,0.4966984592809978,0.5857142857142857,0.4381833473507149,1195.0
908.0,1.7114397531602893e+18,0.47389033942558745,0.4006849315068493,0.3254054054054054,0.4883834678405478,0.6527472527472528,0.43566021867115223,1192.0
909.0,1.7114397531702533e+18,0.47780678851174935,0.4178082191780822,0.32216216216216215,0.5177304964539007,0.6054945054945055,0.4440706476030278,1193.0
910.0,1.7114397531802552e+18,0.4765013054830287,0.3926940639269406,0.3362162162162162,0.5062362435803375,0.6505494505494506,0.4373423044575273,1196.0
911.0,1.7114397531902548e+18,0.47780678851174935,0.4383561643835616,0.3302702702702703,0.508192712154561,0.6,0.4415475189234651,1195.0
912.0,1.711439753200254e+18,0.48433420365535246,0.4771689497716895,0.3464864864864865,0.4996331621423331,0.6527472527472528,0.4381833473507149,1196.0
913.0,1.711439753210257e+18,0.4608355091383812,0.4052511415525114,0.3281081081081081,0.5028124235754463,0.5978021978021978,0.4381833473507149,1193.0
914.0,1.7114397532202545e+18,0.4608355091383812,0.4029680365296804,0.3254054054054054,0.499877720714111,0.6494505494505495,0.4381833473507149,1195.0
915.0,1.7114397532302525e+18,0.48172323759791125,0.4269406392694064,0.3318918918918919,0.5057471264367817,0.5967032967032967,0.4440706476030278,1196.0
916.0,1.7114397532402534e+18,0.47389033942558745,0.4360730593607306,0.35405405405405405,0.5003668378576669,0.6538461538461539,0.43650126156433977,1193.0
917.0,1.7114397532502659e+18,0.47911227154047,0.4235159817351598,0.33297297297297296,0.5028124235754463,0.5989010989010989,0.4415475189234651,1196.0
918.0,1.7114397532602614e+18,0.46736292428198434,0.3972602739726027,0.31945945945945947,0.49938860357055515,0.6538461538461539,0.4381833473507149,1197.0
919.0,1.7114397532702648e+18,0.47780678851174935,0.3881278538812785,0.3216216216216216,0.5037906578625581,0.5967032967032967,0.4449116904962153,1198.0
920.0,1.711439753280261e+18,0.4725848563968668,0.4018264840182648,0.3286486486486486,0.4954756664221081,0.6538461538461539,0.4381833473507149,1196.0
921.0,1.7114397532902682e+18,0.49216710182767626,0.4189497716894977,0.32432432432432434,0.5011005135730008,0.5923076923076923,0.43566021867115223,1197.0
922.0,1.7114397533002655e+18,0.4765013054830287,0.4212328767123288,0.3264864864864865,0.5069699192956714,0.6472527472527473,0.4373423044575273,1194.0
923.0,1.7114397533102746e+18,0.42950391644908614,0.4223744292237443,0.34054054054054056,0.504524333577892,0.5978021978021978,0.4415475189234651,1196.0
924.0,1.7114397533202785e+18,0.44778067885117495,0.4463470319634703,0.36,0.4986549278552213,0.6494505494505495,0.4381833473507149,1195.0
925.0,1.7114397533302392e+18,0.47127937336814624,0.4121004566210046,0.34054054054054056,0.5006113964294449,0.5989010989010989,0.43986543313709,1196.0
926.0,1.7114397533402783e+18,0.4765013054830287,0.4098173515981735,0.33405405405405403,0.5035460992907801,0.6571428571428571,0.4381833473507149,1195.0
927.0,1.7114397533502648e+18,0.5052219321148825,0.4269406392694064,0.3362162162162162,0.5028124235754463,0.5978021978021978,0.4432296047098402,1194.0
928.0,1.7114397533602596e+18,0.4725848563968668,0.408675799086758,0.3324324324324324,0.4944974321349963,0.6362637362637362,0.432296047098402,1192.0
929.0,1.7114397533702561e+18,0.47911227154047,0.4235159817351598,0.32756756756756755,0.504035216434336,0.5978021978021978,0.44238856181665265,1194.0
930.0,1.7114397533802831e+18,0.48433420365535246,0.4200913242009132,0.33837837837837836,0.5001222792858889,0.6538461538461539,0.4381833473507149,1196.0
931.0,1.711439753390255e+18,0.4765013054830287,0.4143835616438356,0.3345945945945946,0.504035216434336,0.5923076923076923,0.4381833473507149,1196.0
932.0,1.711439753400258e+18,0.4751958224543081,0.4178082191780822,0.3362162162162162,0.49816581071166544,0.6505494505494506,0.43650126156433977,1195.0
933.0,1.7114397534102584e+18,0.47911227154047,0.4018264840182648,0.3362162162162162,0.5035460992907801,0.6,0.4415475189234651,1196.0
934.0,1.7114397534202614e+18,0.5287206266318538,0.4269406392694064,0.3232432432432432,0.49474199070677427,0.6538461538461539,0.43902439024390244,1195.0
935.0,1.7114397534302628e+18,0.4751958224543081,0.4132420091324201,0.3335135135135135,0.4937637564196625,0.5945054945054945,0.43986543313709,1196.0
936.0,1.711439753440265e+18,0.47127937336814624,0.4052511415525114,0.3345945945945946,0.4996331621423331,0.654945054945055,0.4381833473507149,1197.0
937.0,1.7114397534502659e+18,0.47911227154047,0.4235159817351598,0.33837837837837836,0.5025678650036683,0.6021978021978022,0.4415475189234651,1195.0
938.0,1.711439753460269e+18,0.4765013054830287,0.4223744292237443,0.34864864864864864,0.49474199070677427,0.6461538461538462,0.43902439024390244,1197.0
939.0,1.7114397534702684e+18,0.4765013054830287,0.4132420091324201,0.33297297297297296,0.4854487649792125,0.5868131868131868,0.43566021867115223,1195.0
940.0,1.71143975348027e+18,0.4725848563968668,0.4006849315068493,0.3362162162162162,0.5194424064563463,0.6527472527472528,0.4381833473507149,1197.0
941.0,1.711439753490273e+18,0.46866840731070497,0.410958904109589,0.33405405405405403,0.5015896307165566,0.5967032967032967,0.4415475189234651,1197.0
942.0,1.7114397535002757e+18,0.5013054830287206,0.4292237442922374,0.3345945945945946,0.5138175593054537,0.654945054945055,0.43902439024390244,1195.0
943.0,1.7114397535102756e+18,0.45822454308093996,0.4052511415525114,0.33405405405405403,0.504524333577892,0.5978021978021978,0.43902439024390244,1196.0
944.0,1.7114397535202813e+18,0.4660574412532637,0.4463470319634703,0.3427027027027027,0.49767669356810956,0.6516483516483517,0.43902439024390244,1195.0
945.0,1.7114397535302354e+18,0.4765013054830287,0.4246575342465753,0.3572972972972973,0.5035460992907801,0.5989010989010989,0.4432296047098402,1196.0
946.0,1.7114397535402844e+18,0.4765013054830287,0.4292237442922374,0.3335135135135135,0.4988994864269993,0.6505494505494506,0.4432296047098402,1195.0
947.0,1.711439753550285e+18,0.47127937336814624,0.4063926940639269,0.312972972972973,0.5035460992907801,0.5945054945054945,0.43650126156433977,1194.0
948.0,1.711439753560282e+18,0.4765013054830287,0.3926940639269406,0.31891891891891894,0.4996331621423331,0.6538461538461539,0.43650126156433977,1196.0
949.0,1.7114397535702879e+18,0.4765013054830287,0.4200913242009132,0.3318918918918919,0.504524333577892,0.6010989010989011,0.4415475189234651,1196.0
950.0,1.7114397535802422e+18,0.48433420365535246,0.432648401826484,0.3372972972972973,0.49938860357055515,0.6538461538461539,0.4381833473507149,1196.0
951.0,1.7114397535902881e+18,0.4751958224543081,0.4235159817351598,0.34540540540540543,0.5037906578625581,0.5945054945054945,0.43986543313709,1195.0
952.0,1.711439753600249e+18,0.4804177545691906,0.4429223744292237,0.3491891891891892,0.49938860357055515,0.6582417582417582,0.4482758620689655,1197.0
953.0,1.7114397536102446e+18,0.4869451697127937,0.4121004566210046,0.33513513513513515,0.5035460992907801,0.5934065934065934,0.4255677039529016,1193.0
954.0,1.7114397536202962e+18,0.47911227154047,0.4440639269406393,0.33783783783783783,0.49938860357055515,0.6527472527472528,0.4482758620689655,1195.0
955.0,1.7114397536302984e+18,0.4699738903394256,0.4132420091324201,0.3281081081081081,0.5033015407190022,0.5956043956043956,0.4432296047098402,1197.0
956.0,1.7114397536402465e+18,0.47780678851174935,0.4235159817351598,0.34756756756756757,0.5001222792858889,0.6538461538461539,0.43566021867115223,1196.0
957.0,1.7114397536502446e+18,0.489556135770235,0.4429223744292237,0.35621621621621624,0.504035216434336,0.6186813186813187,0.4507989907485282,1197.0
958.0,1.7114397536602455e+18,0.47127937336814624,0.4269406392694064,0.3362162162162162,0.4986549278552213,0.6516483516483517,0.4339781328847771,1196.0
959.0,1.7114397536702625e+18,0.4725848563968668,0.3949771689497717,0.33513513513513515,0.5035460992907801,0.5978021978021978,0.43902439024390244,1198.0
960.0,1.7114397536802445e+18,0.47389033942558745,0.4063926940639269,0.33135135135135135,0.499877720714111,0.6582417582417582,0.4255677039529016,1194.0
961.0,1.7114397536902405e+18,0.4725848563968668,0.3812785388127854,0.34054054054054056,0.5035460992907801,0.5978021978021978,0.4415475189234651,1197.0
962.0,1.711439753700245e+18,0.48433420365535246,0.4178082191780822,0.3464864864864865,0.499877720714111,0.6494505494505495,0.4381833473507149,1198.0
963.0,1.7114397537102413e+18,0.47127937336814624,0.4497716894977169,0.3545945945945946,0.5006113964294449,0.6,0.43566021867115223,1197.0
964.0,1.7114397537202524e+18,0.46344647519582244,0.3904109589041096,0.3264864864864865,0.5001222792858889,0.6582417582417582,0.4449116904962153,1196.0
965.0,1.711439753730242e+18,0.4490861618798956,0.4235159817351598,0.34324324324324323,0.5018341892883346,0.5901098901098901,0.4415475189234651,1195.0
966.0,1.7114397537402463e+18,0.4516971279373368,0.3881278538812785,0.3232432432432432,0.4986549278552213,0.6593406593406593,0.43566021867115223,1195.0
967.0,1.7114397537502495e+18,0.49738903394255873,0.4223744292237443,0.34324324324324323,0.5035460992907801,0.6010989010989011,0.45836837678721615,1194.0
968.0,1.7114397537602788e+18,0.5,0.4942922374429224,0.36324324324324325,0.49938860357055515,0.6714285714285714,0.4415475189234651,1196.0
969.0,1.7114397537702587e+18,0.4490861618798956,0.384703196347032,0.31189189189189187,0.5035460992907801,0.5956043956043956,0.43902439024390244,1196.0
970.0,1.711439753780259e+18,0.5,0.4052511415525114,0.3286486486486486,0.49816581071166544,0.6626373626373626,0.447434819175778,1195.0
971.0,1.7114397537902618e+18,0.4765013054830287,0.4098173515981735,0.32756756756756755,0.504279775006114,0.589010989010989,0.4339781328847771,1191.0
972.0,1.7114397538002468e+18,0.4608355091383812,0.4132420091324201,0.33675675675675676,0.49938860357055515,0.6538461538461539,0.4306139613120269,1195.0
973.0,1.7114397538102464e+18,0.5078328981723238,0.3607305936073059,0.31675675675675674,0.5001222792858889,0.5945054945054945,0.45248107653490327,1197.0
974.0,1.71143975382025e+18,0.48172323759791125,0.4269406392694064,0.34594594594594597,0.49816581071166544,0.6538461538461539,0.4280908326324643,1192.0
975.0,1.7114397538302474e+18,0.566579634464752,0.3984018264840183,0.3324324324324324,0.48251406211787723,0.5846153846153846,0.43986543313709,1196.0
976.0,1.7114397538402568e+18,0.46475195822454307,0.3789954337899543,0.32756756756756755,0.499877720714111,0.6648351648351648,0.447434819175778,1197.0
977.0,1.7114397538502467e+18,0.45430809399477806,0.4817351598173516,0.35027027027027025,0.512594766446564,0.5846153846153846,0.4222035323801514,1193.0
978.0,1.7114397538602586e+18,0.5404699738903395,0.4132420091324201,0.3389189189189189,0.5055025678650037,0.676923076923077,0.4785534062237174,1194.0
979.0,1.7114397538702548e+18,0.45822454308093996,0.4189497716894977,0.3362162162162162,0.4996331621423331,0.578021978021978,0.4188393608074012,1195.0
980.0,1.7114397538802696e+18,0.36945169712793735,0.4452054794520548,0.36108108108108106,0.4996331621423331,0.6538461538461539,0.4289318755256518,1193.0
981.0,1.7114397538902423e+18,0.42950391644908614,0.430365296803653,0.34756756756756757,0.5037906578625581,0.5978021978021978,0.45248107653490327,1196.0
982.0,1.7114397539002524e+18,0.4765013054830287,0.4155251141552511,0.3308108108108108,0.4988994864269993,0.6593406593406593,0.43566021867115223,1195.0
983.0,1.7114397539102477e+18,0.49738903394255873,0.4063926940639269,0.32972972972972975,0.5015896307165566,0.5857142857142857,0.43986543313709,1198.0
984.0,1.7114397539202447e+18,0.5,0.454337899543379,0.3491891891891892,0.5001222792858889,0.6582417582417582,0.4381833473507149,1194.0
985.0,1.711439753930266e+18,0.4725848563968668,0.4132420091324201,0.33297297297297296,0.5028124235754463,0.5879120879120879,0.44238856181665265,1196.0
986.0,1.711439753940252e+18,0.4830287206266319,0.4520547945205479,0.35567567567567565,0.5008559550012228,0.6494505494505495,0.43313708999158956,1193.0
987.0,1.7114397539502484e+18,0.5,0.4269406392694064,0.34162162162162163,0.5035460992907801,0.5945054945054945,0.46173254835996635,1194.0
988.0,1.711439753960252e+18,0.4621409921671018,0.4360730593607306,0.3362162162162162,0.4996331621423331,0.6593406593406593,0.43313708999158956,1194.0
989.0,1.711439753970264e+18,0.46866840731070497,0.4246575342465753,0.33837837837837836,0.5020787478601125,0.5868131868131868,0.4339781328847771,1194.0
990.0,1.711439753980263e+18,0.49216710182767626,0.4246575342465753,0.35243243243243244,0.5008559550012228,0.6593406593406593,0.4449116904962153,1195.0
991.0,1.7114397539902543e+18,0.5052219321148825,0.4726027397260274,0.3410810810810811,0.504524333577892,0.5945054945054945,0.44238856181665265,1197.0
992.0,1.7114397540002458e+18,0.4804177545691906,0.410958904109589,0.3324324324324324,0.4991440449987772,0.656043956043956,0.4381833473507149,1195.0
993.0,1.7114397540102467e+18,0.49216710182767626,0.4223744292237443,0.33297297297297296,0.504035216434336,0.5945054945054945,0.4415475189234651,1196.0
994.0,1.7114397540202598e+18,0.4804177545691906,0.386986301369863,0.3291891891891892,0.4991440449987772,0.6571428571428571,0.43650126156433977,1197.0
995.0,1.7114397540302433e+18,0.48825065274151436,0.4041095890410959,0.3410810810810811,0.5035460992907801,0.5967032967032967,0.44575273338940286,1196.0
996.0,1.7114397540402522e+18,0.4516971279373368,0.3949771689497717,0.3264864864864865,0.4988994864269993,0.6571428571428571,0.4373423044575273,1196.0
997.0,1.7114397540502461e+18,0.4830287206266319,0.4178082191780822,0.34702702702702704,0.5037906578625581,0.5978021978021978,0.4415475189234651,1195.0
998.0,1.711439754060246e+18,0.45300261096605743,0.4098173515981735,0.35135135135135137,0.49938860357055515,0.6582417582417582,0.43650126156433977,1194.0
999.0,1.7114397540702456e+18,0.47127937336814624,0.4018264840182648,0.33405405405405403,0.5035460992907801,0.5945054945054945,0.43902439024390244,1196.0
1000.0,1.711439754080247e+18,0.5013054830287206,0.4589041095890411,0.34324324324324323,0.4991440449987772,0.6527472527472528,0.43566021867115223,1196.0
1001.0,1.71143975409025e+18,0.48172323759791125,0.4041095890410959,0.3308108108108108,0.5096600635852286,0.6054945054945055,0.4449116904962153,1197.0
1002.0,1.7114397541002483e+18,0.4451697127937337,0.4657534246575342,0.36108108108108106,0.5052580092932257,0.654945054945055,0.4373423044575273,1197.0
