202.0,1.711439558640966e+18,0.4725848563968668,0.4143835616438356,0.33513513513513515,0.5099046221570066,0.6329670329670329,0.4432296047098402,1195.0
203.0,1.711439558650968e+18,0.47911227154047,0.4143835616438356,0.33783783783783783,0.5240890193201272,0.6494505494505495,0.4415475189234651,1197.0
204.0,1.7114395586609687e+18,0.4765013054830287,0.4178082191780822,0.3362162162162162,0.5160185864514552,0.6428571428571429,0.48107653490328006,1196.0
205.0,1.7114395586709652e+18,0.4725848563968668,0.410958904109589,0.33675675675675676,0.49816581071166544,0.6120879120879121,0.41968040370058873,1195.0
206.0,1.7114395586809644e+18,0.4699738903394256,0.4132420091324201,0.3362162162162162,0.524578136463683,0.6428571428571429,0.4701429772918419,1196.0
207.0,1.711439558690966e+18,0.4725848563968668,0.4200913242009132,0.3389189189189189,0.4942528735632184,0.6318681318681318,0.48359966358284273,1196.0
208.0,1.7114395587009667e+18,0.47127937336814624,0.4166666666666667,0.33135135135135135,0.4969430178527757,0.5912087912087912,0.43313708999158956,1193.0
209.0,1.711439558710968e+18,0.4765013054830287,0.4143835616438356,0.3362162162162162,0.49205184641721694,0.6274725274725275,0.4415475189234651,1195.0
210.0,1.7114395587209664e+18,0.47127937336814624,0.4121004566210046,0.33135135135135135,0.5094155050134507,0.6208791208791209,0.43313708999158956,1193.0
211.0,1.7114395587309714e+18,0.4765013054830287,0.4132420091324201,0.32972972972972975,0.5057471264367817,0.6274725274725275,0.4289318755256518,1192.0
212.0,1.7114395587409687e+18,0.4725848563968668,0.4132420091324201,0.33405405405405403,0.5062362435803375,0.6098901098901099,0.4213624894869638,1196.0
213.0,1.7114395587509737e+18,0.47389033942558745,0.4132420091324201,0.33297297297297296,0.48226950354609927,0.6241758241758242,0.4289318755256518,1195.0
214.0,1.7114395587609667e+18,0.47780678851174935,0.410958904109589,0.3345945945945946,0.4925409635607728,0.6197802197802198,0.4600504625735913,1196.0
215.0,1.7114395587709663e+18,0.48172323759791125,0.4280821917808219,0.3497297297297297,0.5025678650036683,0.6450549450549451,0.46173254835996635,1197.0
216.0,1.711439558780968e+18,0.4725848563968668,0.4166666666666667,0.34162162162162163,0.4937637564196625,0.6186813186813187,0.4280908326324643,1192.0
217.0,1.7114395587909663e+18,0.4765013054830287,0.4143835616438356,0.3345945945945946,0.5011005135730008,0.6274725274725275,0.4482758620689655,1197.0
218.0,1.7114395588009638e+18,0.4765013054830287,0.4178082191780822,0.3324324324324324,0.5216434336023478,0.634065934065934,0.4381833473507149,1197.0
219.0,1.711439558810964e+18,0.47780678851174935,0.4143835616438356,0.3318918918918919,0.5020787478601125,0.6329670329670329,0.46509671993271656,1198.0
220.0,1.7114395588209623e+18,0.4869451697127937,0.432648401826484,0.34486486486486484,0.5169968207385669,0.6252747252747253,0.45248107653490327,1196.0
221.0,1.711439558830964e+18,0.4765013054830287,0.4132420091324201,0.3389189189189189,0.5028124235754463,0.6384615384615384,0.45164003364171573,1196.0
222.0,1.711439558840965e+18,0.47780678851174935,0.4189497716894977,0.33513513513513515,0.504035216434336,0.6307692307692307,0.44238856181665265,1195.0
223.0,1.711439558850977e+18,0.4804177545691906,0.4178082191780822,0.34054054054054056,0.5057471264367817,0.6384615384615384,0.4558452481076535,1195.0
224.0,1.7114395588609766e+18,0.48433420365535246,0.4235159817351598,0.33675675675675676,0.5113719735876743,0.6582417582417582,0.47771236333052985,1196.0
225.0,1.7114395588709696e+18,0.4765013054830287,0.4212328767123288,0.34216216216216216,0.5103937393005625,0.6197802197802198,0.4592094196804037,1197.0
226.0,1.7114395588809674e+18,0.47389033942558745,0.4166666666666667,0.3362162162162162,0.4966984592809978,0.5989010989010989,0.4348191757779647,1195.0
227.0,1.7114395588910205e+18,0.4725848563968668,0.4098173515981735,0.33513513513513515,0.5006113964294449,0.6241758241758242,0.4348191757779647,1194.0
228.0,1.711439558900973e+18,0.4725848563968668,0.4098173515981735,0.33297297297297296,0.5094155050134507,0.6450549450549451,0.4415475189234651,1196.0
229.0,1.7114395589109724e+18,0.46866840731070497,0.4143835616438356,0.34054054054054056,0.4925409635607728,0.6274725274725275,0.38519764507989906,1193.0
230.0,1.7114395589209677e+18,0.4751958224543081,0.4143835616438356,0.33297297297297296,0.495720224993886,0.6230769230769231,0.44575273338940286,1197.0
231.0,1.7114395589309642e+18,0.47389033942558745,0.4143835616438356,0.3324324324324324,0.4937637564196625,0.6373626373626373,0.4785534062237174,1196.0
232.0,1.7114395589409828e+18,0.4765013054830287,0.4178082191780822,0.33837837837837836,0.5096600635852286,0.656043956043956,0.4558452481076535,1195.0
233.0,1.7114395589509668e+18,0.4751958224543081,0.4155251141552511,0.33783783783783783,0.49938860357055515,0.6252747252747253,0.4415475189234651,1196.0
234.0,1.711439558961009e+18,0.48172323759791125,0.4200913242009132,0.3254054054054054,0.48373685497676694,0.6098901098901099,0.4373423044575273,1194.0
235.0,1.711439558970971e+18,0.47389033942558745,0.4143835616438356,0.3345945945945946,0.5096600635852286,0.6516483516483517,0.4482758620689655,1196.0
236.0,1.7114395589809664e+18,0.4765013054830287,0.4189497716894977,0.3335135135135135,0.5074590364392272,0.6208791208791209,0.4440706476030278,1196.0
237.0,1.7114395589909686e+18,0.47127937336814624,0.4155251141552511,0.34,0.4969430178527757,0.6285714285714286,0.43313708999158956,1194.0
238.0,1.7114395590010122e+18,0.4765013054830287,0.410958904109589,0.32972972972972975,0.48911714355588165,0.6142857142857143,0.4592094196804037,1198.0
239.0,1.711439559010982e+18,0.47780678851174935,0.4132420091324201,0.3372972972972973,0.5067253607238934,0.6230769230769231,0.4381833473507149,1198.0
240.0,1.711439559020967e+18,0.47127937336814624,0.4132420091324201,0.33783783783783783,0.512350207874786,0.6021978021978022,0.4314550042052145,1192.0
241.0,1.7114395590309642e+18,0.46866840731070497,0.4098173515981735,0.3345945945945946,0.5033015407190022,0.6274725274725275,0.4432296047098402,1198.0
242.0,1.7114395590410025e+18,0.4751958224543081,0.4178082191780822,0.3372972972972973,0.5072144778674492,0.634065934065934,0.4415475189234651,1198.0
243.0,1.7114395590509793e+18,0.47389033942558745,0.4132420091324201,0.33675675675675676,0.5052580092932257,0.6153846153846154,0.43566021867115223,1195.0
244.0,1.7114395590609746e+18,0.4765013054830287,0.4178082191780822,0.33783783783783783,0.5233553436047933,0.6164835164835165,0.39444911690496215,1193.0
245.0,1.7114395590709757e+18,0.47127937336814624,0.4132420091324201,0.33405405405405403,0.5057471264367817,0.6362637362637362,0.4381833473507149,1195.0
246.0,1.7114395590809725e+18,0.47389033942558745,0.4143835616438356,0.33513513513513515,0.512594766446564,0.6395604395604395,0.44575273338940286,1196.0
247.0,1.7114395590909944e+18,0.4765013054830287,0.4063926940639269,0.33513513513513515,0.5140621178772316,0.634065934065934,0.43902439024390244,1195.0
248.0,1.7114395591009777e+18,0.4725848563968668,0.4132420091324201,0.33513513513513515,0.5001222792858889,0.6307692307692307,0.4482758620689655,1194.0
249.0,1.7114395591109775e+18,0.47780678851174935,0.4189497716894977,0.34216216216216216,0.4685742235265346,0.6164835164835165,0.4222035323801514,1193.0
250.0,1.7114395591209746e+18,0.47389033942558745,0.4178082191780822,0.3362162162162162,0.5096600635852286,0.6230769230769231,0.4415475189234651,1195.0
251.0,1.7114395591309745e+18,0.47911227154047,0.4178082191780822,0.3362162162162162,0.5018341892883346,0.6252747252747253,0.4432296047098402,1194.0
252.0,1.7114395591410017e+18,0.47911227154047,0.4178082191780822,0.3335135135135135,0.5067253607238934,0.6472527472527473,0.43650126156433977,1197.0
253.0,1.7114395591509678e+18,0.4765013054830287,0.4121004566210046,0.33675675675675676,0.4974321349963316,0.6384615384615384,0.4499579478553406,1196.0
254.0,1.7114395591609656e+18,0.4765013054830287,0.4178082191780822,0.3372972972972973,0.49938860357055515,0.6318681318681318,0.4415475189234651,1196.0
255.0,1.7114395591709642e+18,0.4751958224543081,0.4132420091324201,0.3362162162162162,0.49107361213010514,0.6362637362637362,0.4440706476030278,1195.0
256.0,1.7114395591809633e+18,0.4804177545691906,0.4178082191780822,0.33405405405405403,0.4986549278552213,0.6263736263736264,0.4381833473507149,1194.0
257.0,1.7114395591909622e+18,0.47780678851174935,0.4189497716894977,0.34162162162162163,0.5062362435803375,0.6373626373626373,0.4381833473507149,1195.0
258.0,1.7114395592009603e+18,0.48172323759791125,0.4257990867579909,0.34216216216216216,0.5035460992907801,0.6241758241758242,0.43313708999158956,1193.0
259.0,1.7114395592109747e+18,0.4765013054830287,0.4166666666666667,0.3389189189189189,0.5015896307165566,0.621978021978022,0.4339781328847771,1194.0
260.0,1.7114395592209646e+18,0.4765013054830287,0.4212328767123288,0.3372972972972973,0.49523110785033014,0.6186813186813187,0.4381833473507149,1197.0
261.0,1.7114395592309722e+18,0.4725848563968668,0.4132420091324201,0.3389189189189189,0.5015896307165566,0.6164835164835165,0.4381833473507149,1196.0
262.0,1.7114395592409756e+18,0.4765013054830287,0.4132420091324201,0.33297297297297296,0.5020787478601125,0.6208791208791209,0.4432296047098402,1197.0
263.0,1.7114395592509711e+18,0.47780678851174935,0.4200913242009132,0.3318918918918919,0.4979212521398875,0.621978021978022,0.4415475189234651,1196.0
264.0,1.7114395592609605e+18,0.47911227154047,0.4132420091324201,0.3308108108108108,0.5260454878943507,0.6362637362637362,0.44575273338940286,1195.0
265.0,1.7114395592709658e+18,0.47127937336814624,0.4143835616438356,0.33405405405405403,0.504524333577892,0.6296703296703297,0.44070647603027757,1200.0
266.0,1.7114395592809633e+18,0.4804177545691906,0.4189497716894977,0.33135135135135135,0.5008559550012228,0.6494505494505495,0.4432296047098402,1196.0
267.0,1.7114395592909778e+18,0.4830287206266319,0.4200913242009132,0.34540540540540543,0.5008559550012228,0.6252747252747253,0.4449116904962153,1197.0
268.0,1.711439559300973e+18,0.46866840731070497,0.408675799086758,0.3286486486486486,0.5030569821472243,0.6208791208791209,0.4289318755256518,1192.0
269.0,1.711439559310972e+18,0.4765013054830287,0.408675799086758,0.32972972972972975,0.4781120078258743,0.6142857142857143,0.4112699747687132,1192.0
270.0,1.7114395593209656e+18,0.4765013054830287,0.4178082191780822,0.3372972972972973,0.5047688921496698,0.6054945054945055,0.4348191757779647,1194.0
271.0,1.7114395593309617e+18,0.47127937336814624,0.4098173515981735,0.33837837837837836,0.5184641721692346,0.6351648351648351,0.432296047098402,1193.0
272.0,1.711439559340985e+18,0.4765013054830287,0.4178082191780822,0.33405405405405403,0.47909024211298606,0.6164835164835165,0.43650126156433977,1195.0
273.0,1.711439559350977e+18,0.4765013054830287,0.4143835616438356,0.3389189189189189,0.495720224993886,0.6373626373626373,0.4440706476030278,1195.0
274.0,1.7114395593609746e+18,0.4765013054830287,0.4155251141552511,0.3335135135135135,0.4996331621423331,0.6197802197802198,0.43650126156433977,1197.0
275.0,1.7114395593709704e+18,0.4725848563968668,0.4132420091324201,0.3389189189189189,0.5059916850085595,0.6318681318681318,0.4449116904962153,1196.0
276.0,1.7114395593809677e+18,0.4765013054830287,0.4223744292237443,0.33675675675675676,0.5140621178772316,0.6241758241758242,0.4482758620689655,1196.0
277.0,1.711439559390991e+18,0.47911227154047,0.4178082191780822,0.3362162162162162,0.48985081927121543,0.621978021978022,0.4415475189234651,1195.0
278.0,1.7114395594009725e+18,0.4725848563968668,0.4155251141552511,0.3362162162162162,0.5052580092932257,0.6010989010989011,0.3675357443229605,1194.0
279.0,1.711439559410964e+18,0.47389033942558745,0.4166666666666667,0.33837837837837836,0.49107361213010514,0.5967032967032967,0.4314550042052145,1194.0
280.0,1.7114395594209623e+18,0.4765013054830287,0.4212328767123288,0.3427027027027027,0.5094155050134507,0.6318681318681318,0.4415475189234651,1197.0
281.0,1.7114395594309665e+18,0.4830287206266319,0.4223744292237443,0.3362162162162162,0.4896062606994375,0.6318681318681318,0.4289318755256518,1194.0
282.0,1.711439559440988e+18,0.47780678851174935,0.4178082191780822,0.3372972972972973,0.491807287845439,0.6241758241758242,0.44070647603027757,1197.0
283.0,1.711439559450972e+18,0.46736292428198434,0.4132420091324201,0.3362162162162162,0.4966984592809978,0.6230769230769231,0.43566021867115223,1195.0
284.0,1.711439559460966e+18,0.47127937336814624,0.410958904109589,0.3286486486486486,0.4996331621423331,0.6164835164835165,0.4381833473507149,1196.0
285.0,1.711439559470962e+18,0.4765013054830287,0.4132420091324201,0.33513513513513515,0.49082905355832723,0.6274725274725275,0.4449116904962153,1197.0
286.0,1.7114395594809595e+18,0.4804177545691906,0.4155251141552511,0.33405405405405403,0.4984103692834434,0.6252747252747253,0.43986543313709,1197.0
287.0,1.7114395594910116e+18,0.4699738903394256,0.4223744292237443,0.33837837837837836,0.49327463927610665,0.5879120879120879,0.42304457527333894,1194.0
288.0,1.7114395595009618e+18,0.47127937336814624,0.4155251141552511,0.33405405405405403,0.4969430178527757,0.6208791208791209,0.43650126156433977,1193.0
289.0,1.7114395595109699e+18,0.4725848563968668,0.4132420091324201,0.3318918918918919,0.5020787478601125,0.6208791208791209,0.4348191757779647,1196.0
290.0,1.7114395595209697e+18,0.4765013054830287,0.4143835616438356,0.3345945945945946,0.4954756664221081,0.6197802197802198,0.4381833473507149,1193.0
291.0,1.711439559530996e+18,0.47780678851174935,0.4143835616438356,0.3308108108108108,0.49523110785033014,0.6153846153846154,0.44575273338940286,1195.0
292.0,1.7114395595409682e+18,0.4765013054830287,0.4132420091324201,0.33135135135135135,0.4991440449987772,0.6010989010989011,0.4314550042052145,1193.0
293.0,1.711439559550962e+18,0.4765013054830287,0.4235159817351598,0.34486486486486484,0.5324040107605772,0.634065934065934,0.44070647603027757,1197.0
294.0,1.7114395595609623e+18,0.4765013054830287,0.4155251141552511,0.3324324324324324,0.5030569821472243,0.6010989010989011,0.41968040370058873,1193.0
295.0,1.7114395595709553e+18,0.47780678851174935,0.4212328767123288,0.33405405405405403,0.4969430178527757,0.6142857142857143,0.4020185029436501,1194.0
296.0,1.71143955958096e+18,0.47911227154047,0.4189497716894977,0.33513513513513515,0.49938860357055515,0.6329670329670329,0.4449116904962153,1195.0
297.0,1.7114395595909832e+18,0.4699738903394256,0.4189497716894977,0.34324324324324323,0.504524333577892,0.6428571428571429,0.4449116904962153,1196.0
298.0,1.7114395596009523e+18,0.4765013054830287,0.4189497716894977,0.3362162162162162,0.49620934213744194,0.6318681318681318,0.43313708999158956,1193.0
299.0,1.7114395596109632e+18,0.4765013054830287,0.4132420091324201,0.3345945945945946,0.4937637564196625,0.6208791208791209,0.447434819175778,1195.0
300.0,1.711439559620961e+18,0.4765013054830287,0.4166666666666667,0.34594594594594597,0.5023233064318905,0.6208791208791209,0.43650126156433977,1197.0
301.0,1.71143955963098e+18,0.48172323759791125,0.4200913242009132,0.33783783783783783,0.4984103692834434,0.6274725274725275,0.43650126156433977,1198.0
302.0,1.7114395596409733e+18,0.4765013054830287,0.4178082191780822,0.3362162162162162,0.4991440449987772,0.6087912087912087,0.4381833473507149,1196.0
303.0,1.711439559650976e+18,0.4830287206266319,0.4178082191780822,0.33945945945945943,0.5145512350207875,0.6450549450549451,0.45248107653490327,1196.0
304.0,1.7114395596609774e+18,0.4699738903394256,0.410958904109589,0.3362162162162162,0.5135730007336757,0.6362637362637362,0.456686291000841,1196.0
305.0,1.7114395596709757e+18,0.46736292428198434,0.4075342465753425,0.3318918918918919,0.5025678650036683,0.621978021978022,0.4348191757779647,1197.0
306.0,1.7114395596809748e+18,0.4765013054830287,0.4178082191780822,0.3318918918918919,0.5023233064318905,0.6263736263736264,0.4272497897392767,1192.0
307.0,1.7114395596909742e+18,0.47127937336814624,0.4166666666666667,0.33675675675675676,0.504035216434336,0.6021978021978022,0.43566021867115223,1197.0
308.0,1.7114395597009882e+18,0.47780678851174935,0.4200913242009132,0.33405405405405403,0.49205184641721694,0.6131868131868132,0.4247266610597141,1192.0
309.0,1.7114395597109724e+18,0.4725848563968668,0.4132420091324201,0.33675675675675676,0.5028124235754463,0.634065934065934,0.43986543313709,1195.0
310.0,1.711439559720971e+18,0.47389033942558745,0.4189497716894977,0.33837837837837836,0.49767669356810956,0.6186813186813187,0.407905803195963,1192.0
311.0,1.711439559730984e+18,0.4804177545691906,0.4200913242009132,0.3427027027027027,0.5099046221570066,0.6351648351648351,0.4449116904962153,1196.0
312.0,1.7114395597409725e+18,0.47911227154047,0.4178082191780822,0.3372972972972973,0.504035216434336,0.6362637362637362,0.4432296047098402,1197.0
313.0,1.7114395597509665e+18,0.4765013054830287,0.4132420091324201,0.3362162162162162,0.49205184641721694,0.610989010989011,0.43902439024390244,1196.0
314.0,1.7114395597609654e+18,0.47911227154047,0.4189497716894977,0.3372972972972973,0.5006113964294449,0.6285714285714286,0.4415475189234651,1195.0
315.0,1.7114395597709663e+18,0.48825065274151436,0.4257990867579909,0.34378378378378377,0.4883834678405478,0.589010989010989,0.4272497897392767,1195.0
316.0,1.7114395597809636e+18,0.4765013054830287,0.4178082191780822,0.3372972972972973,0.4979212521398875,0.6197802197802198,0.4415475189234651,1196.0
317.0,1.7114395597909632e+18,0.4765013054830287,0.4143835616438356,0.3372972972972973,0.4966984592809978,0.6252747252747253,0.44238856181665265,1197.0
318.0,1.7114395598009728e+18,0.47127937336814624,0.4132420091324201,0.3345945945945946,0.5035460992907801,0.6252747252747253,0.43986543313709,1197.0
319.0,1.7114395598109658e+18,0.4725848563968668,0.4143835616438356,0.3345945945945946,0.47933480068476403,0.6098901098901099,0.4339781328847771,1194.0
320.0,1.7114395598209917e+18,0.48172323759791125,0.4212328767123288,0.3410810810810811,0.504035216434336,0.6032967032967033,0.43650126156433977,1196.0
321.0,1.7114395598309906e+18,0.47911227154047,0.4155251141552511,0.3362162162162162,0.4996331621423331,0.6120879120879121,0.43313708999158956,1193.0
322.0,1.7114395598409772e+18,0.47780678851174935,0.4155251141552511,0.3335135135135135,0.5091709464416728,0.6285714285714286,0.4449116904962153,1195.0
323.0,1.7114395598509816e+18,0.4830287206266319,0.4292237442922374,0.34378378378378377,0.48789435069699194,0.6120879120879121,0.4146341463414634,1195.0
324.0,1.7114395598609595e+18,0.4765013054830287,0.4121004566210046,0.3302702702702703,0.49620934213744194,0.6054945054945055,0.4339781328847771,1193.0
325.0,1.7114395598709604e+18,0.46736292428198434,0.4132420091324201,0.34054054054054056,0.5072144778674492,0.6362637362637362,0.4373423044575273,1196.0
326.0,1.7114395598809592e+18,0.47911227154047,0.4223744292237443,0.33783783783783783,0.516507703595011,0.6329670329670329,0.4415475189234651,1195.0
327.0,1.7114395598909742e+18,0.4765013054830287,0.4155251141552511,0.3335135135135135,0.5067253607238934,0.6230769230769231,0.43313708999158956,1193.0
328.0,1.7114395599009905e+18,0.4725848563968668,0.4155251141552511,0.33405405405405403,0.4942528735632184,0.6175824175824176,0.43902439024390244,1195.0
329.0,1.7114395599109798e+18,0.4765013054830287,0.4155251141552511,0.3362162162162162,0.48936170212765956,0.6142857142857143,0.4348191757779647,1196.0
330.0,1.711439559920981e+18,0.4765013054830287,0.4178082191780822,0.33405405405405403,0.48936170212765956,0.5978021978021978,0.43566021867115223,1195.0
331.0,1.7114395599309775e+18,0.4765013054830287,0.4143835616438356,0.33837837837837836,0.5057471264367817,0.6362637362637362,0.4432296047098402,1196.0
332.0,1.7114395599409695e+18,0.4751958224543081,0.4132420091324201,0.3318918918918919,0.5035460992907801,0.6142857142857143,0.4373423044575273,1196.0
333.0,1.7114395599509783e+18,0.4765013054830287,0.4132420091324201,0.3345945945945946,0.4988994864269993,0.6241758241758242,0.4432296047098402,1197.0
334.0,1.7114395599609718e+18,0.4725848563968668,0.4178082191780822,0.3372972972972973,0.5143066764490095,0.6307692307692307,0.4482758620689655,1198.0
335.0,1.7114395599709652e+18,0.4725848563968668,0.4143835616438356,0.3356756756756757,0.487649792125214,0.6120879120879121,0.4348191757779647,1197.0
336.0,1.711439559980968e+18,0.47911227154047,0.4189497716894977,0.33405405405405403,0.5008559550012228,0.6230769230769231,0.43986543313709,1196.0
337.0,1.7114395599909809e+18,0.47389033942558745,0.4075342465753425,0.33405405405405403,0.5006113964294449,0.6285714285714286,0.4415475189234651,1196.0
338.0,1.7114395600009718e+18,0.47780678851174935,0.4178082191780822,0.33783783783783783,0.5177304964539007,0.6406593406593407,0.4449116904962153,1196.0
339.0,1.7114395600109683e+18,0.47780678851174935,0.4178082191780822,0.33675675675675676,0.5015896307165566,0.6318681318681318,0.43902439024390244,1197.0
340.0,1.7114395600209667e+18,0.4751958224543081,0.4200913242009132,0.3356756756756757,0.49400831499144043,0.634065934065934,0.4482758620689655,1197.0
341.0,1.7114395600309755e+18,0.4725848563968668,0.4098173515981735,0.32972972972972975,0.5018341892883346,0.6406593406593407,0.43986543313709,1197.0
342.0,1.7114395600409723e+18,0.47389033942558745,0.4143835616438356,0.33297297297297296,0.5011005135730008,0.6274725274725275,0.43566021867115223,1197.0
343.0,1.7114395600509783e+18,0.47911227154047,0.4223744292237443,0.3427027027027027,0.5033015407190022,0.6318681318681318,0.4415475189234651,1198.0
344.0,1.7114395600609708e+18,0.47911227154047,0.4223744292237443,0.3372972972972973,0.5020787478601125,0.6296703296703297,0.4188393608074012,1195.0
345.0,1.7114395600709673e+18,0.4725848563968668,0.4178082191780822,0.33783783783783783,0.49474199070677427,0.6230769230769231,0.4449116904962153,1196.0
346.0,1.7114395600809664e+18,0.4765013054830287,0.408675799086758,0.32972972972972975,0.495964783565664,0.6120879120879121,0.4339781328847771,1194.0
347.0,1.7114395600909978e+18,0.4765013054830287,0.4178082191780822,0.3362162162162162,0.4944974321349963,0.6263736263736264,0.4415475189234651,1195.0
348.0,1.711439560100966e+18,0.47911227154047,0.4223744292237443,0.33675675675675676,0.5050134507214478,0.6351648351648351,0.44575273338940286,1193.0
349.0,1.7114395601109676e+18,0.48172323759791125,0.4212328767123288,0.3427027027027027,0.491807287845439,0.6395604395604395,0.4440706476030278,1198.0
350.0,1.711439560120966e+18,0.47911227154047,0.4132420091324201,0.3318918918918919,0.5018341892883346,0.6263736263736264,0.43566021867115223,1195.0
351.0,1.7114395601309903e+18,0.4765013054830287,0.4178082191780822,0.33837837837837836,0.49033993641477136,0.6153846153846154,0.43986543313709,1197.0
352.0,1.7114395601409853e+18,0.4830287206266319,0.4223744292237443,0.33783783783783783,0.5072144778674492,0.6318681318681318,0.4465937762825904,1198.0
353.0,1.711439560150965e+18,0.4804177545691906,0.4098173515981735,0.33135135135135135,0.5062362435803375,0.6318681318681318,0.43650126156433977,1197.0
354.0,1.711439560160963e+18,0.48172323759791125,0.4143835616438356,0.3302702702702703,0.49620934213744194,0.6274725274725275,0.44238856181665265,1197.0
355.0,1.71143956017096e+18,0.47389033942558745,0.4155251141552511,0.3335135135135135,0.49645390070921985,0.6175824175824176,0.43566021867115223,1197.0
356.0,1.7114395601809592e+18,0.4725848563968668,0.4155251141552511,0.3324324324324324,0.4942528735632184,0.6120879120879121,0.4339781328847771,1194.0
357.0,1.7114395601909647e+18,0.4725848563968668,0.4178082191780822,0.33945945945945943,0.4942528735632184,0.6208791208791209,0.4339781328847771,1192.0
358.0,1.711439560200965e+18,0.4699738903394256,0.4132420091324201,0.33297297297297296,0.4888725849841037,0.6285714285714286,0.4482758620689655,1198.0
359.0,1.7114395602109683e+18,0.4751958224543081,0.4178082191780822,0.3345945945945946,0.5055025678650037,0.6263736263736264,0.43986543313709,1197.0
360.0,1.7114395602209628e+18,0.47780678851174935,0.4257990867579909,0.3389189189189189,0.4900953778429934,0.6076923076923076,0.432296047098402,1192.0
361.0,1.711439560230999e+18,0.4765013054830287,0.4143835616438356,0.33675675675675676,0.4988994864269993,0.5989010989010989,0.4339781328847771,1193.0
362.0,1.711439560240972e+18,0.47780678851174935,0.4212328767123288,0.3362162162162162,0.5018341892883346,0.6318681318681318,0.4482758620689655,1197.0
363.0,1.711439560250965e+18,0.4765013054830287,0.4143835616438356,0.33675675675675676,0.504524333577892,0.6373626373626373,0.46846089150546677,1197.0
364.0,1.7114395602609697e+18,0.46866840731070497,0.4189497716894977,0.33675675675675676,0.49523110785033014,0.6373626373626373,0.44238856181665265,1197.0
365.0,1.7114395602709658e+18,0.4765013054830287,0.4178082191780822,0.34054054054054056,0.5089263878698949,0.6208791208791209,0.4381833473507149,1196.0
366.0,1.711439560280971e+18,0.4751958224543081,0.4200913242009132,0.3362162162162162,0.4984103692834434,0.6054945054945055,0.4314550042052145,1195.0
367.0,1.7114395602909878e+18,0.4765013054830287,0.4132420091324201,0.33405405405405403,0.49498654927855223,0.6175824175824176,0.43566021867115223,1197.0
368.0,1.7114395603009677e+18,0.47911227154047,0.4166666666666667,0.33405405405405403,0.5035460992907801,0.6274725274725275,0.43566021867115223,1196.0
369.0,1.7114395603109673e+18,0.4830287206266319,0.4269406392694064,0.34540540540540543,0.495720224993886,0.6153846153846154,0.4339781328847771,1194.0
370.0,1.711439560320965e+18,0.47127937336814624,0.4121004566210046,0.33405405405405403,0.5033015407190022,0.6120879120879121,0.4314550042052145,1193.0
371.0,1.7114395603309842e+18,0.4765013054830287,0.4178082191780822,0.33945945945945943,0.48813890926876985,0.6307692307692307,0.42977291841883936,1193.0
372.0,1.7114395603409754e+18,0.4830287206266319,0.4200913242009132,0.3318918918918919,0.4900953778429934,0.6032967032967033,0.43650126156433977,1194.0
373.0,1.7114395603509583e+18,0.4765013054830287,0.4189497716894977,0.33513513513513515,0.495720224993886,0.6153846153846154,0.4735071488645921,1198.0
374.0,1.7114395603609667e+18,0.4765013054830287,0.4212328767123288,0.3356756756756757,0.48642699926632427,0.6098901098901099,0.43650126156433977,1195.0
375.0,1.7114395603709642e+18,0.4765013054830287,0.4166666666666667,0.33837837837837836,0.4900953778429934,0.621978021978022,0.4415475189234651,1195.0
376.0,1.7114395603809782e+18,0.4725848563968668,0.4143835616438356,0.3345945945945946,0.495964783565664,0.6241758241758242,0.44575273338940286,1197.0
377.0,1.7114395603909663e+18,0.47780678851174935,0.4178082191780822,0.34378378378378377,0.5118610907312301,0.6472527472527473,0.44575273338940286,1196.0
378.0,1.7114395604009618e+18,0.47780678851174935,0.4223744292237443,0.34054054054054056,0.49767669356810956,0.6164835164835165,0.4373423044575273,1197.0
379.0,1.7114395604109655e+18,0.47911227154047,0.4143835616438356,0.33675675675675676,0.4979212521398875,0.6307692307692307,0.4432296047098402,1196.0
380.0,1.7114395604209661e+18,0.4725848563968668,0.410958904109589,0.3335135135135135,0.504035216434336,0.6153846153846154,0.43313708999158956,1194.0
381.0,1.7114395604309862e+18,0.4765013054830287,0.4155251141552511,0.34162162162162163,0.48202494497432136,0.6230769230769231,0.44238856181665265,1196.0
382.0,1.7114395604409713e+18,0.4765013054830287,0.4212328767123288,0.34054054054054056,0.5018341892883346,0.6406593406593407,0.4482758620689655,1197.0
383.0,1.7114395604509755e+18,0.47389033942558745,0.4143835616438356,0.34054054054054056,0.5199315235999021,0.6329670329670329,0.4373423044575273,1196.0
384.0,1.7114395604609756e+18,0.4765013054830287,0.4155251141552511,0.33405405405405403,0.5037906578625581,0.6274725274725275,0.4373423044575273,1197.0
385.0,1.7114395604709765e+18,0.47911227154047,0.4143835616438356,0.3362162162162162,0.5015896307165566,0.6285714285714286,0.43902439024390244,1195.0
386.0,1.7114395604809748e+18,0.4765013054830287,0.4178082191780822,0.3362162162162162,0.49474199070677427,0.6208791208791209,0.4482758620689655,1195.0
387.0,1.711439560490976e+18,0.4804177545691906,0.4246575342465753,0.34324324324324323,0.4984103692834434,0.6285714285714286,0.4415475189234651,1195.0
388.0,1.711439560500974e+18,0.47127937336814624,0.4098173515981735,0.3308108108108108,0.48740523355343607,0.6296703296703297,0.4415475189234651,1195.0
389.0,1.7114395605109732e+18,0.47780678851174935,0.4132420091324201,0.33405405405405403,0.5035460992907801,0.6208791208791209,0.43650126156433977,1194.0
390.0,1.7114395605209713e+18,0.48172323759791125,0.4200913242009132,0.3389189189189189,0.5008559550012228,0.6186813186813187,0.43650126156433977,1194.0
391.0,1.71143956053098e+18,0.47780678851174935,0.4178082191780822,0.33837837837837836,0.5069699192956714,0.6351648351648351,0.44070647603027757,1197.0
392.0,1.7114395605409746e+18,0.47389033942558745,0.410958904109589,0.3335135135135135,0.5135730007336757,0.6153846153846154,0.44238856181665265,1197.0
393.0,1.7114395605509678e+18,0.47389033942558745,0.4132420091324201,0.3345945945945946,0.48324773783321107,0.6043956043956044,0.4289318755256518,1194.0
394.0,1.711439560560969e+18,0.4765013054830287,0.4155251141552511,0.33405405405405403,0.5015896307165566,0.6175824175824176,0.4028595458368377,1193.0
395.0,1.7114395605709665e+18,0.47911227154047,0.4189497716894977,0.3345945945945946,0.504279775006114,0.6318681318681318,0.4381833473507149,1197.0
396.0,1.711439560580972e+18,0.4725848563968668,0.4155251141552511,0.3318918918918919,0.495720224993886,0.6076923076923076,0.43902439024390244,1195.0
397.0,1.7114395605909676e+18,0.47780678851174935,0.4132420091324201,0.3324324324324324,0.4805575935436537,0.6120879120879121,0.43566021867115223,1196.0
398.0,1.7114395606009646e+18,0.47780678851174935,0.4212328767123288,0.3362162162162162,0.5064808021521154,0.6362637362637362,0.4432296047098402,1198.0
399.0,1.7114395606109655e+18,0.4765013054830287,0.4143835616438356,0.3362162162162162,0.49620934213744194,0.6230769230769231,0.4373423044575273,1198.0
400.0,1.7114395606209756e+18,0.4765013054830287,0.4132420091324201,0.33513513513513515,0.5074590364392272,0.6153846153846154,0.4348191757779647,1197.0
401.0,1.7114395606309816e+18,0.4765013054830287,0.4178082191780822,0.3372972972972973,0.5037906578625581,0.6307692307692307,0.4432296047098402,1197.0
402.0,1.711439560640975e+18,0.4804177545691906,0.4178082191780822,0.33297297297297296,0.5077035950110051,0.6428571428571429,0.447434819175778,1197.0
403.0,1.7114395606509688e+18,0.4765013054830287,0.4132420091324201,0.3318918918918919,0.49645390070921985,0.6329670329670329,0.43986543313709,1196.0
404.0,1.7114395606609667e+18,0.47127937336814624,0.4098173515981735,0.3308108108108108,0.499877720714111,0.6285714285714286,0.43313708999158956,1193.0
405.0,1.71143956067098e+18,0.4725848563968668,0.4075342465753425,0.33135135135135135,0.5001222792858889,0.6241758241758242,0.4373423044575273,1197.0
406.0,1.7114395606809782e+18,0.47780678851174935,0.4155251141552511,0.3362162162162162,0.4847150892638787,0.6164835164835165,0.44238856181665265,1195.0
407.0,1.7114395606909624e+18,0.4765013054830287,0.4178082191780822,0.3389189189189189,0.5023233064318905,0.6329670329670329,0.4533221194280908,1196.0
408.0,1.7114395607009656e+18,0.47127937336814624,0.410958904109589,0.33405405405405403,0.49816581071166544,0.6274725274725275,0.43902439024390244,1196.0
409.0,1.711439560710967e+18,0.47780678851174935,0.4200913242009132,0.3389189189189189,0.48911714355588165,0.6274725274725275,0.44238856181665265,1196.0
410.0,1.7114395607209764e+18,0.4765013054830287,0.4098173515981735,0.33405405405405403,0.49229640498899485,0.6208791208791209,0.4381833473507149,1195.0
411.0,1.7114395607309637e+18,0.47911227154047,0.4132420091324201,0.33675675675675676,0.4991440449987772,0.6175824175824176,0.4381833473507149,1197.0
412.0,1.7114395607409628e+18,0.4725848563968668,0.4098173515981735,0.3318918918918919,0.5074590364392272,0.6296703296703297,0.43902439024390244,1198.0
413.0,1.7114395607509716e+18,0.4804177545691906,0.4189497716894977,0.3372972972972973,0.5077035950110051,0.6395604395604395,0.4432296047098402,1195.0
414.0,1.711439560760974e+18,0.4699738903394256,0.4155251141552511,0.3335135135135135,0.49523110785033014,0.6395604395604395,0.4432296047098402,1193.0
415.0,1.7114395607710262e+18,0.4751958224543081,0.4178082191780822,0.34054054054054056,0.5103937393005625,0.6362637362637362,0.44070647603027757,1194.0
416.0,1.7114395607809613e+18,0.4725848563968668,0.4178082191780822,0.3372972972972973,0.499877720714111,0.6241758241758242,0.43650126156433977,1197.0
417.0,1.71143956079097e+18,0.48172323759791125,0.4223744292237443,0.34054054054054056,0.504035216434336,0.6285714285714286,0.43650126156433977,1195.0
418.0,1.7114395608009633e+18,0.4765013054830287,0.4143835616438356,0.3345945945945946,0.5006113964294449,0.6241758241758242,0.4381833473507149,1197.0
419.0,1.7114395608109645e+18,0.47911227154047,0.4132420091324201,0.33405405405405403,0.4984103692834434,0.6076923076923076,0.4339781328847771,1194.0
420.0,1.7114395608209838e+18,0.4765013054830287,0.4143835616438356,0.3308108108108108,0.5015896307165566,0.6274725274725275,0.43902439024390244,1198.0
421.0,1.7114395608309706e+18,0.4725848563968668,0.408675799086758,0.3362162162162162,0.5064808021521154,0.6252747252747253,0.4289318755256518,1193.0
422.0,1.7114395608409723e+18,0.4765013054830287,0.4178082191780822,0.3372972972972973,0.5113719735876743,0.6461538461538462,0.45164003364171573,1196.0
423.0,1.711439560850965e+18,0.47911227154047,0.4200913242009132,0.33783783783783783,0.4986549278552213,0.6252747252747253,0.43986543313709,1197.0
424.0,1.711439560860964e+18,0.4765013054830287,0.4178082191780822,0.3372972972972973,0.4966984592809978,0.6384615384615384,0.44575273338940286,1195.0
425.0,1.71143956087099e+18,0.4804177545691906,0.4235159817351598,0.33945945945945943,0.5028124235754463,0.6395604395604395,0.4440706476030278,1194.0
426.0,1.7114395608809695e+18,0.47780678851174935,0.4189497716894977,0.3362162162162162,0.4979212521398875,0.6296703296703297,0.4432296047098402,1195.0
427.0,1.711439560890963e+18,0.4765013054830287,0.4143835616438356,0.3362162162162162,0.49082905355832723,0.6142857142857143,0.4339781328847771,1193.0
428.0,1.7114395609009654e+18,0.47127937336814624,0.410958904109589,0.3372972972972973,0.4986549278552213,0.6285714285714286,0.4415475189234651,1194.0
429.0,1.7114395609109878e+18,0.4830287206266319,0.4200913242009132,0.33945945945945943,0.5047688921496698,0.6252747252747253,0.4465937762825904,1197.0
430.0,1.7114395609209956e+18,0.4725848563968668,0.408675799086758,0.3308108108108108,0.4927855221325507,0.6241758241758242,0.41968040370058873,1192.0
431.0,1.7114395609309645e+18,0.4765013054830287,0.4189497716894977,0.3362162162162162,0.4991440449987772,0.6307692307692307,0.44238856181665265,1195.0
432.0,1.7114395609409585e+18,0.47127937336814624,0.4132420091324201,0.3345945945945946,0.5113719735876743,0.6307692307692307,0.43986543313709,1194.0
433.0,1.7114395609509624e+18,0.47911227154047,0.4178082191780822,0.3372972972972973,0.5089263878698949,0.6384615384615384,0.43986543313709,1196.0
434.0,1.7114395609609636e+18,0.47389033942558745,0.4143835616438356,0.33405405405405403,0.4942528735632184,0.6274725274725275,0.44238856181665265,1196.0
435.0,1.7114395609709934e+18,0.4765013054830287,0.4178082191780822,0.33945945945945943,0.5013450721447786,0.6241758241758242,0.4381833473507149,1195.0
436.0,1.7114395609809613e+18,0.4765013054830287,0.4155251141552511,0.3362162162162162,0.5108828564441183,0.6285714285714286,0.4381833473507149,1193.0
437.0,1.7114395609909658e+18,0.47780678851174935,0.4143835616438356,0.3362162162162162,0.5006113964294449,0.6186813186813187,0.4381833473507149,1195.0
438.0,1.711439561000965e+18,0.4765013054830287,0.4143835616438356,0.33405405405405403,0.5020787478601125,0.6274725274725275,0.4381833473507149,1194.0
439.0,1.711439561010962e+18,0.4765013054830287,0.4166666666666667,0.3362162162162162,0.48618244069454636,0.6131868131868132,0.4381833473507149,1194.0
440.0,1.7114395610209836e+18,0.46866840731070497,0.4063926940639269,0.32594594594594595,0.49523110785033014,0.6197802197802198,0.4415475189234651,1195.0
441.0,1.7114395610309588e+18,0.47911227154047,0.4223744292237443,0.33837837837837836,0.5052580092932257,0.6186813186813187,0.4465937762825904,1196.0
442.0,1.711439561040983e+18,0.4765013054830287,0.4143835616438356,0.3362162162162162,0.5025678650036683,0.6241758241758242,0.43902439024390244,1197.0
443.0,1.7114395610509617e+18,0.47911227154047,0.4189497716894977,0.3356756756756757,0.49498654927855223,0.621978021978022,0.43986543313709,1196.0
444.0,1.7114395610609603e+18,0.4699738903394256,0.4155251141552511,0.3362162162162162,0.5059916850085595,0.6098901098901099,0.4339781328847771,1193.0
445.0,1.7114395610709972e+18,0.4725848563968668,0.408675799086758,0.3302702702702703,0.4942528735632184,0.6153846153846154,0.4381833473507149,1196.0
446.0,1.7114395610809777e+18,0.47127937336814624,0.408675799086758,0.3302702702702703,0.5015896307165566,0.6208791208791209,0.4280908326324643,1192.0
447.0,1.7114395610909752e+18,0.4765013054830287,0.4178082191780822,0.3372972972972973,0.491562729273661,0.6197802197802198,0.4348191757779647,1196.0
448.0,1.7114395611009746e+18,0.4765013054830287,0.4178082191780822,0.3345945945945946,0.4988994864269993,0.6153846153846154,0.432296047098402,1192.0
449.0,1.711439561110974e+18,0.4830287206266319,0.4257990867579909,0.3389189189189189,0.48667155783810223,0.6252747252747253,0.44238856181665265,1196.0
450.0,1.7114395611210022e+18,0.4765013054830287,0.4178082191780822,0.3345945945945946,0.5059916850085595,0.6307692307692307,0.4415475189234651,1197.0
451.0,1.711439561130983e+18,0.4751958224543081,0.4178082191780822,0.3362162162162162,0.5084372707263389,0.6241758241758242,0.44070647603027757,1195.0
452.0,1.7114395611409718e+18,0.46736292428198434,0.4075342465753425,0.33135135135135135,0.4991440449987772,0.6087912087912087,0.43566021867115223,1196.0
453.0,1.711439561150971e+18,0.4751958224543081,0.4143835616438356,0.3372972972972973,0.5003668378576669,0.6197802197802198,0.4213624894869638,1192.0
454.0,1.71143956116097e+18,0.4765013054830287,0.4178082191780822,0.3345945945945946,0.49400831499144043,0.6252747252747253,0.4415475189234651,1195.0
455.0,1.7114395611709704e+18,0.47127937336814624,0.410958904109589,0.3389189189189189,0.5025678650036683,0.6285714285714286,0.4348191757779647,1196.0
456.0,1.711439561180981e+18,0.4765013054830287,0.4132420091324201,0.3335135135135135,0.49816581071166544,0.6197802197802198,0.43650126156433977,1197.0
457.0,1.7114395611909663e+18,0.4751958224543081,0.4178082191780822,0.33837837837837836,0.4988994864269993,0.6153846153846154,0.4415475189234651,1196.0
458.0,1.7114395612009646e+18,0.47780678851174935,0.4178082191780822,0.33783783783783783,0.5047688921496698,0.6252747252747253,0.4482758620689655,1197.0
459.0,1.7114395612109652e+18,0.4765013054830287,0.4235159817351598,0.34324324324324323,0.4942528735632184,0.6230769230769231,0.43650126156433977,1197.0
460.0,1.711439561220965e+18,0.47127937336814624,0.4143835616438356,0.33405405405405403,0.4991440449987772,0.6197802197802198,0.44070647603027757,1196.0
461.0,1.711439561230977e+18,0.48172323759791125,0.4200913242009132,0.33837837837837836,0.5067253607238934,0.6274725274725275,0.4381833473507149,1195.0
462.0,1.711439561240974e+18,0.47127937336814624,0.4098173515981735,0.33405405405405403,0.49620934213744194,0.6230769230769231,0.432296047098402,1194.0
463.0,1.7114395612509417e+18,0.4804177545691906,0.4178082191780822,0.3389189189189189,0.5099046221570066,0.6274725274725275,0.4440706476030278,1196.0
464.0,1.7114395612609633e+18,0.4765013054830287,0.4143835616438356,0.3302702702702703,0.5047688921496698,0.6296703296703297,0.4482758620689655,1195.0
465.0,1.7114395612710044e+18,0.47911227154047,0.4178082191780822,0.33945945945945943,0.49082905355832723,0.6285714285714286,0.4432296047098402,1196.0
466.0,1.7114395612809833e+18,0.4765013054830287,0.4132420091324201,0.3308108108108108,0.499877720714111,0.6153846153846154,0.43650126156433977,1195.0
467.0,1.7114395612909614e+18,0.4765013054830287,0.4178082191780822,0.33783783783783783,0.46368305209097577,0.6098901098901099,0.4381833473507149,1195.0
468.0,1.711439561300962e+18,0.47911227154047,0.4200913242009132,0.3362162162162162,0.49523110785033014,0.6230769230769231,0.4415475189234651,1193.0
469.0,1.711439561310959e+18,0.48172323759791125,0.4223744292237443,0.34162162162162163,0.5079481535827831,0.6318681318681318,0.4482758620689655,1194.0
470.0,1.7114395613209603e+18,0.4751958224543081,0.4155251141552511,0.3345945945945946,0.4966984592809978,0.6263736263736264,0.4415475189234651,1195.0
471.0,1.7114395613309568e+18,0.4751958224543081,0.4166666666666667,0.33837837837837836,0.49082905355832723,0.6318681318681318,0.4432296047098402,1193.0
472.0,1.7114395613409592e+18,0.47389033942558745,0.4178082191780822,0.3362162162162162,0.5020787478601125,0.6153846153846154,0.4373423044575273,1194.0
473.0,1.7114395613509622e+18,0.4725848563968668,0.4143835616438356,0.33783783783783783,0.5008559550012228,0.6285714285714286,0.4449116904962153,1196.0
474.0,1.711439561360994e+18,0.46866840731070497,0.4132420091324201,0.33405405405405403,0.5011005135730008,0.6164835164835165,0.4499579478553406,1196.0
475.0,1.711439561371024e+18,0.47911227154047,0.4189497716894977,0.33837837837837836,0.5077035950110051,0.6186813186813187,0.43986543313709,1196.0
476.0,1.7114395613809636e+18,0.47127937336814624,0.4132420091324201,0.3362162162162162,0.5128393250183418,0.6153846153846154,0.43313708999158956,1194.0
477.0,1.7114395613909555e+18,0.4765013054830287,0.4178082191780822,0.34054054054054056,0.5069699192956714,0.6318681318681318,0.44070647603027757,1196.0
478.0,1.71143956140096e+18,0.47780678851174935,0.4178082191780822,0.3362162162162162,0.4988994864269993,0.6296703296703297,0.44238856181665265,1196.0
479.0,1.7114395614109627e+18,0.4804177545691906,0.4223744292237443,0.34054054054054056,0.5103937393005625,0.6153846153846154,0.4306139613120269,1196.0
480.0,1.7114395614209664e+18,0.47780678851174935,0.4212328767123288,0.3410810810810811,0.508192712154561,0.6296703296703297,0.4381833473507149,1196.0
481.0,1.7114395614309783e+18,0.4751958224543081,0.4143835616438356,0.33945945945945943,0.5260454878943507,0.6461538461538462,0.4449116904962153,1196.0
482.0,1.71143956144096e+18,0.4699738903394256,0.410958904109589,0.3324324324324324,0.5121056493030081,0.6230769230769231,0.432296047098402,1193.0
483.0,1.7114395614509635e+18,0.47780678851174935,0.4132420091324201,0.3345945945945946,0.49938860357055515,0.6142857142857143,0.4373423044575273,1197.0
484.0,1.7114395614609615e+18,0.47127937336814624,0.4166666666666667,0.3345945945945946,0.508192712154561,0.621978021978022,0.43650126156433977,1196.0
485.0,1.711439561471033e+18,0.4725848563968668,0.4132420091324201,0.3356756756756757,0.4942528735632184,0.6274725274725275,0.4432296047098402,1197.0
486.0,1.7114395614809718e+18,0.4765013054830287,0.4178082191780822,0.33297297297297296,0.5018341892883346,0.6318681318681318,0.4482758620689655,1194.0
487.0,1.7114395614909647e+18,0.4765013054830287,0.4155251141552511,0.3345945945945946,0.5084372707263389,0.6307692307692307,0.44238856181665265,1197.0
488.0,1.7114395615009623e+18,0.47127937336814624,0.4098173515981735,0.3286486486486486,0.5072144778674492,0.6241758241758242,0.43902439024390244,1195.0
489.0,1.7114395615109596e+18,0.47911227154047,0.4166666666666667,0.3362162162162162,0.512350207874786,0.6186813186813187,0.4381833473507149,1196.0
490.0,1.7114395615209603e+18,0.46866840731070497,0.4006849315068493,0.32756756756756755,0.5035460992907801,0.6362637362637362,0.4373423044575273,1196.0
491.0,1.7114395615309635e+18,0.47127937336814624,0.4189497716894977,0.3308108108108108,0.495964783565664,0.6230769230769231,0.4280908326324643,1193.0
492.0,1.7114395615409677e+18,0.47911227154047,0.4269406392694064,0.34054054054054056,0.5072144778674492,0.6329670329670329,0.4440706476030278,1198.0
493.0,1.7114395615509642e+18,0.4856396866840731,0.4235159817351598,0.3410810810810811,0.5155294693078992,0.6483516483516484,0.4432296047098402,1196.0
494.0,1.7114395615609626e+18,0.4804177545691906,0.4143835616438356,0.3389189189189189,0.5135730007336757,0.6362637362637362,0.4415475189234651,1195.0
495.0,1.7114395615709233e+18,0.4765013054830287,0.410958904109589,0.3335135135135135,0.5025678650036683,0.6175824175824176,0.432296047098402,1193.0
496.0,1.7114395615809697e+18,0.4725848563968668,0.410958904109589,0.33135135135135135,0.4883834678405478,0.6197802197802198,0.4381833473507149,1195.0
497.0,1.7114395615909632e+18,0.4804177545691906,0.4200913242009132,0.3362162162162162,0.5028124235754463,0.6186813186813187,0.4381833473507149,1196.0
498.0,1.7114395616009746e+18,0.47389033942558745,0.410958904109589,0.3302702702702703,0.4979212521398875,0.621978021978022,0.4289318755256518,1195.0
499.0,1.7114395616109658e+18,0.4725848563968668,0.410958904109589,0.3345945945945946,0.4986549278552213,0.6230769230769231,0.4415475189234651,1196.0
500.0,1.7114395616209615e+18,0.47127937336814624,0.4155251141552511,0.33405405405405403,0.5023233064318905,0.6208791208791209,0.43566021867115223,1198.0
501.0,1.711439561630972e+18,0.47911227154047,0.4200913242009132,0.34,0.5001222792858889,0.6175824175824176,0.4415475189234651,1198.0
502.0,1.7114395616409708e+18,0.4765013054830287,0.4155251141552511,0.3308108108108108,0.5006113964294449,0.6230769230769231,0.4482758620689655,1197.0
503.0,1.7114395616509665e+18,0.47127937336814624,0.4098173515981735,0.3362162162162162,0.5152849107361213,0.6252747252747253,0.4373423044575273,1196.0
504.0,1.7114395616609672e+18,0.4804177545691906,0.4223744292237443,0.3362162162162162,0.5008559550012228,0.6406593406593407,0.4432296047098402,1196.0
505.0,1.711439561670977e+18,0.48172323759791125,0.4223744292237443,0.3410810810810811,0.4969430178527757,0.6351648351648351,0.3986543313708999,1194.0
506.0,1.7114395616809664e+18,0.4699738903394256,0.410958904109589,0.33135135135135135,0.4927855221325507,0.6274725274725275,0.43902439024390244,1196.0
507.0,1.7114395616909834e+18,0.4725848563968668,0.410958904109589,0.3345945945945946,0.5074590364392272,0.6318681318681318,0.4415475189234651,1195.0
508.0,1.7114395617009715e+18,0.47780678851174935,0.4155251141552511,0.3362162162162162,0.5037906578625581,0.6373626373626373,0.4432296047098402,1195.0
509.0,1.711439561710968e+18,0.4699738903394256,0.408675799086758,0.3302702702702703,0.5152849107361213,0.6384615384615384,0.43902439024390244,1194.0
510.0,1.7114395617209644e+18,0.4751958224543081,0.4178082191780822,0.33945945945945943,0.5064808021521154,0.6208791208791209,0.4449116904962153,1196.0
511.0,1.7114395617309773e+18,0.4725848563968668,0.4132420091324201,0.33405405405405403,0.4969430178527757,0.621978021978022,0.4415475189234651,1197.0
512.0,1.7114395617409623e+18,0.48172323759791125,0.4178082191780822,0.3372972972972973,0.4971875764245537,0.6241758241758242,0.44238856181665265,1198.0
513.0,1.7114395617509704e+18,0.47127937336814624,0.410958904109589,0.3335135135135135,0.5003668378576669,0.6142857142857143,0.43313708999158956,1193.0
514.0,1.7114395617609702e+18,0.48172323759791125,0.4200913242009132,0.3389189189189189,0.504035216434336,0.6329670329670329,0.4465937762825904,1195.0
515.0,1.7114395617709699e+18,0.4804177545691906,0.4178082191780822,0.33945945945945943,0.5037906578625581,0.6362637362637362,0.43902439024390244,1193.0
516.0,1.7114395617809674e+18,0.4725848563968668,0.4143835616438356,0.33513513513513515,0.504035216434336,0.6318681318681318,0.44238856181665265,1198.0
517.0,1.7114395617909716e+18,0.48433420365535246,0.4235159817351598,0.3345945945945946,0.5152849107361213,0.6362637362637362,0.4449116904962153,1196.0
518.0,1.7114395618009654e+18,0.4725848563968668,0.410958904109589,0.3318918918918919,0.4937637564196625,0.6010989010989011,0.432296047098402,1194.0
519.0,1.7114395618109678e+18,0.4725848563968668,0.4178082191780822,0.3389189189189189,0.5028124235754463,0.6175824175824176,0.4339781328847771,1193.0
520.0,1.7114395618209702e+18,0.47911227154047,0.4166666666666667,0.33405405405405403,0.49523110785033014,0.6153846153846154,0.43902439024390244,1197.0
521.0,1.7114395618309565e+18,0.48172323759791125,0.410958904109589,0.32972972972972975,0.48936170212765956,0.5989010989010989,0.4432296047098402,1195.0
522.0,1.7114395618409697e+18,0.4804177545691906,0.4212328767123288,0.3335135135135135,0.5084372707263389,0.6384615384615384,0.4415475189234651,1196.0
523.0,1.7114395618509642e+18,0.4830287206266319,0.4223744292237443,0.3356756756756757,0.4986549278552213,0.621978021978022,0.43902439024390244,1195.0
524.0,1.7114395618609661e+18,0.46475195822454307,0.4121004566210046,0.3345945945945946,0.5240890193201272,0.6230769230769231,0.4314550042052145,1193.0
525.0,1.7114395618709678e+18,0.4660574412532637,0.4052511415525114,0.33135135135135135,0.5162631450232331,0.5945054945054945,0.4449116904962153,1195.0
526.0,1.7114395618809708e+18,0.46475195822454307,0.408675799086758,0.3308108108108108,0.49620934213744194,0.6175824175824176,0.4314550042052145,1196.0
527.0,1.711439561890966e+18,0.47127937336814624,0.4143835616438356,0.33675675675675676,0.49816581071166544,0.6087912087912087,0.4255677039529016,1193.0
528.0,1.7114395619009626e+18,0.46866840731070497,0.4098173515981735,0.3335135135135135,0.4991440449987772,0.5989010989010989,0.43313708999158956,1192.0
529.0,1.711439561910967e+18,0.48172323759791125,0.4235159817351598,0.34054054054054056,0.5030569821472243,0.6329670329670329,0.43313708999158956,1195.0
530.0,1.7114395619209644e+18,0.47389033942558745,0.4098173515981735,0.32972972972972975,0.48324773783321107,0.5879120879120879,0.4213624894869638,1197.0
531.0,1.7114395619309862e+18,0.46475195822454307,0.4052511415525114,0.3248648648648649,0.4744436292492052,0.5725274725274725,0.4238856181665265,1195.0
532.0,1.711439561940978e+18,0.4751958224543081,0.4178082191780822,0.33405405405405403,0.504279775006114,0.6120879120879121,0.43566021867115223,1196.0
533.0,1.7114395619509637e+18,0.47780678851174935,0.4132420091324201,0.3335135135135135,0.5101491807287846,0.6417582417582418,0.4440706476030278,1198.0
534.0,1.711439561960976e+18,0.47127937336814624,0.4098173515981735,0.33135135135135135,0.5055025678650037,0.6406593406593407,0.43986543313709,1196.0
535.0,1.7114395619709773e+18,0.47911227154047,0.4178082191780822,0.3362162162162162,0.5094155050134507,0.6318681318681318,0.43902439024390244,1198.0
536.0,1.7114395619809828e+18,0.48172323759791125,0.4178082191780822,0.3308108108108108,0.5089263878698949,0.654945054945055,0.45248107653490327,1198.0
537.0,1.711439561990986e+18,0.4725848563968668,0.4166666666666667,0.3389189189189189,0.5028124235754463,0.6054945054945055,0.43313708999158956,1196.0
538.0,1.7114395620009754e+18,0.4595300261096606,0.4006849315068493,0.3210810810810811,0.49620934213744194,0.6153846153846154,0.39108494533221194,1193.0
539.0,1.7114395620109983e+18,0.4699738903394256,0.408675799086758,0.3281081081081081,0.4942528735632184,0.5736263736263736,0.3952901597981497,1195.0
540.0,1.711439562020974e+18,0.47780678851174935,0.4143835616438356,0.3372972972972973,0.5089263878698949,0.6296703296703297,0.4415475189234651,1196.0
541.0,1.7114395620309903e+18,0.4751958224543081,0.4178082191780822,0.3281081081081081,0.47053069210075815,0.5802197802197803,0.43313708999158956,1194.0
542.0,1.7114395620409715e+18,0.47911227154047,0.4246575342465753,0.3389189189189189,0.5314257764734654,0.6406593406593407,0.4465937762825904,1197.0
543.0,1.7114395620509724e+18,0.4621409921671018,0.408675799086758,0.3410810810810811,0.5055025678650037,0.6208791208791209,0.43566021867115223,1196.0
544.0,1.7114395620609715e+18,0.48433420365535246,0.4280821917808219,0.3427027027027027,0.4966984592809978,0.6494505494505495,0.44575273338940286,1196.0
545.0,1.7114395620709704e+18,0.4725848563968668,0.4041095890410959,0.3345945945945946,0.5094155050134507,0.6241758241758242,0.3952901597981497,1193.0
546.0,1.7114395620809713e+18,0.47780678851174935,0.4132420091324201,0.3308108108108108,0.5050134507214478,0.6307692307692307,0.4415475189234651,1197.0
547.0,1.7114395620909688e+18,0.47389033942558745,0.4143835616438356,0.34324324324324323,0.5001222792858889,0.6450549450549451,0.4306139613120269,1193.0
548.0,1.7114395621009603e+18,0.4765013054830287,0.4143835616438356,0.3356756756756757,0.5147957935925654,0.6318681318681318,0.44575273338940286,1194.0
549.0,1.7114395621109678e+18,0.47911227154047,0.4121004566210046,0.33783783783783783,0.49816581071166544,0.634065934065934,0.44070647603027757,1197.0
550.0,1.7114395621209664e+18,0.48825065274151436,0.4349315068493151,0.3567567567567568,0.4986549278552213,0.6406593406593407,0.4659377628259041,1196.0
551.0,1.7114395621309673e+18,0.47127937336814624,0.4075342465753425,0.3318918918918919,0.5152849107361213,0.6197802197802198,0.43566021867115223,1196.0
552.0,1.7114395621409838e+18,0.4765013054830287,0.4178082191780822,0.33675675675675676,0.5001222792858889,0.6318681318681318,0.4499579478553406,1195.0
553.0,1.7114395621509757e+18,0.489556135770235,0.4280821917808219,0.3427027027027027,0.5001222792858889,0.6175824175824176,0.4129520605550883,1193.0
554.0,1.7114395621609713e+18,0.47389033942558745,0.4143835616438356,0.3286486486486486,0.5047688921496698,0.6241758241758242,0.44238856181665265,1195.0
555.0,1.7114395621709683e+18,0.4608355091383812,0.410958904109589,0.3308108108108108,0.48740523355343607,0.6153846153846154,0.4381833473507149,1197.0
556.0,1.7114395621809654e+18,0.47127937336814624,0.4063926940639269,0.33135135135135135,0.5069699192956714,0.6230769230769231,0.4272497897392767,1192.0
557.0,1.7114395621909847e+18,0.4856396866840731,0.4246575342465753,0.33513513513513515,0.5191978478845684,0.6538461538461539,0.45836837678721615,1197.0
558.0,1.7114395622009638e+18,0.4765013054830287,0.410958904109589,0.33405405405405403,0.48789435069699194,0.634065934065934,0.4600504625735913,1197.0
559.0,1.711439562210959e+18,0.4725848563968668,0.4098173515981735,0.3318918918918919,0.49816581071166544,0.6285714285714286,0.45500420521446594,1195.0
560.0,1.7114395622209626e+18,0.4804177545691906,0.4178082191780822,0.3389189189189189,0.5028124235754463,0.6296703296703297,0.432296047098402,1194.0
561.0,1.7114395622310036e+18,0.4830287206266319,0.4223744292237443,0.34378378378378377,0.5025678650036683,0.6450549450549451,0.4415475189234651,1195.0
562.0,1.711439562240969e+18,0.47911227154047,0.4155251141552511,0.33405405405405403,0.5152849107361213,0.6450549450549451,0.4415475189234651,1196.0
563.0,1.7114395622509586e+18,0.4765013054830287,0.4143835616438356,0.33837837837837836,0.5089263878698949,0.6351648351648351,0.4381833473507149,1199.0
564.0,1.7114395622609766e+18,0.4765013054830287,0.4189497716894977,0.3389189189189189,0.5018341892883346,0.6241758241758242,0.4381833473507149,1197.0
565.0,1.7114395622709617e+18,0.4765013054830287,0.4200913242009132,0.33837837837837836,0.5008559550012228,0.6263736263736264,0.44575273338940286,1197.0
566.0,1.7114395622809646e+18,0.47389033942558745,0.4143835616438356,0.3372972972972973,0.483492296404989,0.621978021978022,0.43902439024390244,1198.0
567.0,1.7114395622909652e+18,0.47127937336814624,0.4041095890410959,0.32594594594594595,0.5094155050134507,0.6186813186813187,0.43566021867115223,1196.0
568.0,1.711439562300965e+18,0.4751958224543081,0.4155251141552511,0.3345945945945946,0.49229640498899485,0.6208791208791209,0.43650126156433977,1193.0
569.0,1.7114395623109678e+18,0.4765013054830287,0.4143835616438356,0.3362162162162162,0.4984103692834434,0.6142857142857143,0.4373423044575273,1195.0
570.0,1.7114395623209915e+18,0.5182767624020888,0.4178082191780822,0.3362162162162162,0.4988994864269993,0.6318681318681318,0.4432296047098402,1195.0
571.0,1.711439562331021e+18,0.4725848563968668,0.4132420091324201,0.33675675675675676,0.495720224993886,0.6252747252747253,0.44238856181665265,1196.0
572.0,1.711439562340966e+18,0.4765013054830287,0.4235159817351598,0.34702702702702704,0.4971875764245537,0.6186813186813187,0.4415475189234651,1196.0
573.0,1.7114395623509635e+18,0.4765013054830287,0.410958904109589,0.3362162162162162,0.49082905355832723,0.6164835164835165,0.43650126156433977,1195.0
574.0,1.7114395623609649e+18,0.4660574412532637,0.4041095890410959,0.32594594594594595,0.49327463927610665,0.5857142857142857,0.4247266610597141,1193.0
575.0,1.7114395623709647e+18,0.4765013054830287,0.4269406392694064,0.33783783783783783,0.49938860357055515,0.6307692307692307,0.43902439024390244,1195.0
576.0,1.7114395623809636e+18,0.4699738903394256,0.408675799086758,0.3345945945945946,0.4927855221325507,0.621978021978022,0.3927670311185871,1194.0
577.0,1.7114395623909637e+18,0.4765013054830287,0.4143835616438356,0.33837837837837836,0.5015896307165566,0.6329670329670329,0.4465937762825904,1197.0
578.0,1.711439562400958e+18,0.47127937336814624,0.4121004566210046,0.33513513513513515,0.49767669356810956,0.6230769230769231,0.4499579478553406,1199.0
579.0,1.7114395624110036e+18,0.48433420365535246,0.4200913242009132,0.3362162162162162,0.4930300807043287,0.6373626373626373,0.4499579478553406,1197.0
580.0,1.711439562421003e+18,0.47127937336814624,0.408675799086758,0.33135135135135135,0.4991440449987772,0.6208791208791209,0.4306139613120269,1195.0
581.0,1.7114395624310034e+18,0.47127937336814624,0.4155251141552511,0.33513513513513515,0.48251406211787723,0.6,0.43650126156433977,1195.0
582.0,1.711439562440994e+18,0.4765013054830287,0.4132420091324201,0.3302702702702703,0.5047688921496698,0.6318681318681318,0.43902439024390244,1197.0
583.0,1.711439562450997e+18,0.4751958224543081,0.4143835616438356,0.3345945945945946,0.49474199070677427,0.5989010989010989,0.4222035323801514,1195.0
584.0,1.7114395624609935e+18,0.4765013054830287,0.4132420091324201,0.33135135135135135,0.499877720714111,0.6175824175824176,0.43566021867115223,1197.0
585.0,1.711439562470994e+18,0.47911227154047,0.4189497716894977,0.3410810810810811,0.5030569821472243,0.6307692307692307,0.44238856181665265,1196.0
586.0,1.7114395624809907e+18,0.4765013054830287,0.4155251141552511,0.33675675675675676,0.5064808021521154,0.6186813186813187,0.43650126156433977,1197.0
587.0,1.7114395624909957e+18,0.4765013054830287,0.4132420091324201,0.33837837837837836,0.5135730007336757,0.6318681318681318,0.43902439024390244,1197.0
588.0,1.7114395625009884e+18,0.4751958224543081,0.4143835616438356,0.33405405405405403,0.5035460992907801,0.6285714285714286,0.4381833473507149,1196.0
589.0,1.7114395625109855e+18,0.47911227154047,0.4178082191780822,0.33513513513513515,0.5094155050134507,0.6241758241758242,0.43902439024390244,1196.0
590.0,1.7114395625209838e+18,0.47127937336814624,0.4132420091324201,0.3345945945945946,0.5001222792858889,0.6076923076923076,0.4339781328847771,1192.0
591.0,1.7114395625309914e+18,0.47780678851174935,0.4155251141552511,0.3372972972972973,0.5057471264367817,0.6395604395604395,0.4482758620689655,1194.0
592.0,1.7114395625416468e+18,0.47780678851174935,0.4178082191780822,0.33783783783783783,0.5023233064318905,0.6285714285714286,0.4415475189234651,1196.0
593.0,1.7114395625509783e+18,0.48172323759791125,0.4178082191780822,0.3362162162162162,0.5072144778674492,0.6208791208791209,0.43986543313709,1196.0
594.0,1.7114395625609764e+18,0.4660574412532637,0.410958904109589,0.3308108108108108,0.5035460992907801,0.6175824175824176,0.4348191757779647,1196.0
595.0,1.7114395625709763e+18,0.4765013054830287,0.4143835616438356,0.34054054054054056,0.5055025678650037,0.6285714285714286,0.4348191757779647,1196.0
596.0,1.711439562580978e+18,0.4765013054830287,0.4178082191780822,0.33297297297297296,0.49816581071166544,0.6197802197802198,0.4272497897392767,1193.0
597.0,1.711439562590984e+18,0.4765013054830287,0.4189497716894977,0.33783783783783783,0.504524333577892,0.6395604395604395,0.44238856181665265,1197.0
598.0,1.7114395626009746e+18,0.47911227154047,0.4178082191780822,0.34324324324324323,0.5172413793103449,0.6241758241758242,0.43650126156433977,1196.0
599.0,1.7114395626109816e+18,0.47127937336814624,0.4063926940639269,0.3308108108108108,0.49229640498899485,0.6054945054945055,0.4280908326324643,1194.0
600.0,1.7114395626209723e+18,0.4765013054830287,0.4143835616438356,0.3389189189189189,0.5064808021521154,0.6384615384615384,0.4465937762825904,1198.0
601.0,1.7114395626309857e+18,0.47780678851174935,0.4189497716894977,0.34054054054054056,0.5018341892883346,0.6417582417582418,0.45500420521446594,1197.0
602.0,1.7114395626409838e+18,0.47780678851174935,0.4143835616438356,0.3345945945945946,0.5167522621667889,0.6274725274725275,0.43566021867115223,1197.0
603.0,1.7114395626509896e+18,0.4765013054830287,0.4132420091324201,0.33297297297297296,0.504035216434336,0.6274725274725275,0.4449116904962153,1195.0
604.0,1.7114395626609697e+18,0.47911227154047,0.4223744292237443,0.3362162162162162,0.4974321349963316,0.6296703296703297,0.447434819175778,1196.0
605.0,1.711439562670977e+18,0.47127937336814624,0.4098173515981735,0.33405405405405403,0.4927855221325507,0.6142857142857143,0.432296047098402,1194.0
606.0,1.711439562680977e+18,0.4725848563968668,0.4143835616438356,0.33837837837837836,0.5072144778674492,0.5956043956043956,0.4255677039529016,1195.0
607.0,1.711439562690976e+18,0.4804177545691906,0.4178082191780822,0.3324324324324324,0.5094155050134507,0.6373626373626373,0.44575273338940286,1197.0
608.0,1.7114395627009884e+18,0.4765013054830287,0.4178082191780822,0.33405405405405403,0.4996331621423331,0.6307692307692307,0.43902439024390244,1194.0
609.0,1.7114395627109583e+18,0.47911227154047,0.4166666666666667,0.3356756756756757,0.5018341892883346,0.6230769230769231,0.4415475189234651,1198.0
610.0,1.7114395627209743e+18,0.46475195822454307,0.4041095890410959,0.32594594594594595,0.5030569821472243,0.6164835164835165,0.432296047098402,1195.0
611.0,1.7114395627309832e+18,0.47127937336814624,0.4132420091324201,0.3389189189189189,0.5062362435803375,0.6406593406593407,0.43650126156433977,1196.0
612.0,1.7114395627409764e+18,0.4725848563968668,0.4052511415525114,0.33297297297297296,0.49523110785033014,0.6197802197802198,0.43566021867115223,1197.0
613.0,1.711439562750979e+18,0.47389033942558745,0.4143835616438356,0.3362162162162162,0.5055025678650037,0.6362637362637362,0.4432296047098402,1193.0
614.0,1.711439562760966e+18,0.47127937336814624,0.4143835616438356,0.33513513513513515,0.5001222792858889,0.6285714285714286,0.4415475189234651,1195.0
615.0,1.711439562770976e+18,0.47389033942558745,0.4121004566210046,0.3389189189189189,0.5155294693078992,0.6274725274725275,0.4381833473507149,1195.0
616.0,1.7114395627809733e+18,0.4751958224543081,0.4178082191780822,0.3389189189189189,0.512594766446564,0.6428571428571429,0.4482758620689655,1197.0
617.0,1.7114395627909734e+18,0.47127937336814624,0.410958904109589,0.3335135135135135,0.5030569821472243,0.6142857142857143,0.4432296047098402,1193.0
618.0,1.7114395628010122e+18,0.4765013054830287,0.4189497716894977,0.3372972972972973,0.5033015407190022,0.6131868131868132,0.43650126156433977,1197.0
619.0,1.7114395628110034e+18,0.47127937336814624,0.4075342465753425,0.3324324324324324,0.5035460992907801,0.6175824175824176,0.4381833473507149,1196.0
620.0,1.711439562820973e+18,0.4725848563968668,0.4155251141552511,0.33405405405405403,0.5050134507214478,0.6230769230769231,0.43902439024390244,1196.0
621.0,1.7114395628310036e+18,0.4765013054830287,0.4132420091324201,0.34054054054054056,0.499877720714111,0.6230769230769231,0.44238856181665265,1197.0
622.0,1.7114395628409994e+18,0.4804177545691906,0.4178082191780822,0.33405405405405403,0.5003668378576669,0.6307692307692307,0.43986543313709,1197.0
623.0,1.7114395628510134e+18,0.4765013054830287,0.4143835616438356,0.3362162162162162,0.5055025678650037,0.6197802197802198,0.4314550042052145,1193.0
624.0,1.7114395628609928e+18,0.47911227154047,0.4212328767123288,0.33837837837837836,0.48911714355588165,0.6175824175824176,0.4381833473507149,1198.0
625.0,1.711439562871e+18,0.47127937336814624,0.4155251141552511,0.33135135135135135,0.5079481535827831,0.6241758241758242,0.4255677039529016,1193.0
626.0,1.7114395628809953e+18,0.47911227154047,0.4223744292237443,0.33783783783783783,0.5020787478601125,0.6175824175824176,0.4415475189234651,1197.0
627.0,1.711439562890993e+18,0.4751958224543081,0.4155251141552511,0.33405405405405403,0.4883834678405478,0.610989010989011,0.4381833473507149,1195.0
628.0,1.7114395629009946e+18,0.47780678851174935,0.4246575342465753,0.3372972972972973,0.504524333577892,0.6252747252747253,0.4381833473507149,1196.0
629.0,1.7114395629109873e+18,0.4765013054830287,0.4132420091324201,0.33513513513513515,0.5155294693078992,0.6318681318681318,0.4381833473507149,1196.0
630.0,1.7114395629209836e+18,0.4765013054830287,0.4178082191780822,0.3318918918918919,0.4930300807043287,0.621978021978022,0.4381833473507149,1195.0
631.0,1.71143956293098e+18,0.4765013054830287,0.4189497716894977,0.3389189189189189,0.49229640498899485,0.6296703296703297,0.4432296047098402,1195.0
632.0,1.711439562940984e+18,0.48172323759791125,0.4189497716894977,0.33513513513513515,0.5067253607238934,0.6307692307692307,0.44070647603027757,1196.0
633.0,1.7114395629509852e+18,0.47780678851174935,0.4178082191780822,0.33675675675675676,0.48789435069699194,0.6274725274725275,0.4415475189234651,1193.0
634.0,1.7114395629609792e+18,0.4804177545691906,0.4155251141552511,0.3362162162162162,0.5033015407190022,0.6186813186813187,0.4339781328847771,1193.0
635.0,1.7114395629709786e+18,0.47780678851174935,0.4200913242009132,0.33945945945945943,0.4979212521398875,0.6241758241758242,0.4415475189234651,1197.0
636.0,1.7114395629809743e+18,0.47911227154047,0.4200913242009132,0.3362162162162162,0.5035460992907801,0.6175824175824176,0.4449116904962153,1198.0
637.0,1.7114395629909763e+18,0.4830287206266319,0.4200913242009132,0.3410810810810811,0.512594766446564,0.6274725274725275,0.44070647603027757,1194.0
638.0,1.7114395630009736e+18,0.4765013054830287,0.4200913242009132,0.3389189189189189,0.5138175593054537,0.6450549450549451,0.4432296047098402,1194.0
639.0,1.7114395630109683e+18,0.4804177545691906,0.4178082191780822,0.33675675675675676,0.5047688921496698,0.6208791208791209,0.4373423044575273,1199.0
640.0,1.7114395630209672e+18,0.4765013054830287,0.4132420091324201,0.32972972972972975,0.5033015407190022,0.6241758241758242,0.4381833473507149,1197.0
641.0,1.7114395630309706e+18,0.4765013054830287,0.4223744292237443,0.33783783783783783,0.5011005135730008,0.6373626373626373,0.4449116904962153,1197.0
642.0,1.7114395630410225e+18,0.4725848563968668,0.410958904109589,0.3308108108108108,0.4773783321105405,0.6208791208791209,0.45164003364171573,1198.0
643.0,1.7114395630509732e+18,0.4804177545691906,0.4189497716894977,0.33945945945945943,0.5079481535827831,0.6384615384615384,0.4482758620689655,1197.0
644.0,1.7114395630609597e+18,0.4830287206266319,0.4189497716894977,0.34054054054054056,0.5147957935925654,0.6406593406593407,0.4592094196804037,1195.0
645.0,1.7114395630710024e+18,0.4699738903394256,0.4098173515981735,0.33297297297297296,0.5035460992907801,0.6175824175824176,0.4575273338940286,1198.0
646.0,1.7114395630810033e+18,0.4804177545691906,0.4189497716894977,0.33837837837837836,0.5182196135974566,0.6329670329670329,0.4339781328847771,1192.0
647.0,1.7114395630909668e+18,0.46866840731070497,0.4143835616438356,0.3318918918918919,0.49327463927610665,0.5824175824175825,0.4255677039529016,1195.0
648.0,1.7114395631010117e+18,0.46344647519582244,0.4132420091324201,0.3308108108108108,0.4979212521398875,0.5989010989010989,0.4280908326324643,1193.0
649.0,1.711439563110977e+18,0.47780678851174935,0.4178082191780822,0.34162162162162163,0.5074590364392272,0.6384615384615384,0.43986543313709,1195.0
650.0,1.7114395631209948e+18,0.4725848563968668,0.4155251141552511,0.3356756756756757,0.49474199070677427,0.6021978021978022,0.43650126156433977,1198.0
651.0,1.7114395631309824e+18,0.48172323759791125,0.4223744292237443,0.33837837837837836,0.49400831499144043,0.6274725274725275,0.456686291000841,1197.0
652.0,1.7114395631409871e+18,0.4765013054830287,0.4132420091324201,0.3302702702702703,0.4942528735632184,0.6142857142857143,0.43650126156433977,1196.0
653.0,1.7114395631509806e+18,0.4699738903394256,0.4132420091324201,0.3335135135135135,0.499877720714111,0.6186813186813187,0.4381833473507149,1195.0
654.0,1.7114395631609777e+18,0.4725848563968668,0.4200913242009132,0.3335135135135135,0.4800684764000978,0.6142857142857143,0.4381833473507149,1197.0
655.0,1.7114395631709821e+18,0.4765013054830287,0.4178082191780822,0.33405405405405403,0.495720224993886,0.6131868131868132,0.4373423044575273,1194.0
656.0,1.711439563180979e+18,0.47780678851174935,0.4200913242009132,0.33945945945945943,0.495964783565664,0.6318681318681318,0.4440706476030278,1197.0
657.0,1.711439563190975e+18,0.4751958224543081,0.4223744292237443,0.3410810810810811,0.5116165321594522,0.6450549450549451,0.4465937762825904,1196.0
658.0,1.7114395632009805e+18,0.47127937336814624,0.4178082191780822,0.3335135135135135,0.5069699192956714,0.6208791208791209,0.43566021867115223,1195.0
659.0,1.7114395632109747e+18,0.47127937336814624,0.4143835616438356,0.3362162162162162,0.5020787478601125,0.610989010989011,0.43566021867115223,1198.0
660.0,1.7114395632209787e+18,0.4765013054830287,0.4166666666666667,0.33405405405405403,0.5001222792858889,0.6230769230769231,0.4415475189234651,1196.0
661.0,1.7114395632309865e+18,0.48433420365535246,0.4212328767123288,0.3362162162162162,0.48789435069699194,0.6384615384615384,0.4465937762825904,1198.0
662.0,1.7114395632409708e+18,0.4765013054830287,0.4143835616438356,0.33837837837837836,0.5067253607238934,0.6142857142857143,0.44238856181665265,1197.0
663.0,1.7114395632509821e+18,0.4725848563968668,0.4155251141552511,0.33405405405405403,0.5018341892883346,0.6274725274725275,0.43650126156433977,1197.0
664.0,1.71143956326097e+18,0.47127937336814624,0.408675799086758,0.3318918918918919,0.5084372707263389,0.6274725274725275,0.4348191757779647,1195.0
665.0,1.7114395632709706e+18,0.47127937336814624,0.4121004566210046,0.3389189189189189,0.5169968207385669,0.6318681318681318,0.43650126156433977,1195.0
666.0,1.7114395632809667e+18,0.4765013054830287,0.4189497716894977,0.33297297297297296,0.5037906578625581,0.6362637362637362,0.4415475189234651,1195.0
667.0,1.7114395632909665e+18,0.47127937336814624,0.4098173515981735,0.3302702702702703,0.48691611640988014,0.6032967032967033,0.43566021867115223,1195.0
668.0,1.711439563300982e+18,0.47389033942558745,0.4223744292237443,0.3372972972972973,0.5072144778674492,0.6373626373626373,0.447434819175778,1196.0
669.0,1.7114395633109642e+18,0.47389033942558745,0.410958904109589,0.3318918918918919,0.49816581071166544,0.6351648351648351,0.45248107653490327,1193.0
670.0,1.7114395633209613e+18,0.47780678851174935,0.4166666666666667,0.3318918918918919,0.49523110785033014,0.6197802197802198,0.43650126156433977,1194.0
671.0,1.711439563330976e+18,0.47780678851174935,0.4223744292237443,0.3410810810810811,0.504524333577892,0.6274725274725275,0.44238856181665265,1197.0
672.0,1.711439563340965e+18,0.47911227154047,0.4212328767123288,0.33837837837837836,0.4986549278552213,0.6274725274725275,0.43902439024390244,1197.0
673.0,1.7114395633509645e+18,0.4765013054830287,0.4098173515981735,0.33405405405405403,0.49498654927855223,0.6274725274725275,0.4339781328847771,1194.0
674.0,1.7114395633609636e+18,0.4804177545691906,0.4178082191780822,0.3372972972972973,0.5020787478601125,0.6241758241758242,0.4415475189234651,1197.0
675.0,1.711439563370969e+18,0.4765013054830287,0.4189497716894977,0.33783783783783783,0.5030569821472243,0.6329670329670329,0.44070647603027757,1197.0
676.0,1.7114395633809646e+18,0.48172323759791125,0.4223744292237443,0.3372972972972973,0.4984103692834434,0.6274725274725275,0.4381833473507149,1197.0
677.0,1.7114395633909724e+18,0.4869451697127937,0.4223744292237443,0.34162162162162163,0.49107361213010514,0.6197802197802198,0.46509671993271656,1195.0
678.0,1.7114395634011123e+18,0.4751958224543081,0.4166666666666667,0.33297297297297296,0.48789435069699194,0.6307692307692307,0.4381833473507149,1195.0
679.0,1.711439563410969e+18,0.47911227154047,0.4132420091324201,0.33837837837837836,0.5018341892883346,0.6307692307692307,0.4415475189234651,1196.0
680.0,1.7114395634209733e+18,0.46344647519582244,0.4075342465753425,0.33135135135135135,0.4969430178527757,0.6021978021978022,0.4314550042052145,1195.0
681.0,1.7114395634310154e+18,0.48172323759791125,0.4178082191780822,0.3372972972972973,0.5025678650036683,0.6395604395604395,0.4449116904962153,1194.0
682.0,1.7114395634410145e+18,0.47780678851174935,0.4189497716894977,0.34054054054054056,0.4944974321349963,0.6230769230769231,0.4415475189234651,1196.0
683.0,1.7114395634509763e+18,0.4804177545691906,0.4178082191780822,0.3362162162162162,0.5059916850085595,0.6274725274725275,0.4482758620689655,1196.0
684.0,1.7114395634609746e+18,0.4765013054830287,0.4189497716894977,0.33837837837837836,0.4986549278552213,0.6318681318681318,0.447434819175778,1198.0
685.0,1.711439563470977e+18,0.47911227154047,0.4200913242009132,0.33837837837837836,0.4984103692834434,0.6175824175824176,0.43566021867115223,1197.0
686.0,1.7114395634809777e+18,0.47780678851174935,0.4178082191780822,0.3318918918918919,0.49938860357055515,0.6230769230769231,0.43566021867115223,1196.0
687.0,1.7114395634909724e+18,0.48172323759791125,0.4189497716894977,0.3372972972972973,0.5013450721447786,0.6197802197802198,0.43986543313709,1197.0
688.0,1.711439563500978e+18,0.4725848563968668,0.4121004566210046,0.33405405405405403,0.495720224993886,0.6120879120879121,0.43650126156433977,1195.0
689.0,1.71143956351098e+18,0.47780678851174935,0.4189497716894977,0.3389189189189189,0.5030569821472243,0.621978021978022,0.43650126156433977,1195.0
690.0,1.7114395635209777e+18,0.4725848563968668,0.4155251141552511,0.3356756756756757,0.491807287845439,0.6208791208791209,0.43902439024390244,1198.0
691.0,1.7114395635309824e+18,0.48172323759791125,0.4223744292237443,0.3389189189189189,0.4930300807043287,0.5945054945054945,0.4415475189234651,1194.0
692.0,1.711439563540977e+18,0.47911227154047,0.4235159817351598,0.33783783783783783,0.4971875764245537,0.6186813186813187,0.44575273338940286,1195.0
693.0,1.7114395635509972e+18,0.47127937336814624,0.4143835616438356,0.3362162162162162,0.5108828564441183,0.6230769230769231,0.4449116904962153,1197.0
694.0,1.7114395635609766e+18,0.47911227154047,0.4189497716894977,0.3362162162162162,0.5106382978723404,0.6318681318681318,0.4449116904962153,1197.0
695.0,1.7114395635709786e+18,0.4804177545691906,0.4235159817351598,0.33783783783783783,0.4888725849841037,0.6142857142857143,0.4381833473507149,1198.0
696.0,1.7114395635809864e+18,0.47389033942558745,0.4178082191780822,0.33297297297297296,0.4913181707018831,0.6131868131868132,0.4348191757779647,1196.0
697.0,1.7114395635910047e+18,0.4765013054830287,0.4132420091324201,0.3345945945945946,0.5011005135730008,0.6384615384615384,0.4449116904962153,1194.0
698.0,1.711439563600992e+18,0.4751958224543081,0.4200913242009132,0.33405405405405403,0.5140621178772316,0.6406593406593407,0.4465937762825904,1195.0
699.0,1.7114395636109908e+18,0.4804177545691906,0.4200913242009132,0.3389189189189189,0.5011005135730008,0.621978021978022,0.4306139613120269,1195.0
700.0,1.7114395636209746e+18,0.4751958224543081,0.4178082191780822,0.3372972972972973,0.4979212521398875,0.6230769230769231,0.4449116904962153,1194.0
701.0,1.711439563630989e+18,0.47127937336814624,0.4166666666666667,0.33945945945945943,0.5096600635852286,0.6197802197802198,0.4373423044575273,1196.0
702.0,1.7114395636409836e+18,0.4765013054830287,0.4098173515981735,0.33135135135135135,0.4927855221325507,0.6252747252747253,0.44238856181665265,1195.0
703.0,1.7114395636509827e+18,0.48172323759791125,0.4178082191780822,0.3362162162162162,0.4830031792614331,0.6428571428571429,0.4499579478553406,1195.0
704.0,1.7114395636609887e+18,0.4804177545691906,0.4178082191780822,0.33783783783783783,0.4971875764245537,0.6274725274725275,0.4465937762825904,1195.0
705.0,1.7114395636709888e+18,0.4765013054830287,0.4189497716894977,0.34054054054054056,0.5152849107361213,0.6395604395604395,0.44238856181665265,1194.0
706.0,1.711439563680985e+18,0.4725848563968668,0.4178082191780822,0.3318918918918919,0.5069699192956714,0.6274725274725275,0.44070647603027757,1196.0
707.0,1.7114395636909847e+18,0.47780678851174935,0.4143835616438356,0.3318918918918919,0.49474199070677427,0.6076923076923076,0.43566021867115223,1196.0
708.0,1.7114395637009938e+18,0.4751958224543081,0.4178082191780822,0.3286486486486486,0.48667155783810223,0.6175824175824176,0.43566021867115223,1194.0
709.0,1.7114395637109842e+18,0.4765013054830287,0.4132420091324201,0.33405405405405403,0.504279775006114,0.6362637362637362,0.44238856181665265,1196.0
710.0,1.7114395637209846e+18,0.4699738903394256,0.4189497716894977,0.3372972972972973,0.49938860357055515,0.610989010989011,0.43313708999158956,1196.0
711.0,1.7114395637309832e+18,0.4765013054830287,0.4155251141552511,0.33945945945945943,0.5015896307165566,0.6241758241758242,0.44238856181665265,1195.0
712.0,1.7114395637409784e+18,0.47389033942558745,0.4155251141552511,0.33675675675675676,0.5138175593054537,0.6406593406593407,0.43902439024390244,1194.0
713.0,1.711439563750971e+18,0.4751958224543081,0.4155251141552511,0.33783783783783783,0.4991440449987772,0.634065934065934,0.43902439024390244,1198.0
714.0,1.7114395637609777e+18,0.47127937336814624,0.410958904109589,0.3362162162162162,0.5008559550012228,0.610989010989011,0.4348191757779647,1195.0
715.0,1.7114395637709714e+18,0.4765013054830287,0.4143835616438356,0.3362162162162162,0.5008559550012228,0.6329670329670329,0.44575273338940286,1194.0
716.0,1.7114395637809682e+18,0.4765013054830287,0.4166666666666667,0.33513513513513515,0.5047688921496698,0.6351648351648351,0.4432296047098402,1197.0
717.0,1.711439563790968e+18,0.47780678851174935,0.4235159817351598,0.33783783783783783,0.5069699192956714,0.6362637362637362,0.44575273338940286,1195.0
718.0,1.7114395638009636e+18,0.47911227154047,0.4132420091324201,0.3335135135135135,0.5084372707263389,0.6329670329670329,0.44238856181665265,1195.0
719.0,1.7114395638109686e+18,0.4804177545691906,0.4178082191780822,0.33837837837837836,0.5138175593054537,0.6274725274725275,0.4432296047098402,1197.0
720.0,1.7114395638209672e+18,0.4765013054830287,0.4178082191780822,0.3362162162162162,0.5079481535827831,0.6296703296703297,0.44238856181665265,1195.0
721.0,1.7114395638309875e+18,0.4804177545691906,0.4200913242009132,0.3389189189189189,0.5064808021521154,0.6362637362637362,0.44575273338940286,1197.0
722.0,1.7114395638409997e+18,0.47127937336814624,0.408675799086758,0.3308108108108108,0.5025678650036683,0.6252747252747253,0.4432296047098402,1195.0
723.0,1.7114395638509693e+18,0.4725848563968668,0.4132420091324201,0.33405405405405403,0.499877720714111,0.6329670329670329,0.44070647603027757,1196.0
724.0,1.7114395638609697e+18,0.47911227154047,0.4200913242009132,0.3362162162162162,0.49474199070677427,0.621978021978022,0.43902439024390244,1194.0
725.0,1.711439563870971e+18,0.47911227154047,0.4178082191780822,0.3356756756756757,0.499877720714111,0.621978021978022,0.43986543313709,1193.0
726.0,1.711439563880966e+18,0.4765013054830287,0.4121004566210046,0.3318918918918919,0.4930300807043287,0.6087912087912087,0.4339781328847771,1192.0
727.0,1.7114395638909806e+18,0.4751958224543081,0.4178082191780822,0.33405405405405403,0.49816581071166544,0.6186813186813187,0.4415475189234651,1196.0
728.0,1.7114395639009684e+18,0.46866840731070497,0.4132420091324201,0.33135135135135135,0.512594766446564,0.6307692307692307,0.4339781328847771,1189.0
729.0,1.711439563910975e+18,0.47780678851174935,0.4178082191780822,0.33675675675675676,0.49400831499144043,0.6263736263736264,0.4432296047098402,1195.0
730.0,1.7114395639209661e+18,0.48172323759791125,0.4212328767123288,0.33675675675675676,0.5055025678650037,0.6296703296703297,0.4415475189234651,1195.0
731.0,1.7114395639309926e+18,0.47780678851174935,0.4178082191780822,0.33945945945945943,0.504035216434336,0.6362637362637362,0.44575273338940286,1196.0
732.0,1.7114395639409684e+18,0.46344647519582244,0.408675799086758,0.3302702702702703,0.5008559550012228,0.6131868131868132,0.43902439024390244,1196.0
733.0,1.711439563950977e+18,0.4804177545691906,0.4189497716894977,0.33675675675675676,0.5030569821472243,0.6406593406593407,0.464255677039529,1196.0
734.0,1.7114395639609633e+18,0.47780678851174935,0.4235159817351598,0.33513513513513515,0.5089263878698949,0.6296703296703297,0.44070647603027757,1195.0
735.0,1.711439563970956e+18,0.47389033942558745,0.4132420091324201,0.3362162162162162,0.4942528735632184,0.6285714285714286,0.44238856181665265,1196.0
736.0,1.7114395639809562e+18,0.47127937336814624,0.410958904109589,0.33405405405405403,0.5023233064318905,0.621978021978022,0.4348191757779647,1193.0
737.0,1.7114395639909573e+18,0.4765013054830287,0.4200913242009132,0.33945945945945943,0.499877720714111,0.6120879120879121,0.43650126156433977,1193.0
738.0,1.711439564000974e+18,0.4830287206266319,0.4200913242009132,0.3410810810810811,0.5069699192956714,0.6417582417582418,0.4499579478553406,1196.0
739.0,1.711439564010971e+18,0.4765013054830287,0.4178082191780822,0.3362162162162162,0.4927855221325507,0.6296703296703297,0.4415475189234651,1196.0
740.0,1.711439564020968e+18,0.4725848563968668,0.410958904109589,0.3345945945945946,0.4979212521398875,0.6186813186813187,0.43650126156433977,1196.0
741.0,1.7114395640309645e+18,0.4725848563968668,0.410958904109589,0.3302702702702703,0.5015896307165566,0.6296703296703297,0.4415475189234651,1197.0
742.0,1.7114395640409846e+18,0.4765013054830287,0.4155251141552511,0.33297297297297296,0.4971875764245537,0.6252747252747253,0.4415475189234651,1194.0
743.0,1.711439564050969e+18,0.4765013054830287,0.4178082191780822,0.34054054054054056,0.4942528735632184,0.6274725274725275,0.4415475189234651,1195.0
744.0,1.7114395640609684e+18,0.47389033942558745,0.4189497716894977,0.3362162162162162,0.5015896307165566,0.6186813186813187,0.4247266610597141,1193.0
745.0,1.711439564070966e+18,0.48172323759791125,0.4235159817351598,0.3410810810810811,0.4803130349718758,0.6142857142857143,0.44238856181665265,1197.0
746.0,1.7114395640809618e+18,0.47389033942558745,0.4132420091324201,0.3362162162162162,0.5052580092932257,0.6098901098901099,0.432296047098402,1194.0
747.0,1.711439564091013e+18,0.4765013054830287,0.4121004566210046,0.33135135135135135,0.5057471264367817,0.6307692307692307,0.4415475189234651,1196.0
748.0,1.7114395641009615e+18,0.47780678851174935,0.4178082191780822,0.33675675675675676,0.49767669356810956,0.6164835164835165,0.43902439024390244,1194.0
749.0,1.7114395641109627e+18,0.4660574412532637,0.408675799086758,0.33135135135135135,0.5008559550012228,0.6230769230769231,0.4348191757779647,1196.0
750.0,1.7114395641209677e+18,0.47127937336814624,0.408675799086758,0.3308108108108108,0.5011005135730008,0.6274725274725275,0.4348191757779647,1198.0
751.0,1.711439564130978e+18,0.47911227154047,0.4178082191780822,0.3362162162162162,0.5116165321594522,0.6285714285714286,0.4381833473507149,1193.0
752.0,1.711439564140962e+18,0.4699738903394256,0.4029680365296804,0.3302702702702703,0.49400831499144043,0.6186813186813187,0.43986543313709,1197.0
753.0,1.7114395641510106e+18,0.4765013054830287,0.4143835616438356,0.3362162162162162,0.5050134507214478,0.6329670329670329,0.46173254835996635,1197.0
754.0,1.7114395641609761e+18,0.4725848563968668,0.4098173515981735,0.3318918918918919,0.5084372707263389,0.6263736263736264,0.43902439024390244,1197.0
755.0,1.7114395641709686e+18,0.4765013054830287,0.4132420091324201,0.33405405405405403,0.5003668378576669,0.6329670329670329,0.4381833473507149,1195.0
756.0,1.7114395641809626e+18,0.4830287206266319,0.4235159817351598,0.33945945945945943,0.49938860357055515,0.6274725274725275,0.44070647603027757,1197.0
757.0,1.7114395641909655e+18,0.47911227154047,0.4143835616438356,0.33783783783783783,0.5116165321594522,0.6307692307692307,0.4415475189234651,1196.0
758.0,1.7114395642009925e+18,0.47389033942558745,0.4132420091324201,0.33135135135135135,0.5057471264367817,0.6285714285714286,0.4415475189234651,1196.0
759.0,1.711439564210958e+18,0.47911227154047,0.4143835616438356,0.33675675675675676,0.5084372707263389,0.6318681318681318,0.43902439024390244,1195.0
760.0,1.7114395642209633e+18,0.4765013054830287,0.4178082191780822,0.33405405405405403,0.4988994864269993,0.6186813186813187,0.456686291000841,1197.0
761.0,1.711439564230994e+18,0.46866840731070497,0.4098173515981735,0.33297297297297296,0.458791880655417,0.578021978021978,0.42977291841883936,1194.0
762.0,1.7114395642410286e+18,0.4830287206266319,0.4235159817351598,0.3362162162162162,0.5035460992907801,0.6472527472527473,0.45164003364171573,1196.0
763.0,1.7114395642509765e+18,0.48172323759791125,0.4212328767123288,0.3427027027027027,0.5091709464416728,0.6395604395604395,0.4440706476030278,1196.0
764.0,1.7114395642609946e+18,0.4765013054830287,0.4143835616438356,0.33297297297297296,0.5023233064318905,0.6164835164835165,0.4306139613120269,1194.0
765.0,1.7114395642709944e+18,0.49216710182767626,0.4292237442922374,0.34756756756756757,0.4966984592809978,0.6263736263736264,0.42304457527333894,1193.0
766.0,1.711439564280966e+18,0.47780678851174935,0.4132420091324201,0.3362162162162162,0.4815358278307655,0.6296703296703297,0.4482758620689655,1195.0
767.0,1.7114395642909622e+18,0.4869451697127937,0.4269406392694064,0.34540540540540543,0.5072144778674492,0.6406593406593407,0.4129520605550883,1196.0
768.0,1.7114395643009626e+18,0.4765013054830287,0.4200913242009132,0.3372972972972973,0.5020787478601125,0.6329670329670329,0.4440706476030278,1197.0
769.0,1.711439564310993e+18,0.47911227154047,0.4189497716894977,0.3345945945945946,0.5106382978723404,0.6516483516483517,0.45248107653490327,1194.0
770.0,1.7114395643209646e+18,0.47780678851174935,0.4178082191780822,0.3389189189189189,0.5103937393005625,0.6384615384615384,0.43986543313709,1197.0
771.0,1.7114395643309668e+18,0.4765013054830287,0.4178082191780822,0.3372972972972973,0.5118610907312301,0.634065934065934,0.4432296047098402,1197.0
772.0,1.711439564340967e+18,0.4765013054830287,0.4200913242009132,0.33783783783783783,0.49938860357055515,0.6329670329670329,0.4625735912531539,1197.0
773.0,1.7114395643509688e+18,0.46866840731070497,0.4041095890410959,0.33135135135135135,0.4966984592809978,0.5879120879120879,0.4238856181665265,1195.0
774.0,1.7114395643609836e+18,0.47911227154047,0.4178082191780822,0.33405405405405403,0.5133284421618978,0.6395604395604395,0.4381833473507149,1195.0
775.0,1.7114395643709612e+18,0.4765013054830287,0.4143835616438356,0.33405405405405403,0.5177304964539007,0.6362637362637362,0.44238856181665265,1194.0
776.0,1.7114395643809562e+18,0.47127937336814624,0.4121004566210046,0.3324324324324324,0.5067253607238934,0.6175824175824176,0.43902439024390244,1195.0
777.0,1.711439564390982e+18,0.47127937336814624,0.4143835616438356,0.3362162162162162,0.5140621178772316,0.6230769230769231,0.4415475189234651,1195.0
778.0,1.7114395644009812e+18,0.48172323759791125,0.4212328767123288,0.33945945945945943,0.5140621178772316,0.621978021978022,0.43902439024390244,1197.0
779.0,1.7114395644109796e+18,0.4725848563968668,0.4200913242009132,0.3372972972972973,0.5074590364392272,0.6384615384615384,0.4348191757779647,1199.0
780.0,1.711439564420979e+18,0.4725848563968668,0.4143835616438356,0.33837837837837836,0.5008559550012228,0.6175824175824176,0.4247266610597141,1193.0
781.0,1.7114395644309837e+18,0.4765013054830287,0.4178082191780822,0.3335135135135135,0.495720224993886,0.6274725274725275,0.43902439024390244,1196.0
782.0,1.7114395644409782e+18,0.4830287206266319,0.4189497716894977,0.33675675675675676,0.5020787478601125,0.6384615384615384,0.4373423044575273,1196.0
783.0,1.7114395644509778e+18,0.4765013054830287,0.410958904109589,0.33405405405405403,0.5047688921496698,0.6230769230769231,0.4415475189234651,1197.0
784.0,1.71143956446098e+18,0.48172323759791125,0.4223744292237443,0.3362162162162162,0.5006113964294449,0.6384615384615384,0.4482758620689655,1197.0
785.0,1.711439564470974e+18,0.4765013054830287,0.4178082191780822,0.3372972972972973,0.49033993641477136,0.6065934065934065,0.43566021867115223,1195.0
786.0,1.711439564480972e+18,0.4765013054830287,0.4189497716894977,0.33783783783783783,0.5074590364392272,0.6329670329670329,0.4465937762825904,1194.0
787.0,1.7114395644909714e+18,0.4765013054830287,0.4200913242009132,0.3410810810810811,0.5008559550012228,0.634065934065934,0.44238856181665265,1195.0
788.0,1.7114395645009718e+18,0.47389033942558745,0.4166666666666667,0.33837837837837836,0.49229640498899485,0.6164835164835165,0.42304457527333894,1189.0
789.0,1.7114395645109722e+18,0.4765013054830287,0.4143835616438356,0.3362162162162162,0.49938860357055515,0.6252747252747253,0.4415475189234651,1195.0
790.0,1.7114395645209718e+18,0.4765013054830287,0.4178082191780822,0.3345945945945946,0.4966984592809978,0.6285714285714286,0.4415475189234651,1195.0
791.0,1.7114395645309806e+18,0.46866840731070497,0.4132420091324201,0.3362162162162162,0.491807287845439,0.610989010989011,0.43650126156433977,1195.0
792.0,1.7114395645409705e+18,0.47780678851174935,0.4132420091324201,0.3345945945945946,0.5108828564441183,0.6318681318681318,0.4533221194280908,1195.0
793.0,1.711439564550984e+18,0.47127937336814624,0.4132420091324201,0.33297297297297296,0.5025678650036683,0.6175824175824176,0.4381833473507149,1197.0
794.0,1.711439564560983e+18,0.47127937336814624,0.4143835616438356,0.33513513513513515,0.48985081927121543,0.6032967032967033,0.4280908326324643,1194.0
795.0,1.7114395645709635e+18,0.4765013054830287,0.4189497716894977,0.34054054054054056,0.4786011249694302,0.5813186813186814,0.4255677039529016,1194.0
796.0,1.711439564580965e+18,0.4765013054830287,0.4132420091324201,0.33513513513513515,0.5020787478601125,0.6318681318681318,0.4415475189234651,1195.0
797.0,1.7114395645909727e+18,0.4765013054830287,0.4143835616438356,0.33513513513513515,0.4883834678405478,0.6241758241758242,0.43902439024390244,1195.0
798.0,1.7114395646009743e+18,0.47127937336814624,0.4143835616438356,0.3324324324324324,0.5001222792858889,0.6230769230769231,0.4381833473507149,1194.0
799.0,1.7114395646109724e+18,0.4765013054830287,0.4212328767123288,0.33945945945945943,0.5025678650036683,0.6329670329670329,0.4449116904962153,1196.0
800.0,1.7114395646209697e+18,0.47389033942558745,0.4178082191780822,0.33513513513513515,0.504524333577892,0.6274725274725275,0.4415475189234651,1196.0
801.0,1.711439564630965e+18,0.47780678851174935,0.4143835616438356,0.33783783783783783,0.5106382978723404,0.6384615384615384,0.4440706476030278,1196.0
802.0,1.7114395646409705e+18,0.47911227154047,0.4200913242009132,0.3345945945945946,0.5028124235754463,0.6230769230769231,0.4415475189234651,1196.0
803.0,1.7114395646509676e+18,0.4830287206266319,0.4235159817351598,0.34216216216216216,0.504524333577892,0.6395604395604395,0.4415475189234651,1196.0
804.0,1.7114395646609664e+18,0.4830287206266319,0.4246575342465753,0.33783783783783783,0.5030569821472243,0.6197802197802198,0.4339781328847771,1195.0
805.0,1.711439564670969e+18,0.47389033942558745,0.4132420091324201,0.33513513513513515,0.5047688921496698,0.6274725274725275,0.4339781328847771,1196.0
806.0,1.7114395646809682e+18,0.48172323759791125,0.4223744292237443,0.3427027027027027,0.5018341892883346,0.6230769230769231,0.4415475189234651,1196.0
807.0,1.7114395646909663e+18,0.4804177545691906,0.4178082191780822,0.33135135135135135,0.5028124235754463,0.6450549450549451,0.44911690496215306,1196.0
808.0,1.7114395647009646e+18,0.4699738903394256,0.4155251141552511,0.33405405405405403,0.5172413793103449,0.6483516483516484,0.456686291000841,1194.0
809.0,1.711439564710978e+18,0.4725848563968668,0.4132420091324201,0.33675675675675676,0.5094155050134507,0.6318681318681318,0.4415475189234651,1195.0
810.0,1.7114395647209705e+18,0.4804177545691906,0.4143835616438356,0.33513513513513515,0.5103937393005625,0.643956043956044,0.4415475189234651,1196.0
811.0,1.7114395647309727e+18,0.4830287206266319,0.4178082191780822,0.3345945945945946,0.5118610907312301,0.6395604395604395,0.44911690496215306,1196.0
812.0,1.7114395647409692e+18,0.47127937336814624,0.410958904109589,0.3372972972972973,0.5140621178772316,0.6186813186813187,0.4339781328847771,1192.0
813.0,1.711439564750975e+18,0.4725848563968668,0.4155251141552511,0.3372972972972973,0.49816581071166544,0.6142857142857143,0.44070647603027757,1195.0
814.0,1.7114395647609797e+18,0.47389033942558745,0.4132420091324201,0.3335135135135135,0.5059916850085595,0.6142857142857143,0.4465937762825904,1195.0
815.0,1.7114395647709699e+18,0.4699738903394256,0.4052511415525114,0.32594594594594595,0.4871606749816581,0.6098901098901099,0.43566021867115223,1195.0
816.0,1.7114395647809572e+18,0.47780678851174935,0.4132420091324201,0.3362162162162162,0.5015896307165566,0.634065934065934,0.44911690496215306,1195.0
817.0,1.7114395647909604e+18,0.4725848563968668,0.4178082191780822,0.33945945945945943,0.49058449498654927,0.6043956043956044,0.44238856181665265,1198.0
818.0,1.711439564800958e+18,0.47389033942558745,0.4132420091324201,0.33405405405405403,0.49767669356810956,0.6241758241758242,0.4415475189234651,1197.0
819.0,1.711439564810958e+18,0.47780678851174935,0.4235159817351598,0.34054054054054056,0.504524333577892,0.6417582417582418,0.4482758620689655,1197.0
820.0,1.7114395648209692e+18,0.4869451697127937,0.4178082191780822,0.3427027027027027,0.4979212521398875,0.6395604395604395,0.4432296047098402,1197.0
821.0,1.7114395648309732e+18,0.4804177545691906,0.4178082191780822,0.3335135135135135,0.5084372707263389,0.6274725274725275,0.4440706476030278,1197.0
822.0,1.711439564840956e+18,0.46866840731070497,0.4143835616438356,0.33297297297297296,0.5057471264367817,0.621978021978022,0.4625735912531539,1195.0
823.0,1.7114395648509596e+18,0.4765013054830287,0.4178082191780822,0.3345945945945946,0.4896062606994375,0.6241758241758242,0.43902439024390244,1194.0
824.0,1.7114395648609764e+18,0.4725848563968668,0.4132420091324201,0.3291891891891892,0.495964783565664,0.6274725274725275,0.4482758620689655,1197.0
825.0,1.7114395648709873e+18,0.47780678851174935,0.4178082191780822,0.33837837837837836,0.512350207874786,0.6274725274725275,0.4533221194280908,1197.0
826.0,1.7114395648809697e+18,0.47127937336814624,0.4132420091324201,0.3308108108108108,0.4927855221325507,0.6230769230769231,0.4440706476030278,1195.0
827.0,1.7114395648909706e+18,0.47911227154047,0.4063926940639269,0.32756756756756755,0.49107361213010514,0.6021978021978022,0.4415475189234651,1196.0
828.0,1.7114395649009664e+18,0.47389033942558745,0.4189497716894977,0.3308108108108108,0.5057471264367817,0.6241758241758242,0.4415475189234651,1195.0
829.0,1.7114395649109594e+18,0.4765013054830287,0.4200913242009132,0.3362162162162162,0.5006113964294449,0.6274725274725275,0.432296047098402,1194.0
830.0,1.7114395649209705e+18,0.4765013054830287,0.4178082191780822,0.3356756756756757,0.49205184641721694,0.621978021978022,0.4339781328847771,1193.0
831.0,1.711439564930961e+18,0.4725848563968668,0.410958904109589,0.33405405405405403,0.5023233064318905,0.6417582417582418,0.4449116904962153,1196.0
832.0,1.711439564940981e+18,0.4725848563968668,0.410958904109589,0.3345945945945946,0.5135730007336757,0.6384615384615384,0.4432296047098402,1195.0
833.0,1.7114395649509678e+18,0.46475195822454307,0.4098173515981735,0.3324324324324324,0.5074590364392272,0.6175824175824176,0.432296047098402,1194.0
834.0,1.7114395649609715e+18,0.47780678851174935,0.4212328767123288,0.33513513513513515,0.5006113964294449,0.6230769230769231,0.43986543313709,1193.0
835.0,1.7114395649710262e+18,0.4699738903394256,0.4121004566210046,0.3362162162162162,0.4715089263878699,0.5868131868131868,0.43313708999158956,1192.0
836.0,1.711439564980971e+18,0.46736292428198434,0.4132420091324201,0.33297297297297296,0.5057471264367817,0.621978021978022,0.43313708999158956,1193.0
837.0,1.7114395649909742e+18,0.4765013054830287,0.4155251141552511,0.33675675675675676,0.49645390070921985,0.6274725274725275,0.44575273338940286,1193.0
838.0,1.7114395650009667e+18,0.47127937336814624,0.4063926940639269,0.3291891891891892,0.4702861335289802,0.6230769230769231,0.4499579478553406,1195.0
839.0,1.7114395650109627e+18,0.4725848563968668,0.4098173515981735,0.3324324324324324,0.49767669356810956,0.6252747252747253,0.4415475189234651,1200.0
840.0,1.711439565020982e+18,0.47911227154047,0.4121004566210046,0.3335135135135135,0.5003668378576669,0.6252747252747253,0.43566021867115223,1194.0
841.0,1.711439565030974e+18,0.4804177545691906,0.4178082191780822,0.33837837837837836,0.49523110785033014,0.6296703296703297,0.4449116904962153,1197.0
842.0,1.7114395650409608e+18,0.4765013054830287,0.4178082191780822,0.3324324324324324,0.5062362435803375,0.6362637362637362,0.43650126156433977,1197.0
843.0,1.7114395650509747e+18,0.4765013054830287,0.4200913242009132,0.3362162162162162,0.5023233064318905,0.6296703296703297,0.43902439024390244,1197.0
844.0,1.711439565060967e+18,0.47389033942558745,0.4132420091324201,0.3335135135135135,0.5018341892883346,0.6142857142857143,0.43566021867115223,1195.0
845.0,1.7114395650709647e+18,0.48172323759791125,0.4200913242009132,0.33675675675675676,0.504524333577892,0.6197802197802198,0.4381833473507149,1197.0
846.0,1.711439565080993e+18,0.48172323759791125,0.4223744292237443,0.34162162162162163,0.5089263878698949,0.6373626373626373,0.44911690496215306,1195.0
847.0,1.7114395650909765e+18,0.4830287206266319,0.4178082191780822,0.33675675675675676,0.4986549278552213,0.6131868131868132,0.43566021867115223,1197.0
848.0,1.711439565100962e+18,0.47911227154047,0.4178082191780822,0.33837837837837836,0.5025678650036683,0.6307692307692307,0.43650126156433977,1195.0
849.0,1.7114395651109588e+18,0.4765013054830287,0.4178082191780822,0.3362162162162162,0.5035460992907801,0.6186813186813187,0.42304457527333894,1193.0
850.0,1.7114395651209574e+18,0.47780678851174935,0.4178082191780822,0.33405405405405403,0.5028124235754463,0.6252747252747253,0.4415475189234651,1195.0
851.0,1.7114395651309565e+18,0.4765013054830287,0.4132420091324201,0.33135135135135135,0.4986549278552213,0.6153846153846154,0.43566021867115223,1196.0
852.0,1.7114395651409748e+18,0.4765013054830287,0.4121004566210046,0.3345945945945946,0.5052580092932257,0.6230769230769231,0.43566021867115223,1195.0
853.0,1.7114395651509622e+18,0.47389033942558745,0.4121004566210046,0.33405405405405403,0.5028124235754463,0.6318681318681318,0.4415475189234651,1195.0
854.0,1.7114395651609682e+18,0.4725848563968668,0.4178082191780822,0.33513513513513515,0.5130838835901198,0.621978021978022,0.44070647603027757,1197.0
855.0,1.7114395651709627e+18,0.4765013054830287,0.4223744292237443,0.33837837837837836,0.4930300807043287,0.6164835164835165,0.43902439024390244,1197.0
856.0,1.7114395651809684e+18,0.4725848563968668,0.4098173515981735,0.33297297297297296,0.512594766446564,0.6362637362637362,0.4415475189234651,1196.0
857.0,1.711439565190977e+18,0.48433420365535246,0.4223744292237443,0.34378378378378377,0.5025678650036683,0.6307692307692307,0.4432296047098402,1194.0
858.0,1.7114395652009697e+18,0.4765013054830287,0.4178082191780822,0.3372972972972973,0.5077035950110051,0.6285714285714286,0.4280908326324643,1195.0
859.0,1.7114395652109635e+18,0.4765013054830287,0.4178082191780822,0.33135135135135135,0.5086818292981169,0.6142857142857143,0.4306139613120269,1195.0
860.0,1.711439565220968e+18,0.47127937336814624,0.408675799086758,0.33405405405405403,0.5172413793103449,0.6318681318681318,0.43986543313709,1195.0
861.0,1.711439565230964e+18,0.4804177545691906,0.4212328767123288,0.34162162162162163,0.5079481535827831,0.6296703296703297,0.4415475189234651,1196.0
862.0,1.711439565240969e+18,0.4765013054830287,0.4143835616438356,0.3318918918918919,0.49107361213010514,0.5978021978021978,0.4314550042052145,1193.0
863.0,1.711439565250968e+18,0.4830287206266319,0.4223744292237443,0.3389189189189189,0.49229640498899485,0.6318681318681318,0.4415475189234651,1197.0
864.0,1.7114395652609674e+18,0.47127937336814624,0.4143835616438356,0.3345945945945946,0.504279775006114,0.6318681318681318,0.4415475189234651,1197.0
865.0,1.711439565270967e+18,0.4765013054830287,0.4143835616438356,0.3345945945945946,0.49523110785033014,0.6329670329670329,0.44575273338940286,1196.0
866.0,1.7114395652809736e+18,0.4660574412532637,0.4143835616438356,0.3362162162162162,0.49620934213744194,0.6021978021978022,0.4482758620689655,1197.0
867.0,1.7114395652909722e+18,0.47911227154047,0.4212328767123288,0.34162162162162163,0.5025678650036683,0.6175824175824176,0.43902439024390244,1196.0
868.0,1.7114395653009736e+18,0.46866840731070497,0.410958904109589,0.3308108108108108,0.48691611640988014,0.610989010989011,0.432296047098402,1190.0
869.0,1.711439565310972e+18,0.47127937336814624,0.408675799086758,0.3281081081081081,0.49767669356810956,0.6175824175824176,0.4373423044575273,1196.0
870.0,1.7114395653209738e+18,0.48172323759791125,0.4189497716894977,0.3345945945945946,0.4888725849841037,0.6351648351648351,0.44575273338940286,1195.0
871.0,1.7114395653309755e+18,0.4765013054830287,0.4178082191780822,0.3362162162162162,0.5020787478601125,0.6241758241758242,0.4280908326324643,1196.0
872.0,1.7114395653409764e+18,0.4725848563968668,0.4189497716894977,0.3324324324324324,0.5020787478601125,0.6263736263736264,0.4415475189234651,1197.0
873.0,1.7114395653509655e+18,0.48433420365535246,0.4246575342465753,0.3362162162162162,0.504524333577892,0.6406593406593407,0.4558452481076535,1195.0
874.0,1.7114395653609638e+18,0.4725848563968668,0.4132420091324201,0.33783783783783783,0.5020787478601125,0.6307692307692307,0.43650126156433977,1197.0
875.0,1.711439565370965e+18,0.4751958224543081,0.4143835616438356,0.3372972972972973,0.5037906578625581,0.6274725274725275,0.4373423044575273,1198.0
876.0,1.7114395653810504e+18,0.4765013054830287,0.4246575342465753,0.3427027027027027,0.48618244069454636,0.6208791208791209,0.4348191757779647,1197.0
877.0,1.7114395653909599e+18,0.48172323759791125,0.4178082191780822,0.33513513513513515,0.49474199070677427,0.6164835164835165,0.43986543313709,1195.0
878.0,1.7114395654009705e+18,0.4725848563968668,0.4132420091324201,0.33405405405405403,0.48373685497676694,0.6098901098901099,0.43566021867115223,1195.0
879.0,1.711439565410965e+18,0.4765013054830287,0.4155251141552511,0.33405405405405403,0.5064808021521154,0.634065934065934,0.4449116904962153,1197.0
880.0,1.7114395654209702e+18,0.4804177545691906,0.4200913242009132,0.33837837837837836,0.5015896307165566,0.6450549450549451,0.4146341463414634,1194.0
881.0,1.711439565430969e+18,0.48433420365535246,0.4235159817351598,0.33783783783783783,0.5067253607238934,0.6461538461538462,0.4592094196804037,1195.0
882.0,1.7114395654409815e+18,0.4765013054830287,0.4166666666666667,0.33297297297297296,0.5059916850085595,0.6164835164835165,0.44070647603027757,1198.0
883.0,1.7114395654509594e+18,0.4804177545691906,0.4155251141552511,0.3362162162162162,0.5020787478601125,0.6296703296703297,0.44238856181665265,1197.0
884.0,1.711439565460973e+18,0.4765013054830287,0.4189497716894977,0.3345945945945946,0.4925409635607728,0.6296703296703297,0.4314550042052145,1192.0
885.0,1.7114395654709652e+18,0.4765013054830287,0.410958904109589,0.33513513513513515,0.4966984592809978,0.6175824175824176,0.4339781328847771,1192.0
886.0,1.7114395654809823e+18,0.4765013054830287,0.4155251141552511,0.34216216216216216,0.5167522621667889,0.6395604395604395,0.44238856181665265,1193.0
887.0,1.7114395654909693e+18,0.47911227154047,0.4155251141552511,0.3372972972972973,0.5106382978723404,0.6274725274725275,0.43902439024390244,1197.0
888.0,1.7114395655009546e+18,0.4699738903394256,0.410958904109589,0.3372972972972973,0.48985081927121543,0.6153846153846154,0.4348191757779647,1193.0
889.0,1.711439565510962e+18,0.48172323759791125,0.4178082191780822,0.33513513513513515,0.5020787478601125,0.6263736263736264,0.4499579478553406,1196.0
890.0,1.7114395655209605e+18,0.4765013054830287,0.410958904109589,0.33405405405405403,0.4969430178527757,0.6175824175824176,0.4348191757779647,1196.0
891.0,1.7114395655310467e+18,0.47911227154047,0.4212328767123288,0.34054054054054056,0.5001222792858889,0.6230769230769231,0.4432296047098402,1196.0
892.0,1.7114395655410022e+18,0.47389033942558745,0.4132420091324201,0.3362162162162162,0.5187087307410124,0.6175824175824176,0.43650126156433977,1194.0
893.0,1.7114395655509658e+18,0.47911227154047,0.4166666666666667,0.33405405405405403,0.5218879921741257,0.6197802197802198,0.43313708999158956,1193.0
894.0,1.7114395655609718e+18,0.48172323759791125,0.4189497716894977,0.33135135135135135,0.5020787478601125,0.6362637362637362,0.43566021867115223,1196.0
895.0,1.7114395655709652e+18,0.47127937336814624,0.4098173515981735,0.33405405405405403,0.5135730007336757,0.6230769230769231,0.4415475189234651,1198.0
896.0,1.711439565580965e+18,0.4725848563968668,0.4132420091324201,0.33513513513513515,0.5064808021521154,0.6098901098901099,0.4306139613120269,1192.0
897.0,1.711439565590988e+18,0.4804177545691906,0.4155251141552511,0.3356756756756757,0.5074590364392272,0.6362637362637362,0.44238856181665265,1194.0
898.0,1.7114395656009815e+18,0.4765013054830287,0.4143835616438356,0.33297297297297296,0.49645390070921985,0.6296703296703297,0.44070647603027757,1195.0
899.0,1.7114395656109737e+18,0.4725848563968668,0.410958904109589,0.33405405405405403,0.5015896307165566,0.6208791208791209,0.4348191757779647,1198.0
900.0,1.711439565620979e+18,0.46736292428198434,0.408675799086758,0.3324324324324324,0.5015896307165566,0.6021978021978022,0.4280908326324643,1194.0
901.0,1.7114395656309804e+18,0.4765013054830287,0.4200913242009132,0.33783783783783783,0.512350207874786,0.6450549450549451,0.4432296047098402,1199.0
902.0,1.7114395656409928e+18,0.47780678851174935,0.4246575342465753,0.34216216216216216,0.504035216434336,0.6208791208791209,0.43566021867115223,1199.0
903.0,1.7114395656509652e+18,0.47780678851174935,0.4178082191780822,0.3345945945945946,0.5086818292981169,0.6230769230769231,0.4415475189234651,1196.0
904.0,1.7114395656609661e+18,0.4765013054830287,0.4155251141552511,0.3308108108108108,0.4942528735632184,0.6274725274725275,0.4381833473507149,1195.0
905.0,1.7114395656709732e+18,0.47780678851174935,0.4189497716894977,0.3362162162162162,0.4896062606994375,0.6230769230769231,0.4415475189234651,1195.0
906.0,1.71143956568099e+18,0.4725848563968668,0.4098173515981735,0.3286486486486486,0.4798239178283199,0.6186813186813187,0.4432296047098402,1196.0
907.0,1.7114395656909788e+18,0.47911227154047,0.4200913242009132,0.33297297297297296,0.4871606749816581,0.6043956043956044,0.43986543313709,1197.0
908.0,1.711439565700974e+18,0.4751958224543081,0.4155251141552511,0.3362162162162162,0.5020787478601125,0.6329670329670329,0.43986543313709,1194.0
909.0,1.711439565710973e+18,0.4765013054830287,0.4178082191780822,0.3372972972972973,0.5128393250183418,0.6351648351648351,0.4381833473507149,1198.0
910.0,1.7114395657209713e+18,0.47911227154047,0.4189497716894977,0.33837837837837836,0.504035216434336,0.6307692307692307,0.4415475189234651,1197.0
911.0,1.711439565730994e+18,0.47127937336814624,0.4121004566210046,0.3345945945945946,0.495964783565664,0.6208791208791209,0.43566021867115223,1194.0
912.0,1.7114395657409772e+18,0.47389033942558745,0.4178082191780822,0.33135135135135135,0.5008559550012228,0.6164835164835165,0.4280908326324643,1194.0
913.0,1.711439565750967e+18,0.4804177545691906,0.4200913242009132,0.3345945945945946,0.5011005135730008,0.6241758241758242,0.4440706476030278,1196.0
914.0,1.711439565760972e+18,0.48433420365535246,0.4223744292237443,0.33675675675675676,0.49498654927855223,0.6318681318681318,0.4432296047098402,1197.0
915.0,1.7114395657709688e+18,0.4804177545691906,0.4257990867579909,0.34378378378378377,0.5062362435803375,0.634065934065934,0.44238856181665265,1195.0
916.0,1.7114395657809969e+18,0.4765013054830287,0.4200913242009132,0.34,0.5140621178772316,0.6373626373626373,0.4432296047098402,1195.0
917.0,1.711439565790962e+18,0.4765013054830287,0.4189497716894977,0.34054054054054056,0.5152849107361213,0.6296703296703297,0.4415475189234651,1196.0
918.0,1.7114395658009754e+18,0.4699738903394256,0.4155251141552511,0.33405405405405403,0.495720224993886,0.6076923076923076,0.4415475189234651,1198.0
919.0,1.7114395658109737e+18,0.47911227154047,0.4235159817351598,0.3427027027027027,0.504035216434336,0.6329670329670329,0.4415475189234651,1198.0
920.0,1.7114395658209697e+18,0.4804177545691906,0.4178082191780822,0.33297297297297296,0.504035216434336,0.6318681318681318,0.43902439024390244,1196.0
921.0,1.7114395658310113e+18,0.4765013054830287,0.4132420091324201,0.3372972972972973,0.5030569821472243,0.6230769230769231,0.4415475189234651,1195.0
922.0,1.711439565840985e+18,0.4765013054830287,0.4143835616438356,0.33297297297297296,0.4930300807043287,0.6230769230769231,0.4415475189234651,1198.0
923.0,1.7114395658509821e+18,0.4725848563968668,0.4178082191780822,0.3362162162162162,0.49938860357055515,0.6010989010989011,0.43902439024390244,1196.0
924.0,1.7114395658609687e+18,0.46866840731070497,0.4178082191780822,0.3308108108108108,0.4930300807043287,0.6208791208791209,0.4289318755256518,1196.0
925.0,1.7114395658709663e+18,0.4765013054830287,0.4178082191780822,0.3345945945945946,0.5008559550012228,0.610989010989011,0.4339781328847771,1192.0
926.0,1.7114395658809943e+18,0.4765013054830287,0.4098173515981735,0.33135135135135135,0.5067253607238934,0.6197802197802198,0.43313708999158956,1195.0
927.0,1.711439565890969e+18,0.4725848563968668,0.4155251141552511,0.3362162162162162,0.499877720714111,0.6274725274725275,0.4415475189234651,1197.0
928.0,1.71143956590097e+18,0.4725848563968668,0.408675799086758,0.3281081081081081,0.4913181707018831,0.6131868131868132,0.3969722455845248,1192.0
929.0,1.7114395659109632e+18,0.48433420365535246,0.4200913242009132,0.33837837837837836,0.5094155050134507,0.6285714285714286,0.44238856181665265,1196.0
930.0,1.7114395659209633e+18,0.47780678851174935,0.4178082191780822,0.3389189189189189,0.4871606749816581,0.6131868131868132,0.4373423044575273,1195.0
931.0,1.711439565930986e+18,0.47911227154047,0.4200913242009132,0.33513513513513515,0.5018341892883346,0.6076923076923076,0.44238856181665265,1197.0
932.0,1.711439565940983e+18,0.4765013054830287,0.4212328767123288,0.33837837837837836,0.5035460992907801,0.6318681318681318,0.4415475189234651,1197.0
933.0,1.7114395659509742e+18,0.48172323759791125,0.4212328767123288,0.34486486486486484,0.49645390070921985,0.6241758241758242,0.44238856181665265,1198.0
934.0,1.7114395659609656e+18,0.47389033942558745,0.410958904109589,0.3324324324324324,0.504279775006114,0.6164835164835165,0.43313708999158956,1193.0
935.0,1.711439565970962e+18,0.4765013054830287,0.4132420091324201,0.3362162162162162,0.5103937393005625,0.6230769230769231,0.4373423044575273,1197.0
936.0,1.7114395659809754e+18,0.4765013054830287,0.4178082191780822,0.33513513513513515,0.5020787478601125,0.6241758241758242,0.4381833473507149,1197.0
937.0,1.7114395659909614e+18,0.47911227154047,0.4212328767123288,0.3372972972972973,0.5006113964294449,0.6362637362637362,0.4415475189234651,1198.0
938.0,1.7114395660009672e+18,0.4751958224543081,0.4166666666666667,0.33297297297297296,0.5018341892883346,0.6241758241758242,0.4701429772918419,1196.0
939.0,1.7114395660109676e+18,0.47780678851174935,0.4143835616438356,0.3291891891891892,0.49498654927855223,0.6186813186813187,0.4440706476030278,1199.0
940.0,1.7114395660209636e+18,0.47780678851174935,0.4178082191780822,0.33405405405405403,0.5096600635852286,0.6230769230769231,0.4415475189234651,1197.0
941.0,1.7114395660309906e+18,0.47911227154047,0.4178082191780822,0.34,0.5067253607238934,0.6318681318681318,0.44575273338940286,1198.0
942.0,1.7114395660409856e+18,0.47127937336814624,0.4132420091324201,0.33783783783783783,0.49400831499144043,0.621978021978022,0.44070647603027757,1194.0
943.0,1.7114395660509632e+18,0.48172323759791125,0.4178082191780822,0.33513513513513515,0.4839814135485449,0.6175824175824176,0.43986543313709,1198.0
944.0,1.7114395660609695e+18,0.4765013054830287,0.4143835616438356,0.3345945945945946,0.5035460992907801,0.6274725274725275,0.4415475189234651,1198.0
945.0,1.7114395660709627e+18,0.47780678851174935,0.4155251141552511,0.33675675675675676,0.5067253607238934,0.6241758241758242,0.4432296047098402,1196.0
946.0,1.7114395660809661e+18,0.47389033942558745,0.4098173515981735,0.32972972972972975,0.5023233064318905,0.6186813186813187,0.44238856181665265,1197.0
947.0,1.7114395660909934e+18,0.47780678851174935,0.4178082191780822,0.3372972972972973,0.4986549278552213,0.6406593406593407,0.4760302775441548,1199.0
948.0,1.711439566100974e+18,0.47911227154047,0.4189497716894977,0.3389189189189189,0.5057471264367817,0.6428571428571429,0.4465937762825904,1195.0
949.0,1.7114395661109642e+18,0.4765013054830287,0.4200913242009132,0.3427027027027027,0.5184641721692346,0.6428571428571429,0.4415475189234651,1194.0
950.0,1.711439566120966e+18,0.4725848563968668,0.4098173515981735,0.3286486486486486,0.5028124235754463,0.634065934065934,0.4440706476030278,1195.0
951.0,1.7114395661309878e+18,0.47911227154047,0.4155251141552511,0.3345945945945946,0.5033015407190022,0.6307692307692307,0.4432296047098402,1195.0
952.0,1.711439566140975e+18,0.47127937336814624,0.4132420091324201,0.33405405405405403,0.49205184641721694,0.6164835164835165,0.432296047098402,1192.0
953.0,1.7114395661509658e+18,0.4765013054830287,0.4200913242009132,0.3427027027027027,0.5055025678650037,0.6329670329670329,0.4432296047098402,1196.0
954.0,1.7114395661609795e+18,0.4804177545691906,0.4200913242009132,0.3372972972972973,0.4844705306921008,0.6285714285714286,0.47771236333052985,1197.0
955.0,1.7114395661709696e+18,0.47389033942558745,0.4098173515981735,0.3362162162162162,0.5059916850085595,0.6329670329670329,0.4381833473507149,1195.0
956.0,1.711439566180967e+18,0.4765013054830287,0.4189497716894977,0.3362162162162162,0.5030569821472243,0.6274725274725275,0.43902439024390244,1197.0
957.0,1.7114395661909637e+18,0.47780678851174935,0.4098173515981735,0.3324324324324324,0.49082905355832723,0.6164835164835165,0.43650126156433977,1197.0
958.0,1.7114395662009618e+18,0.4765013054830287,0.4189497716894977,0.33513513513513515,0.5008559550012228,0.6296703296703297,0.43650126156433977,1198.0
959.0,1.711439566210968e+18,0.4751958224543081,0.4189497716894977,0.34054054054054056,0.5035460992907801,0.6164835164835165,0.4289318755256518,1194.0
960.0,1.7114395662209743e+18,0.46866840731070497,0.4246575342465753,0.33513513513513515,0.5062362435803375,0.6461538461538462,0.44575273338940286,1198.0
961.0,1.7114395662309676e+18,0.47127937336814624,0.4098173515981735,0.3335135135135135,0.48911714355588165,0.6098901098901099,0.43650126156433977,1196.0
962.0,1.7114395662410025e+18,0.47389033942558745,0.4178082191780822,0.33405405405405403,0.5067253607238934,0.6164835164835165,0.44070647603027757,1196.0
963.0,1.7114395662510193e+18,0.47780678851174935,0.4178082191780822,0.34054054054054056,0.5133284421618978,0.6373626373626373,0.4482758620689655,1197.0
964.0,1.7114395662609533e+18,0.47911227154047,0.4200913242009132,0.3362162162162162,0.49767669356810956,0.6142857142857143,0.415475189234651,1192.0
965.0,1.7114395662709637e+18,0.4765013054830287,0.4143835616438356,0.3372972972972973,0.5084372707263389,0.6505494505494506,0.447434819175778,1194.0
966.0,1.7114395662809646e+18,0.4725848563968668,0.4189497716894977,0.33945945945945943,0.5037906578625581,0.6395604395604395,0.4449116904962153,1197.0
967.0,1.711439566290963e+18,0.47780678851174935,0.4189497716894977,0.34378378378378377,0.5006113964294449,0.6164835164835165,0.43650126156433977,1195.0
968.0,1.7114395663009946e+18,0.47389033942558745,0.4178082191780822,0.33405405405405403,0.5047688921496698,0.6208791208791209,0.43650126156433977,1196.0
969.0,1.7114395663109716e+18,0.47911227154047,0.4189497716894977,0.3345945945945946,0.4988994864269993,0.6285714285714286,0.4381833473507149,1196.0
970.0,1.7114395663209912e+18,0.4830287206266319,0.4178082191780822,0.3345945945945946,0.5015896307165566,0.6274725274725275,0.43986543313709,1198.0
971.0,1.7114395663309665e+18,0.48825065274151436,0.4235159817351598,0.33945945945945943,0.504524333577892,0.6274725274725275,0.4381833473507149,1195.0
972.0,1.711439566340972e+18,0.47911227154047,0.4166666666666667,0.3324324324324324,0.5118610907312301,0.6373626373626373,0.4432296047098402,1197.0
973.0,1.7114395663509906e+18,0.47389033942558745,0.4155251141552511,0.33945945945945943,0.5133284421618978,0.6384615384615384,0.44238856181665265,1197.0
974.0,1.7114395663609828e+18,0.4699738903394256,0.4178082191780822,0.33405405405405403,0.508192712154561,0.6483516483516484,0.4415475189234651,1196.0
975.0,1.7114395663709583e+18,0.4725848563968668,0.4143835616438356,0.3335135135135135,0.48495964783565665,0.6098901098901099,0.4348191757779647,1196.0
976.0,1.7114395663809649e+18,0.4765013054830287,0.4178082191780822,0.33405405405405403,0.5018341892883346,0.6406593406593407,0.4432296047098402,1196.0
977.0,1.7114395663909642e+18,0.4830287206266319,0.4143835616438356,0.33675675675675676,0.49107361213010514,0.6384615384615384,0.4432296047098402,1198.0
978.0,1.7114395664009646e+18,0.47780678851174935,0.4178082191780822,0.34162162162162163,0.5103937393005625,0.6285714285714286,0.4415475189234651,1198.0
979.0,1.71143956641099e+18,0.47911227154047,0.4178082191780822,0.33513513513513515,0.49474199070677427,0.6164835164835165,0.4440706476030278,1197.0
980.0,1.7114395664209812e+18,0.4765013054830287,0.4178082191780822,0.3345945945945946,0.48985081927121543,0.6175824175824176,0.432296047098402,1196.0
981.0,1.7114395664309652e+18,0.4765013054830287,0.4155251141552511,0.33513513513513515,0.5079481535827831,0.6274725274725275,0.43986543313709,1195.0
982.0,1.7114395664409859e+18,0.47127937336814624,0.4132420091324201,0.3362162162162162,0.5116165321594522,0.6274725274725275,0.43902439024390244,1195.0
983.0,1.7114395664509875e+18,0.4765013054830287,0.4143835616438356,0.3345945945945946,0.5062362435803375,0.6274725274725275,0.44238856181665265,1196.0
984.0,1.7114395664609684e+18,0.47127937336814624,0.4178082191780822,0.33837837837837836,0.4966984592809978,0.6318681318681318,0.43313708999158956,1193.0
985.0,1.7114395664709228e+18,0.4804177545691906,0.4223744292237443,0.33783783783783783,0.5074590364392272,0.6263736263736264,0.4440706476030278,1195.0
986.0,1.7114395664809805e+18,0.47780678851174935,0.4212328767123288,0.3335135135135135,0.491807287845439,0.6274725274725275,0.4415475189234651,1197.0
987.0,1.7114395664909842e+18,0.4804177545691906,0.4212328767123288,0.33675675675675676,0.4842259721203228,0.6142857142857143,0.43902439024390244,1194.0
988.0,1.7114395665009787e+18,0.4765013054830287,0.4223744292237443,0.3410810810810811,0.48642699926632427,0.6142857142857143,0.43986543313709,1194.0
989.0,1.7114395665110036e+18,0.48172323759791125,0.4178082191780822,0.33675675675675676,0.5103937393005625,0.6384615384615384,0.44238856181665265,1196.0
990.0,1.7114395665209815e+18,0.4804177545691906,0.4200913242009132,0.33837837837837836,0.49767669356810956,0.6142857142857143,0.400336417157275,1193.0
991.0,1.7114395665309768e+18,0.4804177545691906,0.4178082191780822,0.3389189189189189,0.49645390070921985,0.6318681318681318,0.4449116904962153,1195.0
992.0,1.7114395665409772e+18,0.4765013054830287,0.4212328767123288,0.33837837837837836,0.49327463927610665,0.6307692307692307,0.43986543313709,1197.0
993.0,1.7114395665509775e+18,0.47911227154047,0.4189497716894977,0.34054054054054056,0.5074590364392272,0.6450549450549451,0.44575273338940286,1196.0
994.0,1.7114395665610294e+18,0.4765013054830287,0.4189497716894977,0.33405405405405403,0.49400831499144043,0.6087912087912087,0.4339781328847771,1193.0
995.0,1.7114395665709711e+18,0.47780678851174935,0.4178082191780822,0.33837837837837836,0.5023233064318905,0.6164835164835165,0.44070647603027757,1194.0
996.0,1.711439566580974e+18,0.4725848563968668,0.4246575342465753,0.3372972972972973,0.5047688921496698,0.6274725274725275,0.4432296047098402,1197.0
997.0,1.7114395665909737e+18,0.47780678851174935,0.410958904109589,0.3291891891891892,0.48985081927121543,0.6120879120879121,0.4575273338940286,1197.0
998.0,1.7114395666009738e+18,0.47911227154047,0.4212328767123288,0.33675675675675676,0.5020787478601125,0.6252747252747253,0.4381833473507149,1196.0
