202.0,1.710925972881211e+18,0.47911227154047,0.4223744292237443,0.34702702702702704,0.5079481535827831,0.6241758241758242,0.43986543313709,1197.0
203.0,1.710925972891213e+18,0.47780678851174935,0.4246575342465753,0.33945945945945943,0.5020787478601125,0.6472527472527473,0.44575273338940286,1198.0
204.0,1.7109259729012244e+18,0.45822454308093996,0.3961187214611872,0.3248648648648649,0.48813890926876985,0.621978021978022,0.4289318755256518,1196.0
205.0,1.7109259729112102e+18,0.4725848563968668,0.4121004566210046,0.32972972972972975,0.5113719735876743,0.6802197802197802,0.45164003364171573,1194.0
206.0,1.7109259729212114e+18,0.47780678851174935,0.4143835616438356,0.3410810810810811,0.5015896307165566,0.6329670329670329,0.4146341463414634,1194.0
207.0,1.71092597293121e+18,0.46344647519582244,0.4052511415525114,0.3254054054054054,0.4969430178527757,0.6142857142857143,0.447434819175778,1197.0
208.0,1.71092597294121e+18,0.48172323759791125,0.4200913242009132,0.34486486486486484,0.5062362435803375,0.6065934065934065,0.4373423044575273,1196.0
209.0,1.710925972951211e+18,0.4856396866840731,0.4143835616438356,0.32594594594594595,0.4673514306676449,0.6120879120879121,0.3826745164003364,1192.0
210.0,1.710925972961235e+18,0.4699738903394256,0.410958904109589,0.3324324324324324,0.49645390070921985,0.6021978021978022,0.4314550042052145,1194.0
211.0,1.710925972971209e+18,0.47389033942558745,0.4098173515981735,0.3216216216216216,0.4979212521398875,0.6505494505494506,0.4381833473507149,1195.0
212.0,1.7109259729812106e+18,0.4765013054830287,0.4166666666666667,0.3443243243243243,0.4986549278552213,0.610989010989011,0.4432296047098402,1198.0
213.0,1.7109259729912123e+18,0.47911227154047,0.4235159817351598,0.3362162162162162,0.5133284421618978,0.6417582417582418,0.432296047098402,1193.0
214.0,1.7109259730012114e+18,0.47780678851174935,0.4280821917808219,0.34756756756756757,0.5135730007336757,0.5923076923076923,0.44911690496215306,1193.0
215.0,1.7109259730112074e+18,0.4765013054830287,0.408675799086758,0.3291891891891892,0.512594766446564,0.6758241758241759,0.45164003364171573,1197.0
216.0,1.710925973021207e+18,0.4765013054830287,0.4143835616438356,0.34054054054054056,0.5006113964294449,0.6285714285714286,0.46509671993271656,1195.0
217.0,1.7109259730312074e+18,0.47911227154047,0.4212328767123288,0.33675675675675676,0.5006113964294449,0.6582417582417582,0.4247266610597141,1192.0
218.0,1.7109259730412073e+18,0.4765013054830287,0.4189497716894977,0.33783783783783783,0.5055025678650037,0.6307692307692307,0.4415475189234651,1195.0
219.0,1.710925973051209e+18,0.46344647519582244,0.4029680365296804,0.327027027027027,0.5001222792858889,0.6329670329670329,0.4465937762825904,1195.0
220.0,1.7109259730612063e+18,0.46736292428198434,0.408675799086758,0.34378378378378377,0.5084372707263389,0.6087912087912087,0.4339781328847771,1193.0
221.0,1.7109259730712049e+18,0.4830287206266319,0.4246575342465753,0.3362162162162162,0.508192712154561,0.6274725274725275,0.4449116904962153,1197.0
222.0,1.7109259730812096e+18,0.4621409921671018,0.4063926940639269,0.33837837837837836,0.5064808021521154,0.5835164835164836,0.3776282590412111,1194.0
223.0,1.7109259730912049e+18,0.4464751958224543,0.3915525114155251,0.3254054054054054,0.508192712154561,0.6274725274725275,0.41715727502102606,1193.0
224.0,1.7109259731012052e+18,0.48825065274151436,0.4280821917808219,0.3443243243243243,0.5064808021521154,0.6142857142857143,0.4600504625735913,1195.0
225.0,1.7109259731112056e+18,0.4765013054830287,0.4178082191780822,0.3324324324324324,0.4842259721203228,0.6274725274725275,0.4558452481076535,1195.0
226.0,1.710925973121207e+18,0.4765013054830287,0.4178082191780822,0.3410810810810811,0.5162631450232331,0.6142857142857143,0.43902439024390244,1196.0
227.0,1.7109259731312123e+18,0.46866840731070497,0.4098173515981735,0.3286486486486486,0.49767669356810956,0.6,0.4222035323801514,1194.0
228.0,1.7109259731412088e+18,0.47127937336814624,0.4189497716894977,0.3491891891891892,0.5037906578625581,0.5813186813186814,0.43313708999158956,1193.0
229.0,1.7109259731512113e+18,0.4699738903394256,0.4052511415525114,0.3237837837837838,0.5069699192956714,0.656043956043956,0.4482758620689655,1196.0
230.0,1.71092597316124e+18,0.4869451697127937,0.4315068493150685,0.35027027027027025,0.4986549278552213,0.5934065934065934,0.432296047098402,1193.0
231.0,1.7109259731712064e+18,0.4765013054830287,0.4235159817351598,0.33945945945945943,0.49400831499144043,0.6208791208791209,0.4482758620689655,1196.0
232.0,1.7109259731812114e+18,0.4608355091383812,0.3915525114155251,0.3308108108108108,0.5172413793103449,0.6582417582417582,0.4306139613120269,1191.0
233.0,1.710925973191206e+18,0.47389033942558745,0.4212328767123288,0.3345945945945946,0.5103937393005625,0.6450549450549451,0.4339781328847771,1192.0
234.0,1.710925973201255e+18,0.4608355091383812,0.3972602739726027,0.3281081081081081,0.4944974321349963,0.5681318681318681,0.44070647603027757,1194.0
235.0,1.710925973211211e+18,0.45300261096605743,0.3949771689497717,0.3237837837837838,0.5089263878698949,0.6065934065934065,0.3843566021867115,1191.0
236.0,1.7109259732212088e+18,0.46344647519582244,0.410958904109589,0.3302702702702703,0.4986549278552213,0.6274725274725275,0.4146341463414634,1193.0
237.0,1.7109259732312067e+18,0.47780678851174935,0.4257990867579909,0.3362162162162162,0.48202494497432136,0.6142857142857143,0.4314550042052145,1193.0
238.0,1.7109259732412076e+18,0.4725848563968668,0.4052511415525114,0.3324324324324324,0.48936170212765956,0.578021978021978,0.43650126156433977,1197.0
239.0,1.7109259732512123e+18,0.4765013054830287,0.4223744292237443,0.33405405405405403,0.4971875764245537,0.6208791208791209,0.4592094196804037,1196.0
240.0,1.7109259732612155e+18,0.4765013054830287,0.4143835616438356,0.34162162162162163,0.5001222792858889,0.6318681318681318,0.43902439024390244,1197.0
241.0,1.7109259732712182e+18,0.46344647519582244,0.4006849315068493,0.3178378378378378,0.499877720714111,0.6208791208791209,0.3767872161480236,1194.0
242.0,1.710925973281215e+18,0.47780678851174935,0.4132420091324201,0.3308108108108108,0.5008559550012228,0.6681318681318681,0.46173254835996635,1195.0
243.0,1.7109259732912294e+18,0.4621409921671018,0.3949771689497717,0.3237837837837838,0.5152849107361213,0.656043956043956,0.43902439024390244,1196.0
244.0,1.7109259733012193e+18,0.47127937336814624,0.4063926940639269,0.32756756756756755,0.5023233064318905,0.6406593406593407,0.44575273338940286,1196.0
245.0,1.7109259733112346e+18,0.4765013054830287,0.4166666666666667,0.33513513513513515,0.5059916850085595,0.6417582417582418,0.43313708999158956,1193.0
246.0,1.710925973321242e+18,0.45822454308093996,0.3892694063926941,0.3237837837837838,0.5064808021521154,0.6241758241758242,0.4095878889823381,1195.0
247.0,1.7109259733312105e+18,0.46866840731070497,0.4155251141552511,0.3345945945945946,0.5072144778674492,0.6582417582417582,0.43986543313709,1195.0
248.0,1.7109259733412406e+18,0.47127937336814624,0.4121004566210046,0.3362162162162162,0.4927855221325507,0.5978021978021978,0.45164003364171573,1197.0
249.0,1.7109259733512438e+18,0.47127937336814624,0.4223744292237443,0.3362162162162162,0.5113719735876743,0.656043956043956,0.44238856181665265,1196.0
250.0,1.7109259733612393e+18,0.4660574412532637,0.4029680365296804,0.33513513513513515,0.5028124235754463,0.6010989010989011,0.43313708999158956,1192.0
251.0,1.7109259733712422e+18,0.47127937336814624,0.4029680365296804,0.3264864864864865,0.4883834678405478,0.621978021978022,0.447434819175778,1197.0
252.0,1.7109259733812424e+18,0.46866840731070497,0.410958904109589,0.33675675675675676,0.5064808021521154,0.6120879120879121,0.44238856181665265,1194.0
253.0,1.7109259733912376e+18,0.4856396866840731,0.4280821917808219,0.3427027027027027,0.5099046221570066,0.6593406593406593,0.4625735912531539,1195.0
254.0,1.710925973401253e+18,0.48172323759791125,0.4212328767123288,0.3389189189189189,0.5008559550012228,0.6285714285714286,0.4693019343986543,1195.0
255.0,1.7109259734112376e+18,0.46475195822454307,0.4143835616438356,0.33405405405405403,0.5020787478601125,0.6516483516483517,0.4465937762825904,1197.0
256.0,1.7109259734212332e+18,0.4660574412532637,0.3995433789954338,0.32,0.491807287845439,0.5769230769230769,0.43313708999158956,1192.0
257.0,1.7109259734312343e+18,0.46736292428198434,0.4143835616438356,0.33405405405405403,0.4768892149669846,0.5879120879120879,0.4339781328847771,1193.0
258.0,1.7109259734412477e+18,0.46866840731070497,0.4052511415525114,0.3318918918918919,0.5096600635852286,0.6164835164835165,0.42052144659377627,1194.0
259.0,1.7109259734512384e+18,0.47780678851174935,0.4200913242009132,0.32972972972972975,0.504524333577892,0.6362637362637362,0.44238856181665265,1198.0
260.0,1.7109259734612454e+18,0.47127937336814624,0.4041095890410959,0.3286486486486486,0.48789435069699194,0.6241758241758242,0.4289318755256518,1192.0
261.0,1.7109259734712394e+18,0.47780678851174935,0.4155251141552511,0.3335135135135135,0.4971875764245537,0.6208791208791209,0.41042893187552565,1194.0
262.0,1.7109259734812332e+18,0.46866840731070497,0.4098173515981735,0.3389189189189189,0.4974321349963316,0.5912087912087912,0.4314550042052145,1193.0
263.0,1.7109259734912425e+18,0.47127937336814624,0.4178082191780822,0.33297297297297296,0.5055025678650037,0.6307692307692307,0.4449116904962153,1196.0
264.0,1.7109259735012334e+18,0.4804177545691906,0.4223744292237443,0.3389189189189189,0.5145512350207875,0.6384615384615384,0.4482758620689655,1197.0
265.0,1.710925973511229e+18,0.4765013054830287,0.4212328767123288,0.3372972972972973,0.499877720714111,0.6538461538461539,0.4482758620689655,1197.0
266.0,1.7109259735212308e+18,0.47127937336814624,0.4212328767123288,0.34486486486486484,0.5074590364392272,0.6065934065934065,0.4415475189234651,1196.0
267.0,1.7109259735312297e+18,0.4699738903394256,0.4075342465753425,0.3264864864864865,0.5020787478601125,0.6230769230769231,0.42977291841883936,1196.0
268.0,1.7109259735412316e+18,0.4725848563968668,0.4155251141552511,0.33945945945945943,0.5025678650036683,0.5824175824175825,0.42304457527333894,1193.0
269.0,1.7109259735512276e+18,0.48433420365535246,0.4235159817351598,0.33837837837837836,0.5101491807287846,0.6527472527472528,0.432296047098402,1192.0
270.0,1.7109259735612298e+18,0.47389033942558745,0.4178082191780822,0.34378378378378377,0.504524333577892,0.589010989010989,0.4053826745164003,1194.0
271.0,1.7109259735712328e+18,0.4751958224543081,0.4143835616438356,0.33405405405405403,0.5145512350207875,0.6395604395604395,0.45500420521446594,1196.0
272.0,1.71092597358123e+18,0.48172323759791125,0.4269406392694064,0.3567567567567568,0.504035216434336,0.6197802197802198,0.4449116904962153,1197.0
273.0,1.7109259735912335e+18,0.4725848563968668,0.4041095890410959,0.3216216216216216,0.48813890926876985,0.6131868131868132,0.4339781328847771,1194.0
274.0,1.7109259736012321e+18,0.47780678851174935,0.4132420091324201,0.3410810810810811,0.5118610907312301,0.6252747252747253,0.45164003364171573,1195.0
275.0,1.7109259736112292e+18,0.46475195822454307,0.4063926940639269,0.32972972972972975,0.5018341892883346,0.6593406593406593,0.4348191757779647,1197.0
276.0,1.7109259736212247e+18,0.48172323759791125,0.4360730593607306,0.36108108108108106,0.4988994864269993,0.5769230769230769,0.43313708999158956,1193.0
277.0,1.7109259736312223e+18,0.47127937336814624,0.4121004566210046,0.32972972972972975,0.5133284421618978,0.6934065934065934,0.45164003364171573,1197.0
278.0,1.7109259736412234e+18,0.46736292428198434,0.4132420091324201,0.33837837837837836,0.4991440449987772,0.6120879120879121,0.46846089150546677,1197.0
279.0,1.7109259736512223e+18,0.46866840731070497,0.4189497716894977,0.33837837837837836,0.5096600635852286,0.6626373626373626,0.44911690496215306,1195.0
280.0,1.7109259736612224e+18,0.4725848563968668,0.4166666666666667,0.33945945945945943,0.4900953778429934,0.5747252747252747,0.42977291841883936,1192.0
281.0,1.710925973671222e+18,0.46475195822454307,0.408675799086758,0.3281081081081081,0.4859378821227684,0.5747252747252747,0.4306139613120269,1192.0
282.0,1.710925973681222e+18,0.5195822454308094,0.4794520547945205,0.36108108108108106,0.47957935925654194,0.5978021978021978,0.4432296047098402,1193.0
283.0,1.7109259736912236e+18,0.47911227154047,0.4440639269406393,0.34702702702702704,0.46881878209831257,0.5681318681318681,0.42052144659377627,1194.0
284.0,1.7109259737012175e+18,0.4830287206266319,0.4292237442922374,0.35783783783783785,0.5133284421618978,0.5582417582417583,0.4238856181665265,1193.0
285.0,1.7109259737112187e+18,0.46475195822454307,0.3938356164383562,0.3162162162162162,0.4986549278552213,0.6494505494505495,0.45164003364171573,1195.0
286.0,1.7109259737212193e+18,0.47911227154047,0.4178082191780822,0.33783783783783783,0.512350207874786,0.6626373626373626,0.4608915054667788,1198.0
287.0,1.7109259737312197e+18,0.47127937336814624,0.4041095890410959,0.3216216216216216,0.5028124235754463,0.6153846153846154,0.43986543313709,1196.0
288.0,1.7109259737412147e+18,0.47780678851174935,0.4075342465753425,0.3281081081081081,0.5025678650036683,0.5989010989010989,0.43986543313709,1195.0
289.0,1.7109259737512248e+18,0.4725848563968668,0.408675799086758,0.32756756756756755,0.495720224993886,0.6428571428571429,0.43902439024390244,1195.0
290.0,1.7109259737612063e+18,0.4699738903394256,0.4121004566210046,0.33945945945945943,0.475177304964539,0.6,0.4339781328847771,1192.0
291.0,1.710925973771214e+18,0.46344647519582244,0.410958904109589,0.3286486486486486,0.4771337735387625,0.5571428571428572,0.4222035323801514,1194.0
292.0,1.710925973781218e+18,0.4804177545691906,0.4235159817351598,0.34594594594594597,0.504524333577892,0.6032967032967033,0.43566021867115223,1195.0
293.0,1.7109259737912566e+18,0.46736292428198434,0.3995433789954338,0.31891891891891894,0.5018341892883346,0.656043956043956,0.4415475189234651,1195.0
294.0,1.7109259738012052e+18,0.4725848563968668,0.4121004566210046,0.34162162162162163,0.5018341892883346,0.5934065934065934,0.4222035323801514,1191.0
295.0,1.7109259738112146e+18,0.46736292428198434,0.4018264840182648,0.32594594594594595,0.5143066764490095,0.6714285714285714,0.46761984861227923,1196.0
296.0,1.7109259738212127e+18,0.4751958224543081,0.4075342465753425,0.3324324324324324,0.5015896307165566,0.5868131868131868,0.4306139613120269,1192.0
297.0,1.7109259738312115e+18,0.4908616187989556,0.430365296803653,0.34,0.5067253607238934,0.6252747252747253,0.4751892346509672,1196.0
298.0,1.71092597384121e+18,0.47127937336814624,0.4143835616438356,0.3302702702702703,0.5006113964294449,0.6142857142857143,0.4482758620689655,1195.0
299.0,1.710925973851204e+18,0.4804177545691906,0.410958904109589,0.32216216216216215,0.5084372707263389,0.6538461538461539,0.4415475189234651,1196.0
300.0,1.71092597386121e+18,0.4869451697127937,0.4315068493150685,0.34540540540540543,0.5028124235754463,0.6296703296703297,0.4440706476030278,1196.0
301.0,1.7109259738712108e+18,0.47780678851174935,0.4155251141552511,0.34054054054054056,0.4937637564196625,0.6538461538461539,0.4482758620689655,1193.0
302.0,1.7109259738812224e+18,0.46866840731070497,0.408675799086758,0.3345945945945946,0.5057471264367817,0.6054945054945055,0.44575273338940286,1196.0
303.0,1.710925973891214e+18,0.47127937336814624,0.410958904109589,0.3281081081081081,0.4927855221325507,0.6274725274725275,0.4348191757779647,1194.0
304.0,1.7109259739012436e+18,0.4751958224543081,0.4132420091324201,0.33945945945945943,0.49400831499144043,0.6329670329670329,0.4449116904962153,1196.0
305.0,1.7109259739112095e+18,0.48172323759791125,0.4223744292237443,0.3335135135135135,0.5094155050134507,0.6417582417582418,0.4499579478553406,1197.0
306.0,1.7109259739212321e+18,0.4869451697127937,0.4315068493150685,0.34486486486486484,0.5037906578625581,0.634065934065934,0.4659377628259041,1197.0
307.0,1.7109259739312223e+18,0.47127937336814624,0.4143835616438356,0.3324324324324324,0.48985081927121543,0.6120879120879121,0.4314550042052145,1194.0
308.0,1.7109259739411768e+18,0.46866840731070497,0.408675799086758,0.33945945945945943,0.49523110785033014,0.6362637362637362,0.4592094196804037,1197.0
309.0,1.710925973951216e+18,0.4804177545691906,0.4132420091324201,0.32972972972972975,0.4969430178527757,0.6384615384615384,0.4381833473507149,1197.0
310.0,1.7109259739611773e+18,0.47780678851174935,0.4189497716894977,0.34054054054054056,0.4930300807043287,0.6175824175824176,0.44575273338940286,1195.0
311.0,1.7109259739712148e+18,0.4804177545691906,0.4235159817351598,0.33675675675675676,0.5103937393005625,0.6527472527472528,0.4449116904962153,1197.0
312.0,1.710925973981229e+18,0.46866840731070497,0.4075342465753425,0.33297297297297296,0.4942528735632184,0.5692307692307692,0.3994953742640875,1193.0
313.0,1.710925973991196e+18,0.47127937336814624,0.4121004566210046,0.33135135135135135,0.5018341892883346,0.6164835164835165,0.4348191757779647,1195.0
314.0,1.7109259740011976e+18,0.4830287206266319,0.4269406392694064,0.3410810810810811,0.5052580092932257,0.610989010989011,0.43986543313709,1193.0
315.0,1.710925974011214e+18,0.46344647519582244,0.3961187214611872,0.31945945945945947,0.4966984592809978,0.634065934065934,0.4339781328847771,1192.0
316.0,1.7109259740211983e+18,0.46736292428198434,0.4052511415525114,0.3318918918918919,0.5025678650036683,0.6153846153846154,0.4415475189234651,1196.0
317.0,1.710925974031198e+18,0.4765013054830287,0.4155251141552511,0.3302702702702703,0.5055025678650037,0.6527472527472528,0.43650126156433977,1195.0
318.0,1.71092597404122e+18,0.4660574412532637,0.4006849315068493,0.33297297297297296,0.4988994864269993,0.5989010989010989,0.4222035323801514,1193.0
319.0,1.7109259740512161e+18,0.4869451697127937,0.4166666666666667,0.3286486486486486,0.49523110785033014,0.6131868131868132,0.40706476030277544,1195.0
320.0,1.710925974061198e+18,0.47389033942558745,0.4178082191780822,0.34162162162162163,0.4900953778429934,0.6252747252747253,0.4432296047098402,1196.0
321.0,1.7109259740711997e+18,0.4765013054830287,0.4235159817351598,0.3362162162162162,0.5015896307165566,0.6406593406593407,0.44575273338940286,1197.0
322.0,1.710925974081225e+18,0.46866840731070497,0.408675799086758,0.33837837837837836,0.4930300807043287,0.6098901098901099,0.3809924306139613,1191.0
323.0,1.710925974091201e+18,0.4725848563968668,0.4155251141552511,0.33297297297297296,0.4988994864269993,0.6263736263736264,0.4339781328847771,1195.0
324.0,1.7109259741012017e+18,0.47780678851174935,0.4223744292237443,0.34702702702702704,0.5008559550012228,0.643956043956044,0.44911690496215306,1197.0
325.0,1.7109259741111995e+18,0.47389033942558745,0.4178082191780822,0.3335135135135135,0.49620934213744194,0.6142857142857143,0.4339781328847771,1194.0
326.0,1.7109259741212006e+18,0.47127937336814624,0.4132420091324201,0.33675675675675676,0.504524333577892,0.621978021978022,0.44911690496215306,1196.0
327.0,1.7109259741312223e+18,0.4725848563968668,0.408675799086758,0.32216216216216215,0.4925409635607728,0.6142857142857143,0.4339781328847771,1194.0
328.0,1.710925974141203e+18,0.47780678851174935,0.4212328767123288,0.3389189189189189,0.5025678650036683,0.6450549450549451,0.4507989907485282,1197.0
329.0,1.7109259741512026e+18,0.4765013054830287,0.410958904109589,0.3308108108108108,0.4937637564196625,0.6197802197802198,0.4188393608074012,1194.0
330.0,1.7109259741612012e+18,0.47389033942558745,0.4098173515981735,0.33945945945945943,0.5130838835901198,0.6098901098901099,0.4415475189234651,1195.0
331.0,1.7109259741712023e+18,0.4804177545691906,0.4178082191780822,0.33513513513513515,0.5213988750305698,0.6758241758241759,0.4146341463414634,1195.0
332.0,1.7109259741812419e+18,0.4765013054830287,0.4178082191780822,0.34486486486486484,0.5275128393250184,0.6384615384615384,0.447434819175778,1196.0
333.0,1.7109259741912218e+18,0.48172323759791125,0.4223744292237443,0.3372972972972973,0.5184641721692346,0.6945054945054945,0.45248107653490327,1197.0
334.0,1.710925974201233e+18,0.47911227154047,0.4223744292237443,0.34378378378378377,0.5055025678650037,0.6120879120879121,0.4306139613120269,1190.0
335.0,1.7109259742111708e+18,0.47911227154047,0.4223744292237443,0.33837837837837836,0.504035216434336,0.6307692307692307,0.40117746005046256,1192.0
336.0,1.710925974221204e+18,0.48172323759791125,0.4155251141552511,0.3362162162162162,0.49767669356810956,0.6208791208791209,0.4440706476030278,1196.0
337.0,1.7109259742311997e+18,0.4725848563968668,0.4178082191780822,0.33513513513513515,0.49107361213010514,0.5945054945054945,0.42640874684608915,1193.0
338.0,1.7109259742412073e+18,0.4751958224543081,0.4223744292237443,0.34702702702702704,0.5035460992907801,0.6164835164835165,0.46846089150546677,1195.0
339.0,1.7109259742512256e+18,0.47389033942558745,0.4098173515981735,0.3324324324324324,0.5067253607238934,0.6230769230769231,0.43566021867115223,1195.0
340.0,1.7109259742612024e+18,0.47911227154047,0.4235159817351598,0.34378378378378377,0.5133284421618978,0.6120879120879121,0.4348191757779647,1197.0
341.0,1.7109259742712312e+18,0.47127937336814624,0.4178082191780822,0.3372972972972973,0.5067253607238934,0.6274725274725275,0.45164003364171573,1195.0
342.0,1.7109259742812063e+18,0.4765013054830287,0.4132420091324201,0.33945945945945943,0.5103937393005625,0.6153846153846154,0.4533221194280908,1196.0
343.0,1.7109259742912038e+18,0.4765013054830287,0.4178082191780822,0.3324324324324324,0.5028124235754463,0.634065934065934,0.44575273338940286,1196.0
344.0,1.710925974301208e+18,0.46475195822454307,0.4052511415525114,0.3345945945945946,0.4986549278552213,0.6032967032967033,0.4507989907485282,1195.0
345.0,1.7109259743112294e+18,0.47389033942558745,0.4132420091324201,0.3286486486486486,0.5015896307165566,0.6318681318681318,0.43650126156433977,1194.0
346.0,1.710925974321207e+18,0.4725848563968668,0.4178082191780822,0.34540540540540543,0.5218879921741257,0.6318681318681318,0.4415475189234651,1195.0
347.0,1.7109259743312026e+18,0.4725848563968668,0.4132420091324201,0.33405405405405403,0.5084372707263389,0.6615384615384615,0.44238856181665265,1196.0
348.0,1.7109259743412088e+18,0.4765013054830287,0.4178082191780822,0.34162162162162163,0.48691611640988014,0.5857142857142857,0.4314550042052145,1193.0
349.0,1.710925974351197e+18,0.47911227154047,0.4121004566210046,0.33135135135135135,0.49351919784788456,0.6054945054945055,0.4432296047098402,1197.0
350.0,1.7109259743612042e+18,0.4725848563968668,0.4075342465753425,0.3281081081081081,0.5035460992907801,0.5989010989010989,0.4415475189234651,1196.0
351.0,1.7109259743712046e+18,0.47127937336814624,0.4143835616438356,0.33297297297297296,0.48985081927121543,0.6362637362637362,0.4373423044575273,1195.0
352.0,1.710925974381206e+18,0.4869451697127937,0.4315068493150685,0.3497297297297297,0.5113719735876743,0.6263736263736264,0.40370058873002523,1194.0
353.0,1.7109259743912095e+18,0.47389033942558745,0.4063926940639269,0.3286486486486486,0.4974321349963316,0.6329670329670329,0.4339781328847771,1193.0
354.0,1.7109259744012337e+18,0.4765013054830287,0.4132420091324201,0.3372972972972973,0.4773783321105405,0.589010989010989,0.43566021867115223,1194.0
355.0,1.710925974411224e+18,0.47127937336814624,0.4075342465753425,0.32594594594594595,0.5008559550012228,0.6538461538461539,0.4415475189234651,1195.0
356.0,1.710925974421202e+18,0.4699738903394256,0.4052511415525114,0.3308108108108108,0.5008559550012228,0.589010989010989,0.4314550042052145,1193.0
357.0,1.7109259744312044e+18,0.4660574412532637,0.4041095890410959,0.3248648648648649,0.48202494497432136,0.5934065934065934,0.4255677039529016,1192.0
358.0,1.710925974441227e+18,0.48433420365535246,0.4246575342465753,0.34054054054054056,0.4988994864269993,0.6098901098901099,0.4339781328847771,1194.0
359.0,1.7109259744512154e+18,0.4725848563968668,0.410958904109589,0.3254054054054054,0.4805575935436537,0.6274725274725275,0.4465937762825904,1196.0
360.0,1.710925974461194e+18,0.47389033942558745,0.4121004566210046,0.3362162162162162,0.5037906578625581,0.6307692307692307,0.4449116904962153,1194.0
361.0,1.710925974471193e+18,0.47780678851174935,0.4075342465753425,0.3264864864864865,0.49058449498654927,0.6505494505494506,0.4432296047098402,1195.0
362.0,1.710925974481207e+18,0.47911227154047,0.4178082191780822,0.34378378378378377,0.5196869650281243,0.6417582417582418,0.4465937762825904,1195.0
363.0,1.7109259744912182e+18,0.4725848563968668,0.4098173515981735,0.327027027027027,0.49938860357055515,0.6274725274725275,0.43313708999158956,1194.0
364.0,1.7109259745012086e+18,0.47780678851174935,0.4143835616438356,0.3389189189189189,0.5113719735876743,0.6318681318681318,0.4440706476030278,1195.0
365.0,1.7109259745112036e+18,0.46866840731070497,0.4155251141552511,0.33297297297297296,0.5077035950110051,0.6142857142857143,0.45836837678721615,1197.0
366.0,1.7109259745212042e+18,0.4765013054830287,0.4143835616438356,0.3362162162162162,0.5001222792858889,0.5945054945054945,0.45164003364171573,1197.0
367.0,1.710925974531207e+18,0.4830287206266319,0.4223744292237443,0.3389189189189189,0.5033015407190022,0.6230769230769231,0.4020185029436501,1191.0
368.0,1.7109259745412055e+18,0.4765013054830287,0.4143835616438356,0.33837837837837836,0.4966984592809978,0.5978021978021978,0.4381833473507149,1195.0
369.0,1.710925974551205e+18,0.47127937336814624,0.4121004566210046,0.3324324324324324,0.5001222792858889,0.6,0.4028595458368377,1193.0
370.0,1.7109259745612076e+18,0.46736292428198434,0.410958904109589,0.33837837837837836,0.5030569821472243,0.5835164835164836,0.4440706476030278,1196.0
371.0,1.7109259745712003e+18,0.4765013054830287,0.4200913242009132,0.33297297297297296,0.5008559550012228,0.634065934065934,0.432296047098402,1192.0
372.0,1.7109259745812045e+18,0.47911227154047,0.4189497716894977,0.34054054054054056,0.4971875764245537,0.634065934065934,0.4222035323801514,1194.0
373.0,1.7109259745912159e+18,0.46475195822454307,0.4052511415525114,0.3216216216216216,0.48520420640743456,0.6175824175824176,0.3566021867115223,1194.0
374.0,1.7109259746012114e+18,0.4699738903394256,0.4132420091324201,0.33945945945945943,0.4844705306921008,0.5527472527472528,0.4247266610597141,1192.0
375.0,1.7109259746112023e+18,0.47780678851174935,0.4178082191780822,0.34216216216216216,0.5057471264367817,0.6417582417582418,0.4482758620689655,1198.0
376.0,1.710925974621203e+18,0.47127937336814624,0.4166666666666667,0.3410810810810811,0.5035460992907801,0.6230769230769231,0.4415475189234651,1195.0
377.0,1.7109259746312067e+18,0.4725848563968668,0.4143835616438356,0.3302702702702703,0.5059916850085595,0.6362637362637362,0.43986543313709,1196.0
378.0,1.7109259746412147e+18,0.47127937336814624,0.4132420091324201,0.3362162162162162,0.5025678650036683,0.621978021978022,0.4415475189234651,1194.0
379.0,1.7109259746512061e+18,0.46475195822454307,0.408675799086758,0.327027027027027,0.4944974321349963,0.6384615384615384,0.44238856181665265,1193.0
380.0,1.710925974661205e+18,0.4621409921671018,0.4132420091324201,0.3464864864864865,0.4966984592809978,0.6010989010989011,0.4659377628259041,1197.0
381.0,1.7109259746712036e+18,0.4621409921671018,0.4212328767123288,0.3318918918918919,0.5015896307165566,0.6285714285714286,0.4440706476030278,1197.0
382.0,1.7109259746812137e+18,0.47127937336814624,0.4143835616438356,0.34162162162162163,0.5015896307165566,0.610989010989011,0.4440706476030278,1196.0
383.0,1.7109259746912128e+18,0.4464751958224543,0.4132420091324201,0.32972972972972975,0.5035460992907801,0.6395604395604395,0.43313708999158956,1192.0
384.0,1.71092597470121e+18,0.47911227154047,0.4121004566210046,0.34378378378378377,0.5035460992907801,0.6197802197802198,0.4339781328847771,1194.0
385.0,1.710925974711209e+18,0.47127937336814624,0.4178082191780822,0.33675675675675676,0.48936170212765956,0.6428571428571429,0.4255677039529016,1193.0
386.0,1.710925974721209e+18,0.47127937336814624,0.410958904109589,0.3389189189189189,0.4986549278552213,0.6076923076923076,0.4314550042052145,1195.0
387.0,1.7109259747311875e+18,0.47127937336814624,0.4075342465753425,0.3232432432432432,0.48985081927121543,0.6197802197802198,0.46173254835996635,1197.0
388.0,1.710925974741213e+18,0.46475195822454307,0.4075342465753425,0.3302702702702703,0.5059916850085595,0.6208791208791209,0.4768713204373423,1196.0
389.0,1.7109259747512192e+18,0.46736292428198434,0.3984018264840183,0.3172972972972973,0.48813890926876985,0.6197802197802198,0.4314550042052145,1192.0
390.0,1.7109259747612017e+18,0.46475195822454307,0.4063926940639269,0.3335135135135135,0.5015896307165566,0.6010989010989011,0.4179983179142136,1192.0
391.0,1.7109259747711951e+18,0.46866840731070497,0.410958904109589,0.32432432432432434,0.5094155050134507,0.6450549450549451,0.4415475189234651,1197.0
392.0,1.7109259747812114e+18,0.4765013054830287,0.4246575342465753,0.3464864864864865,0.49205184641721694,0.5967032967032967,0.39781328847771236,1194.0
393.0,1.710925974791203e+18,0.4765013054830287,0.4155251141552511,0.3286486486486486,0.495964783565664,0.6538461538461539,0.4289318755256518,1193.0
394.0,1.7109259748012165e+18,0.47389033942558745,0.4155251141552511,0.33837837837837836,0.5182196135974566,0.6450549450549451,0.45500420521446594,1193.0
395.0,1.7109259748112005e+18,0.4908616187989556,0.432648401826484,0.3362162162162162,0.4937637564196625,0.5967032967032967,0.44911690496215306,1195.0
396.0,1.7109259748212058e+18,0.47780678851174935,0.4178082191780822,0.33675675675675676,0.48789435069699194,0.5725274725274725,0.4415475189234651,1196.0
397.0,1.710925974831202e+18,0.4765013054830287,0.4132420091324201,0.3291891891891892,0.4986549278552213,0.6153846153846154,0.4280908326324643,1193.0
398.0,1.7109259748412168e+18,0.4660574412532637,0.4063926940639269,0.33513513513513515,0.49082905355832723,0.6021978021978022,0.43566021867115223,1195.0
399.0,1.7109259748512248e+18,0.4725848563968668,0.4132420091324201,0.3286486486486486,0.5055025678650037,0.6505494505494506,0.4415475189234651,1195.0
400.0,1.710925974861201e+18,0.47780678851174935,0.4178082191780822,0.3443243243243243,0.4871606749816581,0.6076923076923076,0.4247266610597141,1193.0
401.0,1.7109259748712105e+18,0.4765013054830287,0.4121004566210046,0.3291891891891892,0.5030569821472243,0.6538461538461539,0.45164003364171573,1197.0
402.0,1.710925974881208e+18,0.47780678851174935,0.408675799086758,0.33513513513513515,0.5028124235754463,0.6318681318681318,0.4381833473507149,1197.0
403.0,1.7109259748912212e+18,0.47389033942558745,0.4155251141552511,0.33513513513513515,0.5035460992907801,0.6450549450549451,0.4255677039529016,1193.0
404.0,1.7109259749012093e+18,0.46866840731070497,0.4098173515981735,0.33405405405405403,0.5084372707263389,0.6120879120879121,0.43902439024390244,1196.0
405.0,1.710925974911226e+18,0.4765013054830287,0.4200913242009132,0.3356756756756757,0.5008559550012228,0.6208791208791209,0.43566021867115223,1197.0
406.0,1.7109259749211999e+18,0.4934725848563969,0.4235159817351598,0.33945945945945943,0.4871606749816581,0.5923076923076923,0.43566021867115223,1197.0
407.0,1.7109259749312154e+18,0.48172323759791125,0.4212328767123288,0.33405405405405403,0.5055025678650037,0.6285714285714286,0.43986543313709,1197.0
408.0,1.7109259749412106e+18,0.4765013054830287,0.4200913242009132,0.3427027027027027,0.5037906578625581,0.6120879120879121,0.4381833473507149,1195.0
409.0,1.7109259749512018e+18,0.4765013054830287,0.4189497716894977,0.33675675675675676,0.5023233064318905,0.6329670329670329,0.4373423044575273,1196.0
410.0,1.7109259749612063e+18,0.4725848563968668,0.410958904109589,0.34162162162162163,0.5074590364392272,0.6087912087912087,0.4053826745164003,1192.0
411.0,1.7109259749712026e+18,0.47389033942558745,0.410958904109589,0.3264864864864865,0.5006113964294449,0.6318681318681318,0.43902439024390244,1196.0
412.0,1.7109259749812142e+18,0.47911227154047,0.4178082191780822,0.34054054054054056,0.504279775006114,0.6032967032967033,0.4465937762825904,1196.0
413.0,1.7109259749912172e+18,0.4725848563968668,0.4075342465753425,0.3237837837837838,0.5074590364392272,0.6604395604395604,0.44238856181665265,1197.0
414.0,1.7109259750012106e+18,0.46866840731070497,0.4063926940639269,0.33405405405405403,0.5057471264367817,0.6021978021978022,0.40117746005046256,1193.0
415.0,1.7109259750112072e+18,0.4751958224543081,0.4121004566210046,0.32756756756756755,0.4988994864269993,0.6153846153846154,0.43313708999158956,1194.0
416.0,1.7109259750211382e+18,0.4725848563968668,0.410958904109589,0.33675675675675676,0.4979212521398875,0.6021978021978022,0.4415475189234651,1194.0
417.0,1.710925975031204e+18,0.4804177545691906,0.4155251141552511,0.3324324324324324,0.49620934213744194,0.610989010989011,0.42640874684608915,1192.0
418.0,1.7109259750412163e+18,0.47127937336814624,0.410958904109589,0.34054054054054056,0.5023233064318905,0.5857142857142857,0.4482758620689655,1195.0
419.0,1.7109259750512102e+18,0.4765013054830287,0.4121004566210046,0.327027027027027,0.499877720714111,0.6175824175824176,0.43313708999158956,1193.0
420.0,1.7109259750612068e+18,0.4725848563968668,0.408675799086758,0.34162162162162163,0.491807287845439,0.6,0.4415475189234651,1196.0
421.0,1.7109259750711967e+18,0.47127937336814624,0.4029680365296804,0.32594594594594595,0.5028124235754463,0.6450549450549451,0.44238856181665265,1198.0
422.0,1.7109259750812285e+18,0.4725848563968668,0.4132420091324201,0.33837837837837836,0.504524333577892,0.5945054945054945,0.42977291841883936,1192.0
423.0,1.7109259750912323e+18,0.47780678851174935,0.4178082191780822,0.3318918918918919,0.5089263878698949,0.6461538461538462,0.43313708999158956,1194.0
424.0,1.7109259751011983e+18,0.47911227154047,0.4189497716894977,0.3389189189189189,0.5113719735876743,0.6428571428571429,0.4440706476030278,1199.0
425.0,1.7109259751112159e+18,0.4751958224543081,0.410958904109589,0.3291891891891892,0.5008559550012228,0.6329670329670329,0.4415475189234651,1197.0
426.0,1.7109259751212063e+18,0.4765013054830287,0.4178082191780822,0.34216216216216216,0.5006113964294449,0.6098901098901099,0.46846089150546677,1197.0
427.0,1.7109259751312061e+18,0.4725848563968668,0.4155251141552511,0.33297297297297296,0.5079481535827831,0.6538461538461539,0.4482758620689655,1195.0
428.0,1.710925975141248e+18,0.4725848563968668,0.4098173515981735,0.3372972972972973,0.499877720714111,0.6032967032967033,0.4440706476030278,1196.0
429.0,1.7109259751512056e+18,0.46344647519582244,0.408675799086758,0.32972972972972975,0.4991440449987772,0.6417582417582418,0.4415475189234651,1196.0
430.0,1.7109259751611272e+18,0.4751958224543081,0.4166666666666667,0.34054054054054056,0.504524333577892,0.6142857142857143,0.45164003364171573,1195.0
431.0,1.710925975171218e+18,0.47127937336814624,0.4178082191780822,0.33783783783783783,0.49816581071166544,0.6296703296703297,0.43650126156433977,1195.0
432.0,1.7109259751812106e+18,0.47127937336814624,0.410958904109589,0.33945945945945943,0.508192712154561,0.6032967032967033,0.4415475189234651,1195.0
433.0,1.7109259751911977e+18,0.48433420365535246,0.4178082191780822,0.3281081081081081,0.4971875764245537,0.6461538461538462,0.3927670311185871,1196.0
434.0,1.7109259752012224e+18,0.4751958224543081,0.4143835616438356,0.3372972972972973,0.5011005135730008,0.6098901098901099,0.432296047098402,1191.0
435.0,1.7109259752112146e+18,0.4765013054830287,0.4155251141552511,0.3308108108108108,0.5086818292981169,0.6417582417582418,0.43902439024390244,1196.0
436.0,1.710925975221215e+18,0.4725848563968668,0.410958904109589,0.33513513513513515,0.504035216434336,0.6076923076923076,0.432296047098402,1194.0
437.0,1.7109259752312236e+18,0.46866840731070497,0.4041095890410959,0.3264864864864865,0.504279775006114,0.5978021978021978,0.43986543313709,1193.0
438.0,1.7109259752412506e+18,0.46736292428198434,0.4178082191780822,0.3427027027027027,0.5152849107361213,0.6252747252747253,0.4440706476030278,1195.0
439.0,1.7109259752512054e+18,0.4804177545691906,0.4212328767123288,0.33675675675675676,0.4988994864269993,0.6296703296703297,0.43650126156433977,1196.0
440.0,1.7109259752612132e+18,0.47127937336814624,0.4143835616438356,0.33837837837837836,0.5055025678650037,0.5923076923076923,0.4415475189234651,1197.0
441.0,1.710925975271214e+18,0.47911227154047,0.4166666666666667,0.32972972972972975,0.5006113964294449,0.6450549450549451,0.4449116904962153,1194.0
442.0,1.7109259752811963e+18,0.46866840731070497,0.4132420091324201,0.3362162162162162,0.495964783565664,0.589010989010989,0.4213624894869638,1193.0
443.0,1.7109259752912287e+18,0.46866840731070497,0.4052511415525114,0.3232432432432432,0.4847150892638787,0.6032967032967033,0.4289318755256518,1194.0
444.0,1.7109259753012152e+18,0.4699738903394256,0.4063926940639269,0.33945945945945943,0.5077035950110051,0.6054945054945055,0.415475189234651,1194.0
445.0,1.7109259753112159e+18,0.4699738903394256,0.410958904109589,0.32972972972972975,0.5035460992907801,0.6450549450549451,0.43313708999158956,1193.0
446.0,1.7109259753212078e+18,0.47780678851174935,0.4132420091324201,0.3389189189189189,0.4871606749816581,0.6032967032967033,0.4373423044575273,1194.0
447.0,1.7109259753311987e+18,0.4765013054830287,0.4189497716894977,0.33405405405405403,0.4927855221325507,0.6450549450549451,0.4634146341463415,1194.0
448.0,1.7109259753412083e+18,0.47780678851174935,0.4178082191780822,0.34162162162162163,0.5023233064318905,0.6153846153846154,0.45500420521446594,1195.0
449.0,1.7109259753512177e+18,0.47911227154047,0.4178082191780822,0.3291891891891892,0.5030569821472243,0.6406593406593407,0.44575273338940286,1196.0
450.0,1.7109259753612104e+18,0.4869451697127937,0.4200913242009132,0.34216216216216216,0.4888725849841037,0.6098901098901099,0.4188393608074012,1194.0
451.0,1.7109259753712182e+18,0.47780678851174935,0.4223744292237443,0.3362162162162162,0.5113719735876743,0.6593406593406593,0.44238856181665265,1196.0
452.0,1.7109259753812173e+18,0.4725848563968668,0.4166666666666667,0.33837837837837836,0.49767669356810956,0.5769230769230769,0.4339781328847771,1194.0
453.0,1.7109259753912218e+18,0.4830287206266319,0.4178082191780822,0.3345945945945946,0.5059916850085595,0.6417582417582418,0.44238856181665265,1197.0
454.0,1.7109259754012214e+18,0.48433420365535246,0.4235159817351598,0.34324324324324323,0.504279775006114,0.6164835164835165,0.447434819175778,1196.0
455.0,1.710925975411205e+18,0.47127937336814624,0.4052511415525114,0.3286486486486486,0.5025678650036683,0.6362637362637362,0.44238856181665265,1193.0
456.0,1.7109259754212052e+18,0.48172323759791125,0.4212328767123288,0.34162162162162163,0.49498654927855223,0.6021978021978022,0.4095878889823381,1192.0
457.0,1.7109259754311939e+18,0.47780678851174935,0.4200913242009132,0.3345945945945946,0.4927855221325507,0.6274725274725275,0.4465937762825904,1196.0
458.0,1.7109259754411533e+18,0.47911227154047,0.4155251141552511,0.3427027027027027,0.5079481535827831,0.6230769230769231,0.456686291000841,1196.0
459.0,1.7109259754512015e+18,0.4804177545691906,0.4223744292237443,0.3362162162162162,0.49327463927610665,0.6120879120879121,0.43313708999158956,1192.0
460.0,1.7109259754611628e+18,0.4725848563968668,0.4143835616438356,0.3389189189189189,0.4966984592809978,0.6098901098901099,0.43650126156433977,1197.0
461.0,1.7109259754711836e+18,0.47389033942558745,0.4178082191780822,0.33675675675675676,0.5035460992907801,0.6428571428571429,0.43986543313709,1197.0
462.0,1.7109259754811986e+18,0.4765013054830287,0.4121004566210046,0.33837837837837836,0.5033015407190022,0.6197802197802198,0.4465937762825904,1195.0
463.0,1.710925975491206e+18,0.47911227154047,0.4132420091324201,0.32594594594594595,0.5018341892883346,0.6406593406593407,0.4381833473507149,1193.0
464.0,1.710925975501208e+18,0.4765013054830287,0.4132420091324201,0.3362162162162162,0.5064808021521154,0.621978021978022,0.4415475189234651,1196.0
465.0,1.7109259755112082e+18,0.46475195822454307,0.4018264840182648,0.3232432432432432,0.5011005135730008,0.6384615384615384,0.43986543313709,1194.0
466.0,1.7109259755211615e+18,0.47127937336814624,0.4143835616438356,0.34162162162162163,0.4971875764245537,0.6087912087912087,0.44238856181665265,1195.0
467.0,1.7109259755312049e+18,0.47127937336814624,0.4098173515981735,0.327027027027027,0.49474199070677427,0.6274725274725275,0.4415475189234651,1196.0
468.0,1.7109259755412042e+18,0.4725848563968668,0.4189497716894977,0.34378378378378377,0.5059916850085595,0.6296703296703297,0.4701429772918419,1193.0
469.0,1.7109259755511997e+18,0.47780678851174935,0.4132420091324201,0.3281081081081081,0.4927855221325507,0.6461538461538462,0.4852817493692178,1194.0
470.0,1.7109259755611702e+18,0.47127937336814624,0.4029680365296804,0.33405405405405403,0.491807287845439,0.5989010989010989,0.43566021867115223,1195.0
471.0,1.7109259755712084e+18,0.46736292428198434,0.4063926940639269,0.3254054054054054,0.4871606749816581,0.6230769230769231,0.43566021867115223,1196.0
472.0,1.710925975581204e+18,0.46736292428198434,0.4041095890410959,0.3308108108108108,0.48618244069454636,0.6,0.44070647603027757,1196.0
473.0,1.7109259755911877e+18,0.4725848563968668,0.410958904109589,0.3254054054054054,0.5011005135730008,0.6186813186813187,0.42640874684608915,1194.0
474.0,1.7109259756012065e+18,0.47127937336814624,0.4132420091324201,0.3372972972972973,0.5008559550012228,0.6208791208791209,0.4465937762825904,1194.0
475.0,1.710925975611219e+18,0.4765013054830287,0.4223744292237443,0.33405405405405403,0.5035460992907801,0.6494505494505495,0.4213624894869638,1194.0
476.0,1.7109259756211948e+18,0.4699738903394256,0.4132420091324201,0.33945945945945943,0.508192712154561,0.6274725274725275,0.4415475189234651,1196.0
477.0,1.7109259756312018e+18,0.47389033942558745,0.4178082191780822,0.3389189189189189,0.5006113964294449,0.6472527472527473,0.44575273338940286,1196.0
478.0,1.710925975641203e+18,0.46866840731070497,0.408675799086758,0.33405405405405403,0.5006113964294449,0.6131868131868132,0.4348191757779647,1196.0
479.0,1.7109259756512033e+18,0.47389033942558745,0.4132420091324201,0.3345945945945946,0.5057471264367817,0.6296703296703297,0.43313708999158956,1193.0
480.0,1.7109259756611996e+18,0.4725848563968668,0.4132420091324201,0.34054054054054056,0.5057471264367817,0.6076923076923076,0.4415475189234651,1199.0
481.0,1.7109259756712172e+18,0.4725848563968668,0.4143835616438356,0.3291891891891892,0.5001222792858889,0.6450549450549451,0.4348191757779647,1193.0
482.0,1.7109259756811935e+18,0.4751958224543081,0.4189497716894977,0.3427027027027027,0.5079481535827831,0.6241758241758242,0.4381833473507149,1197.0
483.0,1.7109259756912264e+18,0.4725848563968668,0.4143835616438356,0.3286486486486486,0.4930300807043287,0.6472527472527473,0.4373423044575273,1196.0
484.0,1.710925975701193e+18,0.47389033942558745,0.4178082191780822,0.3362162162162162,0.5096600635852286,0.610989010989011,0.4255677039529016,1195.0
485.0,1.710925975711201e+18,0.4725848563968668,0.410958904109589,0.3286486486486486,0.504524333577892,0.6483516483516484,0.4247266610597141,1192.0
486.0,1.7109259757219607e+18,0.4725848563968668,0.4098173515981735,0.3345945945945946,0.5025678650036683,0.6087912087912087,0.43313708999158956,1194.0
487.0,1.710925975731202e+18,0.46736292428198434,0.4052511415525114,0.3291891891891892,0.5062362435803375,0.6494505494505495,0.4482758620689655,1196.0
488.0,1.710925975741189e+18,0.47911227154047,0.4269406392694064,0.3481081081081081,0.5037906578625581,0.6153846153846154,0.447434819175778,1196.0
489.0,1.7109259757511596e+18,0.46866840731070497,0.4075342465753425,0.3286486486486486,0.5011005135730008,0.6329670329670329,0.43650126156433977,1195.0
490.0,1.7109259757612004e+18,0.4699738903394256,0.4178082191780822,0.33945945945945943,0.5050134507214478,0.6142857142857143,0.45164003364171573,1196.0
491.0,1.7109259757711908e+18,0.47127937336814624,0.4121004566210046,0.32432432432432434,0.5006113964294449,0.6516483516483517,0.4558452481076535,1195.0
492.0,1.710925975781202e+18,0.46866840731070497,0.4132420091324201,0.33675675675675676,0.5074590364392272,0.6142857142857143,0.4482758620689655,1197.0
493.0,1.7109259757912026e+18,0.4765013054830287,0.4098173515981735,0.327027027027027,0.5018341892883346,0.634065934065934,0.43986543313709,1196.0
494.0,1.7109259758011988e+18,0.4751958224543081,0.4143835616438356,0.3372972972972973,0.5015896307165566,0.6153846153846154,0.4415475189234651,1194.0
495.0,1.7109259758111675e+18,0.47911227154047,0.4143835616438356,0.3302702702702703,0.5028124235754463,0.6285714285714286,0.4062237174095879,1193.0
496.0,1.7109259758211889e+18,0.4765013054830287,0.4121004566210046,0.33405405405405403,0.4996331621423331,0.6175824175824176,0.4465937762825904,1195.0
497.0,1.71092597583119e+18,0.4725848563968668,0.4246575342465753,0.33135135135135135,0.5147957935925654,0.6472527472527473,0.43313708999158956,1192.0
498.0,1.7109259758412168e+18,0.4699738903394256,0.4121004566210046,0.3362162162162162,0.4991440449987772,0.6054945054945055,0.45164003364171573,1196.0
499.0,1.7109259758511913e+18,0.47127937336814624,0.4143835616438356,0.3286486486486486,0.4986549278552213,0.6307692307692307,0.4339781328847771,1194.0
500.0,1.7109259758611686e+18,0.47780678851174935,0.4223744292237443,0.34486486486486484,0.49767669356810956,0.6098901098901099,0.4449116904962153,1195.0
501.0,1.7109259758712087e+18,0.5039164490861618,0.4235159817351598,0.3324324324324324,0.504035216434336,0.6230769230769231,0.4314550042052145,1193.0
502.0,1.7109259758812014e+18,0.4699738903394256,0.4132420091324201,0.34054054054054056,0.5103937393005625,0.6098901098901099,0.4095878889823381,1195.0
503.0,1.7109259758911962e+18,0.5104438642297651,0.4143835616438356,0.33513513513513515,0.4974321349963316,0.6296703296703297,0.447434819175778,1195.0
504.0,1.710925975901201e+18,0.4595300261096606,0.4121004566210046,0.33837837837837836,0.4979212521398875,0.6175824175824176,0.43650126156433977,1197.0
505.0,1.7109259759112123e+18,0.47389033942558745,0.4098173515981735,0.3318918918918919,0.49474199070677427,0.6329670329670329,0.45248107653490327,1196.0
506.0,1.7109259759212052e+18,0.46736292428198434,0.4132420091324201,0.3362162162162162,0.49229640498899485,0.6076923076923076,0.43650126156433977,1195.0
507.0,1.710925975931203e+18,0.46866840731070497,0.4178082191780822,0.33297297297297296,0.4927855221325507,0.6230769230769231,0.456686291000841,1194.0
508.0,1.710925975941195e+18,0.4621409921671018,0.4006849315068493,0.3335135135135135,0.4788456835412081,0.5934065934065934,0.4306139613120269,1194.0
509.0,1.7109259759512067e+18,0.46736292428198434,0.4063926940639269,0.3286486486486486,0.5015896307165566,0.6318681318681318,0.4449116904962153,1196.0
510.0,1.7109259759611873e+18,0.4516971279373368,0.4098173515981735,0.33783783783783783,0.5006113964294449,0.6054945054945055,0.4751892346509672,1194.0
511.0,1.7109259759711939e+18,0.4608355091383812,0.4155251141552511,0.33297297297297296,0.5035460992907801,0.6516483516483517,0.4432296047098402,1197.0
512.0,1.7109259759812076e+18,0.4765013054830287,0.4269406392694064,0.3389189189189189,0.5074590364392272,0.6153846153846154,0.4415475189234651,1197.0
513.0,1.7109259759912156e+18,0.4765013054830287,0.410958904109589,0.3232432432432432,0.5015896307165566,0.6329670329670329,0.4381833473507149,1195.0
514.0,1.7109259760012165e+18,0.4725848563968668,0.408675799086758,0.3410810810810811,0.5018341892883346,0.6175824175824176,0.4449116904962153,1199.0
515.0,1.710925976011189e+18,0.48172323759791125,0.4178082191780822,0.3324324324324324,0.4930300807043287,0.6450549450549451,0.4020185029436501,1193.0
516.0,1.7109259760212224e+18,0.46475195822454307,0.4132420091324201,0.34054054054054056,0.5059916850085595,0.6131868131868132,0.4465937762825904,1195.0
517.0,1.7109259760312292e+18,0.47127937336814624,0.4132420091324201,0.3281081081081081,0.4927855221325507,0.6318681318681318,0.40454163162321277,1196.0
518.0,1.7109259760412116e+18,0.46736292428198434,0.4132420091324201,0.34378378378378377,0.49620934213744194,0.6087912087912087,0.4348191757779647,1195.0
519.0,1.7109259760511997e+18,0.4765013054830287,0.4098173515981735,0.3286486486486486,0.5067253607238934,0.6417582417582418,0.4373423044575273,1196.0
520.0,1.7109259760612122e+18,0.48172323759791125,0.4360730593607306,0.3372972972972973,0.5231107850330154,0.6307692307692307,0.4499579478553406,1195.0
521.0,1.710925976071194e+18,0.48172323759791125,0.4143835616438356,0.3308108108108108,0.5072144778674492,0.6373626373626373,0.4348191757779647,1196.0
522.0,1.7109259760811983e+18,0.46475195822454307,0.4063926940639269,0.3286486486486486,0.4984103692834434,0.6142857142857143,0.42977291841883936,1194.0
523.0,1.7109259760912026e+18,0.47911227154047,0.4200913242009132,0.33405405405405403,0.5103937393005625,0.6362637362637362,0.4146341463414634,1194.0
524.0,1.7109259761011994e+18,0.4765013054830287,0.4155251141552511,0.34054054054054056,0.5106382978723404,0.6098901098901099,0.4213624894869638,1195.0
525.0,1.7109259761112315e+18,0.47780678851174935,0.4098173515981735,0.32972972972972975,0.5037906578625581,0.6285714285714286,0.432296047098402,1192.0
526.0,1.7109259761212132e+18,0.47389033942558745,0.4132420091324201,0.33513513513513515,0.5050134507214478,0.6131868131868132,0.4533221194280908,1195.0
527.0,1.7109259761312084e+18,0.47127937336814624,0.4155251141552511,0.33675675675675676,0.4988994864269993,0.6373626373626373,0.41968040370058873,1193.0
528.0,1.7109259761412378e+18,0.4725848563968668,0.4041095890410959,0.3308108108108108,0.5118610907312301,0.578021978021978,0.4222035323801514,1194.0
529.0,1.7109259761512036e+18,0.47389033942558745,0.4098173515981735,0.3254054054054054,0.5106382978723404,0.6483516483516484,0.4415475189234651,1196.0
530.0,1.7109259761612e+18,0.4934725848563969,0.410958904109589,0.33837837837837836,0.5201760821716801,0.6098901098901099,0.4499579478553406,1197.0
531.0,1.7109259761711777e+18,0.49738903394255873,0.4235159817351598,0.3318918918918919,0.5018341892883346,0.6450549450549451,0.4499579478553406,1194.0
532.0,1.710925976181182e+18,0.4765013054830287,0.4155251141552511,0.3389189189189189,0.4803130349718758,0.6153846153846154,0.45164003364171573,1196.0
533.0,1.7109259761912084e+18,0.47127937336814624,0.4098173515981735,0.32756756756756755,0.4839814135485449,0.634065934065934,0.4314550042052145,1194.0
534.0,1.7109259762011715e+18,0.4765013054830287,0.4178082191780822,0.34162162162162163,0.5047688921496698,0.6021978021978022,0.4095878889823381,1190.0
535.0,1.7109259762112082e+18,0.47911227154047,0.4155251141552511,0.32756756756756755,0.4839814135485449,0.621978021978022,0.4314550042052145,1192.0
536.0,1.7109259762211397e+18,0.47389033942558745,0.410958904109589,0.33783783783783783,0.4984103692834434,0.6175824175824176,0.4432296047098402,1195.0
537.0,1.7109259762312087e+18,0.4856396866840731,0.4178082191780822,0.3308108108108108,0.5050134507214478,0.6417582417582418,0.432296047098402,1193.0
538.0,1.7109259762412047e+18,0.4765013054830287,0.4166666666666667,0.34054054054054056,0.49033993641477136,0.6032967032967033,0.42052144659377627,1192.0
539.0,1.710925976251196e+18,0.47127937336814624,0.4132420091324201,0.33405405405405403,0.5055025678650037,0.6483516483516484,0.42977291841883936,1192.0
540.0,1.7109259762611218e+18,0.48433420365535246,0.4235159817351598,0.3491891891891892,0.5015896307165566,0.6153846153846154,0.44575273338940286,1196.0
541.0,1.71092597627119e+18,0.47127937336814624,0.410958904109589,0.3254054054054054,0.49620934213744194,0.634065934065934,0.4499579478553406,1197.0
542.0,1.7109259762812116e+18,0.4699738903394256,0.4155251141552511,0.34054054054054056,0.508192712154561,0.6230769230769231,0.41968040370058873,1195.0
543.0,1.7109259762911834e+18,0.4830287206266319,0.4292237442922374,0.3551351351351351,0.5020787478601125,0.6362637362637362,0.44575273338940286,1196.0
544.0,1.7109259763011843e+18,0.46475195822454307,0.3926940639269406,0.3362162162162162,0.49645390070921985,0.5945054945054945,0.43986543313709,1197.0
545.0,1.7109259763111916e+18,0.47389033942558745,0.4200913242009132,0.32216216216216215,0.5099046221570066,0.6252747252747253,0.42640874684608915,1193.0
546.0,1.7109259763212024e+18,0.46736292428198434,0.4098173515981735,0.3362162162162162,0.5094155050134507,0.6263736263736264,0.4381833473507149,1197.0
547.0,1.710925976331219e+18,0.47127937336814624,0.4360730593607306,0.33837837837837836,0.512350207874786,0.6450549450549451,0.43650126156433977,1197.0
548.0,1.7109259763412232e+18,0.4699738903394256,0.4315068493150685,0.34324324324324323,0.5035460992907801,0.6010989010989011,0.4415475189234651,1196.0
549.0,1.710925976351193e+18,0.4804177545691906,0.4029680365296804,0.3172972972972973,0.4996331621423331,0.6274725274725275,0.432296047098402,1193.0
550.0,1.7109259763611889e+18,0.4765013054830287,0.4189497716894977,0.34540540540540543,0.4996331621423331,0.6098901098901099,0.4348191757779647,1194.0
551.0,1.7109259763712e+18,0.4660574412532637,0.3949771689497717,0.3318918918918919,0.5011005135730008,0.6406593406593407,0.4280908326324643,1193.0
552.0,1.710925976381218e+18,0.4765013054830287,0.4200913242009132,0.33945945945945943,0.5064808021521154,0.6230769230769231,0.4306139613120269,1192.0
553.0,1.7109259763912036e+18,0.47780678851174935,0.45662100456621,0.3491891891891892,0.5084372707263389,0.6384615384615384,0.42977291841883936,1192.0
554.0,1.710925976401192e+18,0.48172323759791125,0.4132420091324201,0.3567567567567568,0.5094155050134507,0.6252747252747253,0.4440706476030278,1192.0
555.0,1.7109259764111923e+18,0.4660574412532637,0.4041095890410959,0.3281081081081081,0.5037906578625581,0.6406593406593407,0.43902439024390244,1196.0
556.0,1.7109259764211753e+18,0.46866840731070497,0.4063926940639269,0.33405405405405403,0.49767669356810956,0.6164835164835165,0.4381833473507149,1192.0
557.0,1.7109259764311066e+18,0.47127937336814624,0.4143835616438356,0.3324324324324324,0.5047688921496698,0.6384615384615384,0.43313708999158956,1193.0
558.0,1.7109259764412035e+18,0.47127937336814624,0.4132420091324201,0.34054054054054056,0.4966984592809978,0.6285714285714286,0.44911690496215306,1194.0
559.0,1.7109259764512074e+18,0.4765013054830287,0.4178082191780822,0.3345945945945946,0.5079481535827831,0.6428571428571429,0.3742640874684609,1194.0
560.0,1.7109259764612086e+18,0.4751958224543081,0.4121004566210046,0.34054054054054056,0.5037906578625581,0.6010989010989011,0.4213624894869638,1195.0
561.0,1.710925976471212e+18,0.4765013054830287,0.4132420091324201,0.3324324324324324,0.5108828564441183,0.6362637362637362,0.4373423044575273,1196.0
562.0,1.7109259764811986e+18,0.4830287206266319,0.4429223744292237,0.35081081081081084,0.512594766446564,0.6164835164835165,0.4440706476030278,1194.0
563.0,1.7109259764912018e+18,0.47780678851174935,0.4052511415525114,0.32972972972972975,0.5037906578625581,0.6351648351648351,0.4608915054667788,1197.0
564.0,1.710925976501204e+18,0.4660574412532637,0.4189497716894977,0.34486486486486484,0.5008559550012228,0.6076923076923076,0.4247266610597141,1192.0
565.0,1.71092597651119e+18,0.47911227154047,0.4189497716894977,0.3302702702702703,0.5020787478601125,0.6373626373626373,0.42977291841883936,1194.0
566.0,1.7109259765212032e+18,0.4765013054830287,0.4041095890410959,0.34054054054054056,0.5162631450232331,0.6252747252747253,0.44238856181665265,1197.0
567.0,1.7109259765311928e+18,0.4699738903394256,0.4132420091324201,0.3302702702702703,0.49400831499144043,0.6494505494505495,0.4415475189234651,1196.0
568.0,1.710925976541203e+18,0.46736292428198434,0.4257990867579909,0.34378378378378377,0.4996331621423331,0.6054945054945055,0.4373423044575273,1195.0
569.0,1.710925976551199e+18,0.4908616187989556,0.4063926940639269,0.33135135135135135,0.5006113964294449,0.6428571428571429,0.43902439024390244,1196.0
570.0,1.710925976561201e+18,0.46866840731070497,0.410958904109589,0.3410810810810811,0.4810467106872096,0.5989010989010989,0.44575273338940286,1195.0
571.0,1.7109259765711951e+18,0.44778067885117495,0.4269406392694064,0.33405405405405403,0.4944974321349963,0.6241758241758242,0.4053826745164003,1194.0
572.0,1.71092597658119e+18,0.42950391644908614,0.408675799086758,0.3427027027027027,0.5037906578625581,0.6252747252747253,0.464255677039529,1195.0
573.0,1.7109259765912172e+18,0.46475195822454307,0.4337899543378995,0.3427027027027027,0.504524333577892,0.643956043956044,0.4373423044575273,1195.0
574.0,1.7109259766012052e+18,0.46736292428198434,0.408675799086758,0.33513513513513515,0.5059916850085595,0.6021978021978022,0.43566021867115223,1194.0
575.0,1.710925976611202e+18,0.49477806788511747,0.4075342465753425,0.3302702702702703,0.5103937393005625,0.643956043956044,0.4449116904962153,1195.0
576.0,1.710925976621208e+18,0.48825065274151436,0.432648401826484,0.34054054054054056,0.48985081927121543,0.6054945054945055,0.43986543313709,1198.0
577.0,1.7109259766312105e+18,0.4908616187989556,0.4372146118721461,0.33837837837837836,0.4979212521398875,0.6274725274725275,0.4280908326324643,1194.0
578.0,1.7109259766411932e+18,0.4608355091383812,0.408675799086758,0.33405405405405403,0.49523110785033014,0.6164835164835165,0.4465937762825904,1195.0
579.0,1.7109259766512182e+18,0.4830287206266319,0.4486301369863014,0.33945945945945943,0.4883834678405478,0.6307692307692307,0.44575273338940286,1195.0
580.0,1.7109259766612073e+18,0.4765013054830287,0.4098173515981735,0.34486486486486484,0.4984103692834434,0.6153846153846154,0.4449116904962153,1195.0
581.0,1.710925976671216e+18,0.4699738903394256,0.4223744292237443,0.34486486486486484,0.49205184641721694,0.6186813186813187,0.447434819175778,1196.0
582.0,1.7109259766811914e+18,0.49477806788511747,0.4041095890410959,0.33513513513513515,0.4996331621423331,0.610989010989011,0.4381833473507149,1194.0
583.0,1.7109259766911964e+18,0.47911227154047,0.4235159817351598,0.33837837837837836,0.5155294693078992,0.6505494505494506,0.4440706476030278,1196.0
584.0,1.710925976701202e+18,0.4765013054830287,0.4383561643835616,0.34702702702702704,0.5028124235754463,0.6175824175824176,0.4667788057190917,1195.0
585.0,1.710925976712078e+18,0.4804177545691906,0.3892694063926941,0.3254054054054054,0.48813890926876985,0.6307692307692307,0.4667788057190917,1194.0
586.0,1.710925976721208e+18,0.5143603133159269,0.4589041095890411,0.3491891891891892,0.5172413793103449,0.6230769230769231,0.4482758620689655,1195.0
587.0,1.7109259767311933e+18,0.4725848563968668,0.4075342465753425,0.32216216216216215,0.5358278307654684,0.6494505494505495,0.4339781328847771,1194.0
588.0,1.7109259767411955e+18,0.47911227154047,0.4178082191780822,0.33837837837837836,0.5074590364392272,0.6230769230769231,0.4432296047098402,1196.0
589.0,1.7109259767511954e+18,0.48172323759791125,0.4200913242009132,0.3335135135135135,0.49767669356810956,0.634065934065934,0.43566021867115223,1195.0
590.0,1.710925976761206e+18,0.45691906005221933,0.365296803652968,0.32216216216216215,0.4969430178527757,0.5736263736263736,0.4238856181665265,1192.0
591.0,1.7109259767711964e+18,0.4934725848563969,0.4052511415525114,0.3210810810810811,0.5015896307165566,0.6395604395604395,0.4348191757779647,1196.0
592.0,1.7109259767812073e+18,0.5052219321148825,0.3881278538812785,0.33135135135135135,0.5059916850085595,0.6197802197802198,0.4558452481076535,1195.0
593.0,1.7109259767912046e+18,0.4660574412532637,0.4041095890410959,0.3264864864864865,0.5064808021521154,0.6450549450549451,0.44911690496215306,1196.0
594.0,1.7109259768012012e+18,0.4856396866840731,0.4132420091324201,0.3389189189189189,0.5094155050134507,0.6065934065934065,0.42640874684608915,1192.0
595.0,1.7109259768111987e+18,0.4765013054830287,0.4178082191780822,0.33297297297297296,0.49498654927855223,0.6362637362637362,0.4348191757779647,1198.0
596.0,1.7109259768212063e+18,0.4699738903394256,0.4075342465753425,0.3302702702702703,0.504035216434336,0.6230769230769231,0.44575273338940286,1196.0
597.0,1.710925976831167e+18,0.47911227154047,0.4178082191780822,0.3302702702702703,0.5011005135730008,0.6329670329670329,0.43650126156433977,1194.0
598.0,1.7109259768412027e+18,0.4765013054830287,0.4292237442922374,0.3491891891891892,0.49767669356810956,0.6032967032967033,0.4415475189234651,1197.0
599.0,1.7109259768512038e+18,0.4751958224543081,0.4121004566210046,0.3291891891891892,0.5020787478601125,0.6428571428571429,0.4289318755256518,1193.0
600.0,1.7109259768612052e+18,0.48172323759791125,0.4132420091324201,0.33837837837837836,0.495964783565664,0.6076923076923076,0.43566021867115223,1197.0
601.0,1.7109259768712102e+18,0.4765013054830287,0.4246575342465753,0.3318918918918919,0.4991440449987772,0.6384615384615384,0.43313708999158956,1196.0
602.0,1.7109259768812024e+18,0.45039164490861616,0.4121004566210046,0.3427027027027027,0.5025678650036683,0.610989010989011,0.43650126156433977,1197.0
603.0,1.7109259768912166e+18,0.5,0.4223744292237443,0.3291891891891892,0.49938860357055515,0.6318681318681318,0.40370058873002523,1194.0
604.0,1.7109259769012083e+18,0.47389033942558745,0.386986301369863,0.3308108108108108,0.49229640498899485,0.6153846153846154,0.4129520605550883,1195.0
605.0,1.710925976911203e+18,0.48825065274151436,0.4223744292237443,0.3308108108108108,0.48911714355588165,0.6406593406593407,0.4415475189234651,1196.0
606.0,1.710925976921205e+18,0.47127937336814624,0.4132420091324201,0.34486486486486484,0.5218879921741257,0.6197802197802198,0.44575273338940286,1197.0
607.0,1.7109259769312087e+18,0.4804177545691906,0.4315068493150685,0.3362162162162162,0.495964783565664,0.6406593406593407,0.4558452481076535,1193.0
608.0,1.7109259769412052e+18,0.47389033942558745,0.4178082191780822,0.33837837837837836,0.5001222792858889,0.6087912087912087,0.43650126156433977,1195.0
609.0,1.710925976951208e+18,0.47127937336814624,0.4029680365296804,0.3281081081081081,0.5025678650036683,0.6296703296703297,0.4507989907485282,1197.0
610.0,1.7109259769612088e+18,0.4804177545691906,0.4337899543378995,0.34054054054054056,0.504279775006114,0.5956043956043956,0.4415475189234651,1197.0
611.0,1.710925976971208e+18,0.43733681462140994,0.410958904109589,0.33405405405405403,0.4986549278552213,0.6384615384615384,0.45248107653490327,1198.0
612.0,1.710925976981211e+18,0.489556135770235,0.4155251141552511,0.34,0.5103937393005625,0.6043956043956044,0.40706476030277544,1195.0
613.0,1.7109259769912164e+18,0.47389033942558745,0.4246575342465753,0.33135135135135135,0.4984103692834434,0.6373626373626373,0.4499579478553406,1199.0
614.0,1.7109259770012106e+18,0.48172323759791125,0.4269406392694064,0.3497297297297297,0.5013450721447786,0.610989010989011,0.4348191757779647,1196.0
615.0,1.7109259770112105e+18,0.4869451697127937,0.4178082191780822,0.32972972972972975,0.49058449498654927,0.6263736263736264,0.4306139613120269,1193.0
616.0,1.71092597702121e+18,0.54177545691906,0.4429223744292237,0.34702702702702704,0.5025678650036683,0.6241758241758242,0.45500420521446594,1198.0
617.0,1.7109259770312266e+18,0.49216710182767626,0.4178082191780822,0.3324324324324324,0.5067253607238934,0.6318681318681318,0.43650126156433977,1197.0
618.0,1.7109259770412157e+18,0.4556135770234987,0.4098173515981735,0.34054054054054056,0.5001222792858889,0.6054945054945055,0.4415475189234651,1194.0
619.0,1.710925977051209e+18,0.4464751958224543,0.4041095890410959,0.3264864864864865,0.48202494497432136,0.6098901098901099,0.4381833473507149,1195.0
620.0,1.7109259770612134e+18,0.4725848563968668,0.4006849315068493,0.3372972972972973,0.5084372707263389,0.6230769230769231,0.42304457527333894,1192.0
621.0,1.710925977071214e+18,0.42950391644908614,0.3824200913242009,0.32432432432432434,0.5011005135730008,0.6362637362637362,0.400336417157275,1193.0
622.0,1.7109259770812127e+18,0.5039164490861618,0.4132420091324201,0.3372972972972973,0.49938860357055515,0.6153846153846154,0.43650126156433977,1196.0
623.0,1.7109259770912143e+18,0.5143603133159269,0.4611872146118721,0.33405405405405403,0.5059916850085595,0.6252747252747253,0.3582842724978974,1192.0
624.0,1.7109259771012106e+18,0.4765013054830287,0.3949771689497717,0.34324324324324323,0.5015896307165566,0.6131868131868132,0.45164003364171573,1194.0
625.0,1.710925977111195e+18,0.4660574412532637,0.3995433789954338,0.3264864864864865,0.5006113964294449,0.6230769230769231,0.4222035323801514,1194.0
626.0,1.710925977121213e+18,0.4765013054830287,0.4155251141552511,0.3389189189189189,0.5035460992907801,0.6131868131868132,0.4482758620689655,1196.0
627.0,1.7109259771312133e+18,0.47780678851174935,0.4143835616438356,0.3291891891891892,0.5006113964294449,0.6395604395604395,0.4415475189234651,1194.0
628.0,1.710925977141215e+18,0.4869451697127937,0.4280821917808219,0.35135135135135137,0.5062362435803375,0.634065934065934,0.4482758620689655,1196.0
629.0,1.7109259771512202e+18,0.47911227154047,0.4212328767123288,0.3308108108108108,0.4942528735632184,0.6362637362637362,0.43986543313709,1194.0
630.0,1.7109259771611953e+18,0.48172323759791125,0.4189497716894977,0.34486486486486484,0.5047688921496698,0.6164835164835165,0.43902439024390244,1196.0
631.0,1.7109259771711954e+18,0.47389033942558745,0.4063926940639269,0.32432432432432434,0.4988994864269993,0.6472527472527473,0.45500420521446594,1196.0
632.0,1.7109259771812165e+18,0.47780678851174935,0.4178082191780822,0.3410810810810811,0.48789435069699194,0.6131868131868132,0.44238856181665265,1195.0
633.0,1.710925977191215e+18,0.489556135770235,0.4246575342465753,0.33405405405405403,0.5074590364392272,0.6131868131868132,0.44575273338940286,1196.0
634.0,1.7109259772011935e+18,0.43994778067885115,0.4121004566210046,0.3389189189189189,0.512350207874786,0.6131868131868132,0.44575273338940286,1195.0
635.0,1.7109259772112187e+18,0.47127937336814624,0.3892694063926941,0.3183783783783784,0.4966984592809978,0.6362637362637362,0.4373423044575273,1194.0
636.0,1.7109259772212193e+18,0.46866840731070497,0.4132420091324201,0.33837837837837836,0.5121056493030081,0.6142857142857143,0.43902439024390244,1195.0
637.0,1.7109259772312005e+18,0.5248041775456919,0.4315068493150685,0.3286486486486486,0.5077035950110051,0.6648351648351648,0.4533221194280908,1194.0
638.0,1.7109259772412308e+18,0.47127937336814624,0.4132420091324201,0.3362162162162162,0.5059916850085595,0.6164835164835165,0.4432296047098402,1196.0
639.0,1.7109259772511887e+18,0.4804177545691906,0.4280821917808219,0.3345945945945946,0.5094155050134507,0.6516483516483517,0.4432296047098402,1195.0
640.0,1.7109259772611968e+18,0.48172323759791125,0.4075342465753425,0.3345945945945946,0.4986549278552213,0.5967032967032967,0.4028595458368377,1194.0
641.0,1.7109259772711972e+18,0.4621409921671018,0.3892694063926941,0.3210810810810811,0.512350207874786,0.6131868131868132,0.4121110176619008,1194.0
642.0,1.7109259772812244e+18,0.4934725848563969,0.4417808219178082,0.34540540540540543,0.5101491807287846,0.6010989010989011,0.44911690496215306,1196.0
643.0,1.7109259772911995e+18,0.46736292428198434,0.408675799086758,0.3324324324324324,0.48324773783321107,0.6307692307692307,0.4222035323801514,1194.0
644.0,1.7109259773012058e+18,0.46866840731070497,0.4200913242009132,0.34594594594594597,0.5074590364392272,0.610989010989011,0.43902439024390244,1198.0
645.0,1.7109259773112028e+18,0.4660574412532637,0.386986301369863,0.32756756756756755,0.5020787478601125,0.6373626373626373,0.4146341463414634,1194.0
646.0,1.7109259773211996e+18,0.47127937336814624,0.408675799086758,0.3362162162162162,0.5018341892883346,0.5967032967032967,0.43986543313709,1198.0
647.0,1.7109259773312e+18,0.47127937336814624,0.410958904109589,0.3264864864864865,0.487649792125214,0.6186813186813187,0.4415475189234651,1196.0
648.0,1.7109259773411418e+18,0.46866840731070497,0.4680365296803653,0.3654054054054054,0.5018341892883346,0.6098901098901099,0.46509671993271656,1196.0
649.0,1.71092597735116e+18,0.46736292428198434,0.4018264840182648,0.3291891891891892,0.4971875764245537,0.6274725274725275,0.4608915054667788,1196.0
650.0,1.710925977361207e+18,0.4725848563968668,0.4178082191780822,0.3389189189189189,0.48985081927121543,0.6010989010989011,0.41968040370058873,1193.0
651.0,1.7109259773712013e+18,0.4660574412532637,0.408675799086758,0.3302702702702703,0.48813890926876985,0.6230769230769231,0.48359966358284273,1195.0
652.0,1.7109259773812027e+18,0.47911227154047,0.4269406392694064,0.34,0.5050134507214478,0.6153846153846154,0.44911690496215306,1196.0
653.0,1.7109259773912384e+18,0.4699738903394256,0.410958904109589,0.3286486486486486,0.504524333577892,0.6505494505494506,0.40117746005046256,1194.0
654.0,1.710925977401188e+18,0.4699738903394256,0.410958904109589,0.33783783783783783,0.49033993641477136,0.6021978021978022,0.4121110176619008,1192.0
655.0,1.710925977411202e+18,0.47127937336814624,0.4155251141552511,0.33513513513513515,0.4979212521398875,0.6461538461538462,0.4482758620689655,1195.0
656.0,1.710925977421199e+18,0.47127937336814624,0.4246575342465753,0.34486486486486484,0.5062362435803375,0.5956043956043956,0.4339781328847771,1195.0
657.0,1.7109259774312005e+18,0.47127937336814624,0.4063926940639269,0.3286486486486486,0.508192712154561,0.6626373626373626,0.44238856181665265,1197.0
658.0,1.7109259774412265e+18,0.4725848563968668,0.4098173515981735,0.3345945945945946,0.5067253607238934,0.6131868131868132,0.4381833473507149,1193.0
659.0,1.710925977451217e+18,0.47911227154047,0.4452054794520548,0.3362162162162162,0.5069699192956714,0.6428571428571429,0.4608915054667788,1196.0
660.0,1.7109259774612063e+18,0.49216710182767626,0.4235159817351598,0.34054054054054056,0.504524333577892,0.5967032967032967,0.471825063078217,1194.0
661.0,1.710925977471199e+18,0.4765013054830287,0.4132420091324201,0.33135135135135135,0.5064808021521154,0.6494505494505495,0.44911690496215306,1196.0
662.0,1.7109259774812145e+18,0.47911227154047,0.4121004566210046,0.3491891891891892,0.5052580092932257,0.6010989010989011,0.42977291841883936,1193.0
663.0,1.7109259774912108e+18,0.4765013054830287,0.4075342465753425,0.33135135135135135,0.5096600635852286,0.6637362637362637,0.44238856181665265,1196.0
664.0,1.7109259775011894e+18,0.46344647519582244,0.454337899543379,0.34702702702702704,0.5003668378576669,0.6197802197802198,0.46173254835996635,1198.0
665.0,1.7109259775111977e+18,0.4621409921671018,0.4121004566210046,0.33297297297297296,0.5020787478601125,0.6197802197802198,0.4381833473507149,1196.0
666.0,1.7109259775211996e+18,0.4608355091383812,0.4178082191780822,0.34162162162162163,0.5106382978723404,0.6164835164835165,0.38772077375946173,1193.0
667.0,1.7109259775311974e+18,0.47127937336814624,0.4121004566210046,0.3324324324324324,0.5018341892883346,0.6428571428571429,0.43902439024390244,1195.0
668.0,1.7109259775412032e+18,0.4608355091383812,0.3904109589041096,0.32594594594594595,0.508192712154561,0.6164835164835165,0.432296047098402,1194.0
669.0,1.71092597755116e+18,0.5026109660574413,0.4589041095890411,0.3427027027027027,0.5108828564441183,0.6274725274725275,0.40454163162321277,1191.0
670.0,1.7109259775611999e+18,0.4699738903394256,0.3584474885844749,0.31945945945945947,0.5006113964294449,0.6087912087912087,0.45500420521446594,1197.0
671.0,1.7109259775711992e+18,0.4830287206266319,0.408675799086758,0.3232432432432432,0.4942528735632184,0.610989010989011,0.42640874684608915,1195.0
672.0,1.710925977581215e+18,0.46736292428198434,0.410958904109589,0.33837837837837836,0.5077035950110051,0.6164835164835165,0.4381833473507149,1194.0
673.0,1.7109259775912143e+18,0.46736292428198434,0.4246575342465753,0.33513513513513515,0.5050134507214478,0.6230769230769231,0.4314550042052145,1192.0
674.0,1.7109259776011843e+18,0.48433420365535246,0.3949771689497717,0.3335135135135135,0.48642699926632427,0.6098901098901099,0.46173254835996635,1194.0
675.0,1.7109259776112105e+18,0.48433420365535246,0.4155251141552511,0.3254054054054054,0.4930300807043287,0.6362637362637362,0.45248107653490327,1197.0
676.0,1.7109259776212063e+18,0.4725848563968668,0.432648401826484,0.34324324324324323,0.5118610907312301,0.6186813186813187,0.4415475189234651,1198.0
677.0,1.7109259776312038e+18,0.47389033942558745,0.4406392694063927,0.34,0.5035460992907801,0.6362637362637362,0.43902439024390244,1195.0
678.0,1.7109259776411976e+18,0.46736292428198434,0.4006849315068493,0.3281081081081081,0.49767669356810956,0.5967032967032967,0.43650126156433977,1197.0
679.0,1.7109259776512067e+18,0.48433420365535246,0.4143835616438356,0.32756756756756755,0.49938860357055515,0.6483516483516484,0.41715727502102606,1193.0
680.0,1.7109259776612001e+18,0.46736292428198434,0.4098173515981735,0.3362162162162162,0.512594766446564,0.6131868131868132,0.4146341463414634,1192.0
681.0,1.710925977671198e+18,0.4660574412532637,0.4029680365296804,0.3291891891891892,0.5055025678650037,0.5989010989010989,0.43313708999158956,1192.0
682.0,1.7109259776811953e+18,0.4765013054830287,0.4292237442922374,0.34378378378378377,0.5035460992907801,0.6098901098901099,0.4592094196804037,1194.0
683.0,1.7109259776912123e+18,0.4725848563968668,0.4246575342465753,0.32972972972972975,0.49767669356810956,0.6329670329670329,0.4306139613120269,1192.0
684.0,1.7109259777012206e+18,0.47780678851174935,0.4075342465753425,0.33837837837837836,0.49400831499144043,0.6131868131868132,0.447434819175778,1195.0
685.0,1.7109259777111846e+18,0.46475195822454307,0.3961187214611872,0.32216216216216215,0.5059916850085595,0.6395604395604395,0.43313708999158956,1192.0
686.0,1.7109259777211945e+18,0.48825065274151436,0.4052511415525114,0.34216216216216216,0.5033015407190022,0.6032967032967033,0.4062237174095879,1193.0
687.0,1.7109259777311977e+18,0.46866840731070497,0.4041095890410959,0.32972972972972975,0.5001222792858889,0.6384615384615384,0.44911690496215306,1196.0
688.0,1.7109259777411958e+18,0.47127937336814624,0.3858447488584475,0.3291891891891892,0.4937637564196625,0.6,0.4499579478553406,1194.0
689.0,1.7109259777512077e+18,0.489556135770235,0.4155251141552511,0.33297297297297296,0.5047688921496698,0.6516483516483517,0.43902439024390244,1195.0
690.0,1.710925977761205e+18,0.4869451697127937,0.4383561643835616,0.3572972972972973,0.5064808021521154,0.6142857142857143,0.4449116904962153,1195.0
691.0,1.7109259777712003e+18,0.4751958224543081,0.4155251141552511,0.32216216216216215,0.5011005135730008,0.6274725274725275,0.415475189234651,1193.0
692.0,1.7109259777812035e+18,0.46866840731070497,0.408675799086758,0.3410810810810811,0.5094155050134507,0.6186813186813187,0.46509671993271656,1194.0
693.0,1.7109259777912005e+18,0.4765013054830287,0.4189497716894977,0.34054054054054056,0.487649792125214,0.6450549450549451,0.4289318755256518,1192.0
694.0,1.7109259778012155e+18,0.489556135770235,0.4349315068493151,0.33945945945945943,0.5106382978723404,0.6098901098901099,0.4449116904962153,1193.0
695.0,1.7109259778111908e+18,0.47389033942558745,0.3892694063926941,0.3286486486486486,0.49082905355832723,0.6318681318681318,0.45248107653490327,1195.0
696.0,1.710925977821197e+18,0.4804177545691906,0.4121004566210046,0.34594594594594597,0.5001222792858889,0.5857142857142857,0.4449116904962153,1194.0
697.0,1.710925977831197e+18,0.47389033942558745,0.4075342465753425,0.32,0.5001222792858889,0.6450549450549451,0.4146341463414634,1190.0
698.0,1.7109259778411945e+18,0.4804177545691906,0.4132420091324201,0.34162162162162163,0.49620934213744194,0.6065934065934065,0.4465937762825904,1195.0
699.0,1.7109259778512087e+18,0.4765013054830287,0.4246575342465753,0.34054054054054056,0.5001222792858889,0.6450549450549451,0.3969722455845248,1192.0
700.0,1.710925977861201e+18,0.4725848563968668,0.4041095890410959,0.3345945945945946,0.49816581071166544,0.6164835164835165,0.447434819175778,1194.0
701.0,1.7109259778711992e+18,0.49477806788511747,0.410958904109589,0.3362162162162162,0.5057471264367817,0.6241758241758242,0.4659377628259041,1194.0
702.0,1.710925977881199e+18,0.47127937336814624,0.4349315068493151,0.3362162162162162,0.5106382978723404,0.621978021978022,0.4415475189234651,1196.0
703.0,1.7109259778912182e+18,0.4699738903394256,0.4143835616438356,0.3324324324324324,0.5067253607238934,0.6362637362637362,0.4373423044575273,1194.0
704.0,1.7109259779012204e+18,0.46736292428198434,0.4018264840182648,0.3324324324324324,0.5067253607238934,0.6285714285714286,0.44911690496215306,1196.0
705.0,1.7109259779112159e+18,0.4869451697127937,0.4121004566210046,0.3308108108108108,0.4991440449987772,0.6362637362637362,0.4449116904962153,1194.0
706.0,1.7109259779211935e+18,0.47911227154047,0.4063926940639269,0.3362162162162162,0.5084372707263389,0.6,0.41715727502102606,1194.0
707.0,1.7109259779311951e+18,0.4765013054830287,0.4189497716894977,0.33297297297297296,0.4859378821227684,0.6373626373626373,0.4449116904962153,1197.0
708.0,1.7109259779411912e+18,0.47911227154047,0.4360730593607306,0.3535135135135135,0.5035460992907801,0.6142857142857143,0.4499579478553406,1197.0
709.0,1.7109259779511916e+18,0.47780678851174935,0.408675799086758,0.32756756756756755,0.4930300807043287,0.6285714285714286,0.43650126156433977,1195.0
710.0,1.7109259779612035e+18,0.47389033942558745,0.4520547945205479,0.3389189189189189,0.5064808021521154,0.621978021978022,0.4314550042052145,1191.0
711.0,1.7109259779712044e+18,0.47911227154047,0.45662100456621,0.3389189189189189,0.4844705306921008,0.6329670329670329,0.3885618166526493,1191.0
712.0,1.7109259779812165e+18,0.47127937336814624,0.4269406392694064,0.3589189189189189,0.5015896307165566,0.6076923076923076,0.4533221194280908,1198.0
713.0,1.7109259779912128e+18,0.4765013054830287,0.4143835616438356,0.3291891891891892,0.5062362435803375,0.634065934065934,0.4449116904962153,1195.0
714.0,1.7109259780012255e+18,0.4725848563968668,0.4166666666666667,0.34162162162162163,0.5025678650036683,0.6021978021978022,0.4373423044575273,1194.0
715.0,1.7109259780112118e+18,0.47389033942558745,0.4143835616438356,0.33297297297297296,0.504279775006114,0.6505494505494506,0.4381833473507149,1193.0
716.0,1.7109259780215224e+18,0.4830287206266319,0.4132420091324201,0.34162162162162163,0.47542186353631694,0.5703296703296703,0.4112699747687132,1193.0
717.0,1.7109259780312154e+18,0.4725848563968668,0.4121004566210046,0.3345945945945946,0.5064808021521154,0.6296703296703297,0.4255677039529016,1193.0
718.0,1.7109259780411986e+18,0.4725848563968668,0.4006849315068493,0.34486486486486484,0.5047688921496698,0.6197802197802198,0.4339781328847771,1193.0
719.0,1.7109259780512054e+18,0.4869451697127937,0.4041095890410959,0.3216216216216216,0.4996331621423331,0.6406593406593407,0.4693019343986543,1197.0
720.0,1.7109259780612078e+18,0.4660574412532637,0.4029680365296804,0.34216216216216216,0.49033993641477136,0.6076923076923076,0.4701429772918419,1195.0
721.0,1.7109259780712056e+18,0.4725848563968668,0.3984018264840183,0.327027027027027,0.4991440449987772,0.6318681318681318,0.4449116904962153,1196.0
722.0,1.710925978081207e+18,0.47127937336814624,0.4178082191780822,0.33837837837837836,0.5055025678650037,0.6142857142857143,0.4432296047098402,1197.0
723.0,1.710925978091169e+18,0.4725848563968668,0.4006849315068493,0.3227027027027027,0.5003668378576669,0.6307692307692307,0.471825063078217,1195.0
724.0,1.71092597810121e+18,0.4765013054830287,0.3961187214611872,0.3302702702702703,0.49767669356810956,0.6142857142857143,0.4415475189234651,1197.0
725.0,1.7109259781112648e+18,0.4699738903394256,0.4212328767123288,0.3362162162162162,0.5072144778674492,0.6395604395604395,0.44911690496215306,1195.0
726.0,1.710925978121245e+18,0.4765013054830287,0.4360730593607306,0.3410810810810811,0.5133284421618978,0.6197802197802198,0.4533221194280908,1195.0
727.0,1.7109259781311857e+18,0.46866840731070497,0.4006849315068493,0.32594594594594595,0.4974321349963316,0.6428571428571429,0.43313708999158956,1196.0
728.0,1.7109259781412073e+18,0.4725848563968668,0.4098173515981735,0.34540540540540543,0.5067253607238934,0.5857142857142857,0.4449116904962153,1197.0
729.0,1.7109259781512138e+18,0.4765013054830287,0.4121004566210046,0.32594594594594595,0.5015896307165566,0.6406593406593407,0.42977291841883936,1193.0
730.0,1.7109259781612096e+18,0.47780678851174935,0.4041095890410959,0.33837837837837836,0.49523110785033014,0.6318681318681318,0.4465937762825904,1197.0
731.0,1.7109259781712161e+18,0.47780678851174935,0.4063926940639269,0.3232432432432432,0.5101491807287846,0.6582417582417582,0.4482758620689655,1196.0
732.0,1.7109259781812096e+18,0.47911227154047,0.4429223744292237,0.3464864864864865,0.5138175593054537,0.6120879120879121,0.4625735912531539,1197.0
733.0,1.7109259781912312e+18,0.48172323759791125,0.4189497716894977,0.33405405405405403,0.512350207874786,0.6758241758241759,0.45836837678721615,1195.0
734.0,1.7109259782011663e+18,0.4699738903394256,0.4143835616438356,0.3389189189189189,0.5079481535827831,0.6494505494505495,0.4878048780487805,1193.0
735.0,1.7109259782112276e+18,0.47780678851174935,0.4006849315068493,0.31945945945945947,0.49816581071166544,0.6252747252747253,0.503784693019344,1196.0
736.0,1.7109259782211604e+18,0.4934725848563969,0.3732876712328767,0.3216216216216216,0.48202494497432136,0.6021978021978022,0.4432296047098402,1197.0
737.0,1.710925978231201e+18,0.48172323759791125,0.3995433789954338,0.3302702702702703,0.5079481535827831,0.6637362637362637,0.4432296047098402,1193.0
738.0,1.7109259782412086e+18,0.4765013054830287,0.4200913242009132,0.3443243243243243,0.48985081927121543,0.6043956043956044,0.4314550042052145,1193.0
739.0,1.710925978251209e+18,0.47389033942558745,0.4269406392694064,0.34594594594594597,0.5050134507214478,0.6373626373626373,0.46846089150546677,1194.0
740.0,1.71092597826121e+18,0.47780678851174935,0.4406392694063927,0.3535135135135135,0.5008559550012228,0.6241758241758242,0.4272497897392767,1192.0
741.0,1.710925978271221e+18,0.4765013054830287,0.4166666666666667,0.33837837837837836,0.4776228906823184,0.6120879120879121,0.4920100925147183,1196.0
742.0,1.7109259782812244e+18,0.46866840731070497,0.3995433789954338,0.33135135135135135,0.4984103692834434,0.6241758241758242,0.44911690496215306,1194.0
743.0,1.7109259782912558e+18,0.48433420365535246,0.4063926940639269,0.32972972972972975,0.5108828564441183,0.6582417582417582,0.46173254835996635,1195.0
744.0,1.7109259783012142e+18,0.47127937336814624,0.3926940639269406,0.3324324324324324,0.5055025678650037,0.6208791208791209,0.464255677039529,1195.0
745.0,1.7109259783112343e+18,0.4869451697127937,0.4223744292237443,0.3318918918918919,0.5023233064318905,0.6637362637362637,0.471825063078217,1196.0
746.0,1.7109259783212378e+18,0.4765013054830287,0.4166666666666667,0.3362162162162162,0.4927855221325507,0.6054945054945055,0.47098402018502944,1197.0
747.0,1.710925978331206e+18,0.47389033942558745,0.3915525114155251,0.3264864864864865,0.504035216434336,0.6582417582417582,0.42640874684608915,1192.0
748.0,1.7109259783412152e+18,0.4830287206266319,0.3949771689497717,0.3281081081081081,0.5023233064318905,0.6241758241758242,0.44911690496215306,1196.0
749.0,1.7109259783512125e+18,0.47127937336814624,0.4383561643835616,0.3535135135135135,0.5113719735876743,0.6054945054945055,0.35576114381833474,1192.0
750.0,1.7109259783612147e+18,0.4725848563968668,0.4052511415525114,0.3286486486486486,0.5172413793103449,0.6153846153846154,0.43650126156433977,1196.0
751.0,1.7109259783712166e+18,0.46866840731070497,0.4235159817351598,0.3248648648648649,0.491807287845439,0.634065934065934,0.4381833473507149,1194.0
752.0,1.7109259783812122e+18,0.4869451697127937,0.4257990867579909,0.34162162162162163,0.5162631450232331,0.6252747252747253,0.4634146341463415,1194.0
753.0,1.710925978391241e+18,0.48433420365535246,0.4178082191780822,0.3291891891891892,0.5035460992907801,0.6373626373626373,0.46509671993271656,1196.0
754.0,1.710925978401214e+18,0.4608355091383812,0.3812785388127854,0.32594594594594595,0.4886280264123258,0.5483516483516484,0.4146341463414634,1191.0
755.0,1.7109259784112246e+18,0.48433420365535246,0.4006849315068493,0.3178378378378378,0.4991440449987772,0.6516483516483517,0.44238856181665265,1197.0
756.0,1.7109259784212864e+18,0.47389033942558745,0.4360730593607306,0.3362162162162162,0.5047688921496698,0.6230769230769231,0.4163162321278385,1193.0
757.0,1.7109259784312148e+18,0.47127937336814624,0.4178082191780822,0.32756756756756755,0.4944974321349963,0.6197802197802198,0.4751892346509672,1196.0
758.0,1.7109259784412076e+18,0.4699738903394256,0.4018264840182648,0.3308108108108108,0.5069699192956714,0.621978021978022,0.4533221194280908,1195.0
759.0,1.7109259784512535e+18,0.48172323759791125,0.4166666666666667,0.3362162162162162,0.4805575935436537,0.6494505494505495,0.4146341463414634,1195.0
760.0,1.7109259784612175e+18,0.4804177545691906,0.4349315068493151,0.3464864864864865,0.5037906578625581,0.6087912087912087,0.43986543313709,1197.0
761.0,1.7109259784712494e+18,0.4725848563968668,0.4121004566210046,0.32756756756756755,0.4966984592809978,0.6274725274725275,0.447434819175778,1196.0
762.0,1.7109259784812055e+18,0.4699738903394256,0.4360730593607306,0.34324324324324323,0.5028124235754463,0.6120879120879121,0.41968040370058873,1193.0
763.0,1.7109259784912197e+18,0.4751958224543081,0.4337899543378995,0.3362162162162162,0.4930300807043287,0.6175824175824176,0.46509671993271656,1196.0
764.0,1.7109259785012188e+18,0.46736292428198434,0.3915525114155251,0.3335135135135135,0.5091709464416728,0.6230769230769231,0.4634146341463415,1196.0
765.0,1.7109259785112156e+18,0.4804177545691906,0.4063926940639269,0.33297297297297296,0.5033015407190022,0.6296703296703297,0.4188393608074012,1192.0
766.0,1.7109259785212147e+18,0.4765013054830287,0.4200913242009132,0.3286486486486486,0.5116165321594522,0.6406593406593407,0.456686291000841,1196.0
767.0,1.7109259785314301e+18,0.4725848563968668,0.4212328767123288,0.33675675675675676,0.499877720714111,0.6318681318681318,0.44911690496215306,1196.0
768.0,1.7109259785412186e+18,0.4751958224543081,0.4143835616438356,0.3427027027027027,0.5018341892883346,0.5989010989010989,0.42052144659377627,1194.0
769.0,1.710925978551221e+18,0.4765013054830287,0.4349315068493151,0.3362162162162162,0.4937637564196625,0.6516483516483517,0.3936080740117746,1193.0
770.0,1.7109259785612221e+18,0.45822454308093996,0.4223744292237443,0.34540540540540543,0.5128393250183418,0.6098901098901099,0.3826745164003364,1194.0
771.0,1.7109259785712218e+18,0.48825065274151436,0.4223744292237443,0.3324324324324324,0.5101491807287846,0.6505494505494506,0.4634146341463415,1194.0
772.0,1.7109259785812434e+18,0.4725848563968668,0.4121004566210046,0.3356756756756757,0.5030569821472243,0.6329670329670329,0.456686291000841,1197.0
773.0,1.710925978591222e+18,0.4869451697127937,0.4143835616438356,0.3216216216216216,0.495964783565664,0.6384615384615384,0.4415475189234651,1195.0
774.0,1.7109259786012124e+18,0.47911227154047,0.4200913242009132,0.34324324324324323,0.5099046221570066,0.6010989010989011,0.3708999158957107,1191.0
775.0,1.7109259786112763e+18,0.4699738903394256,0.4315068493150685,0.3308108108108108,0.4996331621423331,0.6494505494505495,0.432296047098402,1193.0
776.0,1.7109259786212319e+18,0.4765013054830287,0.4235159817351598,0.3464864864864865,0.5028124235754463,0.6285714285714286,0.43902439024390244,1195.0
777.0,1.7109259786312018e+18,0.4830287206266319,0.4178082191780822,0.33405405405405403,0.5157740278796772,0.6285714285714286,0.4440706476030278,1195.0
778.0,1.7109259786412124e+18,0.47780678851174935,0.4554794520547945,0.34702702702702704,0.5077035950110051,0.6098901098901099,0.4339781328847771,1194.0
779.0,1.7109259786512236e+18,0.46344647519582244,0.3961187214611872,0.31675675675675674,0.49327463927610665,0.6384615384615384,0.447434819175778,1197.0
780.0,1.7109259786612078e+18,0.46475195822454307,0.4360730593607306,0.33945945945945943,0.5096600635852286,0.6142857142857143,0.43902439024390244,1195.0
781.0,1.710925978671207e+18,0.46736292428198434,0.4292237442922374,0.3372972972972973,0.5015896307165566,0.621978021978022,0.42052144659377627,1193.0
782.0,1.7109259786812104e+18,0.47127937336814624,0.4155251141552511,0.33783783783783783,0.5050134507214478,0.6,0.4348191757779647,1194.0
783.0,1.7109259786911808e+18,0.47127937336814624,0.4041095890410959,0.3291891891891892,0.5052580092932257,0.6329670329670329,0.46846089150546677,1195.0
784.0,1.710925978701242e+18,0.47127937336814624,0.4178082191780822,0.34054054054054056,0.5035460992907801,0.6,0.4482758620689655,1195.0
785.0,1.710925978711177e+18,0.4765013054830287,0.4200913242009132,0.3389189189189189,0.5072144778674492,0.6461538461538462,0.432296047098402,1192.0
786.0,1.7109259787212047e+18,0.4725848563968668,0.3949771689497717,0.3318918918918919,0.49767669356810956,0.6208791208791209,0.4381833473507149,1195.0
787.0,1.7109259787312087e+18,0.4804177545691906,0.4041095890410959,0.32756756756756755,0.49351919784788456,0.6252747252747253,0.4449116904962153,1194.0
788.0,1.7109259787412398e+18,0.46866840731070497,0.4052511415525114,0.3372972972972973,0.5155294693078992,0.6450549450549451,0.45500420521446594,1199.0
789.0,1.7109259787512297e+18,0.4765013054830287,0.4052511415525114,0.3345945945945946,0.504035216434336,0.6252747252747253,0.4558452481076535,1196.0
790.0,1.710925978761219e+18,0.46866840731070497,0.4052511415525114,0.33837837837837836,0.5108828564441183,0.6076923076923076,0.4449116904962153,1195.0
791.0,1.7109259787712225e+18,0.47911227154047,0.4132420091324201,0.33675675675675676,0.512350207874786,0.634065934065934,0.4280908326324643,1192.0
792.0,1.710925978781207e+18,0.46344647519582244,0.3641552511415525,0.3324324324324324,0.48936170212765956,0.6197802197802198,0.47771236333052985,1196.0
793.0,1.7109259787912064e+18,0.47911227154047,0.3915525114155251,0.32756756756756755,0.5064808021521154,0.6329670329670329,0.45164003364171573,1194.0
794.0,1.7109259788012086e+18,0.46475195822454307,0.4075342465753425,0.3372972972972973,0.5064808021521154,0.6131868131868132,0.4449116904962153,1192.0
795.0,1.7109259788112003e+18,0.47389033942558745,0.4132420091324201,0.32972972972972975,0.49645390070921985,0.6417582417582418,0.4146341463414634,1192.0
796.0,1.7109259788212e+18,0.47127937336814624,0.4178082191780822,0.33837837837837836,0.5167522621667889,0.6120879120879121,0.43566021867115223,1196.0
797.0,1.7109259788312013e+18,0.48172323759791125,0.432648401826484,0.33135135135135135,0.5096600635852286,0.6406593406593407,0.46846089150546677,1196.0
798.0,1.7109259788412124e+18,0.47127937336814624,0.3995433789954338,0.3372972972972973,0.4979212521398875,0.6197802197802198,0.45836837678721615,1195.0
799.0,1.7109259788512468e+18,0.4725848563968668,0.4200913242009132,0.33513513513513515,0.4969430178527757,0.6406593406593407,0.4373423044575273,1196.0
800.0,1.7109259788612024e+18,0.4960835509138381,0.4189497716894977,0.34,0.5191978478845684,0.634065934065934,0.42977291841883936,1194.0
801.0,1.7109259788712054e+18,0.4869451697127937,0.4189497716894977,0.3324324324324324,0.5140621178772316,0.654945054945055,0.4415475189234651,1194.0
802.0,1.7109259788812099e+18,0.47389033942558745,0.4200913242009132,0.34594594594594597,0.5079481535827831,0.6164835164835165,0.4482758620689655,1197.0
803.0,1.7109259788912026e+18,0.4804177545691906,0.4041095890410959,0.32432432432432434,0.4984103692834434,0.6417582417582418,0.4339781328847771,1193.0
804.0,1.7109259789011973e+18,0.4830287206266319,0.4269406392694064,0.33513513513513515,0.4966984592809978,0.6296703296703297,0.43313708999158956,1194.0
805.0,1.710925978911206e+18,0.4804177545691906,0.454337899543379,0.34756756756756757,0.4944974321349963,0.6593406593406593,0.45836837678721615,1194.0
806.0,1.7109259789211996e+18,0.46475195822454307,0.4041095890410959,0.3362162162162162,0.47077525067253606,0.5923076923076923,0.4222035323801514,1194.0
807.0,1.7109259789312026e+18,0.4660574412532637,0.4063926940639269,0.3286486486486486,0.4979212521398875,0.6186813186813187,0.4280908326324643,1194.0
808.0,1.7109259789412234e+18,0.4765013054830287,0.4098173515981735,0.3286486486486486,0.5030569821472243,0.6230769230769231,0.447434819175778,1197.0
809.0,1.710925978951213e+18,0.4765013054830287,0.4143835616438356,0.33945945945945943,0.4966984592809978,0.6021978021978022,0.45500420521446594,1195.0
810.0,1.71092597896121e+18,0.4804177545691906,0.4200913242009132,0.34378378378378377,0.5067253607238934,0.6175824175824176,0.3641715727502103,1193.0
811.0,1.710925978971164e+18,0.46736292428198434,0.3904109589041096,0.3254054054054054,0.48985081927121543,0.6406593406593407,0.456686291000841,1198.0
812.0,1.7109259789812014e+18,0.48172323759791125,0.4315068493150685,0.34486486486486484,0.5028124235754463,0.6230769230769231,0.4432296047098402,1196.0
813.0,1.7109259789912026e+18,0.46736292428198434,0.4041095890410959,0.32594594594594595,0.4984103692834434,0.6318681318681318,0.4415475189234651,1197.0
814.0,1.710925979001204e+18,0.4725848563968668,0.4178082191780822,0.34378378378378377,0.5064808021521154,0.643956043956044,0.44911690496215306,1193.0
815.0,1.7109259790112033e+18,0.4765013054830287,0.4486301369863014,0.33837837837837836,0.4927855221325507,0.654945054945055,0.4819175777964676,1195.0
816.0,1.7109259790211955e+18,0.4725848563968668,0.4063926940639269,0.33135135135135135,0.5223771093176816,0.6274725274725275,0.456686291000841,1195.0
817.0,1.7109259790311964e+18,0.46736292428198434,0.4075342465753425,0.3281081081081081,0.504035216434336,0.6417582417582418,0.43986543313709,1197.0
818.0,1.7109259790411965e+18,0.4621409921671018,0.4178082191780822,0.3443243243243243,0.5037906578625581,0.6153846153846154,0.4432296047098402,1195.0
819.0,1.710925979051203e+18,0.4725848563968668,0.3972602739726027,0.33945945945945943,0.4991440449987772,0.6417582417582418,0.43566021867115223,1196.0
820.0,1.7109259790612116e+18,0.4869451697127937,0.4235159817351598,0.34162162162162163,0.5015896307165566,0.621978021978022,0.45836837678721615,1197.0
821.0,1.7109259790712123e+18,0.4804177545691906,0.4189497716894977,0.33837837837837836,0.49767669356810956,0.654945054945055,0.4575273338940286,1197.0
822.0,1.7109259790811996e+18,0.4804177545691906,0.4178082191780822,0.3362162162162162,0.5089263878698949,0.6263736263736264,0.4432296047098402,1196.0
823.0,1.710925979091204e+18,0.47780678851174935,0.3926940639269406,0.32594594594594595,0.508192712154561,0.6538461538461539,0.4600504625735913,1196.0
824.0,1.7109259791011937e+18,0.5,0.4223744292237443,0.3372972972972973,0.504524333577892,0.5978021978021978,0.4499579478553406,1196.0
825.0,1.710925979111197e+18,0.46475195822454307,0.4063926940639269,0.3362162162162162,0.4690633406700905,0.5945054945054945,0.375946173254836,1193.0
826.0,1.710925979121205e+18,0.4765013054830287,0.4063926940639269,0.33405405405405403,0.5008559550012228,0.6230769230769231,0.464255677039529,1197.0
827.0,1.7109259791312056e+18,0.47911227154047,0.4018264840182648,0.32756756756756755,0.5028124235754463,0.6472527472527473,0.4482758620689655,1196.0
828.0,1.710925979141227e+18,0.4869451697127937,0.4246575342465753,0.33837837837837836,0.5037906578625581,0.6164835164835165,0.45500420521446594,1195.0
829.0,1.7109259791511992e+18,0.4725848563968668,0.4098173515981735,0.33405405405405403,0.5089263878698949,0.6472527472527473,0.4440706476030278,1197.0
830.0,1.710925979161228e+18,0.46866840731070497,0.386986301369863,0.3389189189189189,0.516507703595011,0.6208791208791209,0.46509671993271656,1196.0
831.0,1.7109259791712087e+18,0.4960835509138381,0.4315068493150685,0.34054054054054056,0.5023233064318905,0.6131868131868132,0.4247266610597141,1194.0
832.0,1.7109259791812257e+18,0.47389033942558745,0.4257990867579909,0.3372972972972973,0.4925409635607728,0.5956043956043956,0.45836837678721615,1196.0
833.0,1.7109259791911624e+18,0.47389033942558745,0.3926940639269406,0.3232432432432432,0.49816581071166544,0.6362637362637362,0.4289318755256518,1193.0
834.0,1.7109259792011953e+18,0.4765013054830287,0.4052511415525114,0.33783783783783783,0.49229640498899485,0.610989010989011,0.4499579478553406,1194.0
835.0,1.7109259792111962e+18,0.47127937336814624,0.4143835616438356,0.3318918918918919,0.49229640498899485,0.6417582417582418,0.4373423044575273,1197.0
836.0,1.7109259792212001e+18,0.46475195822454307,0.4178082191780822,0.327027027027027,0.48691611640988014,0.5945054945054945,0.4247266610597141,1193.0
837.0,1.7109259792312038e+18,0.4660574412532637,0.3961187214611872,0.32216216216216215,0.5025678650036683,0.6263736263736264,0.43986543313709,1195.0
838.0,1.7109259792412076e+18,0.4725848563968668,0.4063926940639269,0.32756756756756755,0.4954756664221081,0.6142857142857143,0.42977291841883936,1192.0
839.0,1.7109259792511964e+18,0.4725848563968668,0.4166666666666667,0.32594594594594595,0.5133284421618978,0.6516483516483517,0.4507989907485282,1195.0
840.0,1.7109259792623588e+18,0.4765013054830287,0.4178082191780822,0.3335135135135135,0.504524333577892,0.6120879120879121,0.4314550042052145,1194.0
841.0,1.7109259792712036e+18,0.4804177545691906,0.432648401826484,0.34162162162162163,0.5064808021521154,0.6538461538461539,0.447434819175778,1196.0
842.0,1.7109259792812104e+18,0.4751958224543081,0.4292237442922374,0.33837837837837836,0.5062362435803375,0.6076923076923076,0.43902439024390244,1194.0
843.0,1.7109259792912218e+18,0.4725848563968668,0.430365296803653,0.3362162162162162,0.5008559550012228,0.621978021978022,0.3801513877207738,1193.0
844.0,1.7109259793011988e+18,0.47127937336814624,0.3938356164383562,0.3324324324324324,0.5103937393005625,0.5923076923076923,0.4415475189234651,1197.0
845.0,1.7109259793112154e+18,0.4856396866840731,0.4200913242009132,0.32054054054054054,0.49938860357055515,0.634065934065934,0.45248107653490327,1198.0
846.0,1.7109259793212175e+18,0.47127937336814624,0.4052511415525114,0.3345945945945946,0.495964783565664,0.6208791208791209,0.43986543313709,1195.0
847.0,1.7109259793312248e+18,0.46736292428198434,0.4269406392694064,0.3302702702702703,0.5072144778674492,0.6329670329670329,0.40370058873002523,1193.0
848.0,1.7109259793412055e+18,0.47911227154047,0.4315068493150685,0.35135135135135137,0.5035460992907801,0.6142857142857143,0.4449116904962153,1195.0
849.0,1.7109259793512023e+18,0.48172323759791125,0.4360730593607306,0.33513513513513515,0.5003668378576669,0.6373626373626373,0.43566021867115223,1195.0
850.0,1.7109259793612e+18,0.47389033942558745,0.4098173515981735,0.3389189189189189,0.5015896307165566,0.6098901098901099,0.43902439024390244,1195.0
851.0,1.7109259793712077e+18,0.47389033942558745,0.4155251141552511,0.33783783783783783,0.4859378821227684,0.6329670329670329,0.4482758620689655,1197.0
852.0,1.7109259793812198e+18,0.489556135770235,0.4280821917808219,0.34054054054054056,0.5055025678650037,0.6296703296703297,0.4373423044575273,1194.0
853.0,1.7109259793911974e+18,0.45822454308093996,0.4246575342465753,0.3324324324324324,0.5015896307165566,0.6197802197802198,0.4247266610597141,1193.0
854.0,1.7109259794012063e+18,0.46736292428198434,0.4041095890410959,0.33135135135135135,0.49498654927855223,0.6098901098901099,0.4440706476030278,1195.0
855.0,1.7109259794112212e+18,0.4765013054830287,0.4212328767123288,0.33405405405405403,0.5035460992907801,0.6483516483516484,0.44575273338940286,1193.0
856.0,1.710925979421204e+18,0.48172323759791125,0.4178082191780822,0.34054054054054056,0.5023233064318905,0.6054945054945055,0.41042893187552565,1193.0
857.0,1.7109259794312115e+18,0.4660574412532637,0.3995433789954338,0.32594594594594595,0.5013450721447786,0.6384615384615384,0.4163162321278385,1194.0
858.0,1.7109259794412022e+18,0.4660574412532637,0.4178082191780822,0.34162162162162163,0.4859378821227684,0.5923076923076923,0.43566021867115223,1194.0
859.0,1.7109259794512392e+18,0.46736292428198434,0.3995433789954338,0.32216216216216215,0.49767669356810956,0.6087912087912087,0.39444911690496215,1194.0
860.0,1.7109259794612206e+18,0.48433420365535246,0.4383561643835616,0.33783783783783783,0.5094155050134507,0.6208791208791209,0.4440706476030278,1198.0
861.0,1.7109259794712195e+18,0.46866840731070497,0.4075342465753425,0.32756756756756755,0.5011005135730008,0.6450549450549451,0.43313708999158956,1195.0
862.0,1.7109259794812111e+18,0.47127937336814624,0.4075342465753425,0.32972972972972975,0.4944974321349963,0.6120879120879121,0.44238856181665265,1196.0
863.0,1.7109259794911964e+18,0.47389033942558745,0.4269406392694064,0.3335135135135135,0.495964783565664,0.6362637362637362,0.43650126156433977,1196.0
864.0,1.7109259795012004e+18,0.4660574412532637,0.3984018264840183,0.3362162162162162,0.49082905355832723,0.6142857142857143,0.46509671993271656,1197.0
865.0,1.7109259795112054e+18,0.4725848563968668,0.4006849315068493,0.327027027027027,0.49474199070677427,0.643956043956044,0.4449116904962153,1195.0
866.0,1.710925979521208e+18,0.47780678851174935,0.432648401826484,0.3491891891891892,0.4996331621423331,0.6164835164835165,0.4499579478553406,1196.0
867.0,1.710925979531209e+18,0.46866840731070497,0.3915525114155251,0.3254054054054054,0.5011005135730008,0.6406593406593407,0.41715727502102606,1192.0
868.0,1.7109259795412114e+18,0.48172323759791125,0.4132420091324201,0.3372972972972973,0.5111274150158963,0.6274725274725275,0.4053826745164003,1194.0
869.0,1.7109259795512233e+18,0.4751958224543081,0.410958904109589,0.3281081081081081,0.5020787478601125,0.6395604395604395,0.4415475189234651,1194.0
870.0,1.710925979561209e+18,0.46475195822454307,0.4200913242009132,0.34486486486486484,0.49645390070921985,0.6186813186813187,0.4381833473507149,1194.0
871.0,1.7109259795712125e+18,0.4765013054830287,0.4006849315068493,0.3345945945945946,0.5133284421618978,0.6428571428571429,0.4625735912531539,1194.0
872.0,1.710925979581223e+18,0.47389033942558745,0.4200913242009132,0.33135135135135135,0.5020787478601125,0.6252747252747253,0.4625735912531539,1196.0
873.0,1.7109259795912123e+18,0.46475195822454307,0.4075342465753425,0.3281081081081081,0.504524333577892,0.6373626373626373,0.45500420521446594,1195.0
874.0,1.7109259796012193e+18,0.4751958224543081,0.4155251141552511,0.3372972972972973,0.5152849107361213,0.6285714285714286,0.4415475189234651,1191.0
875.0,1.7109259796112148e+18,0.4830287206266319,0.4360730593607306,0.34702702702702704,0.512594766446564,0.6296703296703297,0.4348191757779647,1194.0
876.0,1.7109259796212155e+18,0.47911227154047,0.4006849315068493,0.32432432432432434,0.5008559550012228,0.6076923076923076,0.4432296047098402,1195.0
877.0,1.7109259796312072e+18,0.47127937336814624,0.408675799086758,0.3286486486486486,0.5050134507214478,0.634065934065934,0.43986543313709,1193.0
878.0,1.7109259796412032e+18,0.4765013054830287,0.4280821917808219,0.3362162162162162,0.5177304964539007,0.6428571428571429,0.4415475189234651,1194.0
879.0,1.7109259796512123e+18,0.4699738903394256,0.4075342465753425,0.32972972972972975,0.5020787478601125,0.6516483516483517,0.4179983179142136,1192.0
880.0,1.710925979661197e+18,0.46866840731070497,0.4098173515981735,0.33837837837837836,0.49082905355832723,0.6098901098901099,0.4440706476030278,1196.0
881.0,1.710925979671206e+18,0.47780678851174935,0.4006849315068493,0.3308108108108108,0.5011005135730008,0.6417582417582418,0.4751892346509672,1195.0
882.0,1.7109259796812232e+18,0.47780678851174935,0.4063926940639269,0.33945945945945943,0.5059916850085595,0.6021978021978022,0.44575273338940286,1194.0
883.0,1.7109259796912384e+18,0.47127937336814624,0.3984018264840183,0.32972972972972975,0.5050134507214478,0.6362637362637362,0.43986543313709,1194.0
884.0,1.7109259797011886e+18,0.47127937336814624,0.4098173515981735,0.3362162162162162,0.5008559550012228,0.6032967032967033,0.4121110176619008,1192.0
885.0,1.7109259797111951e+18,0.47389033942558745,0.4189497716894977,0.3362162162162162,0.495964783565664,0.6351648351648351,0.4541631623212784,1196.0
886.0,1.7109259797212168e+18,0.4725848563968668,0.4132420091324201,0.3362162162162162,0.48813890926876985,0.5967032967032967,0.42977291841883936,1194.0
887.0,1.7109259797312072e+18,0.4830287206266319,0.4200913242009132,0.3291891891891892,0.495720224993886,0.6450549450549451,0.4440706476030278,1194.0
888.0,1.710925979741209e+18,0.46866840731070497,0.4052511415525114,0.33297297297297296,0.4830031792614331,0.5967032967032967,0.43650126156433977,1195.0
889.0,1.710925979751219e+18,0.4621409921671018,0.410958904109589,0.34486486486486484,0.4913181707018831,0.6285714285714286,0.4348191757779647,1196.0
890.0,1.7109259797612106e+18,0.49869451697127937,0.4041095890410959,0.34054054054054056,0.5025678650036683,0.6175824175824176,0.43566021867115223,1196.0
891.0,1.7109259797712074e+18,0.47127937336814624,0.4337899543378995,0.33675675675675676,0.5006113964294449,0.6230769230769231,0.3894028595458368,1194.0
892.0,1.7109259797812058e+18,0.46344647519582244,0.3858447488584475,0.3254054054054054,0.4979212521398875,0.5923076923076923,0.37846930193439865,1193.0
893.0,1.7109259797912108e+18,0.47127937336814624,0.3926940639269406,0.31405405405405407,0.5008559550012228,0.6230769230769231,0.4255677039529016,1193.0
894.0,1.7109259798012242e+18,0.46736292428198434,0.4132420091324201,0.34,0.4969430178527757,0.5967032967032967,0.4415475189234651,1194.0
895.0,1.7109259798112046e+18,0.47389033942558745,0.3949771689497717,0.3291891891891892,0.5074590364392272,0.6516483516483517,0.4272497897392767,1193.0
896.0,1.7109259798212012e+18,0.4869451697127937,0.454337899543379,0.36486486486486486,0.4741990706774272,0.6054945054945055,0.4415475189234651,1195.0
897.0,1.7109259798312038e+18,0.4699738903394256,0.4121004566210046,0.33405405405405403,0.512594766446564,0.6164835164835165,0.4482758620689655,1194.0
898.0,1.7109259798412065e+18,0.47389033942558745,0.410958904109589,0.33675675675675676,0.5108828564441183,0.6131868131868132,0.4129520605550883,1192.0
899.0,1.710925979851213e+18,0.48433420365535246,0.4360730593607306,0.3324324324324324,0.5064808021521154,0.6527472527472528,0.44575273338940286,1196.0
900.0,1.7109259798612083e+18,0.46866840731070497,0.408675799086758,0.34702702702702704,0.4937637564196625,0.5978021978021978,0.44238856181665265,1194.0
901.0,1.7109259798712205e+18,0.47127937336814624,0.4041095890410959,0.32594594594594595,0.4996331621423331,0.6538461538461539,0.44575273338940286,1194.0
902.0,1.7109259798812237e+18,0.47127937336814624,0.4417808219178082,0.35405405405405405,0.4984103692834434,0.6175824175824176,0.36585365853658536,1193.0
903.0,1.7109259798912118e+18,0.47389033942558745,0.4155251141552511,0.32972972972972975,0.5187087307410124,0.6780219780219781,0.4978973927670311,1194.0
904.0,1.7109259799012198e+18,0.47911227154047,0.4452054794520548,0.3410810810810811,0.5223771093176816,0.6362637362637362,0.4507989907485282,1197.0
905.0,1.7109259799112074e+18,0.4660574412532637,0.3904109589041096,0.3216216216216216,0.5030569821472243,0.6450549450549451,0.45248107653490327,1194.0
906.0,1.7109259799212055e+18,0.4765013054830287,0.4166666666666667,0.33297297297297296,0.5057471264367817,0.6076923076923076,0.4432296047098402,1196.0
907.0,1.7109259799312e+18,0.4725848563968668,0.4063926940639269,0.3302702702702703,0.5184641721692346,0.6351648351648351,0.415475189234651,1192.0
908.0,1.7109259799412012e+18,0.4595300261096606,0.3961187214611872,0.3389189189189189,0.49498654927855223,0.6076923076923076,0.4255677039529016,1192.0
909.0,1.7109259799512015e+18,0.46475195822454307,0.4063926940639269,0.3362162162162162,0.5150403521643434,0.6406593406593407,0.4432296047098402,1196.0
910.0,1.7109259799612035e+18,0.47911227154047,0.4121004566210046,0.3362162162162162,0.5023233064318905,0.6274725274725275,0.3961312026913373,1192.0
911.0,1.7109259799712026e+18,0.4765013054830287,0.4006849315068493,0.32972972972972975,0.5035460992907801,0.6318681318681318,0.43986543313709,1194.0
912.0,1.7109259799812035e+18,0.47911227154047,0.4075342465753425,0.33405405405405403,0.491807287845439,0.6076923076923076,0.39781328847771236,1193.0
913.0,1.7109259799912054e+18,0.47911227154047,0.4063926940639269,0.33297297297297296,0.491807287845439,0.6417582417582418,0.44575273338940286,1193.0
914.0,1.7109259800012083e+18,0.4765013054830287,0.4178082191780822,0.3372972972972973,0.48495964783565665,0.5945054945054945,0.43650126156433977,1194.0
915.0,1.7109259800112305e+18,0.47389033942558745,0.4041095890410959,0.32054054054054054,0.5052580092932257,0.6307692307692307,0.46846089150546677,1197.0
916.0,1.7109259800212065e+18,0.4869451697127937,0.4029680365296804,0.34054054054054056,0.5035460992907801,0.6285714285714286,0.4415475189234651,1195.0
917.0,1.7109259800312038e+18,0.4765013054830287,0.4257990867579909,0.33297297297297296,0.4984103692834434,0.6318681318681318,0.44911690496215306,1195.0
918.0,1.7109259800412408e+18,0.47127937336814624,0.4121004566210046,0.33837837837837836,0.4888725849841037,0.6098901098901099,0.47434819175777965,1194.0
919.0,1.7109259800512038e+18,0.46866840731070497,0.4052511415525114,0.3237837837837838,0.49767669356810956,0.6318681318681318,0.4306139613120269,1192.0
920.0,1.7109259800612047e+18,0.4725848563968668,0.4155251141552511,0.3410810810810811,0.5077035950110051,0.6032967032967033,0.447434819175778,1196.0
921.0,1.7109259800712154e+18,0.48172323759791125,0.4200913242009132,0.3308108108108108,0.5011005135730008,0.6417582417582418,0.43650126156433977,1196.0
922.0,1.7109259800812063e+18,0.4765013054830287,0.4155251141552511,0.3362162162162162,0.47786744925409635,0.5648351648351648,0.4247266610597141,1194.0
923.0,1.710925980091207e+18,0.4765013054830287,0.4143835616438356,0.33675675675675676,0.5118610907312301,0.643956043956044,0.4625735912531539,1195.0
924.0,1.7109259801012065e+18,0.4765013054830287,0.4121004566210046,0.34162162162162163,0.5067253607238934,0.6142857142857143,0.4381833473507149,1196.0
925.0,1.7109259801112087e+18,0.4869451697127937,0.4075342465753425,0.3302702702702703,0.5030569821472243,0.6472527472527473,0.42977291841883936,1193.0
926.0,1.7109259801212096e+18,0.47127937336814624,0.3858447488584475,0.3291891891891892,0.5059916850085595,0.6098901098901099,0.4533221194280908,1196.0
927.0,1.7109259801312049e+18,0.4725848563968668,0.4075342465753425,0.3232432432432432,0.5006113964294449,0.6230769230769231,0.4280908326324643,1193.0
928.0,1.710925980141208e+18,0.48172323759791125,0.4121004566210046,0.33837837837837836,0.5006113964294449,0.6010989010989011,0.4449116904962153,1196.0
929.0,1.7109259801511788e+18,0.4765013054830287,0.4132420091324201,0.3362162162162162,0.4988994864269993,0.6241758241758242,0.4735071488645921,1195.0
930.0,1.710925980161177e+18,0.4765013054830287,0.4063926940639269,0.34324324324324323,0.49351919784788456,0.5945054945054945,0.3919259882253995,1192.0
931.0,1.7109259801712148e+18,0.47389033942558745,0.4189497716894977,0.3281081081081081,0.5001222792858889,0.6384615384615384,0.46173254835996635,1196.0
932.0,1.7109259801812178e+18,0.47127937336814624,0.3972602739726027,0.33837837837837836,0.4888725849841037,0.6021978021978022,0.4600504625735913,1194.0
933.0,1.7109259801912125e+18,0.4765013054830287,0.3984018264840183,0.32216216216216215,0.5094155050134507,0.6417582417582418,0.43902439024390244,1195.0
934.0,1.7109259802012127e+18,0.47389033942558745,0.4132420091324201,0.3362162162162162,0.5023233064318905,0.6175824175824176,0.43902439024390244,1192.0
935.0,1.7109259802112146e+18,0.47389033942558745,0.4121004566210046,0.3291891891891892,0.4974321349963316,0.6406593406593407,0.47098402018502944,1195.0
936.0,1.7109259802212e+18,0.46866840731070497,0.4429223744292237,0.34324324324324323,0.5057471264367817,0.6043956043956044,0.4533221194280908,1195.0
937.0,1.710925980231213e+18,0.4765013054830287,0.4041095890410959,0.3237837837837838,0.5033015407190022,0.6450549450549451,0.4482758620689655,1195.0
938.0,1.7109259802412137e+18,0.4725848563968668,0.4132420091324201,0.3324324324324324,0.4971875764245537,0.610989010989011,0.4482758620689655,1195.0
939.0,1.710925980251215e+18,0.4725848563968668,0.410958904109589,0.3389189189189189,0.5121056493030081,0.6516483516483517,0.43902439024390244,1193.0
940.0,1.710925980261223e+18,0.47911227154047,0.3949771689497717,0.3254054054054054,0.5106382978723404,0.621978021978022,0.46173254835996635,1194.0
941.0,1.7109259802712146e+18,0.4765013054830287,0.4132420091324201,0.3264864864864865,0.5103937393005625,0.6362637362637362,0.44070647603027757,1195.0
942.0,1.710925980281158e+18,0.4621409921671018,0.4041095890410959,0.33297297297297296,0.5074590364392272,0.6175824175824176,0.4381833473507149,1194.0
943.0,1.7109259802912143e+18,0.4804177545691906,0.4315068493150685,0.3362162162162162,0.5096600635852286,0.643956043956044,0.45164003364171573,1196.0
944.0,1.710925980301135e+18,0.4765013054830287,0.4235159817351598,0.3583783783783784,0.5099046221570066,0.6153846153846154,0.44911690496215306,1196.0
945.0,1.7109259803111698e+18,0.48433420365535246,0.4212328767123288,0.33135135135135135,0.5023233064318905,0.6417582417582418,0.4659377628259041,1194.0
946.0,1.7109259803212262e+18,0.47127937336814624,0.4246575342465753,0.34756756756756757,0.48936170212765956,0.6164835164835165,0.45248107653490327,1195.0
947.0,1.710925980331191e+18,0.4869451697127937,0.45662100456621,0.34216216216216216,0.5064808021521154,0.6285714285714286,0.40117746005046256,1191.0
948.0,1.7109259803411996e+18,0.46475195822454307,0.3755707762557078,0.3291891891891892,0.5037906578625581,0.6054945054945055,0.4373423044575273,1197.0
949.0,1.7109259803511974e+18,0.49216710182767626,0.4132420091324201,0.3302702702702703,0.504524333577892,0.6582417582417582,0.4541631623212784,1195.0
950.0,1.7109259803611994e+18,0.4765013054830287,0.432648401826484,0.3491891891891892,0.5116165321594522,0.6263736263736264,0.4213624894869638,1193.0
951.0,1.710925980371201e+18,0.48172323759791125,0.4292237442922374,0.3286486486486486,0.49498654927855223,0.6285714285714286,0.4440706476030278,1197.0
952.0,1.7109259803812027e+18,0.46475195822454307,0.4166666666666667,0.3362162162162162,0.5172413793103449,0.6307692307692307,0.44238856181665265,1195.0
953.0,1.7109259803911995e+18,0.4765013054830287,0.4018264840182648,0.32594594594594595,0.4988994864269993,0.6362637362637362,0.4222035323801514,1192.0
954.0,1.7109259804012022e+18,0.48172323759791125,0.4212328767123288,0.34378378378378377,0.5143066764490095,0.6329670329670329,0.4499579478553406,1193.0
955.0,1.7109259804112e+18,0.47127937336814624,0.4063926940639269,0.3254054054054054,0.4969430178527757,0.6307692307692307,0.4348191757779647,1195.0
956.0,1.7109259804212209e+18,0.46475195822454307,0.4143835616438356,0.34378378378378377,0.504524333577892,0.5967032967032967,0.4179983179142136,1193.0
957.0,1.710925980431201e+18,0.47911227154047,0.3995433789954338,0.32972972972972975,0.4996331621423331,0.6483516483516484,0.4280908326324643,1195.0
958.0,1.7109259804412006e+18,0.4765013054830287,0.4132420091324201,0.34702702702702704,0.49767669356810956,0.6263736263736264,0.44575273338940286,1195.0
959.0,1.7109259804512e+18,0.4725848563968668,0.4372146118721461,0.34054054054054056,0.5059916850085595,0.6384615384615384,0.4432296047098402,1196.0
960.0,1.7109259804612004e+18,0.4725848563968668,0.4075342465753425,0.33513513513513515,0.5018341892883346,0.6131868131868132,0.43650126156433977,1196.0
961.0,1.7109259804712072e+18,0.47389033942558745,0.4132420091324201,0.3308108108108108,0.5011005135730008,0.6252747252747253,0.4238856181665265,1192.0
962.0,1.71092598048115e+18,0.47127937336814624,0.4132420091324201,0.33837837837837836,0.4979212521398875,0.5978021978021978,0.4415475189234651,1195.0
963.0,1.710925980491108e+18,0.4765013054830287,0.4200913242009132,0.3286486486486486,0.49523110785033014,0.6373626373626373,0.45164003364171573,1195.0
964.0,1.7109259805011384e+18,0.46866840731070497,0.4018264840182648,0.33513513513513515,0.49107361213010514,0.6087912087912087,0.4432296047098402,1198.0
965.0,1.710925980511201e+18,0.4725848563968668,0.4075342465753425,0.32594594594594595,0.5025678650036683,0.6362637362637362,0.4449116904962153,1195.0
966.0,1.7109259805212052e+18,0.47127937336814624,0.4337899543378995,0.3491891891891892,0.5050134507214478,0.6241758241758242,0.43566021867115223,1197.0
967.0,1.7109259805312074e+18,0.47389033942558745,0.4143835616438356,0.3362162162162162,0.5047688921496698,0.6472527472527473,0.46846089150546677,1196.0
968.0,1.7109259805412001e+18,0.48172323759791125,0.4235159817351598,0.33837837837837836,0.4925409635607728,0.6230769230769231,0.4432296047098402,1196.0
969.0,1.7109259805511987e+18,0.47911227154047,0.4155251141552511,0.3362162162162162,0.5069699192956714,0.6373626373626373,0.4482758620689655,1197.0
970.0,1.7109259805612273e+18,0.47780678851174935,0.4292237442922374,0.34486486486486484,0.4988994864269993,0.6142857142857143,0.4482758620689655,1195.0
971.0,1.7109259805711995e+18,0.4725848563968668,0.410958904109589,0.3286486486486486,0.49498654927855223,0.6406593406593407,0.4592094196804037,1194.0
972.0,1.710925980581193e+18,0.4660574412532637,0.4029680365296804,0.3345945945945946,0.5094155050134507,0.621978021978022,0.4449116904962153,1195.0
973.0,1.7109259805912015e+18,0.48172323759791125,0.4269406392694064,0.3567567567567568,0.5074590364392272,0.6373626373626373,0.4222035323801514,1193.0
974.0,1.7109259806011953e+18,0.46736292428198434,0.4406392694063927,0.34324324324324323,0.5101491807287846,0.621978021978022,0.4381833473507149,1193.0
975.0,1.7109259806112013e+18,0.47127937336814624,0.4132420091324201,0.33675675675675676,0.5072144778674492,0.6516483516483517,0.4415475189234651,1196.0
976.0,1.7109259806212001e+18,0.47911227154047,0.4178082191780822,0.33837837837837836,0.5008559550012228,0.6197802197802198,0.43986543313709,1195.0
977.0,1.710925980631202e+18,0.4804177545691906,0.4429223744292237,0.35081081081081084,0.512350207874786,0.6461538461538462,0.45248107653490327,1197.0
978.0,1.7109259806412022e+18,0.47127937336814624,0.4246575342465753,0.3389189189189189,0.49400831499144043,0.6054945054945055,0.47771236333052985,1195.0
979.0,1.7109259806512082e+18,0.47127937336814624,0.4589041095890411,0.34540540540540543,0.4888725849841037,0.634065934065934,0.4415475189234651,1195.0
980.0,1.7109259806612004e+18,0.4608355091383812,0.3972602739726027,0.3318918918918919,0.49767669356810956,0.6054945054945055,0.46509671993271656,1197.0
981.0,1.7109259806712215e+18,0.47127937336814624,0.4143835616438356,0.33135135135135135,0.5011005135730008,0.6329670329670329,0.43650126156433977,1196.0
982.0,1.7109259806811999e+18,0.47389033942558745,0.4121004566210046,0.3362162162162162,0.5055025678650037,0.6054945054945055,0.43566021867115223,1197.0
983.0,1.7109259806912197e+18,0.47389033942558745,0.4246575342465753,0.32972972972972975,0.4842259721203228,0.6428571428571429,0.4381833473507149,1196.0
984.0,1.7109259807012037e+18,0.47780678851174935,0.4143835616438356,0.3491891891891892,0.5015896307165566,0.6076923076923076,0.44070647603027757,1197.0
985.0,1.7109259807112026e+18,0.47780678851174935,0.4063926940639269,0.33135135135135135,0.5006113964294449,0.6285714285714286,0.4726661059714045,1197.0
986.0,1.7109259807212244e+18,0.4699738903394256,0.4292237442922374,0.33837837837837836,0.4969430178527757,0.6120879120879121,0.43902439024390244,1196.0
987.0,1.7109259807312054e+18,0.4830287206266319,0.4497716894977169,0.34216216216216216,0.5116165321594522,0.6582417582417582,0.4575273338940286,1193.0
988.0,1.7109259807412216e+18,0.46475195822454307,0.3824200913242009,0.3281081081081081,0.49816581071166544,0.6065934065934065,0.4449116904962153,1195.0
989.0,1.710925980751214e+18,0.4725848563968668,0.3972602739726027,0.32756756756756755,0.4986549278552213,0.643956043956044,0.4440706476030278,1195.0
990.0,1.7109259807612076e+18,0.46866840731070497,0.4132420091324201,0.3362162162162162,0.4988994864269993,0.5868131868131868,0.4339781328847771,1192.0
991.0,1.7109259807712166e+18,0.4765013054830287,0.4018264840182648,0.33513513513513515,0.4988994864269993,0.6274725274725275,0.4507989907485282,1195.0
992.0,1.7109259807812198e+18,0.47127937336814624,0.3675799086757991,0.3264864864864865,0.4871606749816581,0.6175824175824176,0.4785534062237174,1196.0
993.0,1.7109259807911908e+18,0.5052219321148825,0.4269406392694064,0.3248648648648649,0.5020787478601125,0.6494505494505495,0.44911690496215306,1195.0
994.0,1.710925980801208e+18,0.4765013054830287,0.4098173515981735,0.33945945945945943,0.5074590364392272,0.6021978021978022,0.43650126156433977,1193.0
995.0,1.7109259808111946e+18,0.4765013054830287,0.4098173515981735,0.3264864864864865,0.5037906578625581,0.6516483516483517,0.4465937762825904,1195.0
996.0,1.7109259808212052e+18,0.47127937336814624,0.4235159817351598,0.34756756756756757,0.4871606749816581,0.6098901098901099,0.46761984861227923,1195.0
997.0,1.7109259808312023e+18,0.4765013054830287,0.4178082191780822,0.3324324324324324,0.49816581071166544,0.6164835164835165,0.4255677039529016,1193.0
998.0,1.710925980841208e+18,0.4765013054830287,0.4098173515981735,0.33837837837837836,0.5057471264367817,0.6296703296703297,0.447434819175778,1196.0
999.0,1.7109259808512049e+18,0.47911227154047,0.4189497716894977,0.33513513513513515,0.504035216434336,0.6582417582417582,0.4625735912531539,1194.0
