202.0,1.7109258461876434e+18,0.46344647519582244,0.4029680365296804,0.3216216216216216,0.5015896307165566,0.6142857142857143,0.43566021867115223,1196.0
203.0,1.7109258461976468e+18,0.47911227154047,0.4155251141552511,0.33945945945945943,0.5025678650036683,0.610989010989011,0.44238856181665265,1195.0
204.0,1.7109258462076442e+18,0.4725848563968668,0.4178082191780822,0.33405405405405403,0.5084372707263389,0.6230769230769231,0.432296047098402,1192.0
205.0,1.7109258462176458e+18,0.4751958224543081,0.4063926940639269,0.3324324324324324,0.5025678650036683,0.5747252747252747,0.4238856181665265,1192.0
206.0,1.7109258462276454e+18,0.47127937336814624,0.4029680365296804,0.3281081081081081,0.5103937393005625,0.6692307692307692,0.44238856181665265,1196.0
207.0,1.710925846237646e+18,0.47780678851174935,0.4178082191780822,0.3345945945945946,0.5094155050134507,0.6208791208791209,0.4381833473507149,1195.0
208.0,1.7109258462476462e+18,0.4765013054830287,0.4143835616438356,0.33135135135135135,0.5062362435803375,0.6472527472527473,0.4432296047098402,1196.0
209.0,1.7109258462576468e+18,0.4765013054830287,0.4075342465753425,0.33405405405405403,0.495964783565664,0.6307692307692307,0.4449116904962153,1194.0
210.0,1.710925846267647e+18,0.47389033942558745,0.4178082191780822,0.33135135135135135,0.5035460992907801,0.6373626373626373,0.432296047098402,1193.0
211.0,1.7109258462776517e+18,0.4765013054830287,0.4166666666666667,0.33783783783783783,0.5089263878698949,0.6241758241758242,0.4415475189234651,1195.0
212.0,1.7109258462876477e+18,0.48172323759791125,0.4178082191780822,0.33405405405405403,0.5037906578625581,0.6362637362637362,0.43650126156433977,1195.0
213.0,1.7109258462976474e+18,0.46866840731070497,0.4200913242009132,0.34324324324324323,0.5008559550012228,0.5989010989010989,0.4381833473507149,1195.0
214.0,1.7109258463076485e+18,0.4765013054830287,0.4155251141552511,0.33135135135135135,0.5059916850085595,0.6472527472527473,0.43650126156433977,1196.0
215.0,1.710925846317649e+18,0.46866840731070497,0.4098173515981735,0.33405405405405403,0.4979212521398875,0.610989010989011,0.432296047098402,1195.0
216.0,1.710925846327649e+18,0.4830287206266319,0.4315068493150685,0.3335135135135135,0.49645390070921985,0.6087912087912087,0.4280908326324643,1192.0
217.0,1.7109258463376497e+18,0.4725848563968668,0.4132420091324201,0.3345945945945946,0.4971875764245537,0.6098901098901099,0.41715727502102606,1193.0
218.0,1.7109258463476334e+18,0.4725848563968668,0.4098173515981735,0.32756756756756755,0.4830031792614331,0.6274725274725275,0.432296047098402,1193.0
219.0,1.7109258463576507e+18,0.4830287206266319,0.4246575342465753,0.34162162162162163,0.5094155050134507,0.6252747252747253,0.4314550042052145,1193.0
220.0,1.7109258463676508e+18,0.47127937336814624,0.4132420091324201,0.33405405405405403,0.504524333577892,0.6318681318681318,0.44575273338940286,1195.0
221.0,1.7109258463776515e+18,0.4765013054830287,0.4372146118721461,0.35027027027027025,0.508192712154561,0.6230769230769231,0.44238856181665265,1195.0
222.0,1.7109258463876518e+18,0.4660574412532637,0.4052511415525114,0.3318918918918919,0.5133284421618978,0.656043956043956,0.4449116904962153,1193.0
223.0,1.7109258463976522e+18,0.4765013054830287,0.4269406392694064,0.35027027027027025,0.499877720714111,0.6098901098901099,0.4592094196804037,1195.0
224.0,1.7109258464076513e+18,0.4765013054830287,0.4223744292237443,0.33837837837837836,0.5028124235754463,0.6318681318681318,0.45164003364171573,1194.0
225.0,1.710925846417651e+18,0.46866840731070497,0.4143835616438356,0.3389189189189189,0.5035460992907801,0.6208791208791209,0.447434819175778,1197.0
226.0,1.710925846427653e+18,0.47127937336814624,0.408675799086758,0.3286486486486486,0.5020787478601125,0.6252747252747253,0.42977291841883936,1192.0
227.0,1.710925846437653e+18,0.46475195822454307,0.4041095890410959,0.3362162162162162,0.5133284421618978,0.6032967032967033,0.43313708999158956,1193.0
228.0,1.7109258464476334e+18,0.4804177545691906,0.4178082191780822,0.33135135135135135,0.5072144778674492,0.6318681318681318,0.4432296047098402,1196.0
229.0,1.7109258464583068e+18,0.46866840731070497,0.4132420091324201,0.34,0.5062362435803375,0.6164835164835165,0.471825063078217,1195.0
230.0,1.710925846467638e+18,0.4725848563968668,0.4383561643835616,0.34054054054054056,0.504035216434336,0.6384615384615384,0.4381833473507149,1197.0
231.0,1.710925846477637e+18,0.47780678851174935,0.4143835616438356,0.3362162162162162,0.5072144778674492,0.6384615384615384,0.4533221194280908,1197.0
232.0,1.7109258464876385e+18,0.4765013054830287,0.4178082191780822,0.33135135135135135,0.5028124235754463,0.6483516483516484,0.45248107653490327,1196.0
233.0,1.710925846497638e+18,0.48172323759791125,0.4143835616438356,0.3410810810810811,0.5028124235754463,0.6120879120879121,0.4415475189234651,1198.0
234.0,1.7109258465076567e+18,0.4765013054830287,0.4189497716894977,0.3318918918918919,0.48789435069699194,0.654945054945055,0.4432296047098402,1199.0
235.0,1.7109258465176364e+18,0.47780678851174935,0.4121004566210046,0.33783783783783783,0.5074590364392272,0.6285714285714286,0.42304457527333894,1192.0
236.0,1.7109258465276383e+18,0.4765013054830287,0.4235159817351598,0.32972972972972975,0.5055025678650037,0.6252747252747253,0.4339781328847771,1190.0
237.0,1.7109258465376384e+18,0.46475195822454307,0.4075342465753425,0.3372972972972973,0.49645390070921985,0.5681318681318681,0.4146341463414634,1193.0
238.0,1.7109258465476393e+18,0.4765013054830287,0.4463470319634703,0.34486486486486484,0.4930300807043287,0.6461538461538462,0.44070647603027757,1196.0
239.0,1.71092584655763e+18,0.4660574412532637,0.4006849315068493,0.3291891891891892,0.48985081927121543,0.5879120879120879,0.43650126156433977,1193.0
240.0,1.7109258465676383e+18,0.4725848563968668,0.4132420091324201,0.3308108108108108,0.5050134507214478,0.6472527472527473,0.4449116904962153,1196.0
241.0,1.7109258465776328e+18,0.47389033942558745,0.4189497716894977,0.34378378378378377,0.5006113964294449,0.6043956043956044,0.45248107653490327,1195.0
242.0,1.7109258465876344e+18,0.46344647519582244,0.4063926940639269,0.3291891891891892,0.5057471264367817,0.634065934065934,0.4440706476030278,1192.0
243.0,1.7109258465976315e+18,0.4765013054830287,0.408675799086758,0.3356756756756757,0.4925409635607728,0.6208791208791209,0.4482758620689655,1196.0
244.0,1.7109258466076378e+18,0.4765013054830287,0.4143835616438356,0.32756756756756755,0.504035216434336,0.6461538461538462,0.43902439024390244,1193.0
245.0,1.7109258466185882e+18,0.4699738903394256,0.4132420091324201,0.33675675675675676,0.5001222792858889,0.6175824175824176,0.4415475189234651,1194.0
246.0,1.7109258466276398e+18,0.4725848563968668,0.4155251141552511,0.3281081081081081,0.5015896307165566,0.6417582417582418,0.4314550042052145,1192.0
247.0,1.7109258466376376e+18,0.4765013054830287,0.4166666666666667,0.33837837837837836,0.5013450721447786,0.6164835164835165,0.447434819175778,1193.0
248.0,1.7109258466476398e+18,0.4765013054830287,0.4132420091324201,0.3286486486486486,0.4937637564196625,0.6461538461538462,0.4449116904962153,1195.0
249.0,1.710925846657641e+18,0.4725848563968668,0.4235159817351598,0.34486486486486484,0.5006113964294449,0.6010989010989011,0.4280908326324643,1193.0
250.0,1.710925846667644e+18,0.48433420365535246,0.4269406392694064,0.33675675675675676,0.49938860357055515,0.6461538461538462,0.4432296047098402,1195.0
251.0,1.7109258466776192e+18,0.46866840731070497,0.4052511415525114,0.3286486486486486,0.4812912692589875,0.6131868131868132,0.4449116904962153,1196.0
252.0,1.7109258466876393e+18,0.4725848563968668,0.3984018264840183,0.3264864864864865,0.5001222792858889,0.6373626373626373,0.43986543313709,1195.0
253.0,1.710925846697674e+18,0.47911227154047,0.4155251141552511,0.3410810810810811,0.499877720714111,0.6098901098901099,0.43902439024390244,1194.0
254.0,1.7109258467076352e+18,0.47389033942558745,0.4143835616438356,0.32972972972972975,0.4888725849841037,0.6362637362637362,0.4381833473507149,1196.0
255.0,1.710925846717643e+18,0.48433420365535246,0.4235159817351598,0.33945945945945943,0.5020787478601125,0.6164835164835165,0.45500420521446594,1196.0
256.0,1.7109258467276383e+18,0.4621409921671018,0.408675799086758,0.32594594594594595,0.499877720714111,0.634065934065934,0.4449116904962153,1195.0
257.0,1.7109258467376384e+18,0.4830287206266319,0.4235159817351598,0.34378378378378377,0.5067253607238934,0.6175824175824176,0.4373423044575273,1197.0
258.0,1.7109258467476447e+18,0.47389033942558745,0.4075342465753425,0.3286486486486486,0.49620934213744194,0.6208791208791209,0.432296047098402,1192.0
259.0,1.7109258467576845e+18,0.4725848563968668,0.4098173515981735,0.33513513513513515,0.4913181707018831,0.5879120879120879,0.43313708999158956,1194.0
260.0,1.7109258467676413e+18,0.4765013054830287,0.4292237442922374,0.3362162162162162,0.5035460992907801,0.6494505494505495,0.4482758620689655,1196.0
261.0,1.7109258467776417e+18,0.4765013054830287,0.4143835616438356,0.33837837837837836,0.5074590364392272,0.6021978021978022,0.4449116904962153,1196.0
262.0,1.7109258467876293e+18,0.4725848563968668,0.4372146118721461,0.34,0.4966984592809978,0.6362637362637362,0.4339781328847771,1191.0
263.0,1.7109258467976394e+18,0.47127937336814624,0.4098173515981735,0.34054054054054056,0.5037906578625581,0.6098901098901099,0.4381833473507149,1194.0
264.0,1.7109258468076562e+18,0.47389033942558745,0.4098173515981735,0.3281081081081081,0.5037906578625581,0.6483516483516484,0.4499579478553406,1193.0
265.0,1.7109258468176297e+18,0.4765013054830287,0.4143835616438356,0.3389189189189189,0.504035216434336,0.610989010989011,0.4592094196804037,1194.0
266.0,1.710925846827631e+18,0.4725848563968668,0.4223744292237443,0.32756756756756755,0.4937637564196625,0.6494505494505495,0.4415475189234651,1196.0
267.0,1.7109258468376346e+18,0.48172323759791125,0.4006849315068493,0.33783783783783783,0.508192712154561,0.6318681318681318,0.4482758620689655,1196.0
268.0,1.7109258468476357e+18,0.48172323759791125,0.4018264840182648,0.32756756756756755,0.5084372707263389,0.6516483516483517,0.4440706476030278,1196.0
269.0,1.7109258468576502e+18,0.4765013054830287,0.4200913242009132,0.35027027027027025,0.508192712154561,0.6010989010989011,0.43313708999158956,1192.0
270.0,1.7109258468676388e+18,0.4765013054830287,0.4075342465753425,0.3302702702702703,0.49327463927610665,0.6362637362637362,0.44238856181665265,1193.0
271.0,1.7109258468776402e+18,0.46475195822454307,0.4098173515981735,0.3372972972972973,0.5006113964294449,0.6153846153846154,0.4381833473507149,1196.0
272.0,1.7109258468876403e+18,0.4725848563968668,0.4098173515981735,0.3302702702702703,0.5015896307165566,0.6241758241758242,0.432296047098402,1196.0
273.0,1.710925846897649e+18,0.46866840731070497,0.384703196347032,0.327027027027027,0.5072144778674492,0.610989010989011,0.45248107653490327,1196.0
274.0,1.710925846907616e+18,0.4804177545691906,0.4098173515981735,0.32594594594594595,0.5006113964294449,0.6373626373626373,0.4432296047098402,1197.0
275.0,1.710925846917642e+18,0.46866840731070497,0.4098173515981735,0.33513513513513515,0.48520420640743456,0.6010989010989011,0.4449116904962153,1197.0
276.0,1.710925846927634e+18,0.4725848563968668,0.4075342465753425,0.3291891891891892,0.48618244069454636,0.6318681318681318,0.4482758620689655,1196.0
277.0,1.7109258469376394e+18,0.4765013054830287,0.4075342465753425,0.3372972972972973,0.5035460992907801,0.6164835164835165,0.44238856181665265,1196.0
278.0,1.710925846947637e+18,0.47127937336814624,0.4132420091324201,0.33513513513513515,0.5055025678650037,0.6417582417582418,0.44911690496215306,1196.0
279.0,1.7109258469576412e+18,0.4765013054830287,0.4166666666666667,0.34378378378378377,0.5030569821472243,0.6153846153846154,0.4432296047098402,1196.0
280.0,1.7109258469676388e+18,0.47127937336814624,0.4155251141552511,0.3302702702702703,0.5084372707263389,0.6362637362637362,0.4314550042052145,1191.0
281.0,1.7109258469776435e+18,0.4725848563968668,0.4166666666666667,0.34324324324324323,0.5101491807287846,0.6065934065934065,0.43313708999158956,1194.0
282.0,1.7109258469876383e+18,0.46866840731070497,0.3858447488584475,0.3237837837837838,0.5152849107361213,0.6296703296703297,0.4381833473507149,1193.0
283.0,1.710925846997658e+18,0.4830287206266319,0.4155251141552511,0.3389189189189189,0.5084372707263389,0.6054945054945055,0.4449116904962153,1196.0
284.0,1.7109258470076616e+18,0.4765013054830287,0.4075342465753425,0.3281081081081081,0.4913181707018831,0.6450549450549451,0.4373423044575273,1196.0
285.0,1.7109258470176184e+18,0.48172323759791125,0.408675799086758,0.33513513513513515,0.504035216434336,0.6098901098901099,0.4449116904962153,1195.0
286.0,1.7109258470276372e+18,0.4765013054830287,0.4166666666666667,0.32432432432432434,0.4971875764245537,0.6373626373626373,0.44238856181665265,1194.0
287.0,1.7109258470376412e+18,0.47127937336814624,0.4075342465753425,0.3389189189189189,0.5072144778674492,0.6142857142857143,0.43902439024390244,1195.0
288.0,1.710925847047656e+18,0.4725848563968668,0.410958904109589,0.327027027027027,0.4996331621423331,0.6406593406593407,0.3423044575273339,1193.0
289.0,1.7109258470576486e+18,0.47780678851174935,0.4189497716894977,0.33837837837837836,0.4966984592809978,0.6164835164835165,0.4440706476030278,1196.0
290.0,1.710925847067635e+18,0.4765013054830287,0.410958904109589,0.3308108108108108,0.4996331621423331,0.634065934065934,0.4348191757779647,1197.0
291.0,1.7109258470776402e+18,0.4830287206266319,0.4098173515981735,0.33837837837837836,0.504035216434336,0.6098901098901099,0.4112699747687132,1192.0
292.0,1.7109258470876426e+18,0.4699738903394256,0.410958904109589,0.3291891891891892,0.5084372707263389,0.6505494505494506,0.4247266610597141,1195.0
293.0,1.7109258470976486e+18,0.4765013054830287,0.410958904109589,0.3324324324324324,0.5037906578625581,0.6252747252747253,0.4693019343986543,1198.0
294.0,1.7109258471076326e+18,0.4765013054830287,0.4155251141552511,0.3302702702702703,0.4984103692834434,0.6516483516483517,0.4608915054667788,1195.0
295.0,1.7109258471176328e+18,0.4765013054830287,0.4155251141552511,0.3389189189189189,0.5018341892883346,0.6318681318681318,0.43313708999158956,1192.0
296.0,1.71092584712764e+18,0.46475195822454307,0.4041095890410959,0.3216216216216216,0.4888725849841037,0.6197802197802198,0.407905803195963,1192.0
297.0,1.7109258471376433e+18,0.4869451697127937,0.4292237442922374,0.3345945945945946,0.504524333577892,0.6208791208791209,0.45248107653490327,1196.0
298.0,1.7109258471476403e+18,0.47389033942558745,0.4178082191780822,0.33135135135135135,0.4839814135485449,0.634065934065934,0.4465937762825904,1196.0
299.0,1.7109258471576558e+18,0.4725848563968668,0.4417808219178082,0.34702702702702704,0.4803130349718758,0.5923076923076923,0.4348191757779647,1196.0
300.0,1.710925847167641e+18,0.4765013054830287,0.4075342465753425,0.32972972972972975,0.49327463927610665,0.6208791208791209,0.4306139613120269,1194.0
301.0,1.7109258471776404e+18,0.4725848563968668,0.410958904109589,0.3389189189189189,0.5169968207385669,0.6,0.4348191757779647,1194.0
302.0,1.7109258471876383e+18,0.47911227154047,0.4200913242009132,0.33675675675675676,0.5018341892883346,0.6230769230769231,0.43902439024390244,1194.0
303.0,1.7109258471976425e+18,0.48172323759791125,0.4178082191780822,0.34162162162162163,0.5094155050134507,0.6373626373626373,0.4465937762825904,1196.0
304.0,1.7109258472076408e+18,0.4751958224543081,0.4166666666666667,0.33513513513513515,0.5064808021521154,0.6692307692307692,0.4449116904962153,1195.0
305.0,1.7109258472176476e+18,0.48433420365535246,0.4280821917808219,0.34540540540540543,0.4991440449987772,0.5824175824175825,0.4381833473507149,1196.0
306.0,1.7109258472276383e+18,0.47911227154047,0.4178082191780822,0.33135135135135135,0.5101491807287846,0.6373626373626373,0.4600504625735913,1196.0
307.0,1.7109258472376369e+18,0.47127937336814624,0.4041095890410959,0.33513513513513515,0.512594766446564,0.6065934065934065,0.4306139613120269,1194.0
308.0,1.7109258472476396e+18,0.4660574412532637,0.410958904109589,0.33513513513513515,0.4783565663976522,0.6208791208791209,0.4499579478553406,1196.0
309.0,1.7109258472576512e+18,0.4725848563968668,0.4132420091324201,0.3443243243243243,0.5099046221570066,0.6098901098901099,0.4415475189234651,1195.0
310.0,1.7109258472676416e+18,0.46736292428198434,0.4075342465753425,0.3308108108108108,0.5023233064318905,0.6318681318681318,0.46173254835996635,1196.0
311.0,1.7109258472776374e+18,0.46475195822454307,0.4052511415525114,0.33297297297297296,0.5028124235754463,0.6175824175824176,0.4163162321278385,1192.0
312.0,1.7109258472876375e+18,0.48433420365535246,0.4155251141552511,0.3286486486486486,0.5001222792858889,0.6626373626373626,0.4499579478553406,1198.0
313.0,1.7109258472976653e+18,0.4830287206266319,0.4246575342465753,0.34486486486486484,0.5133284421618978,0.6285714285714286,0.41968040370058873,1193.0
314.0,1.710925847307634e+18,0.4699738903394256,0.4178082191780822,0.33297297297297296,0.5072144778674492,0.6637362637362637,0.44575273338940286,1198.0
315.0,1.710925847317642e+18,0.4765013054830287,0.4143835616438356,0.3356756756756757,0.5020787478601125,0.6021978021978022,0.4533221194280908,1195.0
316.0,1.7109258473276403e+18,0.4804177545691906,0.4098173515981735,0.3286486486486486,0.5055025678650037,0.6516483516483517,0.4592094196804037,1195.0
317.0,1.7109258473376397e+18,0.47780678851174935,0.410958904109589,0.33675675675675676,0.4991440449987772,0.6131868131868132,0.43902439024390244,1195.0
318.0,1.7109258473476316e+18,0.4804177545691906,0.4223744292237443,0.32972972972972975,0.46808510638297873,0.5945054945054945,0.44238856181665265,1195.0
319.0,1.7109258473576392e+18,0.4699738903394256,0.4132420091324201,0.3410810810810811,0.516507703595011,0.6230769230769231,0.4482758620689655,1194.0
320.0,1.7109258473676398e+18,0.4556135770234987,0.3915525114155251,0.31513513513513514,0.5037906578625581,0.589010989010989,0.4247266610597141,1193.0
321.0,1.7109258473776417e+18,0.4765013054830287,0.4041095890410959,0.3308108108108108,0.4966984592809978,0.5989010989010989,0.4600504625735913,1196.0
322.0,1.7109258473876442e+18,0.4725848563968668,0.4075342465753425,0.32432432432432434,0.5055025678650037,0.656043956043956,0.4432296047098402,1193.0
323.0,1.7109258473976607e+18,0.4869451697127937,0.4200913242009132,0.34486486486486484,0.5138175593054537,0.6395604395604395,0.40454163162321277,1192.0
324.0,1.7109258474076472e+18,0.4765013054830287,0.4189497716894977,0.33405405405405403,0.504524333577892,0.6417582417582418,0.4381833473507149,1194.0
325.0,1.7109258474176328e+18,0.48433420365535246,0.432648401826484,0.3491891891891892,0.4930300807043287,0.6142857142857143,0.4499579478553406,1195.0
326.0,1.7109258474276367e+18,0.4765013054830287,0.4143835616438356,0.3318918918918919,0.4768892149669846,0.6032967032967033,0.42304457527333894,1195.0
327.0,1.7109258474376387e+18,0.48433420365535246,0.4178082191780822,0.32972972972972975,0.49523110785033014,0.5967032967032967,0.4188393608074012,1194.0
328.0,1.7109258474476352e+18,0.47127937336814624,0.4121004566210046,0.3302702702702703,0.5018341892883346,0.6505494505494506,0.44238856181665265,1196.0
329.0,1.7109258474576445e+18,0.48172323759791125,0.4269406392694064,0.34702702702702704,0.5077035950110051,0.5945054945054945,0.4726661059714045,1197.0
330.0,1.7109258474676398e+18,0.48172323759791125,0.4212328767123288,0.33675675675675676,0.5055025678650037,0.654945054945055,0.4381833473507149,1196.0
331.0,1.710925847477639e+18,0.4699738903394256,0.4155251141552511,0.33945945945945943,0.4839814135485449,0.5945054945054945,0.4339781328847771,1194.0
332.0,1.7109258474876398e+18,0.46344647519582244,0.4098173515981735,0.3308108108108108,0.4979212521398875,0.6241758241758242,0.4280908326324643,1193.0
333.0,1.7109258474976627e+18,0.46475195822454307,0.4018264840182648,0.32972972972972975,0.49620934213744194,0.6054945054945055,0.43650126156433977,1197.0
334.0,1.7109258475076365e+18,0.4660574412532637,0.4155251141552511,0.33297297297297296,0.4986549278552213,0.6725274725274726,0.4449116904962153,1197.0
335.0,1.7109258475176364e+18,0.47911227154047,0.4200913242009132,0.33837837837837836,0.5101491807287846,0.6054945054945055,0.44575273338940286,1196.0
336.0,1.7109258475276337e+18,0.4804177545691906,0.4178082191780822,0.3324324324324324,0.49523110785033014,0.6263736263736264,0.4440706476030278,1194.0
337.0,1.7109258475376335e+18,0.46475195822454307,0.4018264840182648,0.3389189189189189,0.5064808021521154,0.621978021978022,0.4625735912531539,1195.0
338.0,1.710925847547639e+18,0.46866840731070497,0.4098173515981735,0.33135135135135135,0.5062362435803375,0.6230769230769231,0.4432296047098402,1198.0
339.0,1.7109258475576305e+18,0.4765013054830287,0.4143835616438356,0.3427027027027027,0.5086818292981169,0.6241758241758242,0.4440706476030278,1195.0
340.0,1.7109258475676406e+18,0.4765013054830287,0.4098173515981735,0.32594594594594595,0.49058449498654927,0.6230769230769231,0.42977291841883936,1194.0
341.0,1.7109258475776404e+18,0.4765013054830287,0.4143835616438356,0.33837837837837836,0.5118610907312301,0.6098901098901099,0.4179983179142136,1193.0
342.0,1.71092584758764e+18,0.46866840731070497,0.4132420091324201,0.3324324324324324,0.5231107850330154,0.654945054945055,0.4348191757779647,1195.0
343.0,1.7109258475976566e+18,0.4908616187989556,0.4315068493150685,0.34378378378378377,0.5152849107361213,0.6472527472527473,0.45248107653490327,1196.0
344.0,1.710925847607648e+18,0.48172323759791125,0.4121004566210046,0.3318918918918919,0.5094155050134507,0.6461538461538462,0.44070647603027757,1193.0
345.0,1.7109258476176422e+18,0.4804177545691906,0.4178082191780822,0.34162162162162163,0.504279775006114,0.6065934065934065,0.4659377628259041,1195.0
346.0,1.7109258476276457e+18,0.4660574412532637,0.4075342465753425,0.3264864864864865,0.4830031792614331,0.6241758241758242,0.456686291000841,1195.0
347.0,1.7109258476376415e+18,0.47389033942558745,0.410958904109589,0.33675675675675676,0.504524333577892,0.6318681318681318,0.4381833473507149,1197.0
348.0,1.710925847647642e+18,0.47911227154047,0.4178082191780822,0.3302702702702703,0.504035216434336,0.656043956043956,0.4432296047098402,1196.0
349.0,1.7109258476576417e+18,0.48433420365535246,0.4178082191780822,0.33837837837837836,0.49498654927855223,0.6120879120879121,0.44575273338940286,1196.0
350.0,1.7109258476676398e+18,0.46736292428198434,0.4132420091324201,0.33405405405405403,0.5152849107361213,0.6450549450549451,0.4289318755256518,1193.0
351.0,1.7109258476776392e+18,0.46866840731070497,0.4052511415525114,0.3372972972972973,0.508192712154561,0.6318681318681318,0.44238856181665265,1197.0
352.0,1.7109258476876388e+18,0.47127937336814624,0.4235159817351598,0.32756756756756755,0.5020787478601125,0.6241758241758242,0.4314550042052145,1192.0
353.0,1.7109258476976415e+18,0.47127937336814624,0.410958904109589,0.3362162162162162,0.49229640498899485,0.5923076923076923,0.471825063078217,1197.0
354.0,1.710925847707637e+18,0.4595300261096606,0.3698630136986301,0.3124324324324324,0.5155294693078992,0.6846153846153846,0.4600504625735913,1194.0
355.0,1.7109258477176445e+18,0.47911227154047,0.4178082191780822,0.34486486486486484,0.508192712154561,0.6285714285714286,0.4449116904962153,1196.0
356.0,1.7109258477276444e+18,0.47127937336814624,0.4063926940639269,0.3324324324324324,0.49523110785033014,0.6318681318681318,0.42640874684608915,1192.0
357.0,1.7109258477376445e+18,0.47127937336814624,0.4098173515981735,0.33135135135135135,0.49107361213010514,0.6472527472527473,0.4558452481076535,1198.0
358.0,1.7109258477476454e+18,0.4765013054830287,0.4098173515981735,0.327027027027027,0.48691611640988014,0.6274725274725275,0.4499579478553406,1195.0
359.0,1.7109258477576453e+18,0.47389033942558745,0.4166666666666667,0.3389189189189189,0.4984103692834434,0.6065934065934065,0.43566021867115223,1196.0
360.0,1.7109258477676457e+18,0.49216710182767626,0.4235159817351598,0.33837837837837836,0.49107361213010514,0.6450549450549451,0.4465937762825904,1195.0
361.0,1.7109258477776466e+18,0.4699738903394256,0.4063926940639269,0.32594594594594595,0.4942528735632184,0.6274725274725275,0.44575273338940286,1195.0
362.0,1.7109258477876431e+18,0.47780678851174935,0.4143835616438356,0.32972972972972975,0.4913181707018831,0.6505494505494506,0.447434819175778,1195.0
363.0,1.7109258477976428e+18,0.46866840731070497,0.4121004566210046,0.3362162162162162,0.4913181707018831,0.6230769230769231,0.44238856181665265,1196.0
364.0,1.710925847807637e+18,0.47127937336814624,0.4429223744292237,0.352972972972973,0.5067253607238934,0.6450549450549451,0.43902439024390244,1193.0
365.0,1.710925847817647e+18,0.47127937336814624,0.4006849315068493,0.33513513513513515,0.504035216434336,0.6252747252747253,0.47434819175777965,1195.0
366.0,1.7109258478275935e+18,0.46866840731070497,0.3949771689497717,0.3162162162162162,0.4937637564196625,0.6131868131868132,0.432296047098402,1193.0
367.0,1.7109258478376481e+18,0.4765013054830287,0.4189497716894977,0.34324324324324323,0.5035460992907801,0.6208791208791209,0.4449116904962153,1197.0
368.0,1.7109258478476462e+18,0.48172323759791125,0.4200913242009132,0.34054054054054056,0.5035460992907801,0.6274725274725275,0.4247266610597141,1193.0
369.0,1.71092584785765e+18,0.46736292428198434,0.410958904109589,0.3372972972972973,0.48911714355588165,0.6043956043956044,0.4440706476030278,1196.0
370.0,1.710925847867649e+18,0.4765013054830287,0.4098173515981735,0.33135135135135135,0.5106382978723404,0.6626373626373626,0.4482758620689655,1195.0
371.0,1.710925847877653e+18,0.46866840731070497,0.4075342465753425,0.33945945945945943,0.5106382978723404,0.5736263736263736,0.4255677039529016,1193.0
372.0,1.7109258478876485e+18,0.47911227154047,0.4200913242009132,0.33513513513513515,0.499877720714111,0.6395604395604395,0.43650126156433977,1197.0
373.0,1.71092584789765e+18,0.46866840731070497,0.4098173515981735,0.33783783783783783,0.5062362435803375,0.6153846153846154,0.4415475189234651,1196.0
374.0,1.710925847907645e+18,0.4765013054830287,0.4143835616438356,0.3302702702702703,0.495720224993886,0.6406593406593407,0.4465937762825904,1196.0
375.0,1.710925847917656e+18,0.4830287206266319,0.4269406392694064,0.34594594594594597,0.5035460992907801,0.6296703296703297,0.4592094196804037,1194.0
376.0,1.710925847927637e+18,0.46344647519582244,0.4337899543378995,0.34540540540540543,0.49400831499144043,0.6230769230769231,0.4381833473507149,1194.0
377.0,1.7109258479376468e+18,0.4804177545691906,0.4292237442922374,0.3427027027027027,0.4988994864269993,0.6010989010989011,0.43902439024390244,1195.0
378.0,1.7109258479476493e+18,0.4765013054830287,0.4189497716894977,0.33837837837837836,0.48324773783321107,0.6406593406593407,0.4339781328847771,1193.0
379.0,1.7109258479576463e+18,0.4660574412532637,0.4063926940639269,0.33135135135135135,0.4986549278552213,0.6164835164835165,0.4381833473507149,1196.0
380.0,1.7109258479676657e+18,0.4765013054830287,0.4178082191780822,0.3345945945945946,0.5074590364392272,0.6417582417582418,0.4760302775441548,1195.0
381.0,1.7109258479776346e+18,0.47780678851174935,0.4235159817351598,0.34594594594594597,0.5052580092932257,0.6241758241758242,0.456686291000841,1196.0
382.0,1.7109258479876362e+18,0.47780678851174935,0.4223744292237443,0.33405405405405403,0.504279775006114,0.6373626373626373,0.4432296047098402,1195.0
383.0,1.710925847997658e+18,0.46866840731070497,0.4075342465753425,0.33405405405405403,0.5069699192956714,0.6098901098901099,0.4415475189234651,1196.0
384.0,1.7109258480076442e+18,0.47780678851174935,0.4178082191780822,0.3308108108108108,0.5018341892883346,0.6362637362637362,0.4465937762825904,1194.0
385.0,1.710925848017625e+18,0.47389033942558745,0.4178082191780822,0.34162162162162163,0.5094155050134507,0.6065934065934065,0.4373423044575273,1193.0
386.0,1.710925848027639e+18,0.4765013054830287,0.4189497716894977,0.33783783783783783,0.495720224993886,0.6318681318681318,0.43902439024390244,1196.0
387.0,1.7109258480376392e+18,0.47780678851174935,0.4189497716894977,0.34162162162162163,0.5033015407190022,0.6186813186813187,0.4625735912531539,1196.0
388.0,1.7109258480476285e+18,0.48172323759791125,0.4280821917808219,0.3318918918918919,0.5033015407190022,0.6395604395604395,0.4381833473507149,1195.0
389.0,1.7109258480576507e+18,0.4765013054830287,0.4098173515981735,0.33405405405405403,0.4871606749816581,0.6120879120879121,0.4465937762825904,1195.0
390.0,1.7109258480676396e+18,0.47127937336814624,0.4052511415525114,0.31891891891891894,0.49816581071166544,0.6395604395604395,0.4339781328847771,1193.0
391.0,1.7109258480776374e+18,0.48172323759791125,0.4200913242009132,0.34486486486486484,0.512350207874786,0.6285714285714286,0.4558452481076535,1196.0
392.0,1.710925848087635e+18,0.47389033942558745,0.4143835616438356,0.3302702702702703,0.49229640498899485,0.6296703296703297,0.4465937762825904,1195.0
393.0,1.71092584809764e+18,0.48172323759791125,0.4189497716894977,0.34486486486486484,0.5015896307165566,0.6329670329670329,0.42304457527333894,1192.0
394.0,1.7109258481076634e+18,0.4830287206266319,0.408675799086758,0.3286486486486486,0.4969430178527757,0.6164835164835165,0.43902439024390244,1196.0
395.0,1.7109258481176404e+18,0.47911227154047,0.4223744292237443,0.34486486486486484,0.5135730007336757,0.6285714285714286,0.4499579478553406,1196.0
396.0,1.710925848127635e+18,0.4765013054830287,0.4200913242009132,0.33675675675675676,0.5023233064318905,0.6307692307692307,0.4373423044575273,1197.0
397.0,1.7109258481376356e+18,0.47780678851174935,0.410958904109589,0.3356756756756757,0.5059916850085595,0.6230769230769231,0.4634146341463415,1196.0
398.0,1.7109258481476378e+18,0.4765013054830287,0.4098173515981735,0.32972972972972975,0.5050134507214478,0.6417582417582418,0.43902439024390244,1198.0
399.0,1.7109258481576445e+18,0.48825065274151436,0.4178082191780822,0.34,0.49816581071166544,0.621978021978022,0.4482758620689655,1194.0
400.0,1.7109258481676403e+18,0.47127937336814624,0.4075342465753425,0.3286486486486486,0.5050134507214478,0.6450549450549451,0.4163162321278385,1193.0
401.0,1.7109258481776376e+18,0.46736292428198434,0.4098173515981735,0.33513513513513515,0.5035460992907801,0.6131868131868132,0.47434819175777965,1193.0
402.0,1.7109258481876362e+18,0.48433420365535246,0.432648401826484,0.3464864864864865,0.4812912692589875,0.6197802197802198,0.43650126156433977,1194.0
403.0,1.7109258481976438e+18,0.4830287206266319,0.4246575342465753,0.34864864864864864,0.5074590364392272,0.6197802197802198,0.43566021867115223,1195.0
404.0,1.7109258482076457e+18,0.47127937336814624,0.410958904109589,0.3281081081081081,0.4991440449987772,0.654945054945055,0.4238856181665265,1192.0
405.0,1.710925848217625e+18,0.49738903394255873,0.4463470319634703,0.36108108108108106,0.46930789924186844,0.5824175824175825,0.46509671993271656,1195.0
406.0,1.7109258482276357e+18,0.4725848563968668,0.4121004566210046,0.3302702702702703,0.5028124235754463,0.6362637362637362,0.4432296047098402,1196.0
407.0,1.7109258482376443e+18,0.4725848563968668,0.4394977168949772,0.35567567567567565,0.5059916850085595,0.6098901098901099,0.4314550042052145,1196.0
408.0,1.7109258482476106e+18,0.4765013054830287,0.410958904109589,0.3264864864864865,0.49620934213744194,0.6417582417582418,0.44575273338940286,1196.0
409.0,1.7109258482575775e+18,0.4765013054830287,0.4166666666666667,0.34162162162162163,0.49327463927610665,0.6153846153846154,0.45500420521446594,1194.0
410.0,1.710925848267643e+18,0.47389033942558745,0.4075342465753425,0.32756756756756755,0.4942528735632184,0.6274725274725275,0.45500420521446594,1197.0
411.0,1.7109258482776412e+18,0.47127937336814624,0.4121004566210046,0.33405405405405403,0.5059916850085595,0.610989010989011,0.432296047098402,1194.0
412.0,1.7109258482876403e+18,0.47911227154047,0.4189497716894977,0.33513513513513515,0.466862313524089,0.5967032967032967,0.4339781328847771,1192.0
413.0,1.7109258482976415e+18,0.47389033942558745,0.4132420091324201,0.33675675675675676,0.5118610907312301,0.6164835164835165,0.43986543313709,1198.0
414.0,1.7109258483076541e+18,0.4608355091383812,0.4132420091324201,0.32972972972972975,0.5057471264367817,0.6241758241758242,0.42977291841883936,1193.0
415.0,1.71092584831764e+18,0.4830287206266319,0.4223744292237443,0.34702702702702704,0.5037906578625581,0.6296703296703297,0.47771236333052985,1197.0
416.0,1.710925848327641e+18,0.4765013054830287,0.4132420091324201,0.3281081081081081,0.49767669356810956,0.6571428571428571,0.4634146341463415,1196.0
417.0,1.710925848337641e+18,0.4751958224543081,0.410958904109589,0.3372972972972973,0.4839814135485449,0.6,0.4289318755256518,1194.0
418.0,1.7109258483476485e+18,0.4830287206266319,0.4212328767123288,0.33297297297297296,0.508192712154561,0.656043956043956,0.447434819175778,1194.0
419.0,1.7109258483576271e+18,0.48172323759791125,0.4178082191780822,0.34216216216216216,0.5015896307165566,0.621978021978022,0.4558452481076535,1194.0
420.0,1.710925848367641e+18,0.4725848563968668,0.4063926940639269,0.3210810810810811,0.5008559550012228,0.6362637362637362,0.4381833473507149,1194.0
421.0,1.71092584837764e+18,0.4725848563968668,0.4132420091324201,0.34162162162162163,0.49645390070921985,0.5901098901098901,0.4381833473507149,1194.0
422.0,1.7109258483876413e+18,0.4699738903394256,0.4063926940639269,0.3216216216216216,0.495720224993886,0.6252747252747253,0.43650126156433977,1193.0
423.0,1.7109258483976653e+18,0.4765013054830287,0.4132420091324201,0.3362162162162162,0.49767669356810956,0.5967032967032967,0.41042893187552565,1191.0
424.0,1.7109258484076342e+18,0.4804177545691906,0.4155251141552511,0.33405405405405403,0.5089263878698949,0.6274725274725275,0.43650126156433977,1195.0
425.0,1.7109258484176417e+18,0.47127937336814624,0.4143835616438356,0.33675675675675676,0.5037906578625581,0.6252747252747253,0.4415475189234651,1197.0
426.0,1.710925848427633e+18,0.46866840731070497,0.4143835616438356,0.33513513513513515,0.5015896307165566,0.6285714285714286,0.44575273338940286,1195.0
427.0,1.7109258484376338e+18,0.47780678851174935,0.410958904109589,0.33405405405405403,0.5030569821472243,0.6296703296703297,0.43566021867115223,1195.0
428.0,1.7109258484476204e+18,0.46866840731070497,0.4098173515981735,0.32972972972972975,0.5069699192956714,0.6714285714285714,0.4575273338940286,1198.0
429.0,1.7109258484575944e+18,0.4765013054830287,0.410958904109589,0.34054054054054056,0.5145512350207875,0.6164835164835165,0.4440706476030278,1198.0
430.0,1.7109258484676452e+18,0.4660574412532637,0.3995433789954338,0.3286486486486486,0.5191978478845684,0.6164835164835165,0.4213624894869638,1192.0
431.0,1.7109258484776402e+18,0.47911227154047,0.4223744292237443,0.34162162162162163,0.5055025678650037,0.6175824175824176,0.4482758620689655,1196.0
432.0,1.7109258484876372e+18,0.47127937336814624,0.4143835616438356,0.3281081081081081,0.499877720714111,0.6252747252747253,0.43650126156433977,1195.0
433.0,1.710925848497643e+18,0.4765013054830287,0.4246575342465753,0.3535135135135135,0.5172413793103449,0.5989010989010989,0.4306139613120269,1192.0
434.0,1.7109258485076344e+18,0.47127937336814624,0.4155251141552511,0.33297297297297296,0.495964783565664,0.6417582417582418,0.4280908326324643,1193.0
435.0,1.7109258485176366e+18,0.4660574412532637,0.4417808219178082,0.34756756756756757,0.5020787478601125,0.6098901098901099,0.471825063078217,1194.0
436.0,1.7109258485276372e+18,0.46475195822454307,0.410958904109589,0.33405405405405403,0.4969430178527757,0.6274725274725275,0.42977291841883936,1192.0
437.0,1.7109258485376353e+18,0.4725848563968668,0.4166666666666667,0.34054054054054056,0.5062362435803375,0.6098901098901099,0.45164003364171573,1196.0
438.0,1.710925848547637e+18,0.47127937336814624,0.4098173515981735,0.3254054054054054,0.5033015407190022,0.621978021978022,0.4381833473507149,1198.0
439.0,1.7109258485576387e+18,0.47911227154047,0.4212328767123288,0.34054054054054056,0.5057471264367817,0.621978021978022,0.4415475189234651,1196.0
440.0,1.710925848567638e+18,0.48825065274151436,0.4212328767123288,0.32756756756756755,0.5037906578625581,0.6373626373626373,0.4465937762825904,1198.0
441.0,1.7109258485776353e+18,0.4765013054830287,0.4121004566210046,0.32432432432432434,0.4971875764245537,0.5747252747252747,0.43650126156433977,1197.0
442.0,1.7109258485876447e+18,0.4699738903394256,0.4075342465753425,0.32972972972972975,0.5111274150158963,0.6351648351648351,0.43902439024390244,1193.0
443.0,1.710925848598379e+18,0.47780678851174935,0.4178082191780822,0.34054054054054056,0.5147957935925654,0.6483516483516484,0.4608915054667788,1195.0
444.0,1.7109258486084808e+18,0.47780678851174935,0.4143835616438356,0.3302702702702703,0.5069699192956714,0.6648351648351648,0.44911690496215306,1196.0
445.0,1.7109258486176438e+18,0.47780678851174935,0.4143835616438356,0.33675675675675676,0.5047688921496698,0.6230769230769231,0.44238856181665265,1196.0
446.0,1.7109258486276495e+18,0.4765013054830287,0.4178082191780822,0.3362162162162162,0.5035460992907801,0.6494505494505495,0.4558452481076535,1195.0
447.0,1.7109258486376476e+18,0.4699738903394256,0.4075342465753425,0.33783783783783783,0.5064808021521154,0.6,0.45836837678721615,1195.0
448.0,1.7109258486476444e+18,0.4765013054830287,0.4178082191780822,0.33405405405405403,0.5140621178772316,0.6384615384615384,0.43650126156433977,1195.0
449.0,1.7109258486576448e+18,0.4765013054830287,0.410958904109589,0.33675675675675676,0.4974321349963316,0.6032967032967033,0.44575273338940286,1196.0
450.0,1.710925848667644e+18,0.4765013054830287,0.4132420091324201,0.3281081081081081,0.495720224993886,0.6395604395604395,0.407905803195963,1192.0
451.0,1.7109258486776474e+18,0.47389033942558745,0.4143835616438356,0.33675675675675676,0.49498654927855223,0.6164835164835165,0.4381833473507149,1195.0
452.0,1.7109258486876434e+18,0.47911227154047,0.4178082191780822,0.3372972972972973,0.5006113964294449,0.6285714285714286,0.4432296047098402,1196.0
453.0,1.7109258486976584e+18,0.4765013054830287,0.4394977168949772,0.34594594594594597,0.5028124235754463,0.6076923076923076,0.44238856181665265,1194.0
454.0,1.7109258487076485e+18,0.4725848563968668,0.4018264840182648,0.3254054054054054,0.48667155783810223,0.6241758241758242,0.4381833473507149,1196.0
455.0,1.7109258487176532e+18,0.4595300261096606,0.4018264840182648,0.3318918918918919,0.5025678650036683,0.5879120879120879,0.42304457527333894,1193.0
456.0,1.7109258487276513e+18,0.46866840731070497,0.4041095890410959,0.3254054054054054,0.49523110785033014,0.6274725274725275,0.4222035323801514,1193.0
457.0,1.7109258487376494e+18,0.4699738903394256,0.4200913242009132,0.34054054054054056,0.499877720714111,0.6230769230769231,0.4634146341463415,1196.0
458.0,1.7109258487476554e+18,0.4765013054830287,0.410958904109589,0.3281081081081081,0.5055025678650037,0.6285714285714286,0.4415475189234651,1198.0
459.0,1.7109258487576579e+18,0.47780678851174935,0.4200913242009132,0.33783783783783783,0.5018341892883346,0.6186813186813187,0.4634146341463415,1197.0
460.0,1.7109258487676524e+18,0.4765013054830287,0.4189497716894977,0.3345945945945946,0.49498654927855223,0.6230769230769231,0.4533221194280908,1196.0
461.0,1.7109258487776625e+18,0.47127937336814624,0.4178082191780822,0.3362162162162162,0.5011005135730008,0.6241758241758242,0.43566021867115223,1195.0
462.0,1.7109258487876367e+18,0.4804177545691906,0.4178082191780822,0.3335135135135135,0.5147957935925654,0.6626373626373626,0.46846089150546677,1196.0
463.0,1.7109258487976374e+18,0.4699738903394256,0.4178082191780822,0.3427027027027027,0.5062362435803375,0.6164835164835165,0.4499579478553406,1196.0
464.0,1.7109258488076285e+18,0.46866840731070497,0.4143835616438356,0.32972972972972975,0.5015896307165566,0.6274725274725275,0.45500420521446594,1196.0
465.0,1.710925848817635e+18,0.4725848563968668,0.4121004566210046,0.33837837837837836,0.5059916850085595,0.6197802197802198,0.4499579478553406,1194.0
466.0,1.7109258488276408e+18,0.4765013054830287,0.4132420091324201,0.33297297297297296,0.4815358278307655,0.6362637362637362,0.39108494533221194,1192.0
467.0,1.710925848837637e+18,0.47911227154047,0.4178082191780822,0.33837837837837836,0.5094155050134507,0.6450549450549451,0.4499579478553406,1194.0
468.0,1.7109258488476385e+18,0.47127937336814624,0.4132420091324201,0.3286486486486486,0.48202494497432136,0.6241758241758242,0.44238856181665265,1194.0
469.0,1.7109258488576374e+18,0.46866840731070497,0.410958904109589,0.3362162162162162,0.48789435069699194,0.6065934065934065,0.45836837678721615,1195.0
470.0,1.710925848867632e+18,0.4765013054830287,0.4143835616438356,0.3308108108108108,0.48985081927121543,0.6164835164835165,0.4415475189234651,1196.0
471.0,1.7109258488776356e+18,0.47389033942558745,0.4132420091324201,0.33783783783783783,0.5094155050134507,0.643956043956044,0.479394449116905,1196.0
472.0,1.7109258488876342e+18,0.4765013054830287,0.4132420091324201,0.3362162162162162,0.4984103692834434,0.6296703296703297,0.4440706476030278,1196.0
473.0,1.7109258488976384e+18,0.47127937336814624,0.4143835616438356,0.34054054054054056,0.4984103692834434,0.6186813186813187,0.43313708999158956,1193.0
474.0,1.710925848907644e+18,0.4595300261096606,0.4029680365296804,0.3308108108108108,0.5015896307165566,0.6120879120879121,0.4247266610597141,1193.0
475.0,1.7109258489176404e+18,0.4804177545691906,0.4178082191780822,0.3362162162162162,0.48911714355588165,0.6153846153846154,0.45836837678721615,1194.0
476.0,1.7109258489276385e+18,0.47127937336814624,0.4178082191780822,0.32972972972972975,0.5064808021521154,0.6593406593406593,0.4533221194280908,1194.0
477.0,1.7109258489376412e+18,0.47127937336814624,0.4155251141552511,0.3389189189189189,0.5084372707263389,0.6175824175824176,0.43902439024390244,1196.0
478.0,1.7109258489476372e+18,0.4765013054830287,0.4075342465753425,0.32756756756756755,0.4979212521398875,0.634065934065934,0.4373423044575273,1196.0
479.0,1.7109258489576476e+18,0.46866840731070497,0.4098173515981735,0.3362162162162162,0.5196869650281243,0.6274725274725275,0.43650126156433977,1196.0
480.0,1.7109258489676344e+18,0.47780678851174935,0.4121004566210046,0.32972972972972975,0.5106382978723404,0.6428571428571429,0.4339781328847771,1193.0
481.0,1.710925848977641e+18,0.4765013054830287,0.4155251141552511,0.3410810810810811,0.5111274150158963,0.6076923076923076,0.43650126156433977,1196.0
482.0,1.710925848987634e+18,0.4725848563968668,0.4143835616438356,0.3335135135135135,0.5059916850085595,0.6318681318681318,0.43566021867115223,1194.0
483.0,1.710925848997637e+18,0.4765013054830287,0.4155251141552511,0.33837837837837836,0.5028124235754463,0.6098901098901099,0.44238856181665265,1197.0
484.0,1.7109258490076355e+18,0.47911227154047,0.4178082191780822,0.3362162162162162,0.5050134507214478,0.6428571428571429,0.43986543313709,1196.0
485.0,1.7109258490176394e+18,0.4765013054830287,0.4132420091324201,0.3372972972972973,0.5059916850085595,0.6175824175824176,0.43902439024390244,1193.0
486.0,1.7109258490276367e+18,0.4765013054830287,0.4178082191780822,0.3356756756756757,0.5067253607238934,0.6373626373626373,0.43986543313709,1196.0
487.0,1.710925849037638e+18,0.4725848563968668,0.4143835616438356,0.3362162162162162,0.48911714355588165,0.6043956043956044,0.4020185029436501,1193.0
488.0,1.710925849047639e+18,0.47911227154047,0.4155251141552511,0.33405405405405403,0.5033015407190022,0.6428571428571429,0.43650126156433977,1197.0
489.0,1.710925849057643e+18,0.4765013054830287,0.4189497716894977,0.34054054054054056,0.5011005135730008,0.6098901098901099,0.45164003364171573,1196.0
490.0,1.710925849067656e+18,0.46866840731070497,0.386986301369863,0.32,0.49523110785033014,0.6373626373626373,0.43902439024390244,1194.0
491.0,1.710925849077641e+18,0.4725848563968668,0.4052511415525114,0.3291891891891892,0.5037906578625581,0.6043956043956044,0.43566021867115223,1194.0
492.0,1.7109258490876378e+18,0.47911227154047,0.4143835616438356,0.33513513513513515,0.5052580092932257,0.6296703296703297,0.4373423044575273,1196.0
493.0,1.710925849097641e+18,0.4765013054830287,0.408675799086758,0.34,0.5020787478601125,0.6274725274725275,0.4314550042052145,1193.0
494.0,1.710925849107626e+18,0.4699738903394256,0.4098173515981735,0.32972972972972975,0.49351919784788456,0.6120879120879121,0.4289318755256518,1194.0
495.0,1.7109258491176392e+18,0.4660574412532637,0.4063926940639269,0.32972972972972975,0.49058449498654927,0.5923076923076923,0.43650126156433977,1195.0
496.0,1.7109258491276365e+18,0.4725848563968668,0.4132420091324201,0.3302702702702703,0.5059916850085595,0.6329670329670329,0.38772077375946173,1191.0
497.0,1.7109258491376364e+18,0.4765013054830287,0.4200913242009132,0.34054054054054056,0.4986549278552213,0.6087912087912087,0.4499579478553406,1197.0
498.0,1.7109258491476367e+18,0.4869451697127937,0.4223744292237443,0.3318918918918919,0.5013450721447786,0.6538461538461539,0.45164003364171573,1196.0
499.0,1.7109258491576374e+18,0.47389033942558745,0.4143835616438356,0.33945945945945943,0.5067253607238934,0.6230769230769231,0.46509671993271656,1194.0
500.0,1.710925849167636e+18,0.47127937336814624,0.4075342465753425,0.3291891891891892,0.49082905355832723,0.6208791208791209,0.4348191757779647,1195.0
501.0,1.7109258491776356e+18,0.4804177545691906,0.4235159817351598,0.3410810810810811,0.48813890926876985,0.6065934065934065,0.4482758620689655,1195.0
502.0,1.7109258491876342e+18,0.4765013054830287,0.4189497716894977,0.3308108108108108,0.5057471264367817,0.6318681318681318,0.45164003364171573,1192.0
503.0,1.7109258491976387e+18,0.47127937336814624,0.4189497716894977,0.3427027027027027,0.5015896307165566,0.6010989010989011,0.4146341463414634,1194.0
504.0,1.7109258492076198e+18,0.46736292428198434,0.408675799086758,0.327027027027027,0.48226950354609927,0.6065934065934065,0.40454163162321277,1192.0
505.0,1.7109258492176387e+18,0.46866840731070497,0.4063926940639269,0.3372972972972973,0.49816581071166544,0.610989010989011,0.4499579478553406,1194.0
506.0,1.7109258492276375e+18,0.46475195822454307,0.4075342465753425,0.32756756756756755,0.5086818292981169,0.6483516483516484,0.432296047098402,1194.0
507.0,1.7109258492376381e+18,0.4765013054830287,0.4132420091324201,0.33675675675675676,0.512350207874786,0.6252747252747253,0.4415475189234651,1195.0
508.0,1.710925849247638e+18,0.47127937336814624,0.4132420091324201,0.33135135135135135,0.5077035950110051,0.6208791208791209,0.4255677039529016,1192.0
509.0,1.7109258492576415e+18,0.4765013054830287,0.4200913242009132,0.34216216216216216,0.5035460992907801,0.5989010989010989,0.4432296047098402,1197.0
510.0,1.7109258492676413e+18,0.4765013054830287,0.4155251141552511,0.32972972972972975,0.48691611640988014,0.6285714285714286,0.43566021867115223,1196.0
511.0,1.710925849277639e+18,0.47389033942558745,0.4178082191780822,0.34324324324324323,0.5133284421618978,0.6329670329670329,0.4693019343986543,1194.0
512.0,1.7109258492876375e+18,0.47780678851174935,0.4155251141552511,0.33405405405405403,0.47909024211298606,0.6230769230769231,0.4482758620689655,1195.0
513.0,1.710925849297654e+18,0.47911227154047,0.4235159817351598,0.3410810810810811,0.5030569821472243,0.6318681318681318,0.4600504625735913,1194.0
514.0,1.7109258493076406e+18,0.47780678851174935,0.4132420091324201,0.32972972972972975,0.5050134507214478,0.6527472527472528,0.4541631623212784,1196.0
515.0,1.710925849317563e+18,0.46475195822454307,0.408675799086758,0.33675675675675676,0.5077035950110051,0.6230769230769231,0.4348191757779647,1196.0
516.0,1.7109258493276375e+18,0.4751958224543081,0.4178082191780822,0.33513513513513515,0.49767669356810956,0.6406593406593407,0.45500420521446594,1196.0
517.0,1.7109258493376402e+18,0.4765013054830287,0.4178082191780822,0.3410810810810811,0.5015896307165566,0.6142857142857143,0.4289318755256518,1195.0
518.0,1.7109258493476393e+18,0.46866840731070497,0.410958904109589,0.3318918918918919,0.5121056493030081,0.6494505494505495,0.42977291841883936,1192.0
519.0,1.71092584935764e+18,0.4765013054830287,0.4143835616438356,0.3389189189189189,0.5103937393005625,0.6142857142857143,0.4415475189234651,1196.0
520.0,1.7109258493676413e+18,0.47780678851174935,0.4132420091324201,0.32756756756756755,0.5113719735876743,0.6373626373626373,0.4306139613120269,1194.0
521.0,1.7109258493776433e+18,0.4765013054830287,0.4132420091324201,0.33783783783783783,0.504524333577892,0.6208791208791209,0.4373423044575273,1196.0
522.0,1.7109258493876406e+18,0.47389033942558745,0.4132420091324201,0.33135135135135135,0.5013450721447786,0.6230769230769231,0.432296047098402,1192.0
523.0,1.7109258493976402e+18,0.47911227154047,0.4212328767123288,0.34,0.5116165321594522,0.634065934065934,0.4449116904962153,1195.0
524.0,1.7109258494076408e+18,0.4751958224543081,0.410958904109589,0.33135135135135135,0.4944974321349963,0.6593406593406593,0.4499579478553406,1194.0
525.0,1.710925849417639e+18,0.46866840731070497,0.4178082191780822,0.3410810810810811,0.4925409635607728,0.5934065934065934,0.4449116904962153,1193.0
526.0,1.7109258494276306e+18,0.4725848563968668,0.4132420091324201,0.32972972972972975,0.5025678650036683,0.6450549450549451,0.4381833473507149,1196.0
527.0,1.7109258494376356e+18,0.4765013054830287,0.4178082191780822,0.3410810810810811,0.5023233064318905,0.6131868131868132,0.4415475189234651,1196.0
528.0,1.7109258494476365e+18,0.47911227154047,0.4235159817351598,0.34162162162162163,0.5084372707263389,0.6450549450549451,0.4558452481076535,1196.0
529.0,1.7109258494576333e+18,0.48172323759791125,0.4212328767123288,0.34486486486486484,0.5008559550012228,0.5956043956043956,0.4415475189234651,1195.0
530.0,1.7109258494676316e+18,0.47127937336814624,0.4143835616438356,0.3308108108108108,0.4937637564196625,0.6285714285714286,0.4381833473507149,1196.0
531.0,1.710925849477637e+18,0.47911227154047,0.4178082191780822,0.34054054054054056,0.5025678650036683,0.6098901098901099,0.43650126156433977,1194.0
532.0,1.7109258494876419e+18,0.47127937336814624,0.4178082191780822,0.33297297297297296,0.5069699192956714,0.6384615384615384,0.43650126156433977,1196.0
533.0,1.7109258494975716e+18,0.4699738903394256,0.410958904109589,0.3372972972972973,0.5052580092932257,0.5956043956043956,0.4280908326324643,1192.0
534.0,1.710925849507642e+18,0.47127937336814624,0.4143835616438356,0.32756756756756755,0.5030569821472243,0.6417582417582418,0.4507989907485282,1196.0
535.0,1.7109258495176397e+18,0.47911227154047,0.4166666666666667,0.3362162162162162,0.5018341892883346,0.6120879120879121,0.43902439024390244,1197.0
536.0,1.7109258495275889e+18,0.47389033942558745,0.4155251141552511,0.3308108108108108,0.49033993641477136,0.6296703296703297,0.4222035323801514,1193.0
537.0,1.7109258495376433e+18,0.46736292428198434,0.4155251141552511,0.3389189189189189,0.5064808021521154,0.6131868131868132,0.4339781328847771,1192.0
538.0,1.7109258495476406e+18,0.4804177545691906,0.4178082191780822,0.32972972972972975,0.48789435069699194,0.6274725274725275,0.4306139613120269,1194.0
539.0,1.7109258495576412e+18,0.4699738903394256,0.4098173515981735,0.3362162162162162,0.4986549278552213,0.6076923076923076,0.4465937762825904,1195.0
540.0,1.710925849567651e+18,0.47127937336814624,0.4132420091324201,0.3302702702702703,0.4759109806798728,0.5945054945054945,0.4306139613120269,1194.0
541.0,1.7109258495776156e+18,0.47127937336814624,0.4132420091324201,0.33783783783783783,0.5052580092932257,0.6087912087912087,0.4440706476030278,1193.0
542.0,1.710925849587642e+18,0.47127937336814624,0.408675799086758,0.32756756756756755,0.5025678650036683,0.6329670329670329,0.4482758620689655,1195.0
543.0,1.710925849597622e+18,0.4725848563968668,0.410958904109589,0.33513513513513515,0.5047688921496698,0.6054945054945055,0.45164003364171573,1195.0
544.0,1.7109258496076047e+18,0.4725848563968668,0.4143835616438356,0.33513513513513515,0.487649792125214,0.621978021978022,0.4247266610597141,1190.0
545.0,1.7109258496176484e+18,0.4765013054830287,0.4155251141552511,0.3410810810810811,0.5074590364392272,0.6010989010989011,0.43566021867115223,1195.0
546.0,1.7109258496276593e+18,0.4765013054830287,0.4155251141552511,0.3318918918918919,0.4986549278552213,0.6406593406593407,0.4373423044575273,1195.0
547.0,1.7109258496376412e+18,0.4699738903394256,0.4132420091324201,0.3362162162162162,0.4986549278552213,0.5934065934065934,0.4415475189234651,1194.0
548.0,1.7109258496476378e+18,0.4621409921671018,0.4246575342465753,0.3372972972972973,0.5023233064318905,0.6296703296703297,0.3961312026913373,1193.0
549.0,1.7109258496576384e+18,0.4765013054830287,0.4178082191780822,0.34486486486486484,0.5174859378821227,0.634065934065934,0.4339781328847771,1192.0
550.0,1.7109258496676383e+18,0.47780678851174935,0.4235159817351598,0.33945945945945943,0.5067253607238934,0.6461538461538462,0.43986543313709,1196.0
551.0,1.710925849677662e+18,0.4765013054830287,0.4143835616438356,0.3410810810810811,0.5037906578625581,0.6098901098901099,0.42977291841883936,1192.0
552.0,1.7109258496876416e+18,0.4765013054830287,0.4178082191780822,0.33297297297297296,0.5001222792858889,0.6362637362637362,0.43986543313709,1195.0
553.0,1.7109258496976563e+18,0.46736292428198434,0.410958904109589,0.3345945945945946,0.49474199070677427,0.5934065934065934,0.41968040370058873,1193.0
554.0,1.7109258497076403e+18,0.47780678851174935,0.4223744292237443,0.33945945945945943,0.49229640498899485,0.6395604395604395,0.4499579478553406,1197.0
555.0,1.7109258497176504e+18,0.48172323759791125,0.4246575342465753,0.3491891891891892,0.5055025678650037,0.6252747252747253,0.45164003364171573,1195.0
556.0,1.710925849727642e+18,0.4725848563968668,0.4178082191780822,0.3356756756756757,0.491807287845439,0.6197802197802198,0.42977291841883936,1194.0
557.0,1.7109258497376084e+18,0.4751958224543081,0.4155251141552511,0.33945945945945943,0.5064808021521154,0.6065934065934065,0.40117746005046256,1192.0
558.0,1.7109258497476416e+18,0.47780678851174935,0.4189497716894977,0.3324324324324324,0.5037906578625581,0.6296703296703297,0.45164003364171573,1194.0
559.0,1.7109258497576417e+18,0.4765013054830287,0.4417808219178082,0.3545945945945946,0.5135730007336757,0.6131868131868132,0.43902439024390244,1194.0
560.0,1.710925849767643e+18,0.47780678851174935,0.4212328767123288,0.3389189189189189,0.5055025678650037,0.634065934065934,0.43902439024390244,1194.0
561.0,1.710925849777651e+18,0.47911227154047,0.4178082191780822,0.34324324324324323,0.5077035950110051,0.6087912087912087,0.4432296047098402,1196.0
562.0,1.7109258497876431e+18,0.47780678851174935,0.4132420091324201,0.3291891891891892,0.5050134507214478,0.6648351648351648,0.45500420521446594,1193.0
563.0,1.7109258497976504e+18,0.4804177545691906,0.4223744292237443,0.34486486486486484,0.5050134507214478,0.6021978021978022,0.43650126156433977,1194.0
564.0,1.7109258498076447e+18,0.47780678851174935,0.4189497716894977,0.3362162162162162,0.49938860357055515,0.6241758241758242,0.4415475189234651,1193.0
565.0,1.7109258498176435e+18,0.4725848563968668,0.4075342465753425,0.32972972972972975,0.5008559550012228,0.6208791208791209,0.4482758620689655,1194.0
566.0,1.7109258498276733e+18,0.4725848563968668,0.4121004566210046,0.32972972972972975,0.516507703595011,0.6406593406593407,0.4314550042052145,1193.0
567.0,1.7109258498376443e+18,0.47127937336814624,0.4132420091324201,0.34162162162162163,0.5167522621667889,0.6307692307692307,0.40454163162321277,1193.0
568.0,1.710925849847644e+18,0.4765013054830287,0.4178082191780822,0.3356756756756757,0.5018341892883346,0.6373626373626373,0.43650126156433977,1193.0
569.0,1.7109258498576072e+18,0.4765013054830287,0.4178082191780822,0.3389189189189189,0.5089263878698949,0.6252747252747253,0.46173254835996635,1193.0
570.0,1.7109258498676467e+18,0.4725848563968668,0.4178082191780822,0.3318918918918919,0.49523110785033014,0.6406593406593407,0.4238856181665265,1192.0
571.0,1.7109258498776115e+18,0.4699738903394256,0.4121004566210046,0.34,0.5089263878698949,0.6296703296703297,0.44575273338940286,1194.0
572.0,1.7109258498876483e+18,0.47911227154047,0.4178082191780822,0.3318918918918919,0.5052580092932257,0.6384615384615384,0.44238856181665265,1194.0
573.0,1.7109258498976443e+18,0.4751958224543081,0.4098173515981735,0.3362162162162162,0.4913181707018831,0.5857142857142857,0.4373423044575273,1196.0
574.0,1.7109258499076452e+18,0.4804177545691906,0.4178082191780822,0.3335135135135135,0.5015896307165566,0.6406593406593407,0.40454163162321277,1193.0
575.0,1.7109258499176453e+18,0.47780678851174935,0.4121004566210046,0.33837837837837836,0.5064808021521154,0.6307692307692307,0.4465937762825904,1194.0
576.0,1.7109258499276472e+18,0.46344647519582244,0.4063926940639269,0.3286486486486486,0.471019809244314,0.6032967032967033,0.3936080740117746,1193.0
577.0,1.710925849937649e+18,0.4725848563968668,0.4337899543378995,0.34486486486486484,0.5023233064318905,0.6120879120879121,0.44575273338940286,1195.0
578.0,1.71092584994765e+18,0.4621409921671018,0.3995433789954338,0.3248648648648649,0.49938860357055515,0.6417582417582418,0.43566021867115223,1196.0
579.0,1.7109258499576466e+18,0.4804177545691906,0.4200913242009132,0.34324324324324323,0.49816581071166544,0.6065934065934065,0.43313708999158956,1192.0
580.0,1.7109258499676493e+18,0.47911227154047,0.4189497716894977,0.3372972972972973,0.5028124235754463,0.6307692307692307,0.43650126156433977,1197.0
581.0,1.7109258499776486e+18,0.47127937336814624,0.4121004566210046,0.3362162162162162,0.5059916850085595,0.6252747252747253,0.4415475189234651,1193.0
582.0,1.710925849987633e+18,0.4725848563968668,0.4246575342465753,0.3302702702702703,0.4974321349963316,0.6142857142857143,0.415475189234651,1191.0
583.0,1.7109258499976502e+18,0.4804177545691906,0.4223744292237443,0.34378378378378377,0.5094155050134507,0.6373626373626373,0.4465937762825904,1195.0
584.0,1.710925850007653e+18,0.4765013054830287,0.4200913242009132,0.3356756756756757,0.5086818292981169,0.6428571428571429,0.4373423044575273,1195.0
585.0,1.7109258500176515e+18,0.47389033942558745,0.4155251141552511,0.33837837837837836,0.5015896307165566,0.6197802197802198,0.4449116904962153,1195.0
586.0,1.7109258500276516e+18,0.48172323759791125,0.4200913242009132,0.33837837837837836,0.5099046221570066,0.6406593406593407,0.4432296047098402,1197.0
587.0,1.7109258500376556e+18,0.4830287206266319,0.4223744292237443,0.34756756756756757,0.5084372707263389,0.6406593406593407,0.4449116904962153,1195.0
588.0,1.7109258500476572e+18,0.46736292428198434,0.4041095890410959,0.3254054054054054,0.4937637564196625,0.6054945054945055,0.42640874684608915,1192.0
589.0,1.7109258500576538e+18,0.4725848563968668,0.4360730593607306,0.34702702702702704,0.4930300807043287,0.610989010989011,0.4339781328847771,1193.0
590.0,1.7109258500676526e+18,0.4660574412532637,0.3995433789954338,0.3237837837837838,0.4996331621423331,0.6230769230769231,0.36585365853658536,1192.0
591.0,1.710925850077636e+18,0.4765013054830287,0.4200913242009132,0.34486486486486484,0.5067253607238934,0.6208791208791209,0.43986543313709,1193.0
592.0,1.7109258500876598e+18,0.47389033942558745,0.4121004566210046,0.33135135135135135,0.5020787478601125,0.656043956043956,0.45248107653490327,1195.0
593.0,1.7109258500976596e+18,0.47127937336814624,0.4132420091324201,0.33675675675675676,0.49400831499144043,0.6197802197802198,0.44238856181665265,1197.0
594.0,1.7109258501076547e+18,0.4725848563968668,0.408675799086758,0.3264864864864865,0.49620934213744194,0.610989010989011,0.4314550042052145,1194.0
595.0,1.7109258501176364e+18,0.48172323759791125,0.4189497716894977,0.34378378378378377,0.4974321349963316,0.6164835164835165,0.4381833473507149,1195.0
596.0,1.710925850127637e+18,0.4765013054830287,0.4189497716894977,0.33513513513513515,0.5084372707263389,0.6274725274725275,0.4306139613120269,1192.0
597.0,1.710925850137662e+18,0.4751958224543081,0.4132420091324201,0.3335135135135135,0.5055025678650037,0.6010989010989011,0.4449116904962153,1195.0
598.0,1.7109258501476393e+18,0.46866840731070497,0.4098173515981735,0.3281081081081081,0.5074590364392272,0.6318681318681318,0.43566021867115223,1195.0
599.0,1.710925850157639e+18,0.4765013054830287,0.4235159817351598,0.34702702702702704,0.5067253607238934,0.5923076923076923,0.4507989907485282,1195.0
600.0,1.7109258501676388e+18,0.4725848563968668,0.4121004566210046,0.32756756756756755,0.5035460992907801,0.6450549450549451,0.44238856181665265,1195.0
601.0,1.710925850177634e+18,0.4765013054830287,0.4143835616438356,0.3362162162162162,0.5113719735876743,0.6175824175824176,0.4432296047098402,1196.0
602.0,1.710925850187666e+18,0.47127937336814624,0.4178082191780822,0.32972972972972975,0.5106382978723404,0.6417582417582418,0.42977291841883936,1192.0
603.0,1.710925850197625e+18,0.4751958224543081,0.4143835616438356,0.3427027027027027,0.5152849107361213,0.6417582417582418,0.45164003364171573,1197.0
604.0,1.7109258502076582e+18,0.4765013054830287,0.4132420091324201,0.3324324324324324,0.5018341892883346,0.6296703296703297,0.4381833473507149,1195.0
605.0,1.7109258502176407e+18,0.4595300261096606,0.4018264840182648,0.3324324324324324,0.491562729273661,0.5703296703296703,0.3986543313708999,1191.0
606.0,1.7109258502276416e+18,0.47780678851174935,0.4178082191780822,0.3318918918918919,0.49474199070677427,0.6318681318681318,0.4449116904962153,1194.0
607.0,1.7109258502376156e+18,0.4660574412532637,0.408675799086758,0.3362162162162162,0.5067253607238934,0.6274725274725275,0.4415475189234651,1195.0
608.0,1.7109258502476577e+18,0.4660574412532637,0.4075342465753425,0.3302702702702703,0.5006113964294449,0.6197802197802198,0.45164003364171573,1194.0
609.0,1.7109258502576376e+18,0.4751958224543081,0.4178082191780822,0.33837837837837836,0.5018341892883346,0.6054945054945055,0.4928511354079058,1197.0
610.0,1.7109258502676403e+18,0.4765013054830287,0.4189497716894977,0.3345945945945946,0.4937637564196625,0.6120879120879121,0.4112699747687132,1192.0
611.0,1.710925850277587e+18,0.4765013054830287,0.4143835616438356,0.3410810810810811,0.4974321349963316,0.6329670329670329,0.4432296047098402,1193.0
612.0,1.710925850287668e+18,0.4830287206266319,0.4200913242009132,0.33837837837837836,0.5069699192956714,0.6417582417582418,0.43902439024390244,1196.0
613.0,1.710925850297621e+18,0.4856396866840731,0.4235159817351598,0.3362162162162162,0.4937637564196625,0.6274725274725275,0.45164003364171573,1194.0
614.0,1.7109258503076383e+18,0.47780678851174935,0.4143835616438356,0.3335135135135135,0.4979212521398875,0.6285714285714286,0.4348191757779647,1196.0
615.0,1.7109258503176407e+18,0.4765013054830287,0.4155251141552511,0.3389189189189189,0.5077035950110051,0.6021978021978022,0.43650126156433977,1196.0
616.0,1.710925850327639e+18,0.4725848563968668,0.4178082191780822,0.3362162162162162,0.499877720714111,0.6318681318681318,0.4339781328847771,1194.0
617.0,1.7109258503376689e+18,0.4699738903394256,0.4155251141552511,0.34054054054054056,0.5008559550012228,0.6021978021978022,0.4373423044575273,1195.0
618.0,1.7109258503476444e+18,0.4751958224543081,0.4132420091324201,0.33297297297297296,0.5035460992907801,0.6428571428571429,0.4861227922624054,1194.0
619.0,1.7109258503575613e+18,0.48433420365535246,0.4200913242009132,0.3372972972972973,0.4937637564196625,0.6208791208791209,0.47771236333052985,1194.0
620.0,1.710925850367643e+18,0.47780678851174935,0.4178082191780822,0.33513513513513515,0.5013450721447786,0.6395604395604395,0.4449116904962153,1194.0
621.0,1.7109258503776243e+18,0.47127937336814624,0.4121004566210046,0.3362162162162162,0.4969430178527757,0.6010989010989011,0.4314550042052145,1193.0
622.0,1.7109258503876628e+18,0.4765013054830287,0.4052511415525114,0.3308108108108108,0.4925409635607728,0.6406593406593407,0.4348191757779647,1193.0
623.0,1.7109258503976448e+18,0.47780678851174935,0.4155251141552511,0.3372972972972973,0.5025678650036683,0.6164835164835165,0.4348191757779647,1193.0
624.0,1.7109258504076452e+18,0.4699738903394256,0.410958904109589,0.3318918918918919,0.5162631450232331,0.6450549450549451,0.43313708999158956,1192.0
625.0,1.7109258504176346e+18,0.4765013054830287,0.4189497716894977,0.34054054054054056,0.5116165321594522,0.6197802197802198,0.46173254835996635,1194.0
626.0,1.7109258504276406e+18,0.4765013054830287,0.4098173515981735,0.3254054054054054,0.5006113964294449,0.6329670329670329,0.44575273338940286,1196.0
627.0,1.7109258504376415e+18,0.46736292428198434,0.4098173515981735,0.33513513513513515,0.5047688921496698,0.6175824175824176,0.42977291841883936,1192.0
628.0,1.7109258504476508e+18,0.4725848563968668,0.408675799086758,0.3281081081081081,0.4986549278552213,0.6032967032967033,0.4348191757779647,1197.0
629.0,1.7109258504575834e+18,0.47911227154047,0.4200913242009132,0.3410810810810811,0.5067253607238934,0.6120879120879121,0.4339781328847771,1192.0
630.0,1.7109258504676419e+18,0.4765013054830287,0.4235159817351598,0.34486486486486484,0.49816581071166544,0.6032967032967033,0.4449116904962153,1196.0
631.0,1.71092585047764e+18,0.47911227154047,0.4246575342465753,0.34594594594594597,0.5052580092932257,0.6043956043956044,0.43902439024390244,1196.0
632.0,1.7109258504876444e+18,0.47389033942558745,0.4143835616438356,0.3318918918918919,0.4930300807043287,0.6131868131868132,0.4306139613120269,1192.0
633.0,1.7109258504976387e+18,0.4765013054830287,0.4143835616438356,0.3389189189189189,0.5079481535827831,0.5714285714285714,0.4373423044575273,1195.0
634.0,1.7109258505076424e+18,0.46736292428198434,0.3904109589041096,0.3237837837837838,0.5074590364392272,0.6450549450549451,0.41968040370058873,1193.0
635.0,1.71092585051763e+18,0.4765013054830287,0.410958904109589,0.3345945945945946,0.5020787478601125,0.6065934065934065,0.4339781328847771,1190.0
636.0,1.710925850527635e+18,0.46736292428198434,0.4052511415525114,0.3308108108108108,0.5113719735876743,0.6406593406593407,0.45164003364171573,1192.0
637.0,1.7109258505376387e+18,0.47127937336814624,0.4178082191780822,0.33837837837837836,0.5067253607238934,0.6208791208791209,0.4465937762825904,1196.0
638.0,1.7109258505476518e+18,0.4765013054830287,0.4212328767123288,0.34162162162162163,0.5057471264367817,0.6054945054945055,0.42977291841883936,1192.0
639.0,1.710925850557595e+18,0.47389033942558745,0.4155251141552511,0.34054054054054056,0.5047688921496698,0.6164835164835165,0.4634146341463415,1195.0
640.0,1.71092585056764e+18,0.4699738903394256,0.4178082191780822,0.3302702702702703,0.5067253607238934,0.6483516483516484,0.447434819175778,1197.0
641.0,1.7109258505776428e+18,0.47389033942558745,0.410958904109589,0.3362162162162162,0.5013450721447786,0.6142857142857143,0.4432296047098402,1197.0
642.0,1.710925850587639e+18,0.48172323759791125,0.4223744292237443,0.3356756756756757,0.5013450721447786,0.6494505494505495,0.4482758620689655,1193.0
643.0,1.7109258505979955e+18,0.46866840731070497,0.4132420091324201,0.3372972972972973,0.5035460992907801,0.6318681318681318,0.43650126156433977,1195.0
644.0,1.710925850607647e+18,0.4765013054830287,0.410958904109589,0.32972972972972975,0.5037906578625581,0.6571428571428571,0.44238856181665265,1195.0
645.0,1.710925850617639e+18,0.4725848563968668,0.4098173515981735,0.3372972972972973,0.5008559550012228,0.5967032967032967,0.4449116904962153,1195.0
646.0,1.710925850627637e+18,0.47780678851174935,0.408675799086758,0.32756756756756755,0.5037906578625581,0.6505494505494506,0.43650126156433977,1197.0
647.0,1.7109258506376392e+18,0.47389033942558745,0.4143835616438356,0.34162162162162163,0.5074590364392272,0.6175824175824176,0.4499579478553406,1194.0
648.0,1.7109258506476355e+18,0.4765013054830287,0.4235159817351598,0.33675675675675676,0.5015896307165566,0.6285714285714286,0.43566021867115223,1196.0
649.0,1.7109258506576458e+18,0.4725848563968668,0.4132420091324201,0.33945945945945943,0.5030569821472243,0.6208791208791209,0.43313708999158956,1192.0
650.0,1.710925850667646e+18,0.47127937336814624,0.4132420091324201,0.32972972972972975,0.48202494497432136,0.6296703296703297,0.4188393608074012,1192.0
651.0,1.7109258506776417e+18,0.4765013054830287,0.4132420091324201,0.33405405405405403,0.5028124235754463,0.6164835164835165,0.44911690496215306,1195.0
652.0,1.7109258506876396e+18,0.47911227154047,0.4155251141552511,0.3324324324324324,0.504524333577892,0.6516483516483517,0.432296047098402,1192.0
653.0,1.7109258506976479e+18,0.4725848563968668,0.4178082191780822,0.33945945945945943,0.4944974321349963,0.6142857142857143,0.42977291841883936,1192.0
654.0,1.7109258507076352e+18,0.47780678851174935,0.4178082191780822,0.33405405405405403,0.5018341892883346,0.6307692307692307,0.4373423044575273,1195.0
655.0,1.7109258507176433e+18,0.46866840731070497,0.4029680365296804,0.33675675675675676,0.5155294693078992,0.6098901098901099,0.43650126156433977,1197.0
656.0,1.71092585072764e+18,0.47780678851174935,0.4018264840182648,0.3237837837837838,0.5015896307165566,0.6450549450549451,0.4533221194280908,1196.0
657.0,1.7109258507376402e+18,0.4751958224543081,0.4178082191780822,0.34378378378378377,0.5121056493030081,0.6186813186813187,0.415475189234651,1192.0
658.0,1.7109258507476316e+18,0.46344647519582244,0.4075342465753425,0.3302702702702703,0.4988994864269993,0.5901098901098901,0.4121110176619008,1193.0
659.0,1.7109258507576358e+18,0.4751958224543081,0.4178082191780822,0.34054054054054056,0.49645390070921985,0.6153846153846154,0.44070647603027757,1192.0
660.0,1.7109258507676524e+18,0.4725848563968668,0.4132420091324201,0.3308108108108108,0.49107361213010514,0.6395604395604395,0.4163162321278385,1192.0
661.0,1.7109258507776404e+18,0.4869451697127937,0.4235159817351598,0.34486486486486484,0.5028124235754463,0.6351648351648351,0.4482758620689655,1197.0
662.0,1.710925850787661e+18,0.4765013054830287,0.4098173515981735,0.32432432432432434,0.5001222792858889,0.6494505494505495,0.432296047098402,1191.0
663.0,1.710925850797645e+18,0.47127937336814624,0.408675799086758,0.3362162162162162,0.49474199070677427,0.6164835164835165,0.4112699747687132,1190.0
664.0,1.7109258508076278e+18,0.4804177545691906,0.4189497716894977,0.3345945945945946,0.4991440449987772,0.6274725274725275,0.456686291000841,1193.0
665.0,1.7109258508176358e+18,0.47127937336814624,0.4132420091324201,0.3372972972972973,0.4991440449987772,0.6120879120879121,0.44911690496215306,1194.0
666.0,1.7109258508276362e+18,0.4725848563968668,0.4212328767123288,0.3389189189189189,0.508192712154561,0.6351648351648351,0.42052144659377627,1192.0
667.0,1.7109258508376364e+18,0.4725848563968668,0.4143835616438356,0.3362162162162162,0.5023233064318905,0.6285714285714286,0.4659377628259041,1195.0
668.0,1.7109258508476447e+18,0.48172323759791125,0.4132420091324201,0.32972972972972975,0.48789435069699194,0.6373626373626373,0.43986543313709,1193.0
669.0,1.710925850857636e+18,0.4765013054830287,0.4132420091324201,0.33297297297297296,0.5006113964294449,0.6153846153846154,0.4163162321278385,1192.0
670.0,1.7109258508676242e+18,0.46866840731070497,0.4098173515981735,0.32972972972972975,0.5047688921496698,0.667032967032967,0.43650126156433977,1196.0
671.0,1.7109258508776353e+18,0.46475195822454307,0.4063926940639269,0.3345945945945946,0.4966984592809978,0.5967032967032967,0.4314550042052145,1193.0
672.0,1.7109258508875843e+18,0.4765013054830287,0.4143835616438356,0.3335135135135135,0.5025678650036683,0.6461538461538462,0.4432296047098402,1196.0
673.0,1.7109258508975608e+18,0.47127937336814624,0.408675799086758,0.33783783783783783,0.5020787478601125,0.6241758241758242,0.4449116904962153,1195.0
674.0,1.7109258509076434e+18,0.46736292428198434,0.4063926940639269,0.32756756756756755,0.5020787478601125,0.6241758241758242,0.447434819175778,1197.0
675.0,1.7109258509176297e+18,0.489556135770235,0.430365296803653,0.3427027027027027,0.5047688921496698,0.6010989010989011,0.4415475189234651,1197.0
676.0,1.7109258509276355e+18,0.4621409921671018,0.4029680365296804,0.3216216216216216,0.49523110785033014,0.6252747252747253,0.4280908326324643,1192.0
677.0,1.7109258509376402e+18,0.46866840731070497,0.4132420091324201,0.33945945945945943,0.49205184641721694,0.6054945054945055,0.4339781328847771,1192.0
678.0,1.7109258509476413e+18,0.4660574412532637,0.386986301369863,0.31945945945945947,0.4988994864269993,0.6274725274725275,0.43313708999158956,1193.0
679.0,1.7109258509576645e+18,0.4751958224543081,0.408675799086758,0.3302702702702703,0.4971875764245537,0.5978021978021978,0.43986543313709,1195.0
680.0,1.7109258509676268e+18,0.47780678851174935,0.4200913242009132,0.33837837837837836,0.5028124235754463,0.6483516483516484,0.4373423044575273,1194.0
681.0,1.7109258509776494e+18,0.4725848563968668,0.4075342465753425,0.33837837837837836,0.5079481535827831,0.6362637362637362,0.4432296047098402,1194.0
682.0,1.7109258509876337e+18,0.4765013054830287,0.4178082191780822,0.33297297297297296,0.5028124235754463,0.654945054945055,0.4440706476030278,1193.0
683.0,1.7109258509976407e+18,0.4725848563968668,0.4132420091324201,0.33945945945945943,0.5025678650036683,0.6230769230769231,0.4432296047098402,1195.0
684.0,1.7109258510076733e+18,0.47780678851174935,0.4178082191780822,0.33297297297297296,0.49474199070677427,0.6274725274725275,0.43650126156433977,1194.0
685.0,1.710925851017647e+18,0.47127937336814624,0.4178082191780822,0.3410810810810811,0.5023233064318905,0.6175824175824176,0.47434819175777965,1196.0
686.0,1.7109258510276424e+18,0.4699738903394256,0.408675799086758,0.32756756756756755,0.48691611640988014,0.6252747252747253,0.447434819175778,1193.0
687.0,1.7109258510376346e+18,0.4725848563968668,0.4212328767123288,0.3464864864864865,0.5028124235754463,0.6252747252747253,0.43650126156433977,1194.0
688.0,1.710925851047636e+18,0.4934725848563969,0.4280821917808219,0.33783783783783783,0.5006113964294449,0.6538461538461539,0.43902439024390244,1196.0
689.0,1.7109258510576384e+18,0.4765013054830287,0.4189497716894977,0.34,0.4996331621423331,0.610989010989011,0.4179983179142136,1191.0
690.0,1.710925851067638e+18,0.4804177545691906,0.4132420091324201,0.3308108108108108,0.4827586206896552,0.634065934065934,0.432296047098402,1194.0
691.0,1.7109258510776312e+18,0.47911227154047,0.4269406392694064,0.3345945945945946,0.5094155050134507,0.6450549450549451,0.4280908326324643,1193.0
692.0,1.7109258510875965e+18,0.48172323759791125,0.4223744292237443,0.33405405405405403,0.4988994864269993,0.6208791208791209,0.43986543313709,1198.0
693.0,1.710925851097638e+18,0.4699738903394256,0.4121004566210046,0.3324324324324324,0.49498654927855223,0.5923076923076923,0.43986543313709,1195.0
694.0,1.710925851107657e+18,0.4725848563968668,0.4178082191780822,0.33513513513513515,0.4991440449987772,0.6307692307692307,0.43902439024390244,1196.0
695.0,1.7109258511176484e+18,0.47127937336814624,0.4052511415525114,0.3324324324324324,0.5055025678650037,0.6142857142857143,0.43650126156433977,1197.0
696.0,1.710925851127627e+18,0.47911227154047,0.4098173515981735,0.32756756756756755,0.4979212521398875,0.6186813186813187,0.4373423044575273,1194.0
697.0,1.7109258511376474e+18,0.47780678851174935,0.4155251141552511,0.34540540540540543,0.5006113964294449,0.6197802197802198,0.4499579478553406,1196.0
698.0,1.7109258511476378e+18,0.4725848563968668,0.4200913242009132,0.3318918918918919,0.4942528735632184,0.6164835164835165,0.432296047098402,1192.0
699.0,1.710925851157639e+18,0.47389033942558745,0.4189497716894977,0.34162162162162163,0.4996331621423331,0.6098901098901099,0.4381833473507149,1194.0
700.0,1.7109258511676383e+18,0.47911227154047,0.4178082191780822,0.32756756756756755,0.5172413793103449,0.6472527472527473,0.4634146341463415,1193.0
701.0,1.7109258511776428e+18,0.48172323759791125,0.4178082191780822,0.33297297297297296,0.4954756664221081,0.6175824175824176,0.44238856181665265,1194.0
702.0,1.710925851187642e+18,0.47911227154047,0.4200913242009132,0.3389189189189189,0.5018341892883346,0.6010989010989011,0.4339781328847771,1192.0
703.0,1.710925851197639e+18,0.47389033942558745,0.4143835616438356,0.3356756756756757,0.49033993641477136,0.6021978021978022,0.40706476030277544,1193.0
704.0,1.7109258512076403e+18,0.4660574412532637,0.4063926940639269,0.3302702702702703,0.5030569821472243,0.6362637362637362,0.43650126156433977,1194.0
705.0,1.710925851217643e+18,0.47780678851174935,0.4200913242009132,0.34216216216216216,0.48618244069454636,0.6131868131868132,0.4415475189234651,1196.0
706.0,1.710925851227643e+18,0.489556135770235,0.4257990867579909,0.34054054054054056,0.5250672536072389,0.6450549450549451,0.4121110176619008,1193.0
707.0,1.7109258512376417e+18,0.4765013054830287,0.410958904109589,0.3362162162162162,0.5067253607238934,0.6230769230769231,0.44575273338940286,1195.0
708.0,1.7109258512476362e+18,0.46736292428198434,0.4132420091324201,0.3308108108108108,0.5025678650036683,0.6450549450549451,0.4482758620689655,1195.0
709.0,1.710925851257636e+18,0.4830287206266319,0.4178082191780822,0.3443243243243243,0.4966984592809978,0.6076923076923076,0.42304457527333894,1193.0
710.0,1.7109258512676426e+18,0.48172323759791125,0.4178082191780822,0.3335135135135135,0.5135730007336757,0.6582417582417582,0.43986543313709,1196.0
711.0,1.7109258512776422e+18,0.47911227154047,0.4200913242009132,0.34054054054054056,0.5074590364392272,0.6175824175824176,0.4482758620689655,1198.0
712.0,1.7109258512876419e+18,0.47389033942558745,0.410958904109589,0.32756756756756755,0.5086818292981169,0.6725274725274726,0.4533221194280908,1196.0
713.0,1.7109258512976435e+18,0.47127937336814624,0.408675799086758,0.3372972972972973,0.5089263878698949,0.6417582417582418,0.4507989907485282,1196.0
714.0,1.7109258513076713e+18,0.47780678851174935,0.4143835616438356,0.3248648648648649,0.5074590364392272,0.6758241758241759,0.4507989907485282,1194.0
715.0,1.7109258513176525e+18,0.47911227154047,0.4189497716894977,0.33945945945945943,0.4937637564196625,0.6120879120879121,0.44070647603027757,1196.0
716.0,1.7109258513276564e+18,0.47780678851174935,0.4121004566210046,0.33135135135135135,0.504279775006114,0.6373626373626373,0.4121110176619008,1191.0
717.0,1.7109258513376433e+18,0.47780678851174935,0.4257990867579909,0.3491891891891892,0.5059916850085595,0.6087912087912087,0.4634146341463415,1195.0
718.0,1.710925851347614e+18,0.47911227154047,0.4178082191780822,0.3291891891891892,0.5140621178772316,0.6494505494505495,0.4306139613120269,1192.0
719.0,1.7109258513576474e+18,0.46866840731070497,0.3915525114155251,0.3248648648648649,0.49327463927610665,0.5923076923076923,0.4432296047098402,1196.0
720.0,1.710925851367657e+18,0.4830287206266319,0.4098173515981735,0.3248648648648649,0.4859378821227684,0.6241758241758242,0.4625735912531539,1196.0
721.0,1.710925851377632e+18,0.47127937336814624,0.4075342465753425,0.3372972972972973,0.5023233064318905,0.6065934065934065,0.4482758620689655,1194.0
722.0,1.710925851387646e+18,0.47389033942558745,0.4098173515981735,0.3281081081081081,0.49645390070921985,0.5912087912087912,0.4280908326324643,1192.0
723.0,1.7109258513976458e+18,0.48172323759791125,0.4223744292237443,0.34486486486486484,0.512594766446564,0.6087912087912087,0.4415475189234651,1193.0
724.0,1.7109258514076465e+18,0.47127937336814624,0.4075342465753425,0.3281081081081081,0.5106382978723404,0.6417582417582418,0.4634146341463415,1196.0
725.0,1.710925851417655e+18,0.4765013054830287,0.4166666666666667,0.3372972972972973,0.5072144778674492,0.6406593406593407,0.4289318755256518,1192.0
726.0,1.7109258514276442e+18,0.4725848563968668,0.4178082191780822,0.33405405405405403,0.5008559550012228,0.6373626373626373,0.4348191757779647,1193.0
727.0,1.710925851437643e+18,0.47780678851174935,0.4178082191780822,0.3427027027027027,0.49620934213744194,0.6032967032967033,0.4482758620689655,1194.0
728.0,1.7109258514476454e+18,0.4830287206266319,0.4223744292237443,0.3362162162162162,0.4971875764245537,0.6318681318681318,0.45500420521446594,1195.0
729.0,1.7109258514576484e+18,0.48172323759791125,0.4246575342465753,0.34756756756756757,0.495720224993886,0.6098901098901099,0.4592094196804037,1195.0
730.0,1.7109258514676485e+18,0.47911227154047,0.4178082191780822,0.32972972972972975,0.5037906578625581,0.6538461538461539,0.4465937762825904,1195.0
731.0,1.710925851477651e+18,0.4804177545691906,0.4315068493150685,0.34486486486486484,0.5077035950110051,0.610989010989011,0.46173254835996635,1194.0
732.0,1.7109258514876488e+18,0.4804177545691906,0.410958904109589,0.3248648648648649,0.5028124235754463,0.6450549450549451,0.4314550042052145,1194.0
733.0,1.710925851497649e+18,0.47389033942558745,0.410958904109589,0.33675675675675676,0.47640009782342874,0.5736263736263736,0.43650126156433977,1197.0
734.0,1.7109258515076495e+18,0.47127937336814624,0.4235159817351598,0.3362162162162162,0.5108828564441183,0.6318681318681318,0.46173254835996635,1193.0
735.0,1.71092585151765e+18,0.47127937336814624,0.4098173515981735,0.3356756756756757,0.49205184641721694,0.6032967032967033,0.4751892346509672,1196.0
736.0,1.7109258515276562e+18,0.47389033942558745,0.410958904109589,0.3324324324324324,0.4991440449987772,0.6329670329670329,0.4247266610597141,1194.0
737.0,1.7109258515376433e+18,0.4699738903394256,0.4041095890410959,0.3324324324324324,0.4974321349963316,0.5978021978021978,0.4280908326324643,1193.0
738.0,1.7109258515476375e+18,0.46736292428198434,0.4098173515981735,0.3318918918918919,0.5077035950110051,0.6197802197802198,0.4381833473507149,1194.0
739.0,1.7109258515576376e+18,0.4830287206266319,0.4223744292237443,0.3427027027027027,0.5101491807287846,0.634065934065934,0.4499579478553406,1195.0
740.0,1.7109258515676726e+18,0.47127937336814624,0.4075342465753425,0.3281081081081081,0.4800684764000978,0.610989010989011,0.4247266610597141,1192.0
741.0,1.7109258515776573e+18,0.48433420365535246,0.4269406392694064,0.34702702702702704,0.5006113964294449,0.5934065934065934,0.4381833473507149,1195.0
742.0,1.710925851587636e+18,0.47780678851174935,0.4155251141552511,0.33297297297297296,0.5001222792858889,0.6285714285714286,0.43986543313709,1195.0
743.0,1.7109258515976358e+18,0.4725848563968668,0.4132420091324201,0.3372972972972973,0.48373685497676694,0.589010989010989,0.45164003364171573,1195.0
744.0,1.7109258516076378e+18,0.47911227154047,0.4200913242009132,0.3318918918918919,0.49816581071166544,0.6098901098901099,0.4314550042052145,1192.0
745.0,1.7109258516176673e+18,0.4660574412532637,0.4098173515981735,0.3362162162162162,0.5062362435803375,0.6065934065934065,0.3776282590412111,1192.0
746.0,1.7109258516276357e+18,0.47389033942558745,0.4075342465753425,0.3281081081081081,0.5096600635852286,0.6472527472527473,0.4415475189234651,1194.0
747.0,1.7109258516376476e+18,0.46344647519582244,0.4075342465753425,0.33513513513513515,0.5152849107361213,0.6153846153846154,0.43902439024390244,1197.0
748.0,1.710925851647642e+18,0.4869451697127937,0.4223744292237443,0.33837837837837836,0.5011005135730008,0.6736263736263737,0.44911690496215306,1195.0
749.0,1.7109258516576404e+18,0.4751958224543081,0.410958904109589,0.33675675675675676,0.5128393250183418,0.654945054945055,0.45164003364171573,1195.0
750.0,1.710925851667643e+18,0.47780678851174935,0.4200913242009132,0.3362162162162162,0.4979212521398875,0.6450549450549451,0.4415475189234651,1195.0
751.0,1.710925851677641e+18,0.48172323759791125,0.4235159817351598,0.3427027027027027,0.5130838835901198,0.5989010989010989,0.4238856181665265,1193.0
752.0,1.710925851687639e+18,0.48172323759791125,0.4200913242009132,0.3362162162162162,0.5221325507459036,0.6626373626373626,0.4533221194280908,1195.0
753.0,1.710925851697639e+18,0.4765013054830287,0.4143835616438356,0.3372972972972973,0.5015896307165566,0.6197802197802198,0.44575273338940286,1194.0
754.0,1.7109258517076434e+18,0.4725848563968668,0.4132420091324201,0.3302702702702703,0.5067253607238934,0.6307692307692307,0.4213624894869638,1193.0
755.0,1.7109258517176422e+18,0.49477806788511747,0.432648401826484,0.34702702702702704,0.4996331621423331,0.6208791208791209,0.37846930193439865,1193.0
756.0,1.7109258517276367e+18,0.47780678851174935,0.4132420091324201,0.33405405405405403,0.5077035950110051,0.6362637362637362,0.4415475189234651,1195.0
757.0,1.7109258517376515e+18,0.4765013054830287,0.4292237442922374,0.35081081081081084,0.5077035950110051,0.6032967032967033,0.4482758620689655,1197.0
758.0,1.7109258517476536e+18,0.4660574412532637,0.4121004566210046,0.3302702702702703,0.5094155050134507,0.6505494505494506,0.3700588730025231,1193.0
759.0,1.7109258517576704e+18,0.4725848563968668,0.4155251141552511,0.33783783783783783,0.4925409635607728,0.6153846153846154,0.4482758620689655,1193.0
760.0,1.7109258517676628e+18,0.4765013054830287,0.4166666666666667,0.3345945945945946,0.4937637564196625,0.5945054945054945,0.4255677039529016,1190.0
761.0,1.7109258517776453e+18,0.46475195822454307,0.410958904109589,0.33135135135135135,0.5015896307165566,0.6186813186813187,0.4507989907485282,1195.0
762.0,1.710925851787641e+18,0.4765013054830287,0.4132420091324201,0.3318918918918919,0.5025678650036683,0.6197802197802198,0.4222035323801514,1190.0
763.0,1.710925851797641e+18,0.47780678851174935,0.4178082191780822,0.3362162162162162,0.4979212521398875,0.5846153846153846,0.4238856181665265,1192.0
764.0,1.7109258518076413e+18,0.4621409921671018,0.408675799086758,0.3302702702702703,0.49474199070677427,0.5912087912087912,0.4146341463414634,1191.0
765.0,1.7109258518176412e+18,0.46475195822454307,0.4006849315068493,0.3286486486486486,0.48251406211787723,0.5901098901098901,0.41968040370058873,1192.0
766.0,1.7109258518276419e+18,0.47389033942558745,0.4189497716894977,0.3362162162162162,0.5020787478601125,0.6384615384615384,0.4280908326324643,1192.0
767.0,1.710925851837662e+18,0.46475195822454307,0.4063926940639269,0.3335135135135135,0.5133284421618978,0.6252747252747253,0.4482758620689655,1193.0
768.0,1.710925851847647e+18,0.47389033942558745,0.4075342465753425,0.327027027027027,0.5025678650036683,0.6131868131868132,0.45164003364171573,1194.0
769.0,1.710925851857642e+18,0.47911227154047,0.4178082191780822,0.34054054054054056,0.5015896307165566,0.6373626373626373,0.4449116904962153,1194.0
770.0,1.710925851867644e+18,0.46344647519582244,0.4018264840182648,0.31675675675675674,0.48740523355343607,0.6230769230769231,0.4482758620689655,1194.0
771.0,1.710925851877669e+18,0.46344647519582244,0.4041095890410959,0.3318918918918919,0.4986549278552213,0.5791208791208792,0.4213624894869638,1192.0
772.0,1.710925851887648e+18,0.4595300261096606,0.3995433789954338,0.3178378378378378,0.49816581071166544,0.6384615384615384,0.4381833473507149,1191.0
773.0,1.7109258518976584e+18,0.4804177545691906,0.4280821917808219,0.3497297297297297,0.5101491807287846,0.6318681318681318,0.4449116904962153,1193.0
774.0,1.7109258519076403e+18,0.48172323759791125,0.4223744292237443,0.33675675675675676,0.49474199070677427,0.621978021978022,0.4499579478553406,1196.0
775.0,1.7109258519176397e+18,0.46736292428198434,0.4052511415525114,0.3335135135135135,0.49400831499144043,0.6120879120879121,0.42304457527333894,1192.0
776.0,1.7109258519276365e+18,0.47127937336814624,0.408675799086758,0.3254054054054054,0.4830031792614331,0.6230769230769231,0.44575273338940286,1194.0
777.0,1.7109258519376412e+18,0.4765013054830287,0.4200913242009132,0.34702702702702704,0.5001222792858889,0.5813186813186814,0.43650126156433977,1195.0
778.0,1.710925851947628e+18,0.46475195822454307,0.4029680365296804,0.3254054054054054,0.4966984592809978,0.6472527472527473,0.4280908326324643,1194.0
779.0,1.710925851957638e+18,0.47780678851174935,0.4166666666666667,0.3372972972972973,0.4991440449987772,0.6087912087912087,0.4415475189234651,1195.0
780.0,1.7109258519676393e+18,0.4869451697127937,0.4235159817351598,0.33783783783783783,0.49938860357055515,0.654945054945055,0.45164003364171573,1194.0
781.0,1.7109258519776402e+18,0.4765013054830287,0.410958904109589,0.33405405405405403,0.5069699192956714,0.589010989010989,0.44911690496215306,1194.0
782.0,1.7109258519876608e+18,0.4725848563968668,0.410958904109589,0.3286486486486486,0.4966984592809978,0.6362637362637362,0.43902439024390244,1193.0
783.0,1.7109258519976422e+18,0.47911227154047,0.4178082191780822,0.33783783783783783,0.49474199070677427,0.621978021978022,0.44911690496215306,1194.0
784.0,1.7109258520076419e+18,0.4725848563968668,0.4132420091324201,0.3308108108108108,0.5028124235754463,0.6604395604395604,0.43313708999158956,1192.0
785.0,1.7109258520176412e+18,0.48172323759791125,0.4178082191780822,0.34054054054054056,0.47664465639520665,0.6021978021978022,0.42977291841883936,1192.0
786.0,1.7109258520276465e+18,0.4765013054830287,0.4121004566210046,0.32594594594594595,0.5020787478601125,0.6175824175824176,0.4415475189234651,1196.0
787.0,1.7109258520376584e+18,0.4765013054830287,0.4223744292237443,0.3464864864864865,0.5233553436047933,0.5956043956043956,0.44238856181665265,1197.0
788.0,1.710925852047644e+18,0.4765013054830287,0.4132420091324201,0.33945945945945943,0.5213988750305698,0.6538461538461539,0.4247266610597141,1193.0
789.0,1.7109258520576484e+18,0.47389033942558745,0.4166666666666667,0.33945945945945943,0.5057471264367817,0.6285714285714286,0.38183347350714886,1192.0
790.0,1.7109258520676406e+18,0.47389033942558745,0.4189497716894977,0.33297297297297296,0.5064808021521154,0.6274725274725275,0.4255677039529016,1193.0
791.0,1.710925852077647e+18,0.4595300261096606,0.4041095890410959,0.3302702702702703,0.5077035950110051,0.6164835164835165,0.4499579478553406,1192.0
792.0,1.7109258520877158e+18,0.48172323759791125,0.4223744292237443,0.33513513513513515,0.5108828564441183,0.6648351648351648,0.46173254835996635,1193.0
793.0,1.7109258520976512e+18,0.48172323759791125,0.4223744292237443,0.34,0.5067253607238934,0.6318681318681318,0.4482758620689655,1196.0
794.0,1.7109258521076498e+18,0.46866840731070497,0.4098173515981735,0.33135135135135135,0.5157740278796772,0.6362637362637362,0.44238856181665265,1193.0
795.0,1.7109258521176522e+18,0.4765013054830287,0.4212328767123288,0.34378378378378377,0.48789435069699194,0.6054945054945055,0.4625735912531539,1197.0
796.0,1.7109258521276508e+18,0.4660574412532637,0.3995433789954338,0.31891891891891894,0.49498654927855223,0.6395604395604395,0.4415475189234651,1195.0
797.0,1.7109258521376645e+18,0.4765013054830287,0.410958904109589,0.33675675675675676,0.49620934213744194,0.6164835164835165,0.44575273338940286,1195.0
798.0,1.7109258521476608e+18,0.47127937336814624,0.410958904109589,0.3318918918918919,0.512350207874786,0.6835164835164835,0.4852817493692178,1196.0
799.0,1.710925852157664e+18,0.4699738903394256,0.4098173515981735,0.33513513513513515,0.49938860357055515,0.621978021978022,0.46173254835996635,1193.0
800.0,1.7109258521676547e+18,0.47127937336814624,0.4052511415525114,0.32432432432432434,0.4979212521398875,0.6252747252747253,0.4381833473507149,1194.0
801.0,1.7109258521776763e+18,0.47780678851174935,0.4200913242009132,0.34594594594594597,0.5037906578625581,0.6252747252747253,0.4373423044575273,1196.0
802.0,1.7109258521876644e+18,0.47780678851174935,0.4132420091324201,0.33405405405405403,0.5006113964294449,0.6373626373626373,0.4449116904962153,1193.0
803.0,1.710925852197646e+18,0.47389033942558745,0.4132420091324201,0.3372972972972973,0.504035216434336,0.634065934065934,0.4306139613120269,1192.0
804.0,1.7109258522076398e+18,0.4725848563968668,0.408675799086758,0.32756756756756755,0.495964783565664,0.6285714285714286,0.4247266610597141,1192.0
805.0,1.710925852217611e+18,0.48433420365535246,0.4235159817351598,0.34540540540540543,0.5025678650036683,0.6241758241758242,0.41042893187552565,1193.0
806.0,1.7109258522276447e+18,0.4725848563968668,0.4098173515981735,0.3302702702702703,0.4900953778429934,0.6351648351648351,0.4381833473507149,1193.0
807.0,1.7109258522376417e+18,0.47127937336814624,0.4132420091324201,0.3427027027027027,0.5094155050134507,0.6076923076923076,0.44238856181665265,1195.0
808.0,1.7109258522476518e+18,0.4765013054830287,0.4178082191780822,0.3362162162162162,0.5008559550012228,0.6417582417582418,0.45164003364171573,1195.0
809.0,1.7109258522576484e+18,0.4725848563968668,0.4155251141552511,0.3362162162162162,0.4984103692834434,0.6120879120879121,0.43650126156433977,1196.0
810.0,1.710925852267645e+18,0.4725848563968668,0.4098173515981735,0.32972972972972975,0.49938860357055515,0.6373626373626373,0.4381833473507149,1194.0
811.0,1.710925852277652e+18,0.47780678851174935,0.4200913242009132,0.34054054054054056,0.5067253607238934,0.6054945054945055,0.43902439024390244,1196.0
812.0,1.7109258522876557e+18,0.4765013054830287,0.4155251141552511,0.3286486486486486,0.5011005135730008,0.6373626373626373,0.43566021867115223,1196.0
813.0,1.7109258522976376e+18,0.46736292428198434,0.4098173515981735,0.33405405405405403,0.49767669356810956,0.610989010989011,0.43566021867115223,1195.0
814.0,1.7109258523076378e+18,0.47389033942558745,0.4143835616438356,0.3308108108108108,0.48642699926632427,0.6461538461538462,0.4381833473507149,1197.0
815.0,1.7109258523176387e+18,0.4725848563968668,0.410958904109589,0.33513513513513515,0.4927855221325507,0.6,0.4339781328847771,1193.0
816.0,1.710925852327638e+18,0.4660574412532637,0.410958904109589,0.3356756756756757,0.5260454878943507,0.6846153846153846,0.4701429772918419,1193.0
817.0,1.7109258523376535e+18,0.4725848563968668,0.4166666666666667,0.33675675675675676,0.5077035950110051,0.6142857142857143,0.464255677039529,1194.0
818.0,1.7109258523476306e+18,0.48172323759791125,0.4178082191780822,0.33837837837837836,0.49498654927855223,0.6065934065934065,0.432296047098402,1194.0
819.0,1.7109258523576448e+18,0.46736292428198434,0.408675799086758,0.3345945945945946,0.5094155050134507,0.6274725274725275,0.4415475189234651,1195.0
820.0,1.710925852367645e+18,0.4765013054830287,0.4143835616438356,0.33135135135135135,0.504524333577892,0.6395604395604395,0.4482758620689655,1195.0
821.0,1.710925852377641e+18,0.47780678851174935,0.4178082191780822,0.33783783783783783,0.5028124235754463,0.6230769230769231,0.415475189234651,1193.0
822.0,1.710925852387642e+18,0.47911227154047,0.4178082191780822,0.33135135135135135,0.4925409635607728,0.6384615384615384,0.43566021867115223,1193.0
823.0,1.7109258523976374e+18,0.47389033942558745,0.4155251141552511,0.3372972972972973,0.48911714355588165,0.610989010989011,0.43902439024390244,1195.0
824.0,1.710925852407637e+18,0.4660574412532637,0.4063926940639269,0.32972972972972975,0.5047688921496698,0.6362637362637362,0.4381833473507149,1195.0
825.0,1.7109258524176374e+18,0.46866840731070497,0.4052511415525114,0.3345945945945946,0.5020787478601125,0.6142857142857143,0.44911690496215306,1194.0
826.0,1.7109258524276355e+18,0.4608355091383812,0.4052511415525114,0.3237837837837838,0.5201760821716801,0.6164835164835165,0.432296047098402,1192.0
827.0,1.7109258524376658e+18,0.47780678851174935,0.4178082191780822,0.3389189189189189,0.5015896307165566,0.6120879120879121,0.4415475189234651,1196.0
828.0,1.7109258524476795e+18,0.4725848563968668,0.4132420091324201,0.33297297297297296,0.5084372707263389,0.6472527472527473,0.4306139613120269,1193.0
829.0,1.710925852457641e+18,0.4725848563968668,0.4143835616438356,0.33837837837837836,0.49205184641721694,0.6175824175824176,0.4146341463414634,1193.0
830.0,1.7109258524676344e+18,0.4765013054830287,0.4132420091324201,0.32594594594594595,0.495964783565664,0.6450549450549451,0.45248107653490327,1195.0
831.0,1.7109258524776701e+18,0.4660574412532637,0.4075342465753425,0.33405405405405403,0.49474199070677427,0.5934065934065934,0.4339781328847771,1195.0
832.0,1.7109258524876488e+18,0.4725848563968668,0.4121004566210046,0.3286486486486486,0.5084372707263389,0.6384615384615384,0.4348191757779647,1195.0
833.0,1.7109258524976422e+18,0.46866840731070497,0.4200913242009132,0.3464864864864865,0.5096600635852286,0.5967032967032967,0.432296047098402,1193.0
834.0,1.71092585250764e+18,0.4765013054830287,0.4143835616438356,0.3372972972972973,0.5018341892883346,0.6208791208791209,0.4289318755256518,1193.0
835.0,1.7109258525176407e+18,0.4765013054830287,0.4155251141552511,0.3362162162162162,0.5064808021521154,0.6406593406593407,0.4415475189234651,1195.0
836.0,1.7109258525276403e+18,0.47780678851174935,0.4178082191780822,0.3345945945945946,0.49498654927855223,0.6461538461538462,0.4440706476030278,1194.0
837.0,1.7109258525376696e+18,0.46866840731070497,0.4063926940639269,0.33297297297297296,0.4927855221325507,0.6131868131868132,0.43566021867115223,1194.0
838.0,1.7109258525476293e+18,0.48172323759791125,0.4269406392694064,0.3389189189189189,0.5057471264367817,0.6318681318681318,0.464255677039529,1193.0
839.0,1.710925852557637e+18,0.47127937336814624,0.4098173515981735,0.33675675675675676,0.5099046221570066,0.6142857142857143,0.43313708999158956,1193.0
840.0,1.7109258525676457e+18,0.4765013054830287,0.4178082191780822,0.33405405405405403,0.4979212521398875,0.6307692307692307,0.44911690496215306,1197.0
841.0,1.7109258525776568e+18,0.4765013054830287,0.4121004566210046,0.3362162162162162,0.4966984592809978,0.6098901098901099,0.4432296047098402,1196.0
842.0,1.710925852587678e+18,0.4869451697127937,0.4212328767123288,0.3324324324324324,0.491807287845439,0.6428571428571429,0.4482758620689655,1194.0
843.0,1.7109258525975926e+18,0.47127937336814624,0.4132420091324201,0.3362162162162162,0.5094155050134507,0.6065934065934065,0.4339781328847771,1193.0
844.0,1.7109258526076362e+18,0.47780678851174935,0.4155251141552511,0.33297297297297296,0.4888725849841037,0.6329670329670329,0.4062237174095879,1192.0
845.0,1.7109258526176358e+18,0.4725848563968668,0.4075342465753425,0.3362162162162162,0.4888725849841037,0.6087912087912087,0.4415475189234651,1196.0
846.0,1.7109258526276365e+18,0.4804177545691906,0.4132420091324201,0.32432432432432434,0.48789435069699194,0.6329670329670329,0.44238856181665265,1198.0
847.0,1.7109258526376238e+18,0.4765013054830287,0.4166666666666667,0.33675675675675676,0.48985081927121543,0.6208791208791209,0.4432296047098402,1196.0
848.0,1.7109258526476378e+18,0.4765013054830287,0.4166666666666667,0.3362162162162162,0.5050134507214478,0.6120879120879121,0.4289318755256518,1194.0
849.0,1.7109258526576415e+18,0.4765013054830287,0.4155251141552511,0.3389189189189189,0.5113719735876743,0.6032967032967033,0.43986543313709,1195.0
850.0,1.7109258526676413e+18,0.47911227154047,0.4155251141552511,0.33135135135135135,0.5028124235754463,0.6274725274725275,0.4499579478553406,1194.0
851.0,1.7109258526776333e+18,0.4725848563968668,0.4143835616438356,0.3389189189189189,0.5035460992907801,0.6285714285714286,0.4415475189234651,1195.0
852.0,1.7109258526876273e+18,0.4765013054830287,0.4166666666666667,0.33135135135135135,0.5018341892883346,0.6472527472527473,0.43986543313709,1195.0
853.0,1.7109258526976404e+18,0.48433420365535246,0.4246575342465753,0.3427027027027027,0.4986549278552213,0.6010989010989011,0.4163162321278385,1192.0
854.0,1.7109258527076375e+18,0.47389033942558745,0.4121004566210046,0.33405405405405403,0.5169968207385669,0.676923076923077,0.4482758620689655,1196.0
855.0,1.710925852717638e+18,0.4699738903394256,0.410958904109589,0.33513513513513515,0.5143066764490095,0.6197802197802198,0.4381833473507149,1196.0
856.0,1.710925852727635e+18,0.4725848563968668,0.4178082191780822,0.33405405405405403,0.5057471264367817,0.6274725274725275,0.4381833473507149,1196.0
857.0,1.7109258527376538e+18,0.47911227154047,0.4212328767123288,0.3410810810810811,0.5069699192956714,0.6175824175824176,0.44238856181665265,1196.0
858.0,1.7109258527476196e+18,0.4830287206266319,0.4200913242009132,0.3318918918918919,0.5008559550012228,0.6296703296703297,0.4415475189234651,1194.0
859.0,1.7109258527576197e+18,0.4765013054830287,0.410958904109589,0.3356756756756757,0.49938860357055515,0.6098901098901099,0.45500420521446594,1196.0
860.0,1.7109258527676372e+18,0.47389033942558745,0.4200913242009132,0.3362162162162162,0.5089263878698949,0.6142857142857143,0.4314550042052145,1192.0
861.0,1.7109258527776494e+18,0.47911227154047,0.410958904109589,0.3362162162162162,0.512594766446564,0.6186813186813187,0.43650126156433977,1196.0
862.0,1.7109258527876385e+18,0.47780678851174935,0.4143835616438356,0.3324324324324324,0.491562729273661,0.6362637362637362,0.4381833473507149,1194.0
863.0,1.7109258527976215e+18,0.47911227154047,0.4143835616438356,0.33513513513513515,0.5015896307165566,0.6186813186813187,0.43902439024390244,1195.0
864.0,1.7109258528076403e+18,0.4765013054830287,0.4212328767123288,0.3335135135135135,0.4979212521398875,0.6395604395604395,0.4449116904962153,1198.0
865.0,1.7109258528176415e+18,0.45691906005221933,0.3961187214611872,0.3286486486486486,0.48813890926876985,0.5681318681318681,0.44238856181665265,1194.0
866.0,1.7109258528276413e+18,0.4765013054830287,0.4178082191780822,0.3318918918918919,0.4966984592809978,0.6395604395604395,0.45164003364171573,1193.0
867.0,1.7109258528376643e+18,0.47389033942558745,0.4143835616438356,0.34054054054054056,0.5077035950110051,0.6175824175824176,0.4507989907485282,1195.0
868.0,1.7109258528476357e+18,0.4725848563968668,0.4143835616438356,0.33405405405405403,0.4986549278552213,0.6505494505494506,0.44238856181665265,1196.0
869.0,1.7109258528576466e+18,0.46866840731070497,0.410958904109589,0.33675675675675676,0.5113719735876743,0.6263736263736264,0.45248107653490327,1194.0
870.0,1.7109258528676365e+18,0.47127937336814624,0.4121004566210046,0.32972972972972975,0.4830031792614331,0.6285714285714286,0.4440706476030278,1195.0
871.0,1.7109258528776468e+18,0.4751958224543081,0.4143835616438356,0.34054054054054056,0.49620934213744194,0.5945054945054945,0.4339781328847771,1193.0
872.0,1.710925852887668e+18,0.4804177545691906,0.4132420091324201,0.33297297297297296,0.49938860357055515,0.6483516483516484,0.4415475189234651,1196.0
873.0,1.710925852897645e+18,0.4830287206266319,0.4155251141552511,0.34054054054054056,0.49107361213010514,0.6142857142857143,0.4213624894869638,1191.0
874.0,1.7109258529076406e+18,0.47780678851174935,0.4121004566210046,0.32972972972972975,0.5055025678650037,0.6384615384615384,0.456686291000841,1197.0
875.0,1.710925852917565e+18,0.46344647519582244,0.4052511415525114,0.3324324324324324,0.48740523355343607,0.6065934065934065,0.43986543313709,1193.0
876.0,1.7109258529275873e+18,0.4660574412532637,0.4063926940639269,0.32054054054054054,0.48495964783565665,0.6054945054945055,0.44238856181665265,1195.0
877.0,1.7109258529376348e+18,0.45822454308093996,0.3938356164383562,0.3183783783783784,0.5077035950110051,0.6065934065934065,0.432296047098402,1192.0
878.0,1.710925852947596e+18,0.4725848563968668,0.4155251141552511,0.3281081081081081,0.491807287845439,0.6285714285714286,0.43650126156433977,1196.0
879.0,1.7109258529576323e+18,0.47780678851174935,0.4200913242009132,0.34162162162162163,0.5111274150158963,0.6230769230769231,0.4449116904962153,1196.0
880.0,1.710925852967645e+18,0.47780678851174935,0.4098173515981735,0.32756756756756755,0.5111274150158963,0.6571428571428571,0.4415475189234651,1194.0
881.0,1.7109258529776415e+18,0.4765013054830287,0.4178082191780822,0.34324324324324323,0.4988994864269993,0.6274725274725275,0.4533221194280908,1193.0
882.0,1.7109258529876488e+18,0.4699738903394256,0.408675799086758,0.3291891891891892,0.49767669356810956,0.6307692307692307,0.46173254835996635,1194.0
883.0,1.7109258529976456e+18,0.47911227154047,0.4257990867579909,0.34486486486486484,0.4937637564196625,0.6043956043956044,0.43986543313709,1195.0
884.0,1.7109258530076431e+18,0.4725848563968668,0.4132420091324201,0.32756756756756755,0.48985081927121543,0.6406593406593407,0.43902439024390244,1194.0
885.0,1.7109258530176417e+18,0.47127937336814624,0.4098173515981735,0.3345945945945946,0.5050134507214478,0.5846153846153846,0.4381833473507149,1195.0
886.0,1.710925853027641e+18,0.46866840731070497,0.408675799086758,0.3264864864864865,0.5001222792858889,0.6307692307692307,0.46509671993271656,1195.0
887.0,1.7109258530376404e+18,0.4765013054830287,0.4098173515981735,0.33405405405405403,0.4988994864269993,0.5978021978021978,0.44238856181665265,1196.0
888.0,1.7109258530476406e+18,0.47911227154047,0.4121004566210046,0.3291891891891892,0.504035216434336,0.6472527472527473,0.4163162321278385,1193.0
889.0,1.7109258530576417e+18,0.46475195822454307,0.4052511415525114,0.33135135135135135,0.5023233064318905,0.6054945054945055,0.4432296047098402,1195.0
890.0,1.710925853067631e+18,0.4660574412532637,0.4075342465753425,0.3302702702702703,0.5006113964294449,0.634065934065934,0.45164003364171573,1196.0
891.0,1.710925853077643e+18,0.4660574412532637,0.4052511415525114,0.3318918918918919,0.49767669356810956,0.589010989010989,0.42977291841883936,1195.0
892.0,1.710925853087638e+18,0.47780678851174935,0.4200913242009132,0.34,0.49938860357055515,0.6428571428571429,0.43986543313709,1196.0
893.0,1.7109258530976433e+18,0.47780678851174935,0.4155251141552511,0.3362162162162162,0.5025678650036683,0.6373626373626373,0.4533221194280908,1197.0
894.0,1.7109258531076383e+18,0.47780678851174935,0.4178082191780822,0.3291891891891892,0.5143066764490095,0.6516483516483517,0.43313708999158956,1195.0
895.0,1.7109258531176384e+18,0.47911227154047,0.4178082191780822,0.33675675675675676,0.5094155050134507,0.6010989010989011,0.43902439024390244,1194.0
896.0,1.7109258531276385e+18,0.4699738903394256,0.4143835616438356,0.3335135135135135,0.5035460992907801,0.6241758241758242,0.43313708999158956,1193.0
897.0,1.7109258531376422e+18,0.4765013054830287,0.4178082191780822,0.3410810810810811,0.49767669356810956,0.6362637362637362,0.45500420521446594,1197.0
898.0,1.7109258531476383e+18,0.47127937336814624,0.4052511415525114,0.3264864864864865,0.5179750550256786,0.6395604395604395,0.4600504625735913,1194.0
899.0,1.710925853157644e+18,0.4660574412532637,0.4075342465753425,0.33837837837837836,0.5118610907312301,0.5626373626373626,0.4373423044575273,1193.0
900.0,1.710925853167633e+18,0.47911227154047,0.4235159817351598,0.33783783783783783,0.47493274639276106,0.5582417582417583,0.42052144659377627,1194.0
901.0,1.7109258531776556e+18,0.47127937336814624,0.4178082191780822,0.3410810810810811,0.5324040107605772,0.6373626373626373,0.45248107653490327,1194.0
902.0,1.7109258531876667e+18,0.4699738903394256,0.4075342465753425,0.3286486486486486,0.48789435069699194,0.5714285714285714,0.42304457527333894,1191.0
903.0,1.7109258531976428e+18,0.4765013054830287,0.4189497716894977,0.3372972972972973,0.4979212521398875,0.5978021978021978,0.4280908326324643,1192.0
904.0,1.7109258532076488e+18,0.5026109660574413,0.4429223744292237,0.3427027027027027,0.4859378821227684,0.6241758241758242,0.44575273338940286,1197.0
905.0,1.7109258532176387e+18,0.4725848563968668,0.4132420091324201,0.34,0.5138175593054537,0.6285714285714286,0.4348191757779647,1196.0
906.0,1.7109258532276362e+18,0.4725848563968668,0.4029680365296804,0.32432432432432434,0.5213988750305698,0.6978021978021978,0.45248107653490327,1196.0
907.0,1.710925853237667e+18,0.46475195822454307,0.4029680365296804,0.3302702702702703,0.5059916850085595,0.6329670329670329,0.43902439024390244,1194.0
908.0,1.7109258532476398e+18,0.47389033942558745,0.410958904109589,0.3254054054054054,0.5006113964294449,0.6582417582417582,0.45500420521446594,1195.0
909.0,1.7109258532576425e+18,0.48825065274151436,0.4269406392694064,0.34,0.5113719735876743,0.6208791208791209,0.4667788057190917,1196.0
910.0,1.7109258532676375e+18,0.46475195822454307,0.3995433789954338,0.32054054054054054,0.5020787478601125,0.6417582417582418,0.43902439024390244,1194.0
911.0,1.710925853277661e+18,0.45822454308093996,0.3972602739726027,0.3335135135135135,0.5035460992907801,0.6021978021978022,0.4449116904962153,1196.0
912.0,1.7109258532876518e+18,0.46475195822454307,0.408675799086758,0.33135135135135135,0.5128393250183418,0.667032967032967,0.4541631623212784,1196.0
913.0,1.7109258532976397e+18,0.4725848563968668,0.4052511415525114,0.32756756756756755,0.5079481535827831,0.6406593406593407,0.4701429772918419,1195.0
914.0,1.710925853307638e+18,0.4765013054830287,0.4121004566210046,0.32756756756756755,0.4847150892638787,0.5967032967032967,0.41715727502102606,1195.0
915.0,1.7109258533176415e+18,0.47389033942558745,0.4132420091324201,0.3324324324324324,0.48985081927121543,0.5604395604395604,0.4188393608074012,1194.0
916.0,1.7109258533276385e+18,0.48172323759791125,0.4269406392694064,0.3410810810810811,0.4988994864269993,0.6472527472527473,0.44911690496215306,1194.0
917.0,1.7109258533376701e+18,0.4765013054830287,0.410958904109589,0.3302702702702703,0.504524333577892,0.6175824175824176,0.456686291000841,1194.0
918.0,1.7109258533476447e+18,0.46866840731070497,0.4143835616438356,0.34,0.5106382978723404,0.6362637362637362,0.4499579478553406,1196.0
919.0,1.7109258533576415e+18,0.4725848563968668,0.4098173515981735,0.3389189189189189,0.4886280264123258,0.5967032967032967,0.44238856181665265,1194.0
920.0,1.7109258533676403e+18,0.4725848563968668,0.4075342465753425,0.32594594594594595,0.5079481535827831,0.6461538461538462,0.4381833473507149,1197.0
921.0,1.7109258533776888e+18,0.4725848563968668,0.4189497716894977,0.34486486486486484,0.5028124235754463,0.6516483516483517,0.45164003364171573,1195.0
922.0,1.7109258533876764e+18,0.4856396866840731,0.4235159817351598,0.3362162162162162,0.4991440449987772,0.6406593406593407,0.4533221194280908,1193.0
923.0,1.7109258533976387e+18,0.46475195822454307,0.4006849315068493,0.3308108108108108,0.4971875764245537,0.6054945054945055,0.4179983179142136,1192.0
924.0,1.7109258534076419e+18,0.4804177545691906,0.4200913242009132,0.33513513513513515,0.4954756664221081,0.6494505494505495,0.4247266610597141,1193.0
925.0,1.7109258534176417e+18,0.4765013054830287,0.4200913242009132,0.34054054054054056,0.5020787478601125,0.6241758241758242,0.4440706476030278,1194.0
926.0,1.7109258534276431e+18,0.47911227154047,0.4143835616438356,0.3335135135135135,0.5001222792858889,0.6362637362637362,0.4339781328847771,1193.0
927.0,1.7109258534376668e+18,0.46866840731070497,0.4052511415525114,0.3286486486486486,0.4673514306676449,0.610989010989011,0.4129520605550883,1193.0
928.0,1.7109258534476436e+18,0.48172323759791125,0.4200913242009132,0.3345945945945946,0.5030569821472243,0.6626373626373626,0.45500420521446594,1195.0
929.0,1.7109258534576438e+18,0.47780678851174935,0.4143835616438356,0.3356756756756757,0.5011005135730008,0.610989010989011,0.39781328847771236,1193.0
930.0,1.7109258534676444e+18,0.4765013054830287,0.410958904109589,0.3254054054054054,0.491562729273661,0.6692307692307692,0.4634146341463415,1196.0
931.0,1.7109258534776438e+18,0.4765013054830287,0.4178082191780822,0.3356756756756757,0.5020787478601125,0.6318681318681318,0.44070647603027757,1196.0
932.0,1.7109258534876426e+18,0.47911227154047,0.4269406392694064,0.34216216216216216,0.49033993641477136,0.6043956043956044,0.4280908326324643,1195.0
933.0,1.7109258534976425e+18,0.47127937336814624,0.4098173515981735,0.33783783783783783,0.4986549278552213,0.5989010989010989,0.37342304457527337,1192.0
934.0,1.7109258535076454e+18,0.47911227154047,0.4212328767123288,0.33405405405405403,0.49938860357055515,0.6450549450549451,0.4482758620689655,1197.0
935.0,1.7109258535176463e+18,0.47389033942558745,0.4132420091324201,0.3427027027027027,0.4969430178527757,0.5791208791208792,0.4415475189234651,1195.0
936.0,1.7109258535276462e+18,0.4765013054830287,0.4235159817351598,0.34054054054054056,0.4781120078258743,0.6032967032967033,0.3919259882253995,1193.0
937.0,1.710925853537644e+18,0.47127937336814624,0.4098173515981735,0.3308108108108108,0.48789435069699194,0.5956043956043956,0.4306139613120269,1193.0
938.0,1.710925853547645e+18,0.489556135770235,0.4280821917808219,0.3372972972972973,0.5015896307165566,0.6637362637362637,0.4928511354079058,1197.0
939.0,1.710925853557647e+18,0.47389033942558745,0.4178082191780822,0.33837837837837836,0.5015896307165566,0.5769230769230769,0.4659377628259041,1194.0
940.0,1.710925853567647e+18,0.46475195822454307,0.4052511415525114,0.3254054054054054,0.5018341892883346,0.6406593406593407,0.456686291000841,1196.0
941.0,1.7109258535776535e+18,0.4869451697127937,0.4315068493150685,0.35081081081081084,0.4937637564196625,0.6252747252747253,0.49032800672834315,1195.0
942.0,1.7109258535876454e+18,0.47780678851174935,0.4178082191780822,0.3335135135135135,0.4937637564196625,0.5967032967032967,0.456686291000841,1196.0
943.0,1.710925853597649e+18,0.4830287206266319,0.4155251141552511,0.3286486486486486,0.5015896307165566,0.6043956043956044,0.4432296047098402,1195.0
944.0,1.7109258536076493e+18,0.46866840731070497,0.4132420091324201,0.33513513513513515,0.5147957935925654,0.6241758241758242,0.46846089150546677,1196.0
945.0,1.71092585361765e+18,0.4725848563968668,0.4178082191780822,0.3372972972972973,0.5057471264367817,0.6274725274725275,0.43650126156433977,1196.0
946.0,1.7109258536276347e+18,0.4908616187989556,0.4257990867579909,0.3308108108108108,0.5069699192956714,0.656043956043956,0.45500420521446594,1194.0
947.0,1.7109258536376596e+18,0.48172323759791125,0.4246575342465753,0.33945945945945943,0.5074590364392272,0.6186813186813187,0.4558452481076535,1196.0
948.0,1.7109258536476344e+18,0.4765013054830287,0.4200913242009132,0.3389189189189189,0.504524333577892,0.6384615384615384,0.4415475189234651,1196.0
949.0,1.7109258536576507e+18,0.4725848563968668,0.4178082191780822,0.34540540540540543,0.4812912692589875,0.5626373626373626,0.4499579478553406,1196.0
950.0,1.710925853667651e+18,0.47127937336814624,0.4143835616438356,0.33405405405405403,0.49400831499144043,0.6230769230769231,0.535744322960471,1198.0
951.0,1.7109258536776566e+18,0.47911227154047,0.4235159817351598,0.34324324324324323,0.5047688921496698,0.6241758241758242,0.4381833473507149,1194.0
952.0,1.7109258536876529e+18,0.4608355091383812,0.4018264840182648,0.3254054054054054,0.4996331621423331,0.6450549450549451,0.4348191757779647,1197.0
953.0,1.710925853697632e+18,0.4621409921671018,0.4052511415525114,0.32756756756756755,0.4954756664221081,0.5923076923076923,0.4179983179142136,1194.0
954.0,1.7109258537076357e+18,0.47780678851174935,0.4132420091324201,0.3335135135135135,0.5025678650036683,0.6318681318681318,0.43566021867115223,1196.0
955.0,1.710925853717635e+18,0.4725848563968668,0.4178082191780822,0.3362162162162162,0.4859378821227684,0.6208791208791209,0.4432296047098402,1196.0
956.0,1.710925853727653e+18,0.4660574412532637,0.4063926940639269,0.32756756756756755,0.5008559550012228,0.6043956043956044,0.400336417157275,1194.0
957.0,1.710925853737672e+18,0.46866840731070497,0.4075342465753425,0.33297297297297296,0.5113719735876743,0.6362637362637362,0.4314550042052145,1192.0
958.0,1.7109258537476416e+18,0.4830287206266319,0.4223744292237443,0.33837837837837836,0.512350207874786,0.6494505494505495,0.43986543313709,1195.0
959.0,1.7109258537576584e+18,0.4765013054830287,0.4189497716894977,0.34378378378378377,0.5023233064318905,0.6054945054945055,0.4339781328847771,1193.0
960.0,1.7109258537676372e+18,0.4660574412532637,0.410958904109589,0.3372972972972973,0.4996331621423331,0.6098901098901099,0.40454163162321277,1193.0
961.0,1.7109258537776387e+18,0.47780678851174935,0.4098173515981735,0.3372972972972973,0.4937637564196625,0.6274725274725275,0.4449116904962153,1194.0
962.0,1.7109258537876595e+18,0.4751958224543081,0.4178082191780822,0.33405405405405403,0.504524333577892,0.6505494505494506,0.45836837678721615,1194.0
963.0,1.7109258537976381e+18,0.48172323759791125,0.4246575342465753,0.3491891891891892,0.5037906578625581,0.634065934065934,0.4255677039529016,1192.0
964.0,1.71092585380764e+18,0.4699738903394256,0.4132420091324201,0.3335135135135135,0.5096600635852286,0.6571428571428571,0.44238856181665265,1195.0
965.0,1.7109258538176402e+18,0.4595300261096606,0.3984018264840183,0.3318918918918919,0.4984103692834434,0.5923076923076923,0.43902439024390244,1196.0
966.0,1.7109258538276396e+18,0.4725848563968668,0.4132420091324201,0.32972972972972975,0.5062362435803375,0.6362637362637362,0.44575273338940286,1196.0
967.0,1.7109258538376387e+18,0.46736292428198434,0.4143835616438356,0.3410810810810811,0.5028124235754463,0.621978021978022,0.432296047098402,1192.0
968.0,1.7109258538476603e+18,0.46736292428198434,0.410958904109589,0.3318918918918919,0.5001222792858889,0.6197802197802198,0.4112699747687132,1192.0
969.0,1.7109258538576148e+18,0.47127937336814624,0.4189497716894977,0.33945945945945943,0.4805575935436537,0.6054945054945055,0.432296047098402,1193.0
970.0,1.710925853867638e+18,0.4765013054830287,0.4178082191780822,0.33405405405405403,0.4844705306921008,0.5901098901098901,0.447434819175778,1194.0
971.0,1.7109258538776108e+18,0.4765013054830287,0.4189497716894977,0.3345945945945946,0.5001222792858889,0.6230769230769231,0.4440706476030278,1196.0
972.0,1.710925853887592e+18,0.47780678851174935,0.410958904109589,0.3254054054054054,0.5067253607238934,0.6472527472527473,0.45248107653490327,1193.0
973.0,1.710925853897643e+18,0.4699738903394256,0.4121004566210046,0.33675675675675676,0.4984103692834434,0.6142857142857143,0.4289318755256518,1194.0
974.0,1.7109258539076436e+18,0.47780678851174935,0.4212328767123288,0.3318918918918919,0.5011005135730008,0.6274725274725275,0.45164003364171573,1199.0
975.0,1.710925853917614e+18,0.47127937336814624,0.410958904109589,0.33297297297297296,0.49938860357055515,0.6131868131868132,0.4348191757779647,1197.0
976.0,1.7109258539276385e+18,0.4869451697127937,0.4200913242009132,0.3345945945945946,0.5106382978723404,0.6384615384615384,0.4625735912531539,1194.0
977.0,1.7109258539376479e+18,0.48172323759791125,0.4178082191780822,0.33513513513513515,0.5025678650036683,0.6274725274725275,0.43902439024390244,1193.0
978.0,1.7109258539476408e+18,0.47911227154047,0.4143835616438356,0.3345945945945946,0.5047688921496698,0.6274725274725275,0.43902439024390244,1196.0
979.0,1.7109258539576376e+18,0.4804177545691906,0.4155251141552511,0.3362162162162162,0.4913181707018831,0.6362637362637362,0.4482758620689655,1194.0
980.0,1.710925853967645e+18,0.47780678851174935,0.4178082191780822,0.33513513513513515,0.4969430178527757,0.6505494505494506,0.4432296047098402,1197.0
981.0,1.7109258539776522e+18,0.47389033942558745,0.4189497716894977,0.3410810810810811,0.5067253607238934,0.6153846153846154,0.4432296047098402,1197.0
982.0,1.710925853987635e+18,0.4765013054830287,0.4189497716894977,0.3345945945945946,0.5008559550012228,0.6230769230769231,0.43650126156433977,1194.0
983.0,1.7109258539976466e+18,0.4751958224543081,0.4178082191780822,0.3372972972972973,0.49767669356810956,0.5967032967032967,0.4112699747687132,1193.0
984.0,1.710925854007644e+18,0.48172323759791125,0.4235159817351598,0.33837837837837836,0.508192712154561,0.6362637362637362,0.4659377628259041,1194.0
985.0,1.7109258540176346e+18,0.47911227154047,0.4155251141552511,0.3324324324324324,0.4969430178527757,0.6296703296703297,0.41042893187552565,1193.0
986.0,1.7109258540276372e+18,0.4725848563968668,0.4189497716894977,0.33783783783783783,0.5211543164587918,0.6593406593406593,0.44070647603027757,1197.0
987.0,1.7109258540376392e+18,0.47127937336814624,0.4132420091324201,0.3254054054054054,0.4969430178527757,0.6054945054945055,0.45248107653490327,1193.0
988.0,1.710925854047639e+18,0.4869451697127937,0.4223744292237443,0.32972972972972975,0.4991440449987772,0.6538461538461539,0.4541631623212784,1194.0
989.0,1.7109258540576397e+18,0.4765013054830287,0.4143835616438356,0.3362162162162162,0.4996331621423331,0.6274725274725275,0.4432296047098402,1197.0
990.0,1.710925854067639e+18,0.4765013054830287,0.4143835616438356,0.3335135135135135,0.5155294693078992,0.6681318681318681,0.44575273338940286,1196.0
991.0,1.7109258540776714e+18,0.4765013054830287,0.4200913242009132,0.3372972972972973,0.504035216434336,0.6241758241758242,0.43566021867115223,1195.0
992.0,1.710925854087655e+18,0.47389033942558745,0.4006849315068493,0.31567567567567567,0.5015896307165566,0.6406593406593407,0.43313708999158956,1195.0
993.0,1.710925854097619e+18,0.46344647519582244,0.4143835616438356,0.3286486486486486,0.4925409635607728,0.5989010989010989,0.3826745164003364,1192.0
994.0,1.7109258541076367e+18,0.4804177545691906,0.432648401826484,0.34378378378378377,0.516507703595011,0.6505494505494506,0.415475189234651,1194.0
995.0,1.7109258541175698e+18,0.47127937336814624,0.410958904109589,0.33945945945945943,0.5072144778674492,0.6406593406593407,0.4146341463414634,1193.0
996.0,1.7109258541275853e+18,0.4725848563968668,0.4075342465753425,0.32756756756756755,0.5006113964294449,0.6098901098901099,0.44070647603027757,1197.0
997.0,1.710925854137646e+18,0.4699738903394256,0.4098173515981735,0.3372972972972973,0.5059916850085595,0.6252747252747253,0.43650126156433977,1194.0
998.0,1.7109258541476403e+18,0.4725848563968668,0.4132420091324201,0.3318918918918919,0.4927855221325507,0.6263736263736264,0.43650126156433977,1194.0
999.0,1.7109258541576404e+18,0.4699738903394256,0.4178082191780822,0.3427027027027027,0.504035216434336,0.6329670329670329,0.4440706476030278,1195.0
