202.0,1.7109261811072696e+18,0.47911227154047,0.4178082191780822,0.33675675675675676,0.4925409635607728,0.6021978021978022,0.43566021867115223,1196.0
203.0,1.7109261811172925e+18,0.47780678851174935,0.4235159817351598,0.3345945945945946,0.504279775006114,0.6351648351648351,0.4449116904962153,1196.0
204.0,1.710926181127265e+18,0.4621409921671018,0.4052511415525114,0.3318918918918919,0.5084372707263389,0.6153846153846154,0.42640874684608915,1194.0
205.0,1.7109261811372792e+18,0.47127937336814624,0.4132420091324201,0.33405405405405403,0.512350207874786,0.6296703296703297,0.43566021867115223,1197.0
206.0,1.7109261811472717e+18,0.4856396866840731,0.4178082191780822,0.3372972972972973,0.4984103692834434,0.6318681318681318,0.45248107653490327,1196.0
207.0,1.7109261811572705e+18,0.47780678851174935,0.4178082191780822,0.3345945945945946,0.5006113964294449,0.6285714285714286,0.4247266610597141,1195.0
208.0,1.710926181167268e+18,0.47389033942558745,0.408675799086758,0.3302702702702703,0.4988994864269993,0.6098901098901099,0.43566021867115223,1196.0
209.0,1.710926181177268e+18,0.4608355091383812,0.4041095890410959,0.33405405405405403,0.48985081927121543,0.6010989010989011,0.4306139613120269,1193.0
210.0,1.7109261811872676e+18,0.47389033942558745,0.4132420091324201,0.33135135135135135,0.49767669356810956,0.5747252747252747,0.4238856181665265,1193.0
211.0,1.7109261811972664e+18,0.4725848563968668,0.4121004566210046,0.3356756756756757,0.5191978478845684,0.6384615384615384,0.44238856181665265,1194.0
212.0,1.710926181207267e+18,0.4765013054830287,0.4143835616438356,0.33513513513513515,0.5064808021521154,0.6329670329670329,0.41968040370058873,1192.0
213.0,1.7109261812172646e+18,0.4725848563968668,0.4143835616438356,0.3372972972972973,0.5111274150158963,0.6318681318681318,0.44575273338940286,1194.0
214.0,1.7109261812272617e+18,0.48172323759791125,0.4155251141552511,0.33405405405405403,0.5069699192956714,0.6285714285714286,0.4348191757779647,1194.0
215.0,1.7109261812372644e+18,0.4765013054830287,0.4212328767123288,0.3345945945945946,0.49645390070921985,0.634065934065934,0.43566021867115223,1194.0
216.0,1.7109261812472625e+18,0.4751958224543081,0.4132420091324201,0.33405405405405403,0.5006113964294449,0.621978021978022,0.4499579478553406,1195.0
217.0,1.710926181257269e+18,0.47127937336814624,0.4155251141552511,0.3345945945945946,0.5074590364392272,0.6373626373626373,0.43313708999158956,1193.0
218.0,1.710926181267267e+18,0.4765013054830287,0.4166666666666667,0.34216216216216216,0.5121056493030081,0.6230769230769231,0.42640874684608915,1192.0
219.0,1.7109261812772675e+18,0.4725848563968668,0.410958904109589,0.32972972972972975,0.5013450721447786,0.6230769230769231,0.42640874684608915,1193.0
220.0,1.7109261812872676e+18,0.4725848563968668,0.4178082191780822,0.33783783783783783,0.4979212521398875,0.6252747252747253,0.44238856181665265,1194.0
221.0,1.7109261812972677e+18,0.47389033942558745,0.4223744292237443,0.34594594594594597,0.5011005135730008,0.589010989010989,0.42304457527333894,1192.0
222.0,1.710926181307268e+18,0.47127937336814624,0.4143835616438356,0.34486486486486484,0.5035460992907801,0.6021978021978022,0.4373423044575273,1194.0
223.0,1.7109261813172626e+18,0.48433420365535246,0.4155251141552511,0.33675675675675676,0.49498654927855223,0.6274725274725275,0.43313708999158956,1193.0
224.0,1.7109261813272635e+18,0.47911227154047,0.4098173515981735,0.3291891891891892,0.5006113964294449,0.6285714285714286,0.44575273338940286,1196.0
225.0,1.7109261813372639e+18,0.4725848563968668,0.4178082191780822,0.3345945945945946,0.5047688921496698,0.6472527472527473,0.4440706476030278,1197.0
226.0,1.7109261813472704e+18,0.47780678851174935,0.4200913242009132,0.33945945945945943,0.5064808021521154,0.6230769230769231,0.44575273338940286,1197.0
227.0,1.7109261813572726e+18,0.4765013054830287,0.4121004566210046,0.33405405405405403,0.504524333577892,0.6428571428571429,0.44238856181665265,1196.0
228.0,1.7109261813672627e+18,0.4751958224543081,0.4132420091324201,0.33783783783783783,0.5169968207385669,0.6131868131868132,0.4348191757779647,1195.0
229.0,1.7109261813772687e+18,0.4765013054830287,0.4155251141552511,0.3372972972972973,0.5033015407190022,0.6296703296703297,0.44238856181665265,1196.0
230.0,1.7109261813872748e+18,0.47780678851174935,0.4178082191780822,0.3389189189189189,0.49767669356810956,0.6505494505494506,0.471825063078217,1197.0
231.0,1.7109261813972675e+18,0.4725848563968668,0.4143835616438356,0.3318918918918919,0.512350207874786,0.6428571428571429,0.43902439024390244,1193.0
232.0,1.7109261814072676e+18,0.4608355091383812,0.3984018264840183,0.3302702702702703,0.49645390070921985,0.5901098901098901,0.4289318755256518,1193.0
233.0,1.7109261814172685e+18,0.4725848563968668,0.4143835616438356,0.3345945945945946,0.5055025678650037,0.6076923076923076,0.43986543313709,1197.0
234.0,1.710926181427314e+18,0.4765013054830287,0.4189497716894977,0.33837837837837836,0.5030569821472243,0.6296703296703297,0.4415475189234651,1197.0
235.0,1.7109261814372703e+18,0.4751958224543081,0.4132420091324201,0.33135135135135135,0.4971875764245537,0.6538461538461539,0.4449116904962153,1192.0
236.0,1.7109261814472863e+18,0.48825065274151436,0.4235159817351598,0.33945945945945943,0.49107361213010514,0.6252747252747253,0.4819175777964676,1196.0
237.0,1.71092618145727e+18,0.47389033942558745,0.410958904109589,0.3286486486486486,0.495720224993886,0.6164835164835165,0.4533221194280908,1195.0
238.0,1.710926181467269e+18,0.46866840731070497,0.4155251141552511,0.34054054054054056,0.5084372707263389,0.6296703296703297,0.45164003364171573,1196.0
239.0,1.7109261814772959e+18,0.47780678851174935,0.4178082191780822,0.3362162162162162,0.5006113964294449,0.6461538461538462,0.4659377628259041,1195.0
240.0,1.7109261814872963e+18,0.47780678851174935,0.4155251141552511,0.33675675675675676,0.5025678650036683,0.6065934065934065,0.4482758620689655,1196.0
241.0,1.7109261814972652e+18,0.4699738903394256,0.4063926940639269,0.327027027027027,0.5055025678650037,0.6230769230769231,0.4306139613120269,1192.0
242.0,1.7109261815072694e+18,0.4830287206266319,0.4200913242009132,0.3427027027027027,0.5106382978723404,0.6318681318681318,0.45164003364171573,1196.0
243.0,1.710926181517267e+18,0.47780678851174935,0.4132420091324201,0.3362162162162162,0.5133284421618978,0.6582417582417582,0.4432296047098402,1194.0
244.0,1.7109261815272655e+18,0.4699738903394256,0.410958904109589,0.3356756756756757,0.5099046221570066,0.6406593406593407,0.4482758620689655,1197.0
245.0,1.710926181537275e+18,0.4725848563968668,0.4132420091324201,0.3308108108108108,0.48642699926632427,0.6318681318681318,0.4381833473507149,1197.0
246.0,1.7109261815472835e+18,0.48172323759791125,0.4269406392694064,0.34756756756756757,0.5099046221570066,0.6241758241758242,0.4499579478553406,1195.0
247.0,1.710926181557274e+18,0.46736292428198434,0.4132420091324201,0.3302702702702703,0.5008559550012228,0.6142857142857143,0.4289318755256518,1194.0
248.0,1.7109261815672712e+18,0.4765013054830287,0.4143835616438356,0.34054054054054056,0.4986549278552213,0.5879120879120879,0.41379310344827586,1193.0
249.0,1.7109261815772708e+18,0.46475195822454307,0.4006849315068493,0.3254054054054054,0.5025678650036683,0.6230769230769231,0.43902439024390244,1194.0
250.0,1.710926181587278e+18,0.46866840731070497,0.4132420091324201,0.33513513513513515,0.4937637564196625,0.6285714285714286,0.4432296047098402,1197.0
251.0,1.7109261815972782e+18,0.4699738903394256,0.4132420091324201,0.3356756756756757,0.5018341892883346,0.6296703296703297,0.4432296047098402,1194.0
252.0,1.7109261816072934e+18,0.4765013054830287,0.4121004566210046,0.33513513513513515,0.4986549278552213,0.5989010989010989,0.4272497897392767,1193.0
253.0,1.7109261816172716e+18,0.4725848563968668,0.4178082191780822,0.3362162162162162,0.4883834678405478,0.6274725274725275,0.40117746005046256,1192.0
254.0,1.7109261816272666e+18,0.48172323759791125,0.4235159817351598,0.3427027027027027,0.5099046221570066,0.6483516483516484,0.4634146341463415,1194.0
255.0,1.7109261816372664e+18,0.48172323759791125,0.4178082191780822,0.3372972972972973,0.4913181707018831,0.634065934065934,0.41968040370058873,1192.0
256.0,1.7109261816472896e+18,0.4765013054830287,0.4178082191780822,0.34054054054054056,0.5113719735876743,0.634065934065934,0.44238856181665265,1195.0
257.0,1.7109261816572739e+18,0.48825065274151436,0.4235159817351598,0.33675675675675676,0.4942528735632184,0.6483516483516484,0.44575273338940286,1196.0
258.0,1.710926181667272e+18,0.4725848563968668,0.4132420091324201,0.3362162162162162,0.5055025678650037,0.6307692307692307,0.4289318755256518,1192.0
259.0,1.7109261816772739e+18,0.47127937336814624,0.4155251141552511,0.3389189189189189,0.5059916850085595,0.6252747252747253,0.43902439024390244,1196.0
260.0,1.7109261816872822e+18,0.4725848563968668,0.4178082191780822,0.34054054054054056,0.5015896307165566,0.6274725274725275,0.44238856181665265,1195.0
261.0,1.7109261816972826e+18,0.4765013054830287,0.4143835616438356,0.33135135135135135,0.5008559550012228,0.6318681318681318,0.4482758620689655,1192.0
262.0,1.7109261817072673e+18,0.47389033942558745,0.4132420091324201,0.3389189189189189,0.5055025678650037,0.621978021978022,0.4247266610597141,1192.0
263.0,1.7109261817172716e+18,0.47911227154047,0.4143835616438356,0.3362162162162162,0.5037906578625581,0.6318681318681318,0.43902439024390244,1195.0
264.0,1.710926181727265e+18,0.4725848563968668,0.4063926940639269,0.33405405405405403,0.504524333577892,0.5923076923076923,0.4272497897392767,1193.0
265.0,1.7109261817372675e+18,0.46344647519582244,0.3972602739726027,0.32,0.49767669356810956,0.6274725274725275,0.4348191757779647,1195.0
266.0,1.71092618174728e+18,0.46736292428198434,0.4098173515981735,0.33675675675675676,0.4888725849841037,0.610989010989011,0.4449116904962153,1194.0
267.0,1.7109261817572959e+18,0.47780678851174935,0.4098173515981735,0.32756756756756755,0.48789435069699194,0.6384615384615384,0.4499579478553406,1196.0
268.0,1.710926181767285e+18,0.4725848563968668,0.4155251141552511,0.34,0.5028124235754463,0.6197802197802198,0.43902439024390244,1195.0
269.0,1.7109261817772723e+18,0.4765013054830287,0.4132420091324201,0.3335135135135135,0.4971875764245537,0.6164835164835165,0.4314550042052145,1192.0
270.0,1.7109261817872812e+18,0.4765013054830287,0.4223744292237443,0.3464864864864865,0.5084372707263389,0.6417582417582418,0.447434819175778,1196.0
271.0,1.7109261817972805e+18,0.48172323759791125,0.4212328767123288,0.3389189189189189,0.49082905355832723,0.6329670329670329,0.43902439024390244,1196.0
272.0,1.7109261818072645e+18,0.4660574412532637,0.408675799086758,0.33513513513513515,0.5008559550012228,0.6263736263736264,0.3952901597981497,1193.0
273.0,1.7109261818172644e+18,0.4699738903394256,0.4052511415525114,0.32594594594594595,0.49620934213744194,0.6263736263736264,0.4381833473507149,1196.0
274.0,1.7109261818272655e+18,0.48825065274151436,0.4269406392694064,0.34486486486486484,0.5079481535827831,0.6274725274725275,0.4339781328847771,1194.0
275.0,1.710926181837275e+18,0.4751958224543081,0.4132420091324201,0.3302702702702703,0.5069699192956714,0.6296703296703297,0.4238856181665265,1190.0
276.0,1.7109261818472722e+18,0.47780678851174935,0.4178082191780822,0.33945945945945943,0.5113719735876743,0.6230769230769231,0.4482758620689655,1195.0
277.0,1.7109261818572739e+18,0.47127937336814624,0.4075342465753425,0.32756756756756755,0.5011005135730008,0.634065934065934,0.43902439024390244,1195.0
278.0,1.7109261818672701e+18,0.4765013054830287,0.4166666666666667,0.3372972972972973,0.5057471264367817,0.6230769230769231,0.4415475189234651,1194.0
279.0,1.7109261818772713e+18,0.46736292428198434,0.4132420091324201,0.33135135135135135,0.5035460992907801,0.5934065934065934,0.3801513877207738,1193.0
280.0,1.7109261818872873e+18,0.47389033942558745,0.4132420091324201,0.3389189189189189,0.49107361213010514,0.6197802197802198,0.4482758620689655,1196.0
281.0,1.710926181897289e+18,0.47127937336814624,0.4132420091324201,0.33135135135135135,0.5072144778674492,0.6329670329670329,0.4339781328847771,1194.0
282.0,1.7109261819072755e+18,0.47389033942558745,0.4121004566210046,0.3372972972972973,0.5011005135730008,0.6208791208791209,0.43902439024390244,1196.0
283.0,1.7109261819172754e+18,0.4765013054830287,0.4143835616438356,0.33135135135135135,0.5050134507214478,0.6516483516483517,0.456686291000841,1196.0
284.0,1.710926181927274e+18,0.47389033942558745,0.4178082191780822,0.35081081081081084,0.512350207874786,0.6142857142857143,0.43650126156433977,1196.0
285.0,1.7109261819372744e+18,0.4725848563968668,0.4121004566210046,0.3335135135135135,0.5069699192956714,0.6296703296703297,0.4533221194280908,1196.0
286.0,1.7109261819472735e+18,0.47780678851174935,0.4178082191780822,0.3410810810810811,0.5079481535827831,0.621978021978022,0.44911690496215306,1194.0
287.0,1.710926181957275e+18,0.48172323759791125,0.4155251141552511,0.33135135135135135,0.5099046221570066,0.6362637362637362,0.43986543313709,1197.0
288.0,1.7109261819672963e+18,0.4765013054830287,0.4178082191780822,0.34324324324324323,0.5143066764490095,0.6505494505494506,0.4592094196804037,1196.0
289.0,1.7109261819772787e+18,0.47389033942558745,0.4098173515981735,0.3308108108108108,0.5064808021521154,0.6417582417582418,0.456686291000841,1194.0
290.0,1.7109261819872494e+18,0.4751958224543081,0.4166666666666667,0.34162162162162163,0.5103937393005625,0.6263736263736264,0.432296047098402,1191.0
291.0,1.710926181997284e+18,0.4765013054830287,0.4098173515981735,0.3308108108108108,0.5001222792858889,0.6307692307692307,0.43650126156433977,1193.0
292.0,1.710926182007272e+18,0.47780678851174935,0.4075342465753425,0.33405405405405403,0.4966984592809978,0.5967032967032967,0.4533221194280908,1196.0
293.0,1.7109261820172874e+18,0.47389033942558745,0.4075342465753425,0.3264864864864865,0.4810467106872096,0.6230769230769231,0.43313708999158956,1192.0
294.0,1.7109261820272783e+18,0.4765013054830287,0.4200913242009132,0.34162162162162163,0.504279775006114,0.6274725274725275,0.44238856181665265,1193.0
295.0,1.7109261820372795e+18,0.47127937336814624,0.4121004566210046,0.3291891891891892,0.49938860357055515,0.6252747252747253,0.44238856181665265,1195.0
296.0,1.7109261820472824e+18,0.47780678851174935,0.4132420091324201,0.33837837837837836,0.512594766446564,0.6164835164835165,0.4280908326324643,1193.0
297.0,1.7109261820572782e+18,0.47127937336814624,0.4075342465753425,0.32756756756756755,0.49498654927855223,0.6274725274725275,0.43566021867115223,1196.0
298.0,1.7109261820672778e+18,0.47389033942558745,0.4189497716894977,0.34054054054054056,0.5020787478601125,0.621978021978022,0.45500420521446594,1196.0
299.0,1.7109261820772823e+18,0.489556135770235,0.4315068493150685,0.3497297297297297,0.5187087307410124,0.6571428571428571,0.496215306980656,1196.0
300.0,1.710926182087283e+18,0.47389033942558745,0.4143835616438356,0.33783783783783783,0.504035216434336,0.6285714285714286,0.4667788057190917,1196.0
301.0,1.7109261820972856e+18,0.47389033942558745,0.4098173515981735,0.3291891891891892,0.4927855221325507,0.6142857142857143,0.43650126156433977,1195.0
302.0,1.7109261821072806e+18,0.47127937336814624,0.4098173515981735,0.33297297297297296,0.49523110785033014,0.5923076923076923,0.43313708999158956,1192.0
303.0,1.7109261821172815e+18,0.47389033942558745,0.4143835616438356,0.3318918918918919,0.4979212521398875,0.6362637362637362,0.4280908326324643,1193.0
304.0,1.7109261821272952e+18,0.4804177545691906,0.4269406392694064,0.34756756756756757,0.5084372707263389,0.6164835164835165,0.4465937762825904,1194.0
305.0,1.71092618213728e+18,0.4725848563968668,0.4143835616438356,0.3362162162162162,0.5050134507214478,0.6274725274725275,0.4432296047098402,1196.0
306.0,1.7109261821472776e+18,0.47780678851174935,0.4166666666666667,0.3427027027027027,0.5157740278796772,0.6120879120879121,0.44238856181665265,1197.0
307.0,1.7109261821572767e+18,0.4660574412532637,0.3995433789954338,0.31891891891891894,0.4986549278552213,0.6098901098901099,0.4415475189234651,1197.0
308.0,1.710926182167274e+18,0.4699738903394256,0.4132420091324201,0.3362162162162162,0.49033993641477136,0.5923076923076923,0.4558452481076535,1197.0
309.0,1.7109261821772777e+18,0.46736292428198434,0.4132420091324201,0.3281081081081081,0.5008559550012228,0.621978021978022,0.42977291841883936,1193.0
310.0,1.7109261821872735e+18,0.4869451697127937,0.4246575342465753,0.34540540540540543,0.4927855221325507,0.6164835164835165,0.407905803195963,1192.0
311.0,1.7109261821984783e+18,0.48825065274151436,0.4132420091324201,0.3254054054054054,0.49474199070677427,0.6230769230769231,0.4449116904962153,1195.0
312.0,1.7109261822072566e+18,0.47389033942558745,0.4178082191780822,0.34054054054054056,0.49767669356810956,0.6098901098901099,0.42304457527333894,1193.0
313.0,1.710926182217263e+18,0.47780678851174935,0.4223744292237443,0.33513513513513515,0.5062362435803375,0.6450549450549451,0.44238856181665265,1196.0
314.0,1.7109261822272622e+18,0.47911227154047,0.4143835616438356,0.33945945945945943,0.49767669356810956,0.5978021978021978,0.43313708999158956,1193.0
315.0,1.7109261822372746e+18,0.4765013054830287,0.410958904109589,0.32756756756756755,0.49327463927610665,0.6142857142857143,0.4482758620689655,1194.0
316.0,1.7109261822474752e+18,0.47389033942558745,0.4200913242009132,0.34486486486486484,0.5221325507459036,0.6274725274725275,0.4701429772918419,1195.0
317.0,1.7109261822572846e+18,0.47127937336814624,0.4132420091324201,0.32972972972972975,0.4988994864269993,0.6417582417582418,0.4465937762825904,1197.0
318.0,1.7109261822673009e+18,0.4830287206266319,0.4223744292237443,0.34324324324324323,0.5108828564441183,0.6252747252747253,0.45164003364171573,1194.0
319.0,1.7109261822772895e+18,0.47127937336814624,0.4075342465753425,0.32756756756756755,0.49645390070921985,0.6351648351648351,0.43650126156433977,1195.0
320.0,1.7109261822872724e+18,0.47780678851174935,0.410958904109589,0.3308108108108108,0.5047688921496698,0.6384615384615384,0.4213624894869638,1190.0
321.0,1.7109261822972818e+18,0.47780678851174935,0.4098173515981735,0.32054054054054054,0.5001222792858889,0.6483516483516484,0.4558452481076535,1196.0
322.0,1.710926182307258e+18,0.47911227154047,0.4200913242009132,0.3427027027027027,0.5037906578625581,0.5978021978021978,0.4533221194280908,1193.0
323.0,1.7109261823172972e+18,0.48172323759791125,0.4178082191780822,0.3372972972972973,0.5086818292981169,0.6571428571428571,0.432296047098402,1190.0
324.0,1.7109261823273042e+18,0.47911227154047,0.4223744292237443,0.3481081081081081,0.5089263878698949,0.6175824175824176,0.4339781328847771,1192.0
325.0,1.7109261823372908e+18,0.4804177545691906,0.4269406392694064,0.34378378378378377,0.46759598923942286,0.621978021978022,0.4432296047098402,1196.0
326.0,1.7109261823472978e+18,0.47127937336814624,0.4121004566210046,0.33405405405405403,0.5015896307165566,0.6142857142857143,0.4415475189234651,1197.0
327.0,1.7109261823572695e+18,0.4699738903394256,0.4143835616438356,0.3335135135135135,0.4988994864269993,0.6450549450549451,0.46846089150546677,1196.0
328.0,1.7109261823672763e+18,0.49216710182767626,0.4257990867579909,0.34486486486486484,0.49400831499144043,0.6,0.4432296047098402,1196.0
329.0,1.7109261823772823e+18,0.46736292428198434,0.4166666666666667,0.33135135135135135,0.49498654927855223,0.643956043956044,0.4381833473507149,1195.0
330.0,1.7109261823873085e+18,0.47780678851174935,0.4189497716894977,0.34162162162162163,0.5064808021521154,0.610989010989011,0.4449116904962153,1196.0
331.0,1.7109261823977533e+18,0.4765013054830287,0.4132420091324201,0.3318918918918919,0.5047688921496698,0.6230769230769231,0.4306139613120269,1193.0
332.0,1.710926182407264e+18,0.46866840731070497,0.4075342465753425,0.33405405405405403,0.4925409635607728,0.5835164835164836,0.4272497897392767,1192.0
333.0,1.7109261824172687e+18,0.4765013054830287,0.4200913242009132,0.33675675675675676,0.5033015407190022,0.6450549450549451,0.43986543313709,1196.0
334.0,1.7109261824272684e+18,0.47780678851174935,0.4143835616438356,0.34162162162162163,0.5037906578625581,0.610989010989011,0.4415475189234651,1194.0
335.0,1.710926182437265e+18,0.47780678851174935,0.4178082191780822,0.3324324324324324,0.5099046221570066,0.6450549450549451,0.4449116904962153,1194.0
336.0,1.710926182447277e+18,0.4765013054830287,0.4166666666666667,0.33837837837837836,0.5018341892883346,0.621978021978022,0.43986543313709,1195.0
337.0,1.7109261824572662e+18,0.47127937336814624,0.408675799086758,0.32432432432432434,0.49816581071166544,0.6197802197802198,0.42977291841883936,1192.0
338.0,1.7109261824672225e+18,0.46475195822454307,0.4098173515981735,0.33297297297297296,0.5013450721447786,0.5967032967032967,0.4339781328847771,1193.0
339.0,1.7109261824772756e+18,0.4765013054830287,0.4178082191780822,0.3286486486486486,0.5037906578625581,0.6329670329670329,0.43902439024390244,1196.0
340.0,1.7109261824873093e+18,0.46475195822454307,0.408675799086758,0.3345945945945946,0.48691611640988014,0.5802197802197803,0.4339781328847771,1190.0
341.0,1.7109261824972667e+18,0.4765013054830287,0.410958904109589,0.3302702702702703,0.504524333577892,0.6538461538461539,0.4440706476030278,1194.0
342.0,1.7109261825072653e+18,0.4725848563968668,0.4132420091324201,0.33837837837837836,0.5055025678650037,0.6208791208791209,0.4373423044575273,1194.0
343.0,1.7109261825172713e+18,0.47780678851174935,0.4269406392694064,0.33675675675675676,0.504524333577892,0.6373626373626373,0.4373423044575273,1193.0
344.0,1.7109261825272717e+18,0.4804177545691906,0.4212328767123288,0.3389189189189189,0.5006113964294449,0.6318681318681318,0.43566021867115223,1197.0
345.0,1.7109261825372856e+18,0.47389033942558745,0.4143835616438356,0.3308108108108108,0.5020787478601125,0.6505494505494506,0.42304457527333894,1193.0
346.0,1.7109261825472717e+18,0.47780678851174935,0.4166666666666667,0.3389189189189189,0.5084372707263389,0.6164835164835165,0.4449116904962153,1195.0
347.0,1.7109261825572736e+18,0.4869451697127937,0.4235159817351598,0.3345945945945946,0.4979212521398875,0.6296703296703297,0.4112699747687132,1193.0
348.0,1.7109261825672714e+18,0.4725848563968668,0.4143835616438356,0.33945945945945943,0.5074590364392272,0.5901098901098901,0.4213624894869638,1191.0
349.0,1.7109261825772751e+18,0.47780678851174935,0.4155251141552511,0.3362162162162162,0.5055025678650037,0.6318681318681318,0.4381833473507149,1195.0
350.0,1.7109261825872765e+18,0.4765013054830287,0.4178082191780822,0.3389189189189189,0.5069699192956714,0.6274725274725275,0.4465937762825904,1197.0
351.0,1.7109261825972954e+18,0.47389033942558745,0.4155251141552511,0.3372972972972973,0.5072144778674492,0.6274725274725275,0.43566021867115223,1195.0
352.0,1.7109261826072712e+18,0.4660574412532637,0.4132420091324201,0.3427027027027027,0.5101491807287846,0.6208791208791209,0.4482758620689655,1196.0
353.0,1.710926182617271e+18,0.4699738903394256,0.410958904109589,0.33297297297297296,0.504524333577892,0.6362637362637362,0.4415475189234651,1194.0
354.0,1.7109261826272625e+18,0.4804177545691906,0.4178082191780822,0.33945945945945943,0.4937637564196625,0.6,0.43986543313709,1197.0
355.0,1.710926182637266e+18,0.47127937336814624,0.4132420091324201,0.3281081081081081,0.4988994864269993,0.6285714285714286,0.43650126156433977,1193.0
356.0,1.7109261826472748e+18,0.46475195822454307,0.4132420091324201,0.33945945945945943,0.5023233064318905,0.6296703296703297,0.4541631623212784,1195.0
357.0,1.710926182657282e+18,0.46736292428198434,0.4041095890410959,0.3232432432432432,0.49767669356810956,0.6329670329670329,0.4482758620689655,1193.0
358.0,1.7109261826672622e+18,0.48172323759791125,0.4178082191780822,0.3410810810810811,0.5069699192956714,0.6285714285714286,0.4533221194280908,1196.0
359.0,1.710926182677281e+18,0.47911227154047,0.4200913242009132,0.3324324324324324,0.5018341892883346,0.6450549450549451,0.4415475189234651,1194.0
360.0,1.7109261826872753e+18,0.4765013054830287,0.4189497716894977,0.34864864864864864,0.49474199070677427,0.6098901098901099,0.4432296047098402,1195.0
361.0,1.7109261826972654e+18,0.47127937336814624,0.4189497716894977,0.33837837837837836,0.5015896307165566,0.6197802197802198,0.4339781328847771,1192.0
362.0,1.7109261827072701e+18,0.4725848563968668,0.4098173515981735,0.33783783783783783,0.49498654927855223,0.5978021978021978,0.4348191757779647,1195.0
363.0,1.710926182717269e+18,0.4725848563968668,0.4155251141552511,0.3318918918918919,0.5015896307165566,0.6362637362637362,0.4432296047098402,1194.0
364.0,1.7109261827272742e+18,0.4869451697127937,0.4292237442922374,0.34756756756756757,0.49229640498899485,0.610989010989011,0.4432296047098402,1196.0
365.0,1.7109261827372797e+18,0.4725848563968668,0.408675799086758,0.32594594594594595,0.5030569821472243,0.6274725274725275,0.400336417157275,1194.0
366.0,1.7109261827472737e+18,0.4765013054830287,0.4098173515981735,0.33945945945945943,0.5084372707263389,0.6098901098901099,0.4558452481076535,1196.0
367.0,1.7109261827572854e+18,0.4765013054830287,0.410958904109589,0.3281081081081081,0.49938860357055515,0.6318681318681318,0.4381833473507149,1196.0
368.0,1.7109261827672812e+18,0.4621409921671018,0.4006849315068493,0.3318918918918919,0.5015896307165566,0.5945054945054945,0.4314550042052145,1194.0
369.0,1.7109261827772815e+18,0.46736292428198434,0.4052511415525114,0.3237837837837838,0.4944974321349963,0.6450549450549451,0.4381833473507149,1196.0
370.0,1.710926182787283e+18,0.47780678851174935,0.4155251141552511,0.3345945945945946,0.49620934213744194,0.6285714285714286,0.4499579478553406,1194.0
371.0,1.7109261827972616e+18,0.4751958224543081,0.4178082191780822,0.33297297297297296,0.5033015407190022,0.6274725274725275,0.4280908326324643,1192.0
372.0,1.7109261828072778e+18,0.4751958224543081,0.4155251141552511,0.33675675675675676,0.5094155050134507,0.6175824175824176,0.4449116904962153,1195.0
373.0,1.710926182817272e+18,0.4725848563968668,0.4166666666666667,0.3281081081081081,0.4842259721203228,0.6252747252747253,0.4280908326324643,1192.0
374.0,1.710926182827273e+18,0.4765013054830287,0.4235159817351598,0.34702702702702704,0.49645390070921985,0.6175824175824176,0.4373423044575273,1195.0
375.0,1.7109261828372823e+18,0.4869451697127937,0.4223744292237443,0.33405405405405403,0.5089263878698949,0.6593406593406593,0.4482758620689655,1193.0
376.0,1.7109261828472722e+18,0.47127937336814624,0.4098173515981735,0.33783783783783783,0.5028124235754463,0.6230769230769231,0.4482758620689655,1193.0
377.0,1.7109261828572605e+18,0.4765013054830287,0.4098173515981735,0.32756756756756755,0.4996331621423331,0.6373626373626373,0.45836837678721615,1195.0
378.0,1.710926182867278e+18,0.47780678851174935,0.4178082191780822,0.3443243243243243,0.49767669356810956,0.6010989010989011,0.4314550042052145,1192.0
379.0,1.7109261828772808e+18,0.47127937336814624,0.410958904109589,0.3308108108108108,0.5231107850330154,0.6450549450549451,0.4348191757779647,1195.0
380.0,1.710926182887415e+18,0.46866840731070497,0.4075342465753425,0.3308108108108108,0.49767669356810956,0.5813186813186814,0.4348191757779647,1196.0
381.0,1.710926182897289e+18,0.47911227154047,0.410958904109589,0.3286486486486486,0.4991440449987772,0.6285714285714286,0.4095878889823381,1192.0
382.0,1.7109261829072735e+18,0.4765013054830287,0.4178082191780822,0.34054054054054056,0.49400831499144043,0.6010989010989011,0.42052144659377627,1192.0
383.0,1.7109261829172736e+18,0.4765013054830287,0.4132420091324201,0.3291891891891892,0.48813890926876985,0.6274725274725275,0.42977291841883936,1189.0
384.0,1.7109261829272817e+18,0.4765013054830287,0.4200913242009132,0.3427027027027027,0.5047688921496698,0.5945054945054945,0.4482758620689655,1194.0
385.0,1.7109261829372805e+18,0.48172323759791125,0.4189497716894977,0.3362162162162162,0.5055025678650037,0.643956043956044,0.40117746005046256,1192.0
386.0,1.7109261829472742e+18,0.4699738903394256,0.4143835616438356,0.3443243243243243,0.5155294693078992,0.6428571428571429,0.4499579478553406,1197.0
387.0,1.71092618295727e+18,0.4751958224543081,0.4143835616438356,0.3302702702702703,0.5074590364392272,0.654945054945055,0.4062237174095879,1192.0
388.0,1.7109261829672686e+18,0.4765013054830287,0.4132420091324201,0.33945945945945943,0.5067253607238934,0.6472527472527473,0.44911690496215306,1196.0
389.0,1.710926182977299e+18,0.46866840731070497,0.4143835616438356,0.3291891891891892,0.499877720714111,0.6461538461538462,0.43902439024390244,1196.0
390.0,1.7109261829888548e+18,0.47127937336814624,0.4143835616438356,0.33675675675675676,0.5001222792858889,0.6098901098901099,0.4314550042052145,1192.0
391.0,1.7109261829972628e+18,0.47780678851174935,0.4143835616438356,0.33297297297297296,0.5094155050134507,0.634065934065934,0.4381833473507149,1195.0
392.0,1.710926183007282e+18,0.48825065274151436,0.4292237442922374,0.34702702702702704,0.4969430178527757,0.6296703296703297,0.42977291841883936,1191.0
393.0,1.7109261830172677e+18,0.47780678851174935,0.4132420091324201,0.3286486486486486,0.499877720714111,0.6494505494505495,0.4558452481076535,1196.0
394.0,1.7109261830272645e+18,0.4765013054830287,0.4132420091324201,0.33513513513513515,0.5025678650036683,0.6285714285714286,0.5004205214465938,1194.0
395.0,1.7109261830372744e+18,0.47389033942558745,0.4132420091324201,0.3302702702702703,0.49816581071166544,0.6120879120879121,0.4339781328847771,1191.0
396.0,1.7109261830472545e+18,0.4804177545691906,0.4212328767123288,0.33945945945945943,0.5094155050134507,0.6186813186813187,0.4415475189234651,1196.0
397.0,1.710926183057274e+18,0.47780678851174935,0.4143835616438356,0.32756756756756755,0.5064808021521154,0.634065934065934,0.4415475189234651,1195.0
398.0,1.710926183067274e+18,0.47780678851174935,0.410958904109589,0.3362162162162162,0.49767669356810956,0.6208791208791209,0.44238856181665265,1197.0
399.0,1.71092618307729e+18,0.47911227154047,0.4178082191780822,0.32972972972972975,0.49523110785033014,0.6362637362637362,0.4415475189234651,1196.0
400.0,1.710926183087272e+18,0.4765013054830287,0.4132420091324201,0.33945945945945943,0.504279775006114,0.6,0.4558452481076535,1195.0
401.0,1.71092618309727e+18,0.4765013054830287,0.4155251141552511,0.3345945945945946,0.491807287845439,0.6318681318681318,0.4440706476030278,1192.0
402.0,1.7109261831072722e+18,0.4765013054830287,0.4178082191780822,0.3410810810810811,0.504035216434336,0.6120879120879121,0.4314550042052145,1192.0
403.0,1.7109261831172667e+18,0.47127937336814624,0.4178082191780822,0.3302702702702703,0.5037906578625581,0.6274725274725275,0.43566021867115223,1195.0
404.0,1.7109261831272717e+18,0.4869451697127937,0.4280821917808219,0.34702702702702704,0.5025678650036683,0.6329670329670329,0.43313708999158956,1195.0
405.0,1.710926183137273e+18,0.4804177545691906,0.4132420091324201,0.3302702702702703,0.5025678650036683,0.6406593406593407,0.4541631623212784,1196.0
406.0,1.7109261831472712e+18,0.4751958224543081,0.4121004566210046,0.3362162162162162,0.5011005135730008,0.6186813186813187,0.4415475189234651,1197.0
407.0,1.7109261831572608e+18,0.47127937336814624,0.410958904109589,0.32972972972972975,0.48740523355343607,0.6472527472527473,0.4541631623212784,1196.0
408.0,1.7109261831672737e+18,0.47911227154047,0.4178082191780822,0.34162162162162163,0.5050134507214478,0.6208791208791209,0.4415475189234651,1196.0
409.0,1.710926183177268e+18,0.4804177545691906,0.4200913242009132,0.33513513513513515,0.4988994864269993,0.634065934065934,0.4449116904962153,1193.0
410.0,1.7109261831872883e+18,0.4765013054830287,0.4178082191780822,0.34,0.5025678650036683,0.6065934065934065,0.4415475189234651,1198.0
411.0,1.7109261831973033e+18,0.4765013054830287,0.410958904109589,0.3302702702702703,0.4954756664221081,0.6175824175824176,0.4306139613120269,1192.0
412.0,1.710926183207273e+18,0.47127937336814624,0.4143835616438356,0.33783783783783783,0.504279775006114,0.6131868131868132,0.4751892346509672,1194.0
413.0,1.7109261832172728e+18,0.47127937336814624,0.408675799086758,0.3308108108108108,0.495720224993886,0.6230769230769231,0.4381833473507149,1195.0
414.0,1.710926183227278e+18,0.47127937336814624,0.4132420091324201,0.3372972972972973,0.4930300807043287,0.6186813186813187,0.4600504625735913,1195.0
415.0,1.710926183237272e+18,0.4804177545691906,0.4143835616438356,0.33135135135135135,0.49474199070677427,0.6329670329670329,0.44238856181665265,1195.0
416.0,1.710926183247275e+18,0.46736292428198434,0.4075342465753425,0.3318918918918919,0.5035460992907801,0.6120879120879121,0.4348191757779647,1194.0
417.0,1.7109261832572626e+18,0.4765013054830287,0.4132420091324201,0.3302702702702703,0.49767669356810956,0.6395604395604395,0.44070647603027757,1194.0
418.0,1.710926183267274e+18,0.4725848563968668,0.4143835616438356,0.3362162162162162,0.5030569821472243,0.6142857142857143,0.4415475189234651,1195.0
419.0,1.7109261832772644e+18,0.47780678851174935,0.4200913242009132,0.3372972972972973,0.508192712154561,0.6527472527472528,0.4415475189234651,1194.0
420.0,1.7109261832872763e+18,0.47780678851174935,0.4189497716894977,0.3427027027027027,0.5035460992907801,0.610989010989011,0.4432296047098402,1195.0
421.0,1.7109261832972723e+18,0.4699738903394256,0.410958904109589,0.3286486486486486,0.5086818292981169,0.6450549450549451,0.44911690496215306,1194.0
422.0,1.710926183307268e+18,0.4725848563968668,0.408675799086758,0.33783783783783783,0.5008559550012228,0.5978021978021978,0.4280908326324643,1193.0
423.0,1.7109261833172705e+18,0.47389033942558745,0.4098173515981735,0.3318918918918919,0.5103937393005625,0.6428571428571429,0.4415475189234651,1194.0
424.0,1.710926183327401e+18,0.48172323759791125,0.4223744292237443,0.34054054054054056,0.5047688921496698,0.6362637362637362,0.44575273338940286,1197.0
425.0,1.7109261833372808e+18,0.47911227154047,0.4121004566210046,0.33135135135135135,0.5037906578625581,0.6582417582417582,0.4507989907485282,1196.0
426.0,1.710926183347267e+18,0.47389033942558745,0.4200913242009132,0.3410810810810811,0.48789435069699194,0.6131868131868132,0.447434819175778,1194.0
427.0,1.7109261833572723e+18,0.4765013054830287,0.4189497716894977,0.33297297297297296,0.4788456835412081,0.6164835164835165,0.45248107653490327,1195.0
428.0,1.710926183367264e+18,0.4830287206266319,0.4246575342465753,0.3481081081081081,0.5015896307165566,0.6076923076923076,0.4415475189234651,1196.0
429.0,1.710926183377285e+18,0.4765013054830287,0.4178082191780822,0.3356756756756757,0.5028124235754463,0.6527472527472528,0.45836837678721615,1194.0
430.0,1.7109261833872911e+18,0.47127937336814624,0.4155251141552511,0.3427027027027027,0.49767669356810956,0.6164835164835165,0.4499579478553406,1195.0
431.0,1.7109261833972756e+18,0.4765013054830287,0.4189497716894977,0.3324324324324324,0.5074590364392272,0.6362637362637362,0.4381833473507149,1193.0
432.0,1.7109261834072745e+18,0.47127937336814624,0.4132420091324201,0.33675675675675676,0.504524333577892,0.6142857142857143,0.3809924306139613,1192.0
433.0,1.7109261834172756e+18,0.46866840731070497,0.4052511415525114,0.32756756756756755,0.49474199070677427,0.6186813186813187,0.44911690496215306,1194.0
434.0,1.7109261834272707e+18,0.4699738903394256,0.4098173515981735,0.33513513513513515,0.4991440449987772,0.6054945054945055,0.4381833473507149,1196.0
435.0,1.710926183437266e+18,0.4804177545691906,0.4280821917808219,0.34054054054054056,0.5191978478845684,0.6417582417582418,0.43566021867115223,1194.0
436.0,1.710926183447278e+18,0.4725848563968668,0.410958904109589,0.3362162162162162,0.5089263878698949,0.6164835164835165,0.4541631623212784,1195.0
437.0,1.7109261834572687e+18,0.48172323759791125,0.4212328767123288,0.3372972972972973,0.5069699192956714,0.6505494505494506,0.45500420521446594,1194.0
438.0,1.7109261834672824e+18,0.4765013054830287,0.4143835616438356,0.3410810810810811,0.5113719735876743,0.6054945054945055,0.4373423044575273,1195.0
439.0,1.7109261834772662e+18,0.48825065274151436,0.4269406392694064,0.3362162162162162,0.5020787478601125,0.6362637362637362,0.45248107653490327,1194.0
440.0,1.7109261834872707e+18,0.4765013054830287,0.410958904109589,0.3362162162162162,0.5059916850085595,0.6153846153846154,0.4465937762825904,1194.0
441.0,1.7109261834972764e+18,0.4725848563968668,0.4143835616438356,0.32972972972972975,0.499877720714111,0.6274725274725275,0.4348191757779647,1196.0
442.0,1.7109261835072632e+18,0.4751958224543081,0.4155251141552511,0.3410810810810811,0.504524333577892,0.6087912087912087,0.4415475189234651,1195.0
443.0,1.7109261835172652e+18,0.46866840731070497,0.4132420091324201,0.32972972972972975,0.4991440449987772,0.6406593406593407,0.4381833473507149,1195.0
444.0,1.7109261835272655e+18,0.4699738903394256,0.410958904109589,0.33675675675675676,0.5101491807287846,0.6098901098901099,0.4726661059714045,1193.0
445.0,1.7109261835372792e+18,0.47911227154047,0.4098173515981735,0.327027027027027,0.4930300807043287,0.6197802197802198,0.4348191757779647,1194.0
446.0,1.7109261835472727e+18,0.4765013054830287,0.4132420091324201,0.3362162162162162,0.49938860357055515,0.6054945054945055,0.44238856181665265,1196.0
447.0,1.710926183557273e+18,0.4856396866840731,0.4223744292237443,0.33675675675675676,0.5111274150158963,0.6604395604395604,0.44911690496215306,1194.0
448.0,1.7109261835672658e+18,0.4751958224543081,0.4132420091324201,0.3356756756756757,0.4991440449987772,0.6054945054945055,0.4129520605550883,1192.0
449.0,1.7109261835772703e+18,0.4725848563968668,0.4052511415525114,0.3227027027027027,0.5015896307165566,0.6274725274725275,0.45500420521446594,1196.0
450.0,1.7109261835872717e+18,0.4725848563968668,0.4178082191780822,0.3372972972972973,0.5020787478601125,0.6010989010989011,0.4432296047098402,1195.0
451.0,1.7109261835973215e+18,0.47911227154047,0.4189497716894977,0.33405405405405403,0.4979212521398875,0.6307692307692307,0.43902439024390244,1196.0
452.0,1.7109261836072786e+18,0.48172323759791125,0.4132420091324201,0.3372972972972973,0.5006113964294449,0.610989010989011,0.47098402018502944,1193.0
453.0,1.710926183617288e+18,0.47389033942558745,0.4155251141552511,0.3308108108108108,0.5025678650036683,0.6538461538461539,0.4415475189234651,1195.0
454.0,1.7109261836272676e+18,0.4699738903394256,0.4132420091324201,0.3389189189189189,0.48813890926876985,0.6054945054945055,0.40117746005046256,1191.0
455.0,1.710926183637347e+18,0.4765013054830287,0.4132420091324201,0.32972972972972975,0.5052580092932257,0.6417582417582418,0.44575273338940286,1192.0
456.0,1.7109261836472804e+18,0.4765013054830287,0.4121004566210046,0.33837837837837836,0.5033015407190022,0.6010989010989011,0.447434819175778,1196.0
457.0,1.7109261836572644e+18,0.47127937336814624,0.4121004566210046,0.33135135135135135,0.504279775006114,0.6329670329670329,0.43650126156433977,1194.0
458.0,1.7109261836672632e+18,0.4751958224543081,0.4132420091324201,0.3372972972972973,0.5047688921496698,0.6098901098901099,0.4592094196804037,1193.0
459.0,1.7109261836772644e+18,0.4751958224543081,0.4143835616438356,0.32972972972972975,0.4937637564196625,0.6318681318681318,0.4381833473507149,1194.0
460.0,1.710926183687273e+18,0.4725848563968668,0.4178082191780822,0.3362162162162162,0.495720224993886,0.6197802197802198,0.4482758620689655,1195.0
461.0,1.7109261836977692e+18,0.4765013054830287,0.4178082191780822,0.3318918918918919,0.49816581071166544,0.610989010989011,0.447434819175778,1195.0
462.0,1.7109261837072696e+18,0.4765013054830287,0.4189497716894977,0.34054054054054056,0.4830031792614331,0.5967032967032967,0.43313708999158956,1193.0
463.0,1.7109261837172626e+18,0.47127937336814624,0.408675799086758,0.3264864864864865,0.49229640498899485,0.6417582417582418,0.4373423044575273,1194.0
464.0,1.7109261837272778e+18,0.4725848563968668,0.410958904109589,0.33675675675675676,0.495720224993886,0.6208791208791209,0.4306139613120269,1192.0
465.0,1.710926183737277e+18,0.4725848563968668,0.4155251141552511,0.3302702702702703,0.5064808021521154,0.6472527472527473,0.4415475189234651,1196.0
466.0,1.7109261837481452e+18,0.47389033942558745,0.4178082191780822,0.34486486486486484,0.499877720714111,0.6175824175824176,0.40370058873002523,1193.0
467.0,1.710926183757271e+18,0.47389033942558745,0.4132420091324201,0.33135135135135135,0.5028124235754463,0.6252747252747253,0.4339781328847771,1193.0
468.0,1.7109261837672817e+18,0.47389033942558745,0.4063926940639269,0.33405405405405403,0.4966984592809978,0.6087912087912087,0.4381833473507149,1197.0
469.0,1.7109261837772833e+18,0.48172323759791125,0.4155251141552511,0.3291891891891892,0.4984103692834434,0.6318681318681318,0.39781328847771236,1193.0
470.0,1.7109261837872727e+18,0.4765013054830287,0.4143835616438356,0.33945945945945943,0.5035460992907801,0.6,0.4373423044575273,1194.0
471.0,1.710926183797279e+18,0.4765013054830287,0.3949771689497717,0.32594594594594595,0.49474199070677427,0.634065934065934,0.4339781328847771,1192.0
472.0,1.7109261838072689e+18,0.4804177545691906,0.4200913242009132,0.34,0.49205184641721694,0.6153846153846154,0.4381833473507149,1195.0
473.0,1.7109261838172762e+18,0.4765013054830287,0.4132420091324201,0.33675675675675676,0.5072144778674492,0.6131868131868132,0.4314550042052145,1193.0
474.0,1.7109261838272776e+18,0.4765013054830287,0.4189497716894977,0.33837837837837836,0.5094155050134507,0.6098901098901099,0.43566021867115223,1195.0
475.0,1.710926183837293e+18,0.47780678851174935,0.4166666666666667,0.3324324324324324,0.4971875764245537,0.6384615384615384,0.4373423044575273,1193.0
476.0,1.7109261838472742e+18,0.47780678851174935,0.4143835616438356,0.33513513513513515,0.5015896307165566,0.6153846153846154,0.43986543313709,1196.0
477.0,1.7109261838572856e+18,0.47127937336814624,0.4098173515981735,0.32972972972972975,0.5074590364392272,0.6307692307692307,0.4432296047098402,1194.0
478.0,1.7109261838672742e+18,0.48172323759791125,0.4269406392694064,0.34324324324324323,0.5069699192956714,0.610989010989011,0.4432296047098402,1195.0
479.0,1.710926183877273e+18,0.47127937336814624,0.410958904109589,0.3318918918918919,0.5006113964294449,0.6274725274725275,0.4314550042052145,1192.0
480.0,1.710926183887276e+18,0.4725848563968668,0.4132420091324201,0.3389189189189189,0.5028124235754463,0.6175824175824176,0.4507989907485282,1193.0
481.0,1.7109261838972756e+18,0.4751958224543081,0.4143835616438356,0.33513513513513515,0.495964783565664,0.6329670329670329,0.45164003364171573,1196.0
482.0,1.7109261839072801e+18,0.4751958224543081,0.4178082191780822,0.34054054054054056,0.5006113964294449,0.6230769230769231,0.4482758620689655,1196.0
483.0,1.710926183917294e+18,0.4765013054830287,0.4143835616438356,0.33135135135135135,0.504035216434336,0.6428571428571429,0.4432296047098402,1193.0
484.0,1.71092618392728e+18,0.4765013054830287,0.4166666666666667,0.33837837837837836,0.49351919784788456,0.6098901098901099,0.4507989907485282,1195.0
485.0,1.7109261839372792e+18,0.47780678851174935,0.4189497716894977,0.33783783783783783,0.5030569821472243,0.6208791208791209,0.43313708999158956,1193.0
486.0,1.7109261839472794e+18,0.46866840731070497,0.4178082191780822,0.34594594594594597,0.49767669356810956,0.6285714285714286,0.45500420521446594,1195.0
487.0,1.7109261839572595e+18,0.47911227154047,0.4372146118721461,0.33513513513513515,0.504035216434336,0.643956043956044,0.447434819175778,1196.0
488.0,1.710926183967277e+18,0.47911227154047,0.4189497716894977,0.3410810810810811,0.5108828564441183,0.6120879120879121,0.43902439024390244,1194.0
489.0,1.710926183977277e+18,0.47127937336814624,0.4098173515981735,0.3345945945945946,0.5047688921496698,0.6483516483516484,0.43566021867115223,1194.0
490.0,1.7109261839872778e+18,0.47780678851174935,0.4223744292237443,0.34378378378378377,0.5074590364392272,0.6065934065934065,0.45500420521446594,1195.0
491.0,1.71092618399728e+18,0.4608355091383812,0.4006849315068493,0.33135135135135135,0.5047688921496698,0.6054945054945055,0.4314550042052145,1192.0
492.0,1.7109261840072863e+18,0.47389033942558745,0.4178082191780822,0.3362162162162162,0.5133284421618978,0.6175824175824176,0.43902439024390244,1195.0
493.0,1.7109261840172805e+18,0.47780678851174935,0.4292237442922374,0.3335135135135135,0.49645390070921985,0.6252747252747253,0.43566021867115223,1196.0
494.0,1.7109261840272812e+18,0.48433420365535246,0.4394977168949772,0.35135135135135137,0.5057471264367817,0.6120879120879121,0.43902439024390244,1195.0
495.0,1.7109261840372626e+18,0.46736292428198434,0.4075342465753425,0.3281081081081081,0.5174859378821227,0.6395604395604395,0.4449116904962153,1194.0
496.0,1.7109261840472632e+18,0.46866840731070497,0.408675799086758,0.3345945945945946,0.4984103692834434,0.6153846153846154,0.4306139613120269,1191.0
497.0,1.7109261840572877e+18,0.4765013054830287,0.4235159817351598,0.33837837837837836,0.5155294693078992,0.6274725274725275,0.4339781328847771,1192.0
498.0,1.7109261840672806e+18,0.4804177545691906,0.4189497716894977,0.34324324324324323,0.5211543164587918,0.6318681318681318,0.43650126156433977,1196.0
499.0,1.7109261840772628e+18,0.46866840731070497,0.4098173515981735,0.33135135135135135,0.5145512350207875,0.6395604395604395,0.43650126156433977,1197.0
500.0,1.710926184087288e+18,0.47389033942558745,0.410958904109589,0.3362162162162162,0.5037906578625581,0.6274725274725275,0.4381833473507149,1195.0
501.0,1.7109261840972856e+18,0.47780678851174935,0.4143835616438356,0.32972972972972975,0.5055025678650037,0.6505494505494506,0.44911690496215306,1195.0
502.0,1.7109261841072837e+18,0.47127937336814624,0.4132420091324201,0.34054054054054056,0.5013450721447786,0.6032967032967033,0.4188393608074012,1194.0
503.0,1.7109261841172698e+18,0.47389033942558745,0.4132420091324201,0.3324324324324324,0.5067253607238934,0.6428571428571429,0.368376787216148,1192.0
504.0,1.7109261841272643e+18,0.4765013054830287,0.4223744292237443,0.34162162162162163,0.5101491807287846,0.6164835164835165,0.4381833473507149,1196.0
505.0,1.7109261841372672e+18,0.47389033942558745,0.4178082191780822,0.33837837837837836,0.508192712154561,0.6461538461538462,0.4289318755256518,1194.0
506.0,1.7109261841472648e+18,0.46866840731070497,0.4075342465753425,0.33513513513513515,0.5008559550012228,0.5989010989010989,0.42977291841883936,1194.0
507.0,1.7109261841572652e+18,0.4725848563968668,0.4132420091324201,0.3372972972972973,0.5025678650036683,0.6252747252747253,0.4373423044575273,1195.0
508.0,1.7109261841672868e+18,0.4765013054830287,0.4143835616438356,0.3427027027027027,0.5084372707263389,0.6164835164835165,0.43986543313709,1196.0
509.0,1.7109261841772818e+18,0.4765013054830287,0.4132420091324201,0.33405405405405403,0.5001222792858889,0.6417582417582418,0.4222035323801514,1193.0
510.0,1.7109261841872694e+18,0.4765013054830287,0.4212328767123288,0.34324324324324323,0.48740523355343607,0.5978021978021978,0.4415475189234651,1194.0
511.0,1.710926184197288e+18,0.4765013054830287,0.4143835616438356,0.33675675675675676,0.5047688921496698,0.6373626373626373,0.44238856181665265,1193.0
512.0,1.710926184207274e+18,0.46344647519582244,0.4132420091324201,0.3410810810810811,0.5140621178772316,0.5901098901098901,0.447434819175778,1194.0
513.0,1.7109261842172634e+18,0.47127937336814624,0.4155251141552511,0.32972972972972975,0.5028124235754463,0.6329670329670329,0.4348191757779647,1194.0
514.0,1.7109261842272678e+18,0.46736292428198434,0.408675799086758,0.3389189189189189,0.5035460992907801,0.6076923076923076,0.4339781328847771,1192.0
515.0,1.7109261842372692e+18,0.47389033942558745,0.4132420091324201,0.33135135135135135,0.5011005135730008,0.610989010989011,0.4415475189234651,1194.0
516.0,1.710926184247269e+18,0.47127937336814624,0.408675799086758,0.33513513513513515,0.491562729273661,0.634065934065934,0.4482758620689655,1197.0
517.0,1.7109261842572705e+18,0.48825065274151436,0.4292237442922374,0.3372972972972973,0.49474199070677427,0.6406593406593407,0.41042893187552565,1193.0
518.0,1.710926184267263e+18,0.47780678851174935,0.4189497716894977,0.34054054054054056,0.5106382978723404,0.6362637362637362,0.4095878889823381,1192.0
519.0,1.710926184277293e+18,0.47389033942558745,0.4178082191780822,0.34054054054054056,0.5147957935925654,0.6164835164835165,0.4348191757779647,1195.0
520.0,1.71092618428727e+18,0.4699738903394256,0.4143835616438356,0.33783783783783783,0.5074590364392272,0.6186813186813187,0.4381833473507149,1195.0
521.0,1.7109261842972672e+18,0.48172323759791125,0.4280821917808219,0.34378378378378377,0.4979212521398875,0.6373626373626373,0.4381833473507149,1193.0
522.0,1.7109261843072479e+18,0.45822454308093996,0.386986301369863,0.32756756756756755,0.4991440449987772,0.5934065934065934,0.4280908326324643,1193.0
523.0,1.7109261843172756e+18,0.4660574412532637,0.3892694063926941,0.31513513513513514,0.49938860357055515,0.6472527472527473,0.4608915054667788,1194.0
524.0,1.7109261843272545e+18,0.46866840731070497,0.3949771689497717,0.32756756756756755,0.491807287845439,0.5989010989010989,0.4625735912531539,1195.0
525.0,1.7109261843372995e+18,0.47911227154047,0.4063926940639269,0.3318918918918919,0.5079481535827831,0.6527472527472528,0.4482758620689655,1195.0
526.0,1.7109261843473068e+18,0.4699738903394256,0.4063926940639269,0.3345945945945946,0.48911714355588165,0.6142857142857143,0.4432296047098402,1195.0
527.0,1.7109261843572772e+18,0.46866840731070497,0.4075342465753425,0.3291891891891892,0.4969430178527757,0.6296703296703297,0.3986543313708999,1192.0
528.0,1.7109261843672678e+18,0.4765013054830287,0.4178082191780822,0.3389189189189189,0.5015896307165566,0.6186813186813187,0.44238856181665265,1193.0
529.0,1.7109261843773033e+18,0.47780678851174935,0.4178082191780822,0.32972972972972975,0.5067253607238934,0.634065934065934,0.43313708999158956,1193.0
530.0,1.7109261843872727e+18,0.4725848563968668,0.410958904109589,0.33675675675675676,0.4988994864269993,0.6,0.43566021867115223,1196.0
531.0,1.7109261843972687e+18,0.46344647519582244,0.4006849315068493,0.3237837837837838,0.5067253607238934,0.6384615384615384,0.43566021867115223,1194.0
532.0,1.7109261844072745e+18,0.47780678851174935,0.432648401826484,0.3491891891891892,0.5047688921496698,0.6197802197802198,0.4415475189234651,1196.0
533.0,1.710926184417254e+18,0.46736292428198434,0.4018264840182648,0.33135135135135135,0.5055025678650037,0.634065934065934,0.4592094196804037,1196.0
534.0,1.7109261844272668e+18,0.47389033942558745,0.4337899543378995,0.33945945945945943,0.5030569821472243,0.6043956043956044,0.42977291841883936,1190.0
535.0,1.7109261844372677e+18,0.47127937336814624,0.408675799086758,0.3302702702702703,0.49938860357055515,0.6362637362637362,0.43902439024390244,1193.0
536.0,1.710926184447268e+18,0.46866840731070497,0.4098173515981735,0.33675675675675676,0.512350207874786,0.6010989010989011,0.4188393608074012,1192.0
537.0,1.7109261844572646e+18,0.47389033942558745,0.3915525114155251,0.3254054054054054,0.4839814135485449,0.6296703296703297,0.40117746005046256,1191.0
538.0,1.7109261844672827e+18,0.47389033942558745,0.4098173515981735,0.33135135135135135,0.5030569821472243,0.6230769230769231,0.44238856181665265,1196.0
539.0,1.7109261844772713e+18,0.46866840731070497,0.4189497716894977,0.3389189189189189,0.5023233064318905,0.6362637362637362,0.45164003364171573,1194.0
540.0,1.7109261844872786e+18,0.4660574412532637,0.4235159817351598,0.35027027027027025,0.5155294693078992,0.6318681318681318,0.4575273338940286,1195.0
541.0,1.7109261844972744e+18,0.45300261096605743,0.4063926940639269,0.3291891891891892,0.5099046221570066,0.6461538461538462,0.432296047098402,1192.0
542.0,1.7109261845072637e+18,0.4595300261096606,0.4200913242009132,0.33297297297297296,0.504279775006114,0.6263736263736264,0.44238856181665265,1195.0
543.0,1.7109261845172854e+18,0.4464751958224543,0.4018264840182648,0.34324324324324323,0.508192712154561,0.6285714285714286,0.38772077375946173,1190.0
544.0,1.71092618452727e+18,0.46736292428198434,0.410958904109589,0.3389189189189189,0.5055025678650037,0.6307692307692307,0.4533221194280908,1193.0
545.0,1.7109261845372713e+18,0.47780678851174935,0.4041095890410959,0.3281081081081081,0.49816581071166544,0.6274725274725275,0.44238856181665265,1194.0
546.0,1.7109261845472717e+18,0.4699738903394256,0.4063926940639269,0.3324324324324324,0.5003668378576669,0.5923076923076923,0.4348191757779647,1196.0
547.0,1.710926184557269e+18,0.47911227154047,0.454337899543379,0.34702702702702704,0.5052580092932257,0.6395604395604395,0.4440706476030278,1196.0
548.0,1.7109261845672602e+18,0.4451697127937337,0.4041095890410959,0.33135135135135135,0.5047688921496698,0.6197802197802198,0.4222035323801514,1194.0
549.0,1.7109261845772723e+18,0.46475195822454307,0.4200913242009132,0.34054054054054056,0.5030569821472243,0.6197802197802198,0.4482758620689655,1196.0
550.0,1.7109261845872876e+18,0.5691906005221932,0.4372146118721461,0.3389189189189189,0.5113719735876743,0.6131868131868132,0.42977291841883936,1194.0
551.0,1.7109261845972682e+18,0.4556135770234987,0.386986301369863,0.3210810810810811,0.49816581071166544,0.5813186813186814,0.4314550042052145,1193.0
552.0,1.7109261846072584e+18,0.4725848563968668,0.3995433789954338,0.3372972972972973,0.5047688921496698,0.6098901098901099,0.43650126156433977,1194.0
553.0,1.710926184617271e+18,0.4490861618798956,0.4075342465753425,0.33135135135135135,0.49816581071166544,0.6318681318681318,0.43650126156433977,1196.0
554.0,1.7109261846272689e+18,0.44386422976501305,0.4132420091324201,0.33675675675675676,0.4859378821227684,0.5934065934065934,0.503784693019344,1197.0
555.0,1.710926184637266e+18,0.4765013054830287,0.4200913242009132,0.3335135135135135,0.4886280264123258,0.6142857142857143,0.4827586206896552,1194.0
556.0,1.7109261846472689e+18,0.4934725848563969,0.4280821917808219,0.3443243243243243,0.5172413793103449,0.6098901098901099,0.43566021867115223,1196.0
557.0,1.71092618465727e+18,0.48825065274151436,0.4178082191780822,0.33405405405405403,0.5028124235754463,0.6494505494505495,0.45248107653490327,1195.0
558.0,1.710926184667277e+18,0.47127937336814624,0.4315068493150685,0.34216216216216216,0.5025678650036683,0.6098901098901099,0.43902439024390244,1195.0
559.0,1.71092618467728e+18,0.4751958224543081,0.4075342465753425,0.33513513513513515,0.5133284421618978,0.6461538461538462,0.44070647603027757,1195.0
560.0,1.710926184687269e+18,0.47389033942558745,0.4155251141552511,0.34486486486486484,0.5152849107361213,0.6516483516483517,0.4861227922624054,1196.0
561.0,1.7109261846972726e+18,0.4725848563968668,0.4121004566210046,0.3345945945945946,0.49327463927610665,0.6373626373626373,0.43650126156433977,1197.0
562.0,1.7109261847072532e+18,0.46866840731070497,0.4189497716894977,0.34054054054054056,0.5086818292981169,0.5978021978021978,0.4348191757779647,1196.0
563.0,1.710926184717277e+18,0.45822454308093996,0.4098173515981735,0.3281081081081081,0.49938860357055515,0.6505494505494506,0.4188393608074012,1192.0
564.0,1.7109261847272707e+18,0.46475195822454307,0.4006849315068493,0.34216216216216216,0.5103937393005625,0.6142857142857143,0.45164003364171573,1195.0
565.0,1.7109261847372708e+18,0.5117493472584856,0.4349315068493151,0.3264864864864865,0.5028124235754463,0.6362637362637362,0.4440706476030278,1194.0
566.0,1.7109261847472689e+18,0.4660574412532637,0.3995433789954338,0.3281081081081081,0.4996331621423331,0.6296703296703297,0.4507989907485282,1193.0
567.0,1.7109261847572685e+18,0.48825065274151436,0.4200913242009132,0.3286486486486486,0.499877720714111,0.6417582417582418,0.43902439024390244,1196.0
568.0,1.7109261847672696e+18,0.46344647519582244,0.4075342465753425,0.34216216216216216,0.5001222792858889,0.6175824175824176,0.43650126156433977,1197.0
569.0,1.7109261847772508e+18,0.4464751958224543,0.3892694063926941,0.3254054054054054,0.495964783565664,0.6329670329670329,0.43566021867115223,1195.0
570.0,1.710926184787267e+18,0.46736292428198434,0.4178082191780822,0.34378378378378377,0.5074590364392272,0.6274725274725275,0.4507989907485282,1196.0
571.0,1.7109261847971889e+18,0.46736292428198434,0.4383561643835616,0.3389189189189189,0.5011005135730008,0.643956043956044,0.43650126156433977,1196.0
572.0,1.710926184807257e+18,0.4621409921671018,0.4052511415525114,0.3362162162162162,0.4979212521398875,0.6175824175824176,0.4701429772918419,1195.0
573.0,1.7109261848172296e+18,0.4621409921671018,0.4063926940639269,0.3291891891891892,0.5028124235754463,0.6142857142857143,0.42977291841883936,1192.0
574.0,1.7109261848272448e+18,0.4830287206266319,0.4178082191780822,0.33837837837837836,0.5015896307165566,0.6131868131868132,0.4146341463414634,1193.0
575.0,1.7109261848372703e+18,0.49216710182767626,0.4315068493150685,0.3464864864864865,0.5064808021521154,0.6505494505494506,0.4465937762825904,1194.0
576.0,1.7109261848472146e+18,0.45430809399477806,0.4063926940639269,0.3308108108108108,0.49620934213744194,0.6032967032967033,0.4348191757779647,1197.0
577.0,1.7109261848571994e+18,0.4765013054830287,0.432648401826484,0.34162162162162163,0.5108828564441183,0.6472527472527473,0.4415475189234651,1197.0
578.0,1.7109261848672707e+18,0.4869451697127937,0.4178082191780822,0.34162162162162163,0.499877720714111,0.6296703296703297,0.45164003364171573,1197.0
579.0,1.710926184877229e+18,0.46344647519582244,0.4200913242009132,0.32972972972972975,0.4988994864269993,0.6076923076923076,0.43650126156433977,1198.0
580.0,1.7109261848872814e+18,0.4725848563968668,0.4075342465753425,0.33405405405405403,0.5001222792858889,0.6153846153846154,0.4188393608074012,1193.0
581.0,1.710926184897271e+18,0.47911227154047,0.4246575342465753,0.3362162162162162,0.49938860357055515,0.6318681318681318,0.43986543313709,1197.0
582.0,1.7109261849072696e+18,0.4451697127937337,0.4143835616438356,0.3308108108108108,0.4979212521398875,0.5956043956043956,0.43650126156433977,1196.0
583.0,1.7109261849172718e+18,0.47389033942558745,0.4041095890410959,0.3302702702702703,0.49229640498899485,0.6494505494505495,0.42052144659377627,1195.0
584.0,1.7109261849272896e+18,0.47127937336814624,0.4189497716894977,0.3302702702702703,0.504279775006114,0.6164835164835165,0.44911690496215306,1195.0
585.0,1.7109261849372667e+18,0.4765013054830287,0.410958904109589,0.33783783783783783,0.4974321349963316,0.6406593406593407,0.4449116904962153,1198.0
586.0,1.7109261849472686e+18,0.4765013054830287,0.4132420091324201,0.33405405405405403,0.504524333577892,0.6153846153846154,0.45500420521446594,1196.0
587.0,1.7109261849572664e+18,0.46866840731070497,0.3824200913242009,0.3216216216216216,0.4988994864269993,0.6516483516483517,0.41042893187552565,1193.0
588.0,1.7109261849672666e+18,0.4856396866840731,0.4349315068493151,0.3372972972972973,0.48813890926876985,0.5824175824175825,0.43566021867115223,1197.0
589.0,1.7109261849772692e+18,0.47911227154047,0.4269406392694064,0.3491891891891892,0.5172413793103449,0.6637362637362637,0.45164003364171573,1196.0
590.0,1.7109261849872722e+18,0.4765013054830287,0.4394977168949772,0.34540540540540543,0.5055025678650037,0.6318681318681318,0.456686291000841,1195.0
591.0,1.7109261849972652e+18,0.47911227154047,0.410958904109589,0.32972972972972975,0.4988994864269993,0.6329670329670329,0.4381833473507149,1197.0
592.0,1.7109261850072658e+18,0.46866840731070497,0.4155251141552511,0.3308108108108108,0.4954756664221081,0.5626373626373626,0.42052144659377627,1192.0
593.0,1.7109261850172657e+18,0.47911227154047,0.4223744292237443,0.3356756756756757,0.5072144778674492,0.6505494505494506,0.43650126156433977,1194.0
594.0,1.7109261850272637e+18,0.4765013054830287,0.4178082191780822,0.3362162162162162,0.5064808021521154,0.6241758241758242,0.3843566021867115,1192.0
595.0,1.7109261850371894e+18,0.4621409921671018,0.3926940639269406,0.3318918918918919,0.4986549278552213,0.6153846153846154,0.43313708999158956,1190.0
596.0,1.7109261850472678e+18,0.47780678851174935,0.4452054794520548,0.36,0.5099046221570066,0.6505494505494506,0.4558452481076535,1194.0
597.0,1.7109261850572687e+18,0.4830287206266319,0.4132420091324201,0.3248648648648649,0.4991440449987772,0.6197802197802198,0.4592094196804037,1194.0
598.0,1.7109261850672678e+18,0.4765013054830287,0.4143835616438356,0.3372972972972973,0.5035460992907801,0.6230769230769231,0.4415475189234651,1194.0
599.0,1.710926185077268e+18,0.4725848563968668,0.4155251141552511,0.33135135135135135,0.5047688921496698,0.6494505494505495,0.43902439024390244,1194.0
600.0,1.7109261850872346e+18,0.4660574412532637,0.4018264840182648,0.33513513513513515,0.4966984592809978,0.6054945054945055,0.42640874684608915,1192.0
601.0,1.710926185097272e+18,0.47127937336814624,0.4063926940639269,0.3308108108108108,0.4996331621423331,0.6417582417582418,0.4247266610597141,1193.0
602.0,1.7109261851072696e+18,0.47389033942558745,0.4394977168949772,0.3427027027027027,0.4996331621423331,0.6065934065934065,0.4415475189234651,1195.0
603.0,1.710926185117271e+18,0.47389033942558745,0.4041095890410959,0.32972972972972975,0.5003668378576669,0.6417582417582418,0.4432296047098402,1195.0
604.0,1.7109261851272722e+18,0.4725848563968668,0.4143835616438356,0.3362162162162162,0.4783565663976522,0.5923076923076923,0.39781328847771236,1194.0
605.0,1.7109261851372751e+18,0.47389033942558745,0.432648401826484,0.34054054054054056,0.5003668378576669,0.6406593406593407,0.4415475189234651,1196.0
606.0,1.7109261851472735e+18,0.4804177545691906,0.430365296803653,0.33837837837837836,0.5008559550012228,0.6087912087912087,0.432296047098402,1193.0
607.0,1.710926185157271e+18,0.47127937336814624,0.3926940639269406,0.32432432432432434,0.4984103692834434,0.6252747252747253,0.4449116904962153,1197.0
608.0,1.7109261851672717e+18,0.48172323759791125,0.4269406392694064,0.34054054054054056,0.4971875764245537,0.6120879120879121,0.4415475189234651,1196.0
609.0,1.7109261851772718e+18,0.4725848563968668,0.4098173515981735,0.3302702702702703,0.4859378821227684,0.6120879120879121,0.4381833473507149,1195.0
610.0,1.7109261851872812e+18,0.4621409921671018,0.4132420091324201,0.3372972972972973,0.5079481535827831,0.6296703296703297,0.4415475189234651,1193.0
611.0,1.7109261851972582e+18,0.4804177545691906,0.4452054794520548,0.34702702702702704,0.4996331621423331,0.6131868131868132,0.45500420521446594,1196.0
612.0,1.7109261852072742e+18,0.4934725848563969,0.410958904109589,0.3345945945945946,0.5020787478601125,0.6098901098901099,0.43986543313709,1196.0
613.0,1.7109261852172739e+18,0.4751958224543081,0.45662100456621,0.3427027027027027,0.5035460992907801,0.6329670329670329,0.4449116904962153,1195.0
614.0,1.71092618522728e+18,0.47127937336814624,0.4063926940639269,0.33837837837837836,0.4966984592809978,0.6065934065934065,0.45836837678721615,1194.0
615.0,1.7109261852372764e+18,0.4765013054830287,0.4098173515981735,0.32756756756756755,0.4937637564196625,0.6373626373626373,0.4381833473507149,1194.0
616.0,1.710926185247274e+18,0.48172323759791125,0.4280821917808219,0.3491891891891892,0.5062362435803375,0.6274725274725275,0.4432296047098402,1197.0
617.0,1.7109261852572751e+18,0.4660574412532637,0.3926940639269406,0.32,0.49498654927855223,0.6076923076923076,0.4280908326324643,1194.0
618.0,1.710926185267275e+18,0.4699738903394256,0.4155251141552511,0.3308108108108108,0.5094155050134507,0.6131868131868132,0.43650126156433977,1197.0
619.0,1.7109261852772767e+18,0.48172323759791125,0.4372146118721461,0.3410810810810811,0.512350207874786,0.6505494505494506,0.4449116904962153,1195.0
620.0,1.7109261852872911e+18,0.47127937336814624,0.4189497716894977,0.33837837837837836,0.5047688921496698,0.6296703296703297,0.46173254835996635,1195.0
621.0,1.7109261852972306e+18,0.47389033942558745,0.4132420091324201,0.33405405405405403,0.4986549278552213,0.634065934065934,0.4415475189234651,1193.0
622.0,1.7109261853072737e+18,0.47127937336814624,0.4292237442922374,0.3372972972972973,0.49816581071166544,0.6164835164835165,0.4415475189234651,1194.0
623.0,1.7109261853172733e+18,0.48172323759791125,0.4349315068493151,0.33297297297297296,0.5035460992907801,0.6516483516483517,0.4465937762825904,1197.0
624.0,1.7109261853272783e+18,0.48172323759791125,0.4178082191780822,0.34324324324324323,0.5064808021521154,0.6186813186813187,0.464255677039529,1195.0
625.0,1.710926185337273e+18,0.4725848563968668,0.4041095890410959,0.33135135135135135,0.4944974321349963,0.6362637362637362,0.44238856181665265,1198.0
626.0,1.7109261853472484e+18,0.46736292428198434,0.4474885844748858,0.34054054054054056,0.5064808021521154,0.6241758241758242,0.43902439024390244,1197.0
627.0,1.7109261853571855e+18,0.4751958224543081,0.4132420091324201,0.3302702702702703,0.5015896307165566,0.6494505494505495,0.4465937762825904,1196.0
628.0,1.7109261853672543e+18,0.47127937336814624,0.4178082191780822,0.3362162162162162,0.4969430178527757,0.6054945054945055,0.40454163162321277,1194.0
629.0,1.710926185377302e+18,0.47389033942558745,0.4166666666666667,0.3302702702702703,0.5133284421618978,0.6395604395604395,0.464255677039529,1196.0
630.0,1.7109261853872817e+18,0.47127937336814624,0.3984018264840183,0.3308108108108108,0.5069699192956714,0.6197802197802198,0.432296047098402,1192.0
631.0,1.7109261853972792e+18,0.4869451697127937,0.4646118721461187,0.34216216216216216,0.5062362435803375,0.6318681318681318,0.43566021867115223,1194.0
632.0,1.7109261854072806e+18,0.4725848563968668,0.4189497716894977,0.3308108108108108,0.5077035950110051,0.610989010989011,0.4306139613120269,1195.0
633.0,1.7109261854172685e+18,0.4869451697127937,0.4178082191780822,0.33945945945945943,0.5003668378576669,0.6428571428571429,0.4465937762825904,1196.0
634.0,1.710926185427283e+18,0.4751958224543081,0.4143835616438356,0.33513513513513515,0.48324773783321107,0.6,0.4179983179142136,1193.0
635.0,1.7109261854372823e+18,0.46866840731070497,0.4041095890410959,0.33135135135135135,0.499877720714111,0.6307692307692307,0.43986543313709,1194.0
636.0,1.7109261854472827e+18,0.4699738903394256,0.3995433789954338,0.33675675675675676,0.5057471264367817,0.6142857142857143,0.4381833473507149,1196.0
637.0,1.7109261854572385e+18,0.4804177545691906,0.4098173515981735,0.32972972972972975,0.5001222792858889,0.6208791208791209,0.4482758620689655,1197.0
638.0,1.7109261854672837e+18,0.46736292428198434,0.3995433789954338,0.33405405405405403,0.5011005135730008,0.6175824175824176,0.471825063078217,1196.0
639.0,1.7109261854772946e+18,0.4725848563968668,0.4372146118721461,0.34486486486486484,0.48985081927121543,0.6296703296703297,0.4339781328847771,1193.0
640.0,1.7109261854872125e+18,0.489556135770235,0.454337899543379,0.3443243243243243,0.4991440449987772,0.6142857142857143,0.3675357443229605,1193.0
641.0,1.710926185497297e+18,0.4869451697127937,0.4178082191780822,0.3362162162162162,0.5177304964539007,0.6516483516483517,0.4440706476030278,1194.0
642.0,1.7109261855072133e+18,0.46736292428198434,0.4018264840182648,0.34054054054054056,0.5116165321594522,0.6197802197802198,0.43986543313709,1195.0
643.0,1.7109261855172692e+18,0.4804177545691906,0.4178082191780822,0.33405405405405403,0.5001222792858889,0.6373626373626373,0.45164003364171573,1196.0
644.0,1.7109261855272668e+18,0.4725848563968668,0.4189497716894977,0.3427027027027027,0.5013450721447786,0.6175824175824176,0.44070647603027757,1194.0
645.0,1.7109261855372772e+18,0.47911227154047,0.4223744292237443,0.3427027027027027,0.49033993641477136,0.6230769230769231,0.42640874684608915,1192.0
646.0,1.710926185547249e+18,0.46475195822454307,0.4063926940639269,0.3216216216216216,0.4966984592809978,0.6197802197802198,0.47098402018502944,1195.0
647.0,1.7109261855572667e+18,0.4699738903394256,0.408675799086758,0.3335135135135135,0.5035460992907801,0.6494505494505495,0.45164003364171573,1197.0
648.0,1.7109261855672658e+18,0.4725848563968668,0.4372146118721461,0.34162162162162163,0.5035460992907801,0.6054945054945055,0.4373423044575273,1195.0
649.0,1.7109261855772833e+18,0.47127937336814624,0.4235159817351598,0.3281081081081081,0.4888725849841037,0.6153846153846154,0.4179983179142136,1193.0
650.0,1.7109261855872707e+18,0.48172323759791125,0.4132420091324201,0.3345945945945946,0.49474199070677427,0.6208791208791209,0.4415475189234651,1196.0
651.0,1.7109261855972541e+18,0.48172323759791125,0.4200913242009132,0.33405405405405403,0.5030569821472243,0.6483516483516484,0.4499579478553406,1195.0
652.0,1.710926185607264e+18,0.4804177545691906,0.4429223744292237,0.3497297297297297,0.5079481535827831,0.6406593406593407,0.4482758620689655,1194.0
653.0,1.7109261856172639e+18,0.47780678851174935,0.4098173515981735,0.3302702702702703,0.5113719735876743,0.634065934065934,0.4121110176619008,1194.0
654.0,1.7109261856273208e+18,0.4765013054830287,0.4178082191780822,0.33675675675675676,0.5089263878698949,0.621978021978022,0.4095878889823381,1196.0
655.0,1.710926185637271e+18,0.4765013054830287,0.3995433789954338,0.3281081081081081,0.5018341892883346,0.6450549450549451,0.4449116904962153,1194.0
656.0,1.7109261856472899e+18,0.4804177545691906,0.4178082191780822,0.33945945945945943,0.495964783565664,0.6153846153846154,0.4465937762825904,1194.0
657.0,1.710926185657261e+18,0.46475195822454307,0.4075342465753425,0.3237837837837838,0.4991440449987772,0.6142857142857143,0.4121110176619008,1193.0
658.0,1.710926185667287e+18,0.4725848563968668,0.4132420091324201,0.34162162162162163,0.5008559550012228,0.6087912087912087,0.4314550042052145,1193.0
659.0,1.7109261856772838e+18,0.47780678851174935,0.4223744292237443,0.33513513513513515,0.487649792125214,0.6186813186813187,0.43650126156433977,1194.0
660.0,1.7109261856872722e+18,0.47911227154047,0.3995433789954338,0.32594594594594595,0.5103937393005625,0.6153846153846154,0.43566021867115223,1196.0
661.0,1.710926185697274e+18,0.47127937336814624,0.4029680365296804,0.32756756756756755,0.4954756664221081,0.634065934065934,0.4146341463414634,1192.0
662.0,1.7109261857072689e+18,0.4830287206266319,0.4155251141552511,0.33405405405405403,0.5035460992907801,0.6274725274725275,0.4415475189234651,1195.0
663.0,1.7109261857172703e+18,0.4699738903394256,0.4063926940639269,0.3345945945945946,0.5072144778674492,0.6626373626373626,0.4465937762825904,1197.0
664.0,1.71092618572727e+18,0.46475195822454307,0.4041095890410959,0.34378378378378377,0.46392761066275373,0.5923076923076923,0.4247266610597141,1194.0
665.0,1.71092618573727e+18,0.4751958224543081,0.3915525114155251,0.32756756756756755,0.5020787478601125,0.6538461538461539,0.45164003364171573,1194.0
666.0,1.7109261857472266e+18,0.48433420365535246,0.4383561643835616,0.34864864864864864,0.4944974321349963,0.6153846153846154,0.44238856181665265,1195.0
667.0,1.7109261857572692e+18,0.4725848563968668,0.4417808219178082,0.33675675675675676,0.504524333577892,0.6417582417582418,0.4465937762825904,1197.0
668.0,1.7109261857672753e+18,0.47127937336814624,0.4132420091324201,0.33837837837837836,0.49474199070677427,0.6098901098901099,0.4465937762825904,1197.0
669.0,1.710926185777287e+18,0.46344647519582244,0.4132420091324201,0.3318918918918919,0.4844705306921008,0.6230769230769231,0.4314550042052145,1193.0
670.0,1.7109261857872763e+18,0.47127937336814624,0.4143835616438356,0.3345945945945946,0.491562729273661,0.6076923076923076,0.43650126156433977,1194.0
671.0,1.710926185797268e+18,0.4621409921671018,0.3904109589041096,0.32,0.5057471264367817,0.6263736263736264,0.41968040370058873,1192.0
672.0,1.710926185807269e+18,0.4725848563968668,0.4075342465753425,0.33675675675675676,0.5118610907312301,0.6362637362637362,0.4381833473507149,1196.0
673.0,1.7109261858172723e+18,0.4751958224543081,0.4429223744292237,0.34594594594594597,0.4991440449987772,0.643956043956044,0.4314550042052145,1192.0
674.0,1.7109261858272696e+18,0.48172323759791125,0.408675799086758,0.33297297297297296,0.4984103692834434,0.610989010989011,0.4339781328847771,1192.0
675.0,1.710926185837275e+18,0.47780678851174935,0.4155251141552511,0.3362162162162162,0.504524333577892,0.6318681318681318,0.43902439024390244,1194.0
676.0,1.7109261858472717e+18,0.47389033942558745,0.4121004566210046,0.33405405405405403,0.49816581071166544,0.610989010989011,0.43902439024390244,1195.0
677.0,1.7109261858572698e+18,0.47389033942558745,0.4394977168949772,0.33945945945945943,0.4984103692834434,0.6153846153846154,0.4280908326324643,1193.0
678.0,1.7109261858672694e+18,0.4934725848563969,0.4486301369863014,0.3621621621621622,0.4900953778429934,0.6010989010989011,0.4121110176619008,1194.0
679.0,1.71092618587727e+18,0.46475195822454307,0.4143835616438356,0.3308108108108108,0.5035460992907801,0.6241758241758242,0.42977291841883936,1193.0
680.0,1.7109261858872763e+18,0.4804177545691906,0.4178082191780822,0.3362162162162162,0.5025678650036683,0.6120879120879121,0.4449116904962153,1194.0
681.0,1.7109261858972695e+18,0.46475195822454307,0.4018264840182648,0.32756756756756755,0.4996331621423331,0.6274725274725275,0.3961312026913373,1192.0
682.0,1.7109261859072655e+18,0.4660574412532637,0.4223744292237443,0.32756756756756755,0.495964783565664,0.6153846153846154,0.44575273338940286,1195.0
683.0,1.7109261859172705e+18,0.4765013054830287,0.4098173515981735,0.3324324324324324,0.48740523355343607,0.6285714285714286,0.45836837678721615,1194.0
684.0,1.7109261859272666e+18,0.47127937336814624,0.4143835616438356,0.3427027027027027,0.5113719735876743,0.6197802197802198,0.4440706476030278,1196.0
685.0,1.7109261859372672e+18,0.47127937336814624,0.4178082191780822,0.33297297297297296,0.4859378821227684,0.6032967032967033,0.4482758620689655,1195.0
686.0,1.7109261859472643e+18,0.48825065274151436,0.4280821917808219,0.3372972972972973,0.5006113964294449,0.6197802197802198,0.4373423044575273,1196.0
687.0,1.7109261859572652e+18,0.4725848563968668,0.4280821917808219,0.33405405405405403,0.5074590364392272,0.6362637362637362,0.43986543313709,1197.0
688.0,1.710926185967266e+18,0.47127937336814624,0.4155251141552511,0.3362162162162162,0.5089263878698949,0.6274725274725275,0.41968040370058873,1194.0
689.0,1.7109261859772915e+18,0.46866840731070497,0.3926940639269406,0.3216216216216216,0.5055025678650037,0.6406593406593407,0.4482758620689655,1196.0
690.0,1.7109261859872676e+18,0.47911227154047,0.4178082191780822,0.33135135135135135,0.5079481535827831,0.6274725274725275,0.4482758620689655,1195.0
691.0,1.7109261859972675e+18,0.4765013054830287,0.4486301369863014,0.34540540540540543,0.5218879921741257,0.6428571428571429,0.4507989907485282,1196.0
692.0,1.7109261860072684e+18,0.4765013054830287,0.4257990867579909,0.34486486486486484,0.5086818292981169,0.6175824175824176,0.45248107653490327,1195.0
693.0,1.7109261860172713e+18,0.47780678851174935,0.4155251141552511,0.3302702702702703,0.499877720714111,0.6494505494505495,0.4432296047098402,1196.0
694.0,1.7109261860272666e+18,0.47389033942558745,0.4189497716894977,0.33297297297297296,0.49816581071166544,0.6098901098901099,0.43902439024390244,1195.0
695.0,1.7109261860372664e+18,0.47127937336814624,0.4006849315068493,0.3286486486486486,0.48691611640988014,0.6417582417582418,0.46173254835996635,1193.0
696.0,1.7109261860472666e+18,0.46866840731070497,0.4315068493150685,0.33837837837837836,0.5086818292981169,0.6230769230769231,0.4415475189234651,1196.0
697.0,1.710926186057271e+18,0.46736292428198434,0.4029680365296804,0.33135135135135135,0.5072144778674492,0.6351648351648351,0.432296047098402,1192.0
698.0,1.7109261860672822e+18,0.47127937336814624,0.410958904109589,0.3372972972972973,0.5086818292981169,0.6274725274725275,0.40370058873002523,1193.0
699.0,1.7109261860772772e+18,0.46736292428198434,0.4052511415525114,0.33135135135135135,0.5001222792858889,0.6274725274725275,0.4440706476030278,1196.0
700.0,1.7109261860872655e+18,0.47911227154047,0.4178082191780822,0.3410810810810811,0.5057471264367817,0.6329670329670329,0.432296047098402,1192.0
701.0,1.7109261860972634e+18,0.4725848563968668,0.4372146118721461,0.3389189189189189,0.5001222792858889,0.6285714285714286,0.43650126156433977,1194.0
702.0,1.710926186107266e+18,0.46475195822454307,0.4041095890410959,0.34486486486486484,0.5003668378576669,0.6296703296703297,0.43313708999158956,1192.0
703.0,1.7109261861172687e+18,0.4765013054830287,0.4280821917808219,0.34324324324324323,0.5006113964294449,0.6351648351648351,0.4465937762825904,1195.0
704.0,1.7109261861272773e+18,0.4699738903394256,0.4200913242009132,0.3362162162162162,0.5138175593054537,0.6208791208791209,0.4415475189234651,1195.0
705.0,1.7109261861372687e+18,0.46344647519582244,0.3961187214611872,0.32216216216216215,0.4954756664221081,0.6131868131868132,0.43313708999158956,1193.0
706.0,1.7109261861472666e+18,0.4725848563968668,0.4052511415525114,0.3345945945945946,0.5028124235754463,0.6175824175824176,0.44238856181665265,1196.0
707.0,1.7109261861572695e+18,0.4869451697127937,0.4223744292237443,0.33513513513513515,0.4900953778429934,0.6362637362637362,0.4575273338940286,1196.0
708.0,1.7109261861672694e+18,0.47780678851174935,0.4143835616438356,0.34054054054054056,0.5050134507214478,0.6241758241758242,0.464255677039529,1196.0
709.0,1.7109261861772856e+18,0.4725848563968668,0.432648401826484,0.33513513513513515,0.516507703595011,0.6274725274725275,0.4306139613120269,1194.0
710.0,1.710926186187265e+18,0.46475195822454307,0.3961187214611872,0.3308108108108108,0.4842259721203228,0.610989010989011,0.4465937762825904,1196.0
711.0,1.710926186197267e+18,0.4751958224543081,0.4098173515981735,0.33297297297297296,0.5008559550012228,0.6483516483516484,0.45164003364171573,1197.0
712.0,1.7109261862072653e+18,0.4765013054830287,0.4189497716894977,0.3324324324324324,0.49498654927855223,0.634065934065934,0.4465937762825904,1195.0
713.0,1.7109261862172677e+18,0.4699738903394256,0.4189497716894977,0.3281081081081081,0.5025678650036683,0.6087912087912087,0.4163162321278385,1194.0
714.0,1.710926186227268e+18,0.4869451697127937,0.4132420091324201,0.3427027027027027,0.49205184641721694,0.6230769230769231,0.43313708999158956,1194.0
715.0,1.7109261862372644e+18,0.48825065274151436,0.4189497716894977,0.34324324324324323,0.5064808021521154,0.6395604395604395,0.4348191757779647,1196.0
716.0,1.7109261862472658e+18,0.4765013054830287,0.408675799086758,0.3308108108108108,0.504524333577892,0.6241758241758242,0.45248107653490327,1197.0
717.0,1.7109261862572705e+18,0.47780678851174935,0.4143835616438356,0.3291891891891892,0.4942528735632184,0.6164835164835165,0.42977291841883936,1194.0
718.0,1.710926186267271e+18,0.48172323759791125,0.4223744292237443,0.3389189189189189,0.5015896307165566,0.6197802197802198,0.45164003364171573,1197.0
719.0,1.7109261862772777e+18,0.46866840731070497,0.4132420091324201,0.3324324324324324,0.5077035950110051,0.634065934065934,0.4482758620689655,1195.0
720.0,1.7109261862872732e+18,0.46475195822454307,0.4235159817351598,0.3318918918918919,0.512350207874786,0.6164835164835165,0.45500420521446594,1195.0
721.0,1.7109261862972723e+18,0.47389033942558745,0.4098173515981735,0.3232432432432432,0.4927855221325507,0.6252747252747253,0.45164003364171573,1196.0
722.0,1.7109261863072673e+18,0.4595300261096606,0.3961187214611872,0.3291891891891892,0.5015896307165566,0.6153846153846154,0.432296047098402,1194.0
723.0,1.7109261863172687e+18,0.46475195822454307,0.4063926940639269,0.3264864864864865,0.5011005135730008,0.6329670329670329,0.43650126156433977,1194.0
724.0,1.7109261863272978e+18,0.47389033942558745,0.4223744292237443,0.3443243243243243,0.49767669356810956,0.6153846153846154,0.4415475189234651,1195.0
725.0,1.7109261863372698e+18,0.4765013054830287,0.4075342465753425,0.3254054054054054,0.491562729273661,0.6197802197802198,0.45248107653490327,1195.0
726.0,1.710926186347279e+18,0.48172323759791125,0.4554794520547945,0.35405405405405405,0.4996331621423331,0.6065934065934065,0.4306139613120269,1192.0
727.0,1.7109261863572636e+18,0.48825065274151436,0.4372146118721461,0.33675675675675676,0.5055025678650037,0.6428571428571429,0.4432296047098402,1196.0
728.0,1.7109261863672653e+18,0.46736292428198434,0.4098173515981735,0.33837837837837836,0.5067253607238934,0.6043956043956044,0.43902439024390244,1197.0
729.0,1.710926186377289e+18,0.4725848563968668,0.4178082191780822,0.33513513513513515,0.4971875764245537,0.6395604395604395,0.4314550042052145,1195.0
730.0,1.7109261863872648e+18,0.4699738903394256,0.4075342465753425,0.33297297297297296,0.5020787478601125,0.610989010989011,0.4381833473507149,1197.0
731.0,1.7109261863972644e+18,0.47127937336814624,0.3858447488584475,0.33405405405405403,0.49620934213744194,0.6362637362637362,0.44575273338940286,1196.0
732.0,1.7109261864072596e+18,0.4830287206266319,0.4178082191780822,0.33783783783783783,0.4979212521398875,0.6318681318681318,0.4280908326324643,1194.0
733.0,1.7109261864172677e+18,0.4869451697127937,0.410958904109589,0.3356756756756757,0.5064808021521154,0.6450549450549451,0.4381833473507149,1194.0
734.0,1.7109261864272694e+18,0.48172323759791125,0.4417808219178082,0.33783783783783783,0.5015896307165566,0.6076923076923076,0.4121110176619008,1193.0
735.0,1.710926186437264e+18,0.47127937336814624,0.4132420091324201,0.3362162162162162,0.4944974321349963,0.6021978021978022,0.4280908326324643,1193.0
736.0,1.7109261864472643e+18,0.4765013054830287,0.432648401826484,0.33783783783783783,0.5011005135730008,0.6230769230769231,0.4449116904962153,1196.0
737.0,1.7109261864572654e+18,0.4751958224543081,0.430365296803653,0.34216216216216216,0.5015896307165566,0.6362637362637362,0.44575273338940286,1196.0
738.0,1.710926186467268e+18,0.47911227154047,0.4200913242009132,0.3427027027027027,0.5003668378576669,0.6274725274725275,0.4348191757779647,1196.0
739.0,1.7109261864772797e+18,0.47780678851174935,0.430365296803653,0.34378378378378377,0.4886280264123258,0.6417582417582418,0.4440706476030278,1196.0
740.0,1.7109261864872627e+18,0.47127937336814624,0.4474885844748858,0.35567567567567565,0.491562729273661,0.6098901098901099,0.4482758620689655,1197.0
741.0,1.7109261864972636e+18,0.46736292428198434,0.4029680365296804,0.32216216216216215,0.49498654927855223,0.6395604395604395,0.43650126156433977,1197.0
742.0,1.7109261865072617e+18,0.4804177545691906,0.4178082191780822,0.33783783783783783,0.49816581071166544,0.5978021978021978,0.43902439024390244,1195.0
743.0,1.7109261865172641e+18,0.48172323759791125,0.3892694063926941,0.3237837837837838,0.504524333577892,0.6538461538461539,0.415475189234651,1194.0
744.0,1.7109261865272722e+18,0.4765013054830287,0.3995433789954338,0.3356756756756757,0.512350207874786,0.6274725274725275,0.4129520605550883,1194.0
745.0,1.7109261865372657e+18,0.46475195822454307,0.4098173515981735,0.3232432432432432,0.495720224993886,0.6230769230769231,0.4289318755256518,1195.0
746.0,1.7109261865472637e+18,0.47389033942558745,0.3984018264840183,0.3308108108108108,0.5030569821472243,0.6274725274725275,0.43902439024390244,1198.0
747.0,1.7109261865572662e+18,0.48433420365535246,0.4143835616438356,0.3281081081081081,0.5020787478601125,0.6472527472527473,0.4667788057190917,1196.0
748.0,1.7109261865672822e+18,0.4725848563968668,0.4189497716894977,0.33405405405405403,0.49645390070921985,0.6274725274725275,0.46509671993271656,1195.0
749.0,1.7109261865772772e+18,0.47389033942558745,0.4029680365296804,0.3281081081081081,0.4988994864269993,0.643956043956044,0.3969722455845248,1193.0
750.0,1.710926186587258e+18,0.48825065274151436,0.3995433789954338,0.3286486486486486,0.504279775006114,0.6274725274725275,0.4465937762825904,1198.0
751.0,1.7109261865972664e+18,0.4765013054830287,0.410958904109589,0.3318918918918919,0.4984103692834434,0.6274725274725275,0.43566021867115223,1198.0
752.0,1.7109261866072648e+18,0.47389033942558745,0.4098173515981735,0.34054054054054056,0.4859378821227684,0.5923076923076923,0.43650126156433977,1196.0
753.0,1.7109261866172644e+18,0.4751958224543081,0.3938356164383562,0.3308108108108108,0.5084372707263389,0.6373626373626373,0.45164003364171573,1198.0
754.0,1.7109261866272701e+18,0.48172323759791125,0.4018264840182648,0.3324324324324324,0.4969430178527757,0.6274725274725275,0.4440706476030278,1196.0
755.0,1.7109261866372654e+18,0.48433420365535246,0.4223744292237443,0.3302702702702703,0.49474199070677427,0.6461538461538462,0.4852817493692178,1196.0
756.0,1.7109261866472689e+18,0.46866840731070497,0.4041095890410959,0.3356756756756757,0.5015896307165566,0.6252747252747253,0.43313708999158956,1192.0
757.0,1.7109261866572685e+18,0.47389033942558745,0.4041095890410959,0.3291891891891892,0.5018341892883346,0.6285714285714286,0.44575273338940286,1195.0
758.0,1.7109261866672637e+18,0.48172323759791125,0.4189497716894977,0.33675675675675676,0.5028124235754463,0.6021978021978022,0.4188393608074012,1193.0
759.0,1.7109261866772739e+18,0.47389033942558745,0.4155251141552511,0.33783783783783783,0.5106382978723404,0.6483516483516484,0.45500420521446594,1196.0
760.0,1.7109261866872704e+18,0.46736292428198434,0.4063926940639269,0.3335135135135135,0.5059916850085595,0.6153846153846154,0.4348191757779647,1195.0
761.0,1.7109261866972662e+18,0.4856396866840731,0.4132420091324201,0.32972972972972975,0.5006113964294449,0.6285714285714286,0.4373423044575273,1194.0
762.0,1.7109261867072712e+18,0.46866840731070497,0.4166666666666667,0.33513513513513515,0.48740523355343607,0.5923076923076923,0.4339781328847771,1194.0
763.0,1.7109261867172687e+18,0.4725848563968668,0.4006849315068493,0.3291891891891892,0.4988994864269993,0.6384615384615384,0.4289318755256518,1192.0
764.0,1.7109261867272714e+18,0.4765013054830287,0.3995433789954338,0.3308108108108108,0.5001222792858889,0.634065934065934,0.46846089150546677,1197.0
765.0,1.710926186737268e+18,0.47780678851174935,0.4246575342465753,0.3389189189189189,0.5221325507459036,0.6373626373626373,0.4373423044575273,1195.0
766.0,1.7109261867472684e+18,0.47780678851174935,0.432648401826484,0.3410810810810811,0.5028124235754463,0.6098901098901099,0.4381833473507149,1194.0
767.0,1.7109261867572744e+18,0.4725848563968668,0.3961187214611872,0.3281081081081081,0.4900953778429934,0.6362637362637362,0.4634146341463415,1196.0
768.0,1.710926186767266e+18,0.47389033942558745,0.4269406392694064,0.33945945945945943,0.49229640498899485,0.6153846153846154,0.44238856181665265,1194.0
769.0,1.7109261867772705e+18,0.47127937336814624,0.3995433789954338,0.3286486486486486,0.5023233064318905,0.634065934065934,0.45500420521446594,1193.0
770.0,1.7109261867872663e+18,0.46866840731070497,0.3938356164383562,0.3335135135135135,0.504035216434336,0.6285714285714286,0.4440706476030278,1194.0
771.0,1.710926186797264e+18,0.46736292428198434,0.3892694063926941,0.31891891891891894,0.4847150892638787,0.6296703296703297,0.432296047098402,1194.0
772.0,1.7109261868072673e+18,0.4725848563968668,0.4246575342465753,0.3491891891891892,0.495720224993886,0.610989010989011,0.43902439024390244,1195.0
773.0,1.710926186817284e+18,0.47127937336814624,0.4121004566210046,0.33297297297297296,0.5047688921496698,0.6197802197802198,0.432296047098402,1192.0
774.0,1.7109261868272804e+18,0.4608355091383812,0.4223744292237443,0.3535135135135135,0.5033015407190022,0.6153846153846154,0.4600504625735913,1198.0
775.0,1.7109261868372797e+18,0.47911227154047,0.4360730593607306,0.34216216216216216,0.49767669356810956,0.6241758241758242,0.43650126156433977,1194.0
776.0,1.710926186847272e+18,0.4765013054830287,0.4200913242009132,0.33837837837837836,0.4913181707018831,0.6120879120879121,0.4348191757779647,1194.0
777.0,1.7109261868572662e+18,0.4765013054830287,0.410958904109589,0.3308108108108108,0.5128393250183418,0.6274725274725275,0.43650126156433977,1193.0
778.0,1.7109261868672727e+18,0.48172323759791125,0.4132420091324201,0.3345945945945946,0.4896062606994375,0.6076923076923076,0.4381833473507149,1194.0
779.0,1.7109261868772692e+18,0.47127937336814624,0.3835616438356164,0.32972972972972975,0.5020787478601125,0.634065934065934,0.44911690496215306,1194.0
780.0,1.7109261868872686e+18,0.49477806788511747,0.4063926940639269,0.35027027027027025,0.5025678650036683,0.6329670329670329,0.4440706476030278,1195.0
781.0,1.7109261868972992e+18,0.46866840731070497,0.3949771689497717,0.3356756756756757,0.5011005135730008,0.621978021978022,0.432296047098402,1194.0
782.0,1.7109261869072724e+18,0.4830287206266319,0.4132420091324201,0.33837837837837836,0.5052580092932257,0.6175824175824176,0.41042893187552565,1194.0
783.0,1.7109261869172675e+18,0.4830287206266319,0.4315068493150685,0.33405405405405403,0.4842259721203228,0.6296703296703297,0.43902439024390244,1196.0
784.0,1.7109261869272753e+18,0.45822454308093996,0.4029680365296804,0.3335135135135135,0.4969430178527757,0.5901098901098901,0.40706476030277544,1192.0
785.0,1.7109261869372703e+18,0.4765013054830287,0.4292237442922374,0.3389189189189189,0.48324773783321107,0.6274725274725275,0.4339781328847771,1193.0
786.0,1.710926186947275e+18,0.4660574412532637,0.4235159817351598,0.33405405405405403,0.4925409635607728,0.6131868131868132,0.4339781328847771,1192.0
787.0,1.7109261869572695e+18,0.46475195822454307,0.4189497716894977,0.3345945945945946,0.5020787478601125,0.6373626373626373,0.4222035323801514,1195.0
788.0,1.710926186967271e+18,0.47911227154047,0.4235159817351598,0.3427027027027027,0.5133284421618978,0.6274725274725275,0.44238856181665265,1196.0
789.0,1.7109261869772864e+18,0.46344647519582244,0.4041095890410959,0.3281081081081081,0.49058449498654927,0.6208791208791209,0.4339781328847771,1193.0
790.0,1.7109261869872727e+18,0.4765013054830287,0.4041095890410959,0.3389189189189189,0.5074590364392272,0.6197802197802198,0.45248107653490327,1197.0
791.0,1.710926186997295e+18,0.48172323759791125,0.4075342465753425,0.33405405405405403,0.5069699192956714,0.6494505494505495,0.4188393608074012,1192.0
792.0,1.7109261870072573e+18,0.4765013054830287,0.3961187214611872,0.3237837837837838,0.5033015407190022,0.6230769230769231,0.4306139613120269,1195.0
793.0,1.7109261870172682e+18,0.4765013054830287,0.410958904109589,0.3281081081081081,0.5008559550012228,0.634065934065934,0.4348191757779647,1194.0
794.0,1.710926187027268e+18,0.47127937336814624,0.410958904109589,0.33675675675675676,0.5091709464416728,0.6164835164835165,0.4188393608074012,1194.0
795.0,1.710926187037269e+18,0.46475195822454307,0.4052511415525114,0.3232432432432432,0.5140621178772316,0.6450549450549451,0.44575273338940286,1194.0
796.0,1.7109261870472694e+18,0.4660574412532637,0.3698630136986301,0.3237837837837838,0.4991440449987772,0.6065934065934065,0.4465937762825904,1196.0
797.0,1.7109261870572739e+18,0.49477806788511747,0.4178082191780822,0.33675675675675676,0.504035216434336,0.656043956043956,0.4482758620689655,1196.0
798.0,1.7109261870672704e+18,0.47127937336814624,0.4189497716894977,0.33513513513513515,0.4969430178527757,0.6131868131868132,0.43650126156433977,1195.0
799.0,1.710926187077276e+18,0.4765013054830287,0.4280821917808219,0.34324324324324323,0.5059916850085595,0.6307692307692307,0.45500420521446594,1194.0
800.0,1.7109261870872545e+18,0.4765013054830287,0.4132420091324201,0.33783783783783783,0.48813890926876985,0.5956043956043956,0.45164003364171573,1202.0
801.0,1.7109261870972764e+18,0.4830287206266319,0.4383561643835616,0.33513513513513515,0.504035216434336,0.6417582417582418,0.4465937762825904,1197.0
802.0,1.7109261871072748e+18,0.46736292428198434,0.4257990867579909,0.33297297297297296,0.4800684764000978,0.6054945054945055,0.44238856181665265,1195.0
803.0,1.7109261871172744e+18,0.4765013054830287,0.4178082191780822,0.34162162162162163,0.49816581071166544,0.6296703296703297,0.40370058873002523,1193.0
804.0,1.7109261871272742e+18,0.47127937336814624,0.3881278538812785,0.3318918918918919,0.5211543164587918,0.6120879120879121,0.4373423044575273,1194.0
805.0,1.7109261871372746e+18,0.47911227154047,0.4143835616438356,0.33297297297297296,0.5003668378576669,0.6197802197802198,0.4381833473507149,1197.0
806.0,1.7109261871472824e+18,0.48172323759791125,0.4292237442922374,0.34054054054054056,0.5152849107361213,0.6164835164835165,0.44575273338940286,1196.0
807.0,1.7109261871572736e+18,0.48825065274151436,0.4429223744292237,0.3362162162162162,0.5064808021521154,0.6318681318681318,0.4381833473507149,1196.0
808.0,1.7109261871672742e+18,0.46475195822454307,0.4018264840182648,0.3308108108108108,0.5047688921496698,0.6175824175824176,0.4348191757779647,1195.0
809.0,1.7109261871772856e+18,0.47127937336814624,0.4098173515981735,0.3281081081081081,0.4984103692834434,0.6142857142857143,0.42640874684608915,1194.0
810.0,1.710926187187275e+18,0.4765013054830287,0.4223744292237443,0.34324324324324323,0.5008559550012228,0.6065934065934065,0.4432296047098402,1198.0
811.0,1.7109261871973048e+18,0.4660574412532637,0.3767123287671233,0.3281081081081081,0.5074590364392272,0.6450549450549451,0.4381833473507149,1195.0
812.0,1.7109261872072102e+18,0.48172323759791125,0.4269406392694064,0.3372972972972973,0.4827586206896552,0.6043956043956044,0.4381833473507149,1195.0
813.0,1.710926187217276e+18,0.4869451697127937,0.4280821917808219,0.3491891891891892,0.4991440449987772,0.6186813186813187,0.432296047098402,1194.0
814.0,1.71092618722728e+18,0.47389033942558745,0.4098173515981735,0.3302702702702703,0.5023233064318905,0.6153846153846154,0.44238856181665265,1196.0
815.0,1.7109261872372767e+18,0.46866840731070497,0.410958904109589,0.3264864864864865,0.5008559550012228,0.6296703296703297,0.43313708999158956,1192.0
816.0,1.7109261872472799e+18,0.47780678851174935,0.4006849315068493,0.32972972972972975,0.4942528735632184,0.6164835164835165,0.44575273338940286,1194.0
817.0,1.7109261872572787e+18,0.4830287206266319,0.4155251141552511,0.33135135135135135,0.49498654927855223,0.6274725274725275,0.4507989907485282,1194.0
818.0,1.7109261872672607e+18,0.47127937336814624,0.3858447488584475,0.33675675675675676,0.49033993641477136,0.6186813186813187,0.4415475189234651,1194.0
819.0,1.7109261872772856e+18,0.4856396866840731,0.4098173515981735,0.3362162162162162,0.5101491807287846,0.621978021978022,0.4449116904962153,1194.0
820.0,1.7109261872872799e+18,0.4908616187989556,0.4360730593607306,0.34324324324324323,0.5062362435803375,0.6318681318681318,0.48444070647603027,1195.0
821.0,1.7109261872972836e+18,0.47389033942558745,0.4098173515981735,0.3286486486486486,0.4991440449987772,0.6307692307692307,0.4415475189234651,1195.0
822.0,1.7109261873072812e+18,0.47127937336814624,0.4155251141552511,0.34324324324324323,0.5145512350207875,0.6329670329670329,0.44911690496215306,1195.0
823.0,1.7109261873172636e+18,0.4765013054830287,0.4178082191780822,0.3324324324324324,0.5015896307165566,0.6450549450549451,0.4415475189234651,1193.0
824.0,1.7109261873272645e+18,0.47389033942558745,0.3995433789954338,0.32594594594594595,0.5111274150158963,0.6175824175824176,0.4381833473507149,1196.0
825.0,1.7109261873372639e+18,0.46866840731070497,0.4132420091324201,0.3232432432432432,0.49474199070677427,0.6417582417582418,0.4381833473507149,1195.0
826.0,1.7109261873472768e+18,0.46475195822454307,0.4052511415525114,0.33513513513513515,0.5089263878698949,0.6252747252747253,0.4381833473507149,1197.0
827.0,1.710926187357283e+18,0.46866840731070497,0.3858447488584475,0.3281081081081081,0.5074590364392272,0.6373626373626373,0.43566021867115223,1197.0
828.0,1.7109261873672653e+18,0.4765013054830287,0.4178082191780822,0.3464864864864865,0.5077035950110051,0.6230769230769231,0.42640874684608915,1193.0
829.0,1.7109261873772918e+18,0.47389033942558745,0.4052511415525114,0.32432432432432434,0.504279775006114,0.6362637362637362,0.3902439024390244,1192.0
830.0,1.7109261873872658e+18,0.4765013054830287,0.4143835616438356,0.3318918918918919,0.5052580092932257,0.6142857142857143,0.4432296047098402,1195.0
831.0,1.7109261873972672e+18,0.4765013054830287,0.4143835616438356,0.3318918918918919,0.4984103692834434,0.6329670329670329,0.45500420521446594,1195.0
832.0,1.7109261874072678e+18,0.47389033942558745,0.4189497716894977,0.33513513513513515,0.5006113964294449,0.6076923076923076,0.4440706476030278,1195.0
833.0,1.7109261874172662e+18,0.48172323759791125,0.4235159817351598,0.34756756756756757,0.5069699192956714,0.6494505494505495,0.4449116904962153,1196.0
834.0,1.710926187427213e+18,0.47127937336814624,0.4063926940639269,0.3389189189189189,0.48789435069699194,0.6252747252747253,0.4415475189234651,1196.0
835.0,1.7109261874372641e+18,0.47389033942558745,0.4132420091324201,0.3308108108108108,0.49205184641721694,0.6285714285714286,0.44575273338940286,1196.0
836.0,1.7109261874472202e+18,0.47127937336814624,0.3801369863013699,0.3286486486486486,0.495964783565664,0.6098901098901099,0.43650126156433977,1193.0
837.0,1.7109261874572257e+18,0.47780678851174935,0.4189497716894977,0.33837837837837836,0.5020787478601125,0.6318681318681318,0.44070647603027757,1195.0
838.0,1.7109261874672637e+18,0.47127937336814624,0.4132420091324201,0.34162162162162163,0.4971875764245537,0.6142857142857143,0.4449116904962153,1195.0
839.0,1.7109261874772065e+18,0.48825065274151436,0.4132420091324201,0.33405405405405403,0.5094155050134507,0.6472527472527473,0.4095878889823381,1193.0
840.0,1.7109261874872384e+18,0.4725848563968668,0.4075342465753425,0.34486486486486484,0.5015896307165566,0.6098901098901099,0.4381833473507149,1197.0
841.0,1.71092618749727e+18,0.47389033942558745,0.4155251141552511,0.32972972972972975,0.4969430178527757,0.6241758241758242,0.4482758620689655,1195.0
842.0,1.710926187507242e+18,0.47127937336814624,0.4269406392694064,0.3389189189189189,0.4966984592809978,0.6021978021978022,0.4507989907485282,1197.0
843.0,1.7109261875172664e+18,0.4765013054830287,0.4121004566210046,0.3345945945945946,0.49400831499144043,0.6428571428571429,0.42304457527333894,1192.0
844.0,1.7109261875272663e+18,0.46866840731070497,0.3972602739726027,0.3308108108108108,0.5008559550012228,0.6175824175824176,0.4381833473507149,1197.0
845.0,1.710926187537269e+18,0.49216710182767626,0.4292237442922374,0.3362162162162162,0.5008559550012228,0.6362637362637362,0.42977291841883936,1192.0
846.0,1.7109261875472786e+18,0.4765013054830287,0.408675799086758,0.33675675675675676,0.504279775006114,0.6054945054945055,0.43986543313709,1195.0
847.0,1.7109261875572726e+18,0.47127937336814624,0.4440639269406393,0.33675675675675676,0.5015896307165566,0.6230769230769231,0.4381833473507149,1197.0
848.0,1.7109261875672701e+18,0.4660574412532637,0.4178082191780822,0.33675675675675676,0.4986549278552213,0.6164835164835165,0.4575273338940286,1196.0
849.0,1.71092618757727e+18,0.46866840731070497,0.4121004566210046,0.3281081081081081,0.4859378821227684,0.6230769230769231,0.4348191757779647,1196.0
850.0,1.7109261875872433e+18,0.47127937336814624,0.3904109589041096,0.32,0.4883834678405478,0.6120879120879121,0.43902439024390244,1196.0
851.0,1.7109261875972785e+18,0.48172323759791125,0.3904109589041096,0.32,0.5025678650036683,0.6318681318681318,0.4314550042052145,1193.0
852.0,1.7109261876072727e+18,0.47911227154047,0.3949771689497717,0.3345945945945946,0.4937637564196625,0.6296703296703297,0.44911690496215306,1194.0
853.0,1.7109261876172654e+18,0.48433420365535246,0.4406392694063927,0.33837837837837836,0.5052580092932257,0.6296703296703297,0.43902439024390244,1194.0
854.0,1.7109261876272655e+18,0.4765013054830287,0.408675799086758,0.3318918918918919,0.5067253607238934,0.6417582417582418,0.4701429772918419,1197.0
855.0,1.7109261876372654e+18,0.48433420365535246,0.4337899543378995,0.34054054054054056,0.49498654927855223,0.6362637362637362,0.4533221194280908,1194.0
856.0,1.710926187647283e+18,0.46736292428198434,0.4075342465753425,0.33513513513513515,0.5025678650036683,0.610989010989011,0.4348191757779647,1197.0
857.0,1.710926187657274e+18,0.4804177545691906,0.4200913242009132,0.34324324324324323,0.5143066764490095,0.6494505494505495,0.44238856181665265,1196.0
858.0,1.71092618766727e+18,0.47911227154047,0.4178082191780822,0.33783783783783783,0.5030569821472243,0.6164835164835165,0.4415475189234651,1195.0
859.0,1.7109261876773192e+18,0.46866840731070497,0.3961187214611872,0.33513513513513515,0.512594766446564,0.6472527472527473,0.4482758620689655,1195.0
860.0,1.7109261876872712e+18,0.48172323759791125,0.4223744292237443,0.3410810810810811,0.5089263878698949,0.5923076923076923,0.4415475189234651,1197.0
861.0,1.7109261876972419e+18,0.4830287206266319,0.4315068493150685,0.32756756756756755,0.47542186353631694,0.6494505494505495,0.45500420521446594,1197.0
862.0,1.710926187707266e+18,0.4699738903394256,0.4178082191780822,0.3410810810810811,0.5015896307165566,0.6296703296703297,0.43986543313709,1197.0
863.0,1.710926187717268e+18,0.48172323759791125,0.4246575342465753,0.3335135135135135,0.49938860357055515,0.634065934065934,0.4129520605550883,1192.0
864.0,1.710926187727266e+18,0.4765013054830287,0.3995433789954338,0.33675675675675676,0.5079481535827831,0.6241758241758242,0.4634146341463415,1195.0
865.0,1.710926187737265e+18,0.48433420365535246,0.4063926940639269,0.33405405405405403,0.48495964783565665,0.6153846153846154,0.43986543313709,1196.0
866.0,1.71092618774728e+18,0.47127937336814624,0.4006849315068493,0.33837837837837836,0.5084372707263389,0.6164835164835165,0.44911690496215306,1195.0
867.0,1.7109261877572687e+18,0.47389033942558745,0.3949771689497717,0.3286486486486486,0.499877720714111,0.6318681318681318,0.43566021867115223,1197.0
868.0,1.7109261877672668e+18,0.4804177545691906,0.4360730593607306,0.3572972972972973,0.48495964783565665,0.6043956043956044,0.4373423044575273,1196.0
869.0,1.710926187777306e+18,0.47911227154047,0.4132420091324201,0.33513513513513515,0.49767669356810956,0.6516483516483517,0.41968040370058873,1193.0
870.0,1.7109261877872753e+18,0.4699738903394256,0.4246575342465753,0.34054054054054056,0.5052580092932257,0.6186813186813187,0.43313708999158956,1193.0
871.0,1.7109261877972813e+18,0.4660574412532637,0.3915525114155251,0.3216216216216216,0.4944974321349963,0.6362637362637362,0.43986543313709,1196.0
872.0,1.7109261878072686e+18,0.4621409921671018,0.386986301369863,0.33405405405405403,0.4986549278552213,0.6054945054945055,0.4440706476030278,1194.0
873.0,1.7109261878172695e+18,0.47780678851174935,0.408675799086758,0.34054054054054056,0.5121056493030081,0.6406593406593407,0.44575273338940286,1193.0
874.0,1.7109261878272684e+18,0.46736292428198434,0.4121004566210046,0.3389189189189189,0.49082905355832723,0.5978021978021978,0.4507989907485282,1195.0
875.0,1.7109261878372677e+18,0.4765013054830287,0.4143835616438356,0.3302702702702703,0.5008559550012228,0.6175824175824176,0.45164003364171573,1192.0
876.0,1.7109261878472888e+18,0.48825065274151436,0.4554794520547945,0.35567567567567565,0.4966984592809978,0.621978021978022,0.45248107653490327,1195.0
877.0,1.7109261878572744e+18,0.46866840731070497,0.3995433789954338,0.32756756756756755,0.4979212521398875,0.6230769230769231,0.4533221194280908,1196.0
878.0,1.710926187867272e+18,0.48172323759791125,0.4360730593607306,0.33837837837837836,0.4984103692834434,0.6131868131868132,0.40706476030277544,1193.0
879.0,1.7109261878772887e+18,0.47911227154047,0.4200913242009132,0.33135135135135135,0.5018341892883346,0.6483516483516484,0.4432296047098402,1194.0
880.0,1.7109261878872727e+18,0.47389033942558745,0.4098173515981735,0.3302702702702703,0.4984103692834434,0.6241758241758242,0.43566021867115223,1195.0
881.0,1.7109261878973276e+18,0.47911227154047,0.4098173515981735,0.33837837837837836,0.5145512350207875,0.6450549450549451,0.4280908326324643,1191.0
882.0,1.710926187907267e+18,0.47780678851174935,0.432648401826484,0.34054054054054056,0.5003668378576669,0.6065934065934065,0.4482758620689655,1194.0
883.0,1.7109261879172723e+18,0.48172323759791125,0.4440639269406393,0.34162162162162163,0.5089263878698949,0.6263736263736264,0.4306139613120269,1193.0
884.0,1.7109261879272676e+18,0.46475195822454307,0.4041095890410959,0.3308108108108108,0.49767669356810956,0.6076923076923076,0.4314550042052145,1192.0
885.0,1.7109261879372708e+18,0.47127937336814624,0.4075342465753425,0.3286486486486486,0.5030569821472243,0.6175824175824176,0.45164003364171573,1197.0
886.0,1.710926187947265e+18,0.47911227154047,0.4292237442922374,0.34054054054054056,0.5037906578625581,0.6296703296703297,0.4449116904962153,1196.0
887.0,1.7109261879572641e+18,0.4751958224543081,0.3995433789954338,0.3264864864864865,0.5079481535827831,0.6428571428571429,0.4600504625735913,1195.0
888.0,1.7109261879672737e+18,0.4869451697127937,0.4509132420091324,0.3491891891891892,0.5062362435803375,0.6263736263736264,0.43313708999158956,1192.0
889.0,1.7109261879772186e+18,0.4660574412532637,0.4166666666666667,0.32756756756756755,0.5003668378576669,0.6362637362637362,0.4432296047098402,1195.0
890.0,1.7109261879872696e+18,0.4725848563968668,0.4041095890410959,0.3362162162162162,0.49229640498899485,0.5923076923076923,0.4381833473507149,1194.0
891.0,1.7109261879972552e+18,0.4765013054830287,0.410958904109589,0.32432432432432434,0.49058449498654927,0.6285714285714286,0.43902439024390244,1196.0
892.0,1.7109261880072924e+18,0.48172323759791125,0.4143835616438356,0.33135135135135135,0.4986549278552213,0.6175824175824176,0.43650126156433977,1196.0
893.0,1.7109261880172756e+18,0.46866840731070497,0.3972602739726027,0.32216216216216215,0.5064808021521154,0.6362637362637362,0.43902439024390244,1196.0
894.0,1.710926188027266e+18,0.47127937336814624,0.4634703196347032,0.34702702702702704,0.5028124235754463,0.6230769230769231,0.45164003364171573,1195.0
895.0,1.710926188037268e+18,0.4725848563968668,0.4132420091324201,0.3335135135135135,0.495720224993886,0.6197802197802198,0.4053826745164003,1190.0
896.0,1.710926188047261e+18,0.47911227154047,0.4178082191780822,0.3427027027027027,0.504279775006114,0.6087912087912087,0.4020185029436501,1192.0
897.0,1.7109261880572639e+18,0.4725848563968668,0.4132420091324201,0.32756756756756755,0.5084372707263389,0.6274725274725275,0.432296047098402,1192.0
898.0,1.710926188067275e+18,0.4725848563968668,0.4178082191780822,0.3427027027027027,0.5133284421618978,0.6384615384615384,0.45248107653490327,1194.0
899.0,1.7109261880772534e+18,0.4660574412532637,0.4098173515981735,0.3254054054054054,0.5057471264367817,0.6241758241758242,0.4449116904962153,1193.0
900.0,1.7109261880872724e+18,0.4660574412532637,0.3561643835616438,0.3286486486486486,0.5086818292981169,0.6241758241758242,0.45248107653490327,1194.0
901.0,1.7109261880972664e+18,0.4765013054830287,0.3881278538812785,0.3254054054054054,0.4888725849841037,0.5879120879120879,0.40454163162321277,1193.0
902.0,1.710926188107275e+18,0.4765013054830287,0.4383561643835616,0.34594594594594597,0.49107361213010514,0.6274725274725275,0.4482758620689655,1195.0
903.0,1.7109261881172406e+18,0.46475195822454307,0.4063926940639269,0.3345945945945946,0.5023233064318905,0.6318681318681318,0.4280908326324643,1192.0
904.0,1.7109261881272748e+18,0.4830287206266319,0.4280821917808219,0.3427027027027027,0.5035460992907801,0.6285714285714286,0.44070647603027757,1193.0
905.0,1.7109261881372754e+18,0.4765013054830287,0.4235159817351598,0.32756756756756755,0.49816581071166544,0.6494505494505495,0.4667788057190917,1194.0
906.0,1.7109261881472712e+18,0.46736292428198434,0.4360730593607306,0.3410810810810811,0.5008559550012228,0.6032967032967033,0.4247266610597141,1193.0
907.0,1.7109261881572698e+18,0.4725848563968668,0.4075342465753425,0.3286486486486486,0.49938860357055515,0.634065934065934,0.4373423044575273,1196.0
908.0,1.7109261881672694e+18,0.46736292428198434,0.4052511415525114,0.3286486486486486,0.49767669356810956,0.6175824175824176,0.4499579478553406,1194.0
909.0,1.7109261881772982e+18,0.47780678851174935,0.4029680365296804,0.3362162162162162,0.49767669356810956,0.6142857142857143,0.43902439024390244,1198.0
910.0,1.7109261881872707e+18,0.47780678851174935,0.3824200913242009,0.3324324324324324,0.5157740278796772,0.6186813186813187,0.43986543313709,1197.0
911.0,1.7109261881972739e+18,0.4765013054830287,0.4235159817351598,0.34594594594594597,0.499877720714111,0.6362637362637362,0.44911690496215306,1197.0
912.0,1.7109261882072704e+18,0.47389033942558745,0.4018264840182648,0.3345945945945946,0.5011005135730008,0.6010989010989011,0.43902439024390244,1195.0
913.0,1.7109261882172716e+18,0.49216710182767626,0.4269406392694064,0.33675675675675676,0.495964783565664,0.6142857142857143,0.4432296047098402,1195.0
914.0,1.7109261882272753e+18,0.46866840731070497,0.4052511415525114,0.3254054054054054,0.5064808021521154,0.6186813186813187,0.4415475189234651,1195.0
915.0,1.7109261882372667e+18,0.4908616187989556,0.4280821917808219,0.33783783783783783,0.5084372707263389,0.6241758241758242,0.4339781328847771,1194.0
916.0,1.7109261882472676e+18,0.4856396866840731,0.4075342465753425,0.33675675675675676,0.5028124235754463,0.621978021978022,0.4247266610597141,1195.0
917.0,1.7109261882572733e+18,0.47127937336814624,0.4315068493150685,0.3291891891891892,0.5018341892883346,0.6494505494505495,0.4415475189234651,1195.0
918.0,1.7109261882672983e+18,0.4699738903394256,0.4063926940639269,0.3389189189189189,0.5025678650036683,0.6153846153846154,0.43902439024390244,1197.0
919.0,1.710926188277213e+18,0.48172323759791125,0.4292237442922374,0.3362162162162162,0.5008559550012228,0.6142857142857143,0.4348191757779647,1196.0
920.0,1.710926188287271e+18,0.4804177545691906,0.4246575342465753,0.33297297297297296,0.512594766446564,0.6197802197802198,0.43650126156433977,1195.0
921.0,1.7109261882972585e+18,0.46475195822454307,0.4121004566210046,0.30864864864864866,0.5006113964294449,0.6142857142857143,0.4289318755256518,1193.0
922.0,1.7109261883072645e+18,0.47127937336814624,0.4006849315068493,0.3372972972972973,0.5059916850085595,0.6098901098901099,0.4373423044575273,1197.0
923.0,1.710926188317276e+18,0.46866840731070497,0.3949771689497717,0.3318918918918919,0.49205184641721694,0.6296703296703297,0.4381833473507149,1198.0
924.0,1.710926188327295e+18,0.4869451697127937,0.4372146118721461,0.3410810810810811,0.5101491807287846,0.6329670329670329,0.4381833473507149,1195.0
925.0,1.7109261883372746e+18,0.47389033942558745,0.4178082191780822,0.3427027027027027,0.5050134507214478,0.6384615384615384,0.4449116904962153,1196.0
926.0,1.7109261883472778e+18,0.46736292428198434,0.4098173515981735,0.3362162162162162,0.5059916850085595,0.6197802197802198,0.45248107653490327,1196.0
927.0,1.7109261883572431e+18,0.47127937336814624,0.4121004566210046,0.3291891891891892,0.4839814135485449,0.610989010989011,0.4482758620689655,1197.0
928.0,1.7109261883672696e+18,0.48172323759791125,0.4052511415525114,0.3308108108108108,0.5037906578625581,0.6120879120879121,0.4348191757779647,1197.0
929.0,1.7109261883771894e+18,0.4725848563968668,0.4132420091324201,0.32756756756756755,0.49474199070677427,0.6417582417582418,0.4625735912531539,1196.0
930.0,1.710926188387295e+18,0.48172323759791125,0.4200913242009132,0.34702702702702704,0.5030569821472243,0.6164835164835165,0.45164003364171573,1196.0
931.0,1.7109261883972728e+18,0.4765013054830287,0.3926940639269406,0.32756756756756755,0.5145512350207875,0.6417582417582418,0.4465937762825904,1193.0
932.0,1.7109261884072714e+18,0.48825065274151436,0.4212328767123288,0.33513513513513515,0.5240890193201272,0.6296703296703297,0.44911690496215306,1194.0
933.0,1.710926188417274e+18,0.4751958224543081,0.4041095890410959,0.3281081081081081,0.5133284421618978,0.6362637362637362,0.4482758620689655,1195.0
934.0,1.7109261884272704e+18,0.4699738903394256,0.3972602739726027,0.33405405405405403,0.4966984592809978,0.6043956043956044,0.4381833473507149,1195.0
935.0,1.7109261884372362e+18,0.47780678851174935,0.4223744292237443,0.3302702702702703,0.504035216434336,0.6450549450549451,0.44575273338940286,1193.0
936.0,1.7109261884472727e+18,0.4765013054830287,0.4029680365296804,0.33783783783783783,0.504035216434336,0.6175824175824176,0.42977291841883936,1192.0
937.0,1.7109261884572419e+18,0.48172323759791125,0.4394977168949772,0.33405405405405403,0.4988994864269993,0.634065934065934,0.44575273338940286,1194.0
938.0,1.7109261884672724e+18,0.46475195822454307,0.4052511415525114,0.3324324324324324,0.49082905355832723,0.589010989010989,0.4339781328847771,1190.0
939.0,1.710926188477274e+18,0.46475195822454307,0.4554794520547945,0.3372972972972973,0.49498654927855223,0.6362637362637362,0.43650126156433977,1194.0
940.0,1.710926188487288e+18,0.46736292428198434,0.4189497716894977,0.33405405405405403,0.5047688921496698,0.6153846153846154,0.4373423044575273,1196.0
941.0,1.710926188497272e+18,0.4660574412532637,0.3812785388127854,0.31675675675675674,0.5001222792858889,0.6296703296703297,0.43986543313709,1194.0
942.0,1.710926188507273e+18,0.47127937336814624,0.4041095890410959,0.33135135135135135,0.5006113964294449,0.6098901098901099,0.4348191757779647,1192.0
943.0,1.7109261885172739e+18,0.4751958224543081,0.4246575342465753,0.3302702702702703,0.48202494497432136,0.6153846153846154,0.42304457527333894,1192.0
944.0,1.710926188527309e+18,0.4765013054830287,0.4075342465753425,0.33405405405405403,0.5099046221570066,0.6483516483516484,0.4432296047098402,1193.0
945.0,1.7109261885372447e+18,0.46866840731070497,0.3904109589041096,0.3324324324324324,0.4996331621423331,0.6285714285714286,0.4339781328847771,1192.0
946.0,1.7109261885472758e+18,0.47780678851174935,0.3961187214611872,0.3302702702702703,0.5037906578625581,0.6274725274725275,0.43902439024390244,1195.0
947.0,1.710926188557273e+18,0.47127937336814624,0.4075342465753425,0.3345945945945946,0.48202494497432136,0.6296703296703297,0.4415475189234651,1196.0
948.0,1.7109261885672735e+18,0.4765013054830287,0.4041095890410959,0.33945945945945943,0.5118610907312301,0.6230769230769231,0.4440706476030278,1194.0
949.0,1.7109261885772751e+18,0.4765013054830287,0.408675799086758,0.32432432432432434,0.4996331621423331,0.6472527472527473,0.44575273338940286,1195.0
950.0,1.7109261885872822e+18,0.47389033942558745,0.4063926940639269,0.34054054054054056,0.5072144778674492,0.6307692307692307,0.44911690496215306,1193.0
951.0,1.7109261885972457e+18,0.47911227154047,0.384703196347032,0.3264864864864865,0.5006113964294449,0.6318681318681318,0.4348191757779647,1194.0
952.0,1.71092618860728e+18,0.4699738903394256,0.386986301369863,0.3172972972972973,0.5116165321594522,0.6263736263736264,0.43650126156433977,1196.0
953.0,1.710926188617267e+18,0.4765013054830287,0.3995433789954338,0.32594594594594595,0.5057471264367817,0.6428571428571429,0.45500420521446594,1195.0
954.0,1.7109261886272801e+18,0.47780678851174935,0.4200913242009132,0.34054054054054056,0.499877720714111,0.6153846153846154,0.4087468460891506,1192.0
955.0,1.7109261886372255e+18,0.4725848563968668,0.386986301369863,0.3210810810810811,0.504524333577892,0.6428571428571429,0.45500420521446594,1192.0
956.0,1.7109261886472727e+18,0.4765013054830287,0.3926940639269406,0.3324324324324324,0.504035216434336,0.6153846153846154,0.4415475189234651,1194.0
957.0,1.710926188657279e+18,0.48172323759791125,0.4155251141552511,0.3464864864864865,0.4942528735632184,0.6197802197802198,0.44238856181665265,1195.0
958.0,1.7109261886672801e+18,0.46344647519582244,0.4006849315068493,0.3335135135135135,0.5108828564441183,0.6252747252747253,0.44238856181665265,1193.0
959.0,1.7109261886772813e+18,0.4765013054830287,0.3984018264840183,0.33405405405405403,0.5121056493030081,0.6505494505494506,0.4499579478553406,1194.0
960.0,1.7109261886872852e+18,0.4660574412532637,0.384703196347032,0.3345945945945946,0.49767669356810956,0.6153846153846154,0.42977291841883936,1194.0
961.0,1.7109261886972608e+18,0.4765013054830287,0.4429223744292237,0.3362162162162162,0.495964783565664,0.6241758241758242,0.42977291841883936,1192.0
962.0,1.7109261887072694e+18,0.4621409921671018,0.3995433789954338,0.3291891891891892,0.5108828564441183,0.5868131868131868,0.4314550042052145,1192.0
963.0,1.710926188717282e+18,0.4725848563968668,0.4018264840182648,0.32216216216216215,0.504035216434336,0.6428571428571429,0.43650126156433977,1194.0
964.0,1.710926188727262e+18,0.4725848563968668,0.4280821917808219,0.34216216216216216,0.5018341892883346,0.6164835164835165,0.4482758620689655,1196.0
965.0,1.7109261887372774e+18,0.4725848563968668,0.4132420091324201,0.3291891891891892,0.49474199070677427,0.6318681318681318,0.43650126156433977,1197.0
966.0,1.710926188747268e+18,0.49738903394255873,0.4497716894977169,0.35135135135135137,0.5101491807287846,0.6461538461538462,0.4507989907485282,1196.0
967.0,1.7109261887572682e+18,0.47389033942558745,0.4452054794520548,0.33945945945945943,0.4847150892638787,0.6120879120879121,0.43986543313709,1197.0
968.0,1.7109261887672666e+18,0.46736292428198434,0.410958904109589,0.32972972972972975,0.5025678650036683,0.6208791208791209,0.4415475189234651,1194.0
969.0,1.7109261887772777e+18,0.47127937336814624,0.4075342465753425,0.3302702702702703,0.5015896307165566,0.6285714285714286,0.43650126156433977,1193.0
970.0,1.7109261887872663e+18,0.4830287206266319,0.4383561643835616,0.36,0.4986549278552213,0.610989010989011,0.43566021867115223,1197.0
971.0,1.7109261887971953e+18,0.47780678851174935,0.4063926940639269,0.32756756756756755,0.48691611640988014,0.6450549450549451,0.44238856181665265,1195.0
972.0,1.710926188807267e+18,0.47911227154047,0.4178082191780822,0.34594594594594597,0.4996331621423331,0.6142857142857143,0.43986543313709,1195.0
973.0,1.7109261888172777e+18,0.4830287206266319,0.4474885844748858,0.35135135135135137,0.495720224993886,0.6241758241758242,0.4465937762825904,1194.0
974.0,1.7109261888272686e+18,0.45691906005221933,0.3812785388127854,0.3227027027027027,0.5055025678650037,0.6164835164835165,0.43650126156433977,1194.0
975.0,1.7109261888372708e+18,0.4699738903394256,0.4063926940639269,0.3345945945945946,0.5030569821472243,0.6164835164835165,0.4255677039529016,1189.0
976.0,1.7109261888472627e+18,0.4804177545691906,0.4189497716894977,0.3345945945945946,0.5067253607238934,0.6164835164835165,0.44575273338940286,1193.0
977.0,1.7109261888572682e+18,0.47127937336814624,0.4121004566210046,0.32972972972972975,0.5055025678650037,0.6395604395604395,0.4415475189234651,1194.0
978.0,1.7109261888672707e+18,0.4725848563968668,0.4018264840182648,0.33405405405405403,0.4900953778429934,0.6197802197802198,0.43650126156433977,1193.0
979.0,1.7109261888772677e+18,0.4725848563968668,0.4006849315068493,0.33405405405405403,0.5135730007336757,0.6417582417582418,0.4449116904962153,1195.0
980.0,1.7109261888872714e+18,0.48172323759791125,0.4235159817351598,0.34054054054054056,0.5091709464416728,0.6406593406593407,0.456686291000841,1197.0
981.0,1.7109261888972626e+18,0.4725848563968668,0.4452054794520548,0.3389189189189189,0.5059916850085595,0.6450549450549451,0.4575273338940286,1195.0
982.0,1.710926188907269e+18,0.4660574412532637,0.3984018264840183,0.3308108108108108,0.4966984592809978,0.6087912087912087,0.4339781328847771,1190.0
983.0,1.7109261889172288e+18,0.4765013054830287,0.3972602739726027,0.33135135135135135,0.487649792125214,0.6351648351648351,0.43902439024390244,1193.0
984.0,1.7109261889272614e+18,0.47780678851174935,0.4463470319634703,0.35783783783783785,0.5067253607238934,0.6142857142857143,0.43902439024390244,1195.0
985.0,1.710926188937291e+18,0.4765013054830287,0.4178082191780822,0.33837837837837836,0.5050134507214478,0.6208791208791209,0.407905803195963,1193.0
986.0,1.7109261889472684e+18,0.47911227154047,0.4292237442922374,0.3372972972972973,0.4986549278552213,0.610989010989011,0.4306139613120269,1192.0
987.0,1.7109261889572646e+18,0.47780678851174935,0.4223744292237443,0.3362162162162162,0.5064808021521154,0.6582417582417582,0.44575273338940286,1196.0
988.0,1.710926188967265e+18,0.47389033942558745,0.4121004566210046,0.3410810810810811,0.5064808021521154,0.6197802197802198,0.4449116904962153,1196.0
989.0,1.710926188977263e+18,0.4751958224543081,0.4155251141552511,0.34,0.49938860357055515,0.6241758241758242,0.4255677039529016,1192.0
990.0,1.7109261889872727e+18,0.47780678851174935,0.4166666666666667,0.3389189189189189,0.5128393250183418,0.6274725274725275,0.44575273338940286,1196.0
991.0,1.7109261889972593e+18,0.46866840731070497,0.3972602739726027,0.3183783783783784,0.49938860357055515,0.621978021978022,0.4482758620689655,1194.0
992.0,1.7109261890072684e+18,0.48172323759791125,0.4041095890410959,0.3308108108108108,0.5006113964294449,0.6208791208791209,0.447434819175778,1194.0
993.0,1.710926189017274e+18,0.4621409921671018,0.3595890410958904,0.3145945945945946,0.5099046221570066,0.6362637362637362,0.4415475189234651,1196.0
994.0,1.710926189027268e+18,0.49216710182767626,0.4292237442922374,0.3464864864864865,0.5064808021521154,0.6274725274725275,0.4465937762825904,1195.0
995.0,1.710926189037274e+18,0.47127937336814624,0.4052511415525114,0.32756756756756755,0.48813890926876985,0.6285714285714286,0.4415475189234651,1193.0
996.0,1.7109261890472732e+18,0.47780678851174935,0.4269406392694064,0.3356756756756757,0.5143066764490095,0.6076923076923076,0.4373423044575273,1195.0
997.0,1.7109261890572675e+18,0.47911227154047,0.4360730593607306,0.3286486486486486,0.5037906578625581,0.6373626373626373,0.43986543313709,1196.0
998.0,1.7109261890672668e+18,0.46866840731070497,0.4143835616438356,0.34540540540540543,0.49400831499144043,0.6230769230769231,0.4440706476030278,1192.0
