seq,time,data[0],data[1],data[2],data[3],data[4],data[5],data[6]
201,1716347952545418408,2052,2031,2060,2086,2092,2061,1198
202,1716347952555418570,2062,2060,2052,2043,2042,2038,1193
203,1716347952565420184,2050,2031,2069,2070,2092,2044,1194
204,1716347952575418824,2051,2060,2037,2044,2028,2010,1194
205,1716347952585420249,2046,2008,2062,2067,2080,2085,1196
206,1716347952595423596,2058,2072,2050,2037,2033,2024,1194
207,1716347952605419410,2051,2034,2069,2062,2070,2059,1194
208,1716347952615418841,2056,2064,2048,2068,2061,2045,1194
209,1716347952625418412,2052,2037,2063,2086,2074,2065,1197
210,1716347952635418925,2058,2072,2034,2070,2077,2033,1193
211,1716347952645419137,2053,2024,2049,2079,2072,2069,1193
212,1716347952655374487,2052,2067,2075,2032,2040,2049,1195
213,1716347952665419401,2053,2027,2070,2073,2076,2115,1196
214,1716347952675418702,2058,2079,2042,2048,2031,2044,1194
215,1716347952685418343,2048,2028,2066,2043,2064,2080,1196
216,1716347952695418375,2051,2068,2035,2074,2082,2030,1192
217,1716347952705418126,2047,2014,2044,2046,2047,2068,1196
218,1716347952715417888,2050,2068,2048,2049,2028,2004,1189
219,1716347952725417328,2050,2034,2065,2065,2069,2061,1194
220,1716347952735425716,2059,2066,2051,2048,2050,2027,1194
221,1716347952745417402,2046,2018,2051,2074,2068,2067,1197
222,1716347952755416833,2054,2052,2041,2045,2060,2047,1192
223,1716347952765417947,2052,2024,2080,2073,2060,2090,1195
224,1716347952775398984,2059,2072,2096,2042,2034,2048,1196
225,1716347952785418241,2057,2047,2077,2057,2041,2066,1195
226,1716347952795417862,2062,2072,2058,2049,2033,2049,1196
227,1716347952805417854,2050,2037,2071,2061,2044,2077,1196
228,1716347952815417004,2057,2073,2052,2045,2057,2049,1196
229,1716347952825398221,2047,2032,2068,2074,2086,2073,1198
230,1716347952835417218,2056,2064,2054,2036,2036,2052,1196
231,1716347952845426908,2052,2042,2098,2061,2068,2056,1197
232,1716347952855416420,2057,2068,2049,2040,2056,2036,1192
233,1716347952865417213,2057,2054,2067,2066,2110,2085,1197
234,1716347952875415973,2054,2058,2024,2044,2050,2028,1193
235,1716347952885416946,2056,2040,2056,2058,2088,2069,1196
236,1716347952895416407,2047,2061,2049,2060,2104,2057,1194
237,1716347952905416359,2047,2034,2066,2074,2072,2068,1195
238,1716347952915416722,2054,2080,2058,2045,2044,2034,1192
239,1716347952925416954,2054,2029,2059,2069,2070,2084,1195
240,1716347952935416585,2056,2072,2042,2050,2035,2041,1192
241,1716347952945417569,2047,2038,2092,2112,2112,2074,1193
242,1716347952955416278,2052,2066,2041,2028,2032,2040,1192
243,1716347952965427781,2058,2030,2075,2075,2051,2070,1196
244,1716347952975417023,2047,2054,2061,2052,2048,2022,1192
245,1716347952985416814,2053,2032,2073,2057,2077,2074,1197
246,1716347952995415354,2052,2061,2045,2058,2076,2047,1192
247,1716347953005430213,2051,2045,2056,2049,2055,2062,1197
248,1716347953015415679,2060,2068,2041,2043,2057,2040,1194
249,1716347953025415321,2050,2033,2061,2062,2057,2084,1195
250,1716347953035415805,2054,2076,2047,2056,2042,2050,1194
251,1716347953045415988,2052,2005,2048,2061,2047,2069,1195
252,1716347953055415590,2051,2052,2022,2044,2010,2013,1192
253,1716347953065415763,2049,2026,2060,2057,2051,2099,1196
254,1716347953075415475,2056,2070,2052,2053,2021,2024,1193
255,1716347953085415177,2053,2035,2064,2064,2064,2083,1196
256,1716347953095415781,2056,2060,2026,2044,2040,2040,1192
257,1716347953105414682,2056,2038,2073,2059,2048,2072,1197
258,1716347953115414184,2058,2070,2048,2048,2034,2049,1194
259,1716347953125414978,2046,2032,2062,2064,2043,2049,1197
260,1716347953135414590,2053,2096,2045,2039,2034,2031,1192
261,1716347953145414783,2056,2044,2069,2068,2074,2065,1194
262,1716347953155415547,2050,2068,2042,2028,2041,2021,1193
263,1716347953165447450,2049,2020,2045,2051,2058,2070,1197
264,1716347953175416785,2057,2061,2052,2048,2046,2037,1192
265,1716347953185414955,2053,2047,2097,2076,2069,2077,1194
266,1716347953195414427,2056,2076,2047,2057,2049,2048,1197
267,1716347953205417415,2052,2040,2072,2088,2106,2089,1195
268,1716347953215414572,2061,2077,2045,2041,2038,2036,1193
269,1716347953225414405,2056,2036,2062,2076,2069,2077,1196
270,1716347953235414528,2057,2086,2066,2056,2041,2056,1195
271,1716347953245414110,2057,2028,2059,2082,2108,2084,1195
272,1716347953255414283,2060,2074,2052,2057,2032,2063,1198
273,1716347953265413614,2049,2025,2067,2038,2060,2072,1197
274,1716347953275413427,2056,2076,2060,2052,2082,2046,1193
275,1716347953285414682,2058,2040,2056,2083,2066,2085,1195
276,1716347953295413462,2055,2078,2047,2045,2035,2034,1192
277,1716347953305414547,2052,2038,2066,2067,2058,2080,1196
278,1716347953315414139,2058,2066,2040,2043,2051,2026,1192
279,1716347953325413801,2050,2052,2067,2073,2072,2073,1196
280,1716347953335413604,2064,2064,2056,2065,2022,2033,1194
281,1716347953345414147,2057,2041,2078,2070,2057,2077,1198
282,1716347953355413769,2060,2069,2044,2046,2031,2040,1193
283,1716347953365429692,2052,2040,2093,2068,2074,2072,1196
284,1716347953375412893,2057,2082,2068,2051,2047,2052,1195
285,1716347953385413447,2048,2002,2060,2068,2062,2078,1196
286,1716347953395412088,2053,2062,2069,2052,2019,2036,1193
287,1716347953405412872,2053,2034,2061,2089,2089,2078,1197
288,1716347953415427632,2054,2070,2039,2037,2032,2046,1193
289,1716347953425411745,2053,2033,2093,2069,2072,2080,1195
290,1716347953435413291,2053,2060,2046,2054,2045,2045,1193
291,1716347953445413885,2052,2033,2053,2070,2061,2079,1195
292,1716347953455412865,2053,2059,2037,2044,2043,2039,1194
293,1716347953465425622,2052,2034,2056,2090,2082,2076,1196
294,1716347953475410737,2056,2061,2036,2056,2029,2050,1198
295,1716347953485413986,2052,2032,2061,2080,2085,2086,1195
296,1716347953495412205,2058,2074,2059,2038,2024,2042,1193
297,1716347953505411977,2047,2025,2040,2080,2091,2068,1194
298,1716347953515418983,2056,2063,2025,2053,2034,2042,1191
299,1716347953525408727,2050,2026,2085,2068,2073,2073,1195
300,1716347953535408800,2057,2065,2014,2060,2076,2057,1192
301,1716347953545408773,2050,2032,2066,2079,2094,2073,1197
302,1716347953555411631,2053,2080,2050,2037,2002,2025,1190
303,1716347953565411243,2052,2050,2078,2079,2092,2079,1195
304,1716347953575418058,2057,2097,2050,2026,2028,2045,1193
305,1716347953585422580,2053,2032,2055,2069,2068,2081,1195
306,1716347953595408527,2061,2081,2061,2054,2050,2048,1194
307,1716347953605413498,2051,2021,2051,2068,2068,2078,1194
308,1716347953615412179,2064,2090,2118,2061,2059,2037,1194
309,1716347953625412382,2048,2024,2064,2076,2081,2077,1195
310,1716347953635420359,2050,2058,2053,2021,2032,2033,1195
311,1716347953645412247,2052,2031,2047,2074,2063,2074,1196
312,1716347953655410807,2050,2066,2042,2032,2042,2034,1194
313,1716347953665414867,2047,2045,2064,2067,2073,2068,1197
314,1716347953675411995,2056,2078,2052,2038,2057,2047,1191
315,1716347953685425072,2053,2032,2082,2074,2063,2082,1195
316,1716347953695416208,2050,2066,2045,2058,2036,2042,1194
317,1716347953705410791,2051,2024,2062,2066,2095,2069,1196
318,1716347953715412066,2060,2076,2071,2020,2003,2041,1193
319,1716347953725411457,2052,2022,2063,2070,2069,2067,1196
320,1716347953735411380,2056,2057,2044,2032,2037,2031,1192
321,1716347953745412315,2056,2053,2069,2077,2064,2079,1196
322,1716347953755415403,2056,2060,2039,2034,2038,2042,1194
323,1716347953765409976,2051,2026,2064,2080,2058,2078,1197
324,1716347953775411221,2054,2048,2030,2045,2029,2042,1194
325,1716347953785411214,2053,2025,2061,2075,2078,2075,1194
326,1716347953795411067,2051,2069,2046,2054,2038,2035,1193
327,1716347953805411139,2056,2039,2076,2072,2084,2079,1196
328,1716347953815409038,2056,2078,2036,2061,2068,2046,1192
329,1716347953825411465,2052,2029,2058,2072,2049,2073,1198
330,1716347953835410176,2054,2071,2037,2052,2058,2041,1195
331,1716347953845409487,2057,2042,2075,2093,2076,2074,1197
332,1716347953855415952,2056,2079,2045,2038,2013,2042,1194
333,1716347953865406156,2056,2037,2054,2061,2060,2072,1197
334,1716347953875409505,2056,2072,2032,2034,2005,2024,1194
335,1716347953885409548,2052,2034,2076,2076,2090,2084,1197
336,1716347953895410813,2058,2080,2043,2040,2008,2037,1194
337,1716347953905407410,2049,2030,2066,2069,2064,2071,1198
338,1716347953915416550,2051,2073,2033,2044,2045,2038,1192
339,1716347953925406032,2050,2024,2081,2068,2066,2064,1195
340,1716347953935405885,2056,2076,2034,2046,2082,2032,1194
341,1716347953945409786,2052,2032,2069,2066,2064,2071,1196
342,1716347953955408425,2057,2068,2056,2049,2037,2046,1196
343,1716347953965412977,2052,2028,2059,2059,2054,2072,1196
344,1716347953975405916,2058,2081,2049,2035,2019,2028,1194
345,1716347953985405519,2056,2041,2057,2066,2065,2076,1194
346,1716347953995409028,2054,2089,2045,2043,2059,2043,1194
347,1716347954005407458,2049,2032,2060,2084,2084,2072,1196
348,1716347954015418302,2062,2075,2056,2046,2036,2036,1195
349,1716347954025404300,2052,2016,2056,2061,2066,2066,1197
350,1716347954035403352,2060,2085,2039,2038,2028,2023,1193
351,1716347954045406751,2056,2029,2058,2066,2064,2082,1196
352,1716347954055406644,2062,2083,2056,2059,2044,2027,1192
353,1716347954065409574,2051,2052,2064,2078,2073,2074,1196
354,1716347954075403667,2065,2069,2029,2025,2021,2038,1194
355,1716347954085403670,2052,2049,2088,2063,2040,2068,1197
356,1716347954095402732,2058,2060,2029,2016,2002,2025,1192
357,1716347954105406744,2048,2038,2046,2054,2054,2072,1195
358,1716347954115429029,2056,2075,2030,2036,2037,2029,1191
359,1716347954125403586,2056,2049,2094,2062,2063,2086,1195
360,1716347954135403008,2056,2072,2065,2034,2044,2024,1193
361,1716347954145406407,2051,2037,2058,2083,2125,2076,1195
362,1716347954155406271,2056,2066,2033,2045,2059,2041,1194
363,1716347954165408449,2048,2033,2061,2058,2054,2069,1196
364,1716347954175402962,2064,2074,2051,2057,2024,2036,1193
365,1716347954185402415,2054,2032,2067,2072,2088,2072,1196
366,1716347954195402409,2060,2065,2019,2030,2032,2037,1192
367,1716347954205405699,2048,2030,2058,2077,2080,2078,1196
368,1716347954215417765,2058,2080,2050,2042,2012,2031,1193
369,1716347954225403943,2053,2032,2068,2060,2055,2075,1199
370,1716347954235404859,2052,2071,2026,2049,2035,2034,1194
371,1716347954245406475,2052,2037,2056,2082,2077,2078,1196
372,1716347954255407230,2056,2073,2065,2069,2077,2041,1192
373,1716347954265410720,2049,2045,2064,2057,2059,2064,1196
374,1716347954275402559,2058,2080,2060,2045,2046,2034,1194
375,1716347954285421708,2058,2065,2070,2075,2072,2084,1195
376,1716347954295405432,2062,2084,2054,2059,2044,2032,1193
377,1716347954305419432,2052,2027,2064,2049,2036,2060,1198
378,1716347954315401442,2060,2068,2064,2049,2030,2040,1194
379,1716347954325404692,2048,2024,2044,2064,2072,2072,1197
380,1716347954335404736,2060,2072,2042,2053,2043,2033,1194
381,1716347954345405341,2058,2034,2069,2053,2048,2082,1195
382,1716347954355412016,2056,2080,2037,2047,2056,2034,1193
383,1716347954365402081,2047,2026,2048,2041,2058,2072,1195
384,1716347954375404840,2056,2072,2024,2037,2024,2026,1192
385,1716347954385404994,2050,2037,2051,2064,2063,2080,1196
386,1716347954395405088,2057,2078,2060,2052,2028,2037,1193
387,1716347954405403289,2052,2032,2035,2080,2127,2072,1197
388,1716347954415411618,2052,2063,2032,2047,2034,2025,1194
389,1716347954425406863,2047,2026,2058,2073,2092,2076,1198
390,1716347954435404933,2058,2067,2036,2037,2040,2022,1194
391,1716347954445419204,2054,2029,2059,2053,2040,2074,1197
392,1716347954455408637,2060,2075,2058,2041,2046,2037,1194
393,1716347954465409442,2051,2036,2072,2073,2072,2081,1196
394,1716347954475405549,2053,2074,2036,2032,2028,2020,1192
395,1716347954485405763,2053,2038,2066,2061,2046,2069,1196
396,1716347954495410345,2065,2105,2089,2048,2045,2044,1192
397,1716347954505404027,2050,2040,2073,2104,2124,2077,1195
398,1716347954515408459,2056,2072,2040,2049,2036,2036,1189
399,1716347954525403704,2047,2027,2049,2064,2048,2072,1194
400,1716347954535404440,2056,2080,2048,2048,2034,2035,1192
401,1716347954545404514,2058,2034,2045,2057,2056,2059,1195
402,1716347954555404457,2060,2073,2030,2043,2038,2037,1194
403,1716347954565409700,2055,2035,2066,2078,2090,2085,1195
404,1716347954575402681,2064,2077,2087,2073,2044,2029,1193
405,1716347954585403676,2043,2030,2056,2060,2085,2077,1196
406,1716347954595402899,2061,2071,2032,2038,2024,2026,1192
407,1716347954605404225,2048,2045,2067,2085,2093,2080,1196
408,1716347954615409859,2053,2066,2033,2038,2029,2028,1193
409,1716347954625403171,2052,2034,2040,2066,2075,2071,1197
410,1716347954635404667,2052,2056,2016,2038,2024,2030,1192
411,1716347954645404421,2045,2014,2042,2062,2063,2077,1196
412,1716347954655406258,2060,2081,2021,2039,2038,2021,1193
413,1716347954665409677,2051,2037,2040,2072,2074,2077,1195
414,1716347954675402858,2056,2076,2038,2050,2078,2034,1194
415,1716347954685405998,2052,2025,2067,2062,2052,2076,1196
416,1716347954695404759,2059,2072,2036,2043,2060,2030,1192
417,1716347954705406927,2058,2040,2061,2079,2073,2069,1197
418,1716347954715411670,2057,2065,2041,2040,2041,2013,1192
419,1716347954725402376,2048,2041,2073,2066,2065,2070,1197
420,1716347954735409714,2057,2074,2046,2046,2041,2027,1193
421,1716347954745403496,2052,2033,2065,2067,2068,2072,1196
422,1716347954755404151,2062,2080,2064,2040,2012,2021,1194
423,1716347954765412559,2053,2044,2066,2058,2057,2076,1197
424,1716347954775403066,2056,2072,2029,2038,2017,2025,1192
425,1716347954785404342,2050,2016,2059,2070,2069,2069,1194
426,1716347954795405227,2060,2068,2046,2041,2040,2038,1194
427,1716347954805404309,2054,2041,2048,2073,2061,2080,1196
428,1716347954815404213,2068,2092,2080,2050,2044,2032,1193
429,1716347954825401201,2052,2024,2048,2084,2068,2060,1196
430,1716347954835401997,2068,2097,2036,2027,2036,2029,1194
431,1716347954845407390,2052,2032,2065,2065,2072,2069,1195
432,1716347954855406012,2056,2077,2025,2041,2028,2029,1194
433,1716347954865407728,2051,2026,2076,2074,2070,2068,1196
434,1716347954875404195,2063,2077,2042,2033,2028,2024,1192
435,1716347954885404449,2049,2033,2058,2060,2065,2088,1195
436,1716347954895420222,2058,2072,2025,2020,2055,2027,1191
437,1716347954905402503,2053,2031,2058,2080,2104,2079,1197
438,1716347954915408558,2057,2074,2042,2042,2056,2025,1192
439,1716347954925400026,2053,2034,2058,2072,2076,2081,1196
440,1716347954935409868,2060,2062,2022,2063,2026,2026,1192
441,1716347954945405023,2048,2020,2047,2066,2068,2070,1197
442,1716347954955404847,2060,2075,2034,2053,2037,2036,1193
443,1716347954965411493,2053,2029,2054,2075,2061,2071,1196
444,1716347954975400255,2059,2066,2030,2043,2043,2040,1193
445,1716347954985401811,2056,2041,2047,2056,2074,2078,1196
446,1716347954995401745,2060,2047,2034,2039,2038,2028,1195
447,1716347955005404094,2050,2012,2086,2064,2074,2068,1193
448,1716347955015407035,2060,2080,2070,2045,2026,2034,1195
449,1716347955025400447,2051,2034,2067,2080,2081,2085,1196
450,1716347955035404029,2054,2068,2036,2036,2015,2027,1194
451,1716347955045399935,2051,2028,2056,2045,2021,2062,1197
452,1716347955055402976,2056,2070,2048,2047,2056,2025,1194
453,1716347955065409954,2051,2038,2075,2064,2050,2057,1195
454,1716347955075403426,2057,2086,2054,2057,2079,2028,1193
455,1716347955085402449,2050,2034,2074,2070,2077,2058,1196
456,1716347955095402694,2058,2084,2076,2029,2028,2029,1192
457,1716347955105403901,2056,2040,2056,2072,2061,2074,1194
458,1716347955115414566,2064,2080,2046,2041,2036,2037,1190
459,1716347955125400013,2049,2033,2060,2058,2082,2061,1196
460,1716347955135409255,2056,2074,2057,2041,2036,2028,1192
461,1716347955145402738,2052,2049,2057,2067,2068,2076,1196
462,1716347955155401420,2060,2078,2064,2037,2035,2026,1193
463,1716347955165412094,2045,2026,2060,2056,2056,2078,1196
464,1716347955175404445,2061,2077,2043,2054,2063,2044,1192
465,1716347955185402526,2052,2034,2045,2068,2094,2069,1196
466,1716347955195402180,2057,2076,2030,2048,2022,2026,1191
467,1716347955205412744,2052,2027,2045,2050,2072,2076,1198
468,1716347955215397050,2054,2060,2030,2021,2008,2031,1196
469,1716347955225404248,2048,2019,2057,2068,2061,2074,1197
470,1716347955235402850,2060,2069,2034,2038,2061,2028,1195
471,1716347955245404557,2054,2026,2065,2061,2038,2080,1197
472,1716347955255401336,2057,2077,2045,2026,2022,2021,1194
473,1716347955265401612,2055,2038,2056,2072,2076,2074,1196
474,1716347955275403720,2059,2084,2046,2046,2038,2021,1193
475,1716347955285402572,2056,2038,2057,2088,2096,2072,1197
476,1716347955295403409,2060,2068,2056,2044,2036,2036,1195
477,1716347955305401169,2056,2043,2063,2069,2057,2076,1196
478,1716347955315408758,2055,2069,2023,2035,2033,2033,1192
479,1716347955325405426,2056,2041,2061,2068,2068,2066,1196
480,1716347955335407755,2060,2074,2031,2032,2012,2025,1193
481,1716347955345402190,2050,2028,2056,2056,2043,2061,1194
482,1716347955355404349,2059,2068,2052,2046,2029,2028,1192
483,1716347955365409382,2054,2039,2077,2069,2075,2069,1196
484,1716347955375404378,2056,2077,2025,2039,2045,2026,1192
485,1716347955385407048,2052,2040,2064,2071,2079,2080,1195
486,1716347955395404107,2058,2077,2037,2037,2023,2031,1193
487,1716347955405401967,2052,2034,2052,2044,2061,2068,1195
488,1716347955415404617,2061,2068,2008,2053,2076,2024,1192
489,1716347955425406425,2053,2056,2067,2063,2060,2075,1197
490,1716347955435405929,2057,2075,2052,2031,2021,2034,1194
491,1716347955445401174,2051,2054,2054,2052,2040,2067,1197
492,1716347955455409645,2057,2081,2042,2035,2028,2033,1194
493,1716347955465404099,2053,2049,2068,2061,2070,2080,1196
494,1716347955475408182,2062,2074,2045,2057,2072,2042,1193
495,1716347955485403788,2050,2024,2040,2062,2072,2072,1196
496,1716347955495403983,2056,2070,2076,2043,2057,2034,1192
497,1716347955505405731,2052,2042,2056,2065,2047,2065,1197
498,1716347955515409643,2061,2084,2036,2024,2011,2026,1189
499,1716347955525404368,2050,2027,2049,2060,2072,2068,1195
500,1716347955535407047,2059,2074,2037,2021,2024,2028,1194
501,1716347955545409206,2054,2033,2066,2079,2116,2083,1197
502,1716347955555407247,2053,2064,2037,2041,2034,2022,1192
503,1716347955565405739,2056,2029,2060,2060,2047,2065,1196
504,1716347955575406164,2060,2073,2029,2038,2020,2025,1193
505,1716347955585405859,2046,2028,2054,2072,2107,2068,1196
506,1716347955595406204,2062,2076,2054,2032,2014,2029,1193
507,1716347955605403002,2052,2028,2062,2080,2047,2070,1199
508,1716347955615406664,2064,2077,2031,2022,2004,2014,1194
509,1716347955625406438,2048,2034,2064,2046,2093,2075,1196
510,1716347955635405481,2061,2084,2068,2040,2020,2030,1193
511,1716347955645405486,2051,2021,2056,2066,2061,2072,1197
512,1716347955655408646,2058,2077,2040,2038,2037,2026,1193
513,1716347955665406998,2048,2041,2068,2062,2072,2077,1195
514,1716347955675405680,2057,2088,2066,2045,2034,2036,1193
515,1716347955685405324,2050,2017,2065,2054,2067,2067,1198
516,1716347955695405840,2050,2063,2040,2041,2037,2031,1193
517,1716347955705404863,2049,2030,2052,2069,2099,2072,1198
518,1716347955715404517,2062,2088,2041,2026,2017,2015,1192
519,1716347955725407346,2050,2038,2067,2065,2056,2069,1193
520,1716347955735420445,2064,2082,2054,2041,2020,2025,1193
521,1716347955745410111,2053,2033,2085,2052,2056,2067,1194
522,1716347955755407912,2056,2079,2058,2049,2079,2026,1192
523,1716347955765407145,2050,2035,2064,2064,2078,2068,1195
524,1716347955775410436,2060,2098,2066,2026,2040,2018,1192
525,1716347955785405301,2047,2035,2066,2074,2064,2065,1195
526,1716347955795404705,2061,2090,2058,2040,2039,2034,1193
527,1716347955805405220,2056,2034,2057,2072,2112,2069,1196
528,1716347955815419431,2061,2077,2062,2031,2023,2016,1194
529,1716347955825402044,2049,2026,2064,2071,2053,2085,1197
530,1716347955835403782,2061,2076,2027,2046,2030,2026,1192
531,1716347955845403225,2050,2036,2062,2061,2058,2072,1195
532,1716347955855406415,2066,2080,2021,2043,2038,2015,1194
533,1716347955865421208,2048,2022,2053,2064,2056,2077,1196
534,1716347955875404602,2061,2084,2047,2043,2038,2036,1194
535,1716347955885402492,2046,2008,2072,2065,2072,2074,1198
536,1716347955895405512,2062,2073,2014,2041,2041,2024,1194
537,1716347955905400899,2048,2023,2043,2062,2049,2072,1194
538,1716347955915402086,2059,2088,2028,2027,2028,2035,1192
539,1716347955925399766,2050,2037,2071,2071,2086,2075,1196
540,1716347955935401393,2053,2069,2027,2036,2012,2025,1194
541,1716347955945404163,2050,2032,2041,2052,2030,2067,1194
542,1716347955955402996,2063,2097,2034,2018,2025,2024,1192
543,1716347955965402500,2055,2030,2076,2071,2066,2075,1194
544,1716347955975401252,2053,2077,2036,2049,2030,2031,1194
545,1716347955985401046,2050,2037,2068,2086,2070,2072,1195
546,1716347955995404758,2058,2076,2030,2040,2025,2026,1193
547,1716347956005401547,2056,2046,2092,2078,2050,2072,1197
548,1716347956015411350,2064,2081,2040,2029,2025,2034,1192
549,1716347956025403702,2056,2028,2074,2061,2066,2066,1197
550,1716347956035403778,2057,2074,2026,2038,2047,2026,1191
551,1716347956045401089,2046,2034,2070,2067,2072,2064,1197
552,1716347956055400703,2061,2084,2068,2045,2039,2020,1196
553,1716347956065404285,2043,2025,2075,2056,2054,2072,1197
554,1716347956075408669,2064,2093,2060,2046,2038,2016,1194
555,1716347956085401842,2049,2031,2060,2068,2080,2080,1197
556,1716347956095404473,2066,2077,2040,2037,2024,2031,1192
557,1716347956105401543,2047,2020,2054,2065,2065,2065,1197
558,1716347956115407058,2058,2080,2037,2036,2001,2025,1193
559,1716347956125403388,2051,2024,2052,2061,2064,2075,1196
560,1716347956135404155,2068,2080,2023,2034,2008,2020,1194
561,1716347956145405433,2054,2036,2054,2062,2053,2079,1195
562,1716347956155404396,2064,2092,2056,2032,1980,2019,1194
563,1716347956165403109,2051,2030,2057,2065,2077,2078,1197
564,1716347956175407784,2062,2078,2037,2045,2008,2031,1193
565,1716347956185404333,2053,2027,2064,2070,2061,2072,1196
566,1716347956195404429,2062,2094,2056,2040,2045,2037,1194
567,1716347956205410416,2050,2036,2052,2066,2066,2070,1195
568,1716347956215403148,2060,2070,2034,2031,2005,2021,1192
569,1716347956225399266,2052,2034,2063,2073,2058,2067,1200
570,1716347956235400664,2058,2093,2046,2035,2027,2020,1195
571,1716347956245402644,2050,2025,2053,2060,2082,2069,1198
572,1716347956255410864,2058,2076,2025,2027,2001,2040,1194
573,1716347956265402424,2052,2025,2052,2057,2050,2076,1198
574,1716347956275405265,2062,2082,2034,2037,2029,2021,1194
575,1716347956285404179,2050,2027,2064,2069,2057,2076,1196
576,1716347956295406298,2059,2062,2041,2030,2004,2027,1193
577,1716347956305405934,2053,2009,2041,2056,2056,2070,1196
578,1716347956315406731,2061,2072,2051,2030,2018,2026,1192
579,1716347956325403340,2052,2030,2072,2064,2072,2077,1194
580,1716347956335402985,2058,2077,2032,2039,2030,2027,1193
581,1716347956345405986,2052,2035,2062,2076,2070,2079,1196
582,1716347956355405561,2056,2082,2062,2024,2004,2016,1196
583,1716347956365419853,2047,2032,2058,2058,2047,2075,1195
584,1716347956375403358,2058,2071,2025,2033,2018,2018,1194
585,1716347956385406038,2056,2036,2054,2057,2058,2077,1194
586,1716347956395405934,2060,2076,2030,2033,2029,2010,1192
587,1716347956405403125,2048,2024,2060,2064,2072,2078,1194
588,1716347956415437985,2062,2081,2031,2038,2022,2030,1193
589,1716347956425404989,2052,2030,2058,2060,2088,2056,1196
590,1716347956435405375,2059,2077,2041,2030,2034,2024,1193
591,1716347956445407295,2052,2033,2070,2072,2074,2075,1198
592,1716347956455405447,2060,2093,2058,2043,2021,2018,1195
593,1716347956465401705,2058,2056,2064,2053,2062,2062,1196
594,1716347956475409926,2065,2084,2054,2040,2029,2017,1194
595,1716347956485402117,2052,2025,2061,2056,2069,2070,1196
596,1716347956495402083,2062,2083,2025,2041,2018,2026,1195
597,1716347956505404223,2046,2031,2056,2057,2066,2066,1195
598,1716347956515422723,2062,2080,2026,2036,2007,2016,1190
599,1716347956525405096,2048,2033,2084,2068,2057,2086,1196
600,1716347956535404049,2053,2078,2035,2040,2033,2033,1193
601,1716347956545403965,2056,2052,2064,2069,2092,2074,1196
602,1716347956555404140,2064,2093,2052,2049,2038,2012,1193
603,1716347956565406310,2052,2036,2068,2058,2064,2076,1196
604,1716347956575408159,2061,2093,2072,2043,2040,2018,1194
605,1716347956585403225,2053,2042,2064,2065,2088,2084,1196
606,1716347956595403992,2056,2074,2022,2058,2025,2024,1193
607,1716347956605403548,2049,2051,2089,2068,2064,2070,1194
608,1716347956615408903,2064,2083,2044,2036,2052,2027,1193
609,1716347956625408939,2045,2034,2062,2064,2070,2065,1197
610,1716347956635404957,2065,2112,2064,2052,2040,2014,1192
611,1716347956645402748,2052,2036,2058,2060,2064,2070,1196
612,1716347956655403014,2060,2082,2038,2061,2045,2033,1194
613,1716347956665401477,2052,2024,2062,2068,2084,2081,1196
614,1716347956675407895,2063,2077,2066,2069,2062,2020,1194
615,1716347956685406608,2051,2053,2059,2066,2058,2073,1196
616,1716347956695403568,2064,2084,2032,2037,2025,2021,1193
617,1716347956705411198,2046,2021,2046,2061,2075,2069,1196
618,1716347956715403920,2067,2097,2128,2055,2048,2029,1190
619,1716347956725401201,2049,2032,2042,2060,2066,2069,1196
620,1716347956735402819,2059,2088,2038,2041,2032,2021,1192
621,1716347956745407824,2054,2024,2068,2056,2062,2073,1196
622,1716347956755425312,2064,2101,2042,2035,2040,2028,1194
623,1716347956765401453,2053,2034,2066,2061,2066,2082,1196
624,1716347956775402952,2061,2086,2029,2044,2030,2025,1195
625,1716347956785405693,2055,2033,2051,2071,2044,2082,1195
626,1716347956795405407,2061,2085,2049,2044,2061,2034,1193
627,1716347956805412456,2050,2032,2054,2064,2072,2080,1196
628,1716347956815402604,2064,2101,2047,2045,2031,2040,1194
629,1716347956825404643,2056,2046,2094,2064,2068,2078,1194
630,1716347956835404999,2056,2074,2030,2045,2047,2025,1194
631,1716347956845402921,2052,2029,2068,2060,2060,2063,1194
632,1716347956855415540,2059,2087,2038,2054,2014,2016,1193
633,1716347956865416778,2052,2040,2097,2071,2068,2078,1195
634,1716347956875406815,2064,2088,2048,2032,2037,2020,1192
635,1716347956885402333,2052,2054,2050,2064,2069,2069,1195
636,1716347956895405484,2060,2080,2031,2021,2029,2022,1192
637,1716347956905401903,2054,2031,2084,2077,2033,2080,1196
638,1716347956915403442,2058,2064,2031,2050,2047,2024,1192
639,1716347956925407495,2052,2041,2068,2054,2058,2069,1194
640,1716347956935404074,2064,2095,2053,2043,2040,2034,1192
641,1716347956945403849,2050,2025,2091,2080,2072,2076,1196
642,1716347956955422319,2056,2067,2026,2029,2044,2027,1193
643,1716347956965399792,2049,2037,2088,2069,2052,2071,1196
644,1716347956975402744,2060,2092,2036,2044,2043,2033,1192
645,1716347956985401217,2049,2037,2061,2064,2058,2064,1197
646,1716347956995406262,2059,2088,2040,2032,2010,2025,1194
647,1716347957005398493,2048,2054,2067,2067,2090,2069,1194
648,1716347957015398560,2067,2096,2053,2053,2031,2021,1190
649,1716347957025404117,2046,2027,2053,2063,2074,2072,1198
650,1716347957035403452,2064,2090,2033,2022,2011,2029,1195
651,1716347957045403709,2056,2022,2065,2068,2071,2076,1198
652,1716347957055418123,2062,2072,2013,2033,2033,2024,1196
653,1716347957065407019,2056,2031,2068,2069,2056,2072,1195
654,1716347957075412103,2062,2088,2048,2042,2024,2027,1193
655,1716347957085403715,2053,2037,2056,2068,2088,2069,1195
656,1716347957095410123,2065,2084,2036,2032,2032,2022,1193
657,1716347957105402305,2050,2028,2052,2064,2064,2077,1198
658,1716347957115403314,2065,2082,2056,2028,2020,2028,1189
659,1716347957125405164,2048,2035,2058,2069,2072,2080,1195
660,1716347957135404780,2057,2056,2030,2040,2020,2028,1194
661,1716347957145409956,2047,2022,2082,2061,2073,2068,1195
662,1716347957155409822,2056,2069,2023,2025,2044,2023,1191
663,1716347957165407274,2050,2020,2051,2066,2075,2066,1194
664,1716347957175402682,2062,2077,2024,2033,2033,2024,1193
665,1716347957185406015,2054,2025,2059,2068,2061,2068,1195
666,1716347957195405591,2061,2084,2042,2035,2023,2024,1193
667,1716347957205399416,2051,2028,2066,2082,2083,2072,1196
668,1716347957215402128,2056,2078,2035,2040,2018,2024,1195
669,1716347957225401573,2058,2078,2101,2076,2070,2073,1194
670,1716347957235404355,2066,2090,2020,2026,2025,2028,1192
671,1716347957245401947,2049,2032,2061,2056,2060,2073,1194
672,1716347957255412393,2062,2093,2037,2030,2013,2020,1193
673,1716347957265402001,2052,2036,2057,2050,2036,2072,1196
674,1716347957275409490,2064,2084,2037,2027,2010,2018,1193
675,1716347957285405309,2042,2011,2052,2048,2058,2072,1194
676,1716347957295401568,2064,2082,2034,2048,2026,2024,1192
677,1716347957305401916,2049,2040,2060,2058,2055,2064,1195
678,1716347957315402844,2060,2088,2035,2034,2052,2025,1192
679,1716347957325404183,2051,2043,2064,2058,2074,2084,1196
680,1716347957335403268,2061,2082,2027,2029,2014,2014,1193
681,1716347957345402834,2053,2036,2056,2077,2104,2073,1196
682,1716347957355403311,2068,2121,2057,2052,2036,2030,1193
683,1716347957365403719,2054,2040,2071,2068,2064,2077,1196
684,1716347957375404327,2061,2085,2027,2038,2025,2016,1192
685,1716347957385400566,2047,2038,2064,2066,2062,2074,1195
686,1716347957395402657,2063,2088,2035,2047,2039,2013,1192
687,1716347957405403415,2051,2026,2063,2075,2076,2064,1195
688,1716347957415402720,2060,2104,2045,2024,2014,2024,1194
689,1716347957425402737,2052,2034,2073,2062,2072,2065,1197
690,1716347957435403374,2064,2082,2047,2045,2029,2033,1192
691,1716347957445408370,2048,2028,2066,2072,2090,2066,1195
692,1716347957455403598,2064,2097,2039,2042,2013,2020,1194
693,1716347957465407702,2053,2053,2074,2068,2080,2068,1195
694,1716347957475402398,2065,2091,2041,2034,2007,2014,1193
695,1716347957485401052,2049,2030,2073,2068,2052,2060,1196
696,1716347957495405577,2061,2086,2034,2029,2026,2027,1193
697,1716347957505403820,2053,2054,2056,2060,2066,2064,1196
698,1716347957515414307,2067,2088,2024,2029,2030,2024,1192
699,1716347957525405978,2045,2026,2071,2064,2112,2074,1196
700,1716347957535403329,2064,2080,2040,2053,2055,2015,1194
701,1716347957545403386,2050,2024,2036,2054,2057,2072,1197
702,1716347957555408773,2058,2077,2014,2036,2024,2013,1194
703,1716347957565411464,2054,2035,2072,2085,2085,2078,1197
704,1716347957575405490,2066,2085,2049,2042,2024,2022,1192
705,1716347957585402872,2053,2034,2064,2057,2074,2077,1195
706,1716347957595402448,2062,2074,2042,2054,2065,2028,1195
707,1716347957605402665,2047,2039,2072,2080,2061,2069,1196
708,1716347957615403172,2064,2083,2047,2040,2020,2021,1194
709,1716347957625407246,2050,2043,2066,2056,2064,2072,1198
710,1716347957635407183,2058,2088,2040,2037,2044,2025,1194
711,1716347957645402781,2058,2054,2092,2089,2068,2078,1197
712,1716347957655404681,2059,2082,2029,2030,2034,2012,1194
713,1716347957665407844,2049,2031,2073,2060,2058,2068,1196
714,1716347957675409523,2065,2091,2027,2034,2030,2030,1192
715,1716347957685404420,2050,2029,2104,2072,2102,2063,1196
716,1716347957695404587,2053,2064,2022,2035,2024,2022,1193
717,1716347957705426884,2049,2040,2066,2065,2076,2077,1195
718,1716347957715402987,2061,2081,2038,2038,2028,2029,1193
719,1716347957725414585,2056,2040,2077,2073,2097,2076,1193
720,1716347957735407248,2065,2092,2059,2021,2012,2021,1196
721,1716347957745407204,2056,2065,2072,2064,2070,2077,1198
722,1716347957755407051,2070,2098,2031,2021,2026,2024,1196
723,1716347957765407418,2049,2032,2082,2070,2084,2073,1197
724,1716347957775407645,2064,2072,2029,2042,2032,2030,1193
725,1716347957785403003,2056,2041,2084,2065,2074,2082,1195
726,1716347957795403010,2060,2081,2029,2030,2031,2020,1192
727,1716347957805403598,2050,2028,2088,2077,2076,2083,1196
728,1716347957815407852,2060,2083,2048,2047,2021,2016,1193
729,1716347957825405614,2052,2029,2058,2078,2070,2089,1196
730,1716347957835404118,2064,2084,2036,2049,2044,2018,1194
731,1716347957845408012,2053,2038,2066,2073,2044,2076,1196
732,1716347957855407047,2062,2092,2038,2040,2027,2018,1193
733,1716347957865403417,2047,2036,2052,2065,2059,2076,1200
734,1716347957875410817,2068,2080,2060,2045,2036,2017,1193
735,1716347957885404301,2052,2024,2055,2063,2051,2077,1196
736,1716347957895406401,2061,2083,2032,2034,2015,2025,1194
737,1716347957905402941,2053,2024,2053,2060,2067,2068,1197
738,1716347957915405583,2061,2088,2025,2006,2006,2017,1191
739,1716347957925406120,2056,2037,2060,2052,2042,2077,1196
740,1716347957935406538,2061,2085,2071,2043,2026,2021,1194
741,1716347957945405392,2047,2035,2060,2060,2047,2062,1197
742,1716347957955416500,2064,2091,2029,2052,2073,2029,1194
743,1716347957965405616,2054,2028,2084,2064,2076,2077,1195
744,1716347957975405052,2064,2088,2047,2040,2035,2026,1193
745,1716347957985404698,2051,2048,2064,2065,2048,2070,1196
746,1716347957995404814,2065,2080,2021,2043,2012,2028,1192
747,1716347958005402748,2051,2036,2066,2054,2046,2068,1195
748,1716347958015401864,2065,2094,2078,2050,2058,2021,1192
749,1716347958025404737,2053,2042,2061,2072,2072,2064,1197
750,1716347958035404794,2060,2073,2028,2031,2017,2032,1193
751,1716347958045401376,2052,2032,2061,2068,2062,2076,1196
752,1716347958055403257,2063,2080,2041,2051,2089,2017,1192
753,1716347958065408855,2052,2028,2070,2061,2069,2082,1199
754,1716347958075410816,2057,2085,2034,2019,2014,2013,1193
755,1716347958085411915,2050,2042,2076,2068,2056,2060,1195
756,1716347958095405050,2065,2104,2040,2044,2019,2028,1194
757,1716347958105406290,2046,2027,2054,2083,2075,2078,1196
758,1716347958115402691,2066,2077,2046,2032,2018,2013,1193
759,1716347958125410663,2064,2032,2050,2062,2120,2090,1195
760,1716347958135407354,2062,2097,2029,2042,2036,2013,1193
761,1716347958145404807,2054,2030,2064,2060,2073,2072,1197
762,1716347958155418691,2060,2077,2043,2037,2024,2011,1197
763,1716347958165408960,2051,2036,2117,2064,2061,2072,1195
764,1716347958175409769,2061,2066,2015,2031,2033,2030,1193
765,1716347958185404517,2053,2037,2064,2070,2050,2064,1196
766,1716347958195403612,2066,2092,2069,2032,2030,2018,1193
767,1716347958205404722,2056,2038,2120,2077,2065,2068,1195
768,1716347958215406232,2062,2112,2040,2040,2032,2011,1193
769,1716347958225407121,2049,2040,2072,2080,2091,2081,1198
770,1716347958235412328,2060,2073,2026,2031,2009,2017,1193
771,1716347958245404532,2044,2042,2057,2061,2068,2066,1198
772,1716347958255403197,2061,2083,2020,2012,2020,2008,1192
773,1716347958265403235,2046,2019,2056,2075,2076,2077,1198
774,1716347958275404414,2061,2068,2028,2038,2034,2026,1191
775,1716347958285408839,2050,2040,2060,2088,2075,2076,1195
776,1716347958295409959,2068,2081,2030,2045,2028,2033,1194
777,1716347958305404727,2051,2044,2060,2074,2077,2077,1196
778,1716347958315404935,2066,2085,2041,2028,2017,2012,1192
779,1716347958325404351,2054,2028,2068,2095,2080,2067,1194
780,1716347958335402856,2065,2077,2018,2030,2045,2026,1194
781,1716347958345401722,2053,2023,2070,2073,2076,2077,1197
782,1716347958355403422,2062,2081,2025,2038,2029,2023,1193
783,1716347958365406456,2049,2030,2064,2076,2084,2088,1197
784,1716347958375405481,2059,2072,2019,2048,2040,2021,1193
785,1716347958385403665,2049,2030,2071,2075,2085,2072,1196
786,1716347958395404785,2063,2088,2032,2029,2029,2013,1192
787,1716347958405405784,2054,2042,2088,2074,2047,2074,1196
788,1716347958415405621,2060,2080,2043,2044,2027,2014,1193
789,1716347958425402723,2050,2028,2047,2058,2040,2056,1197
790,1716347958435415725,2069,2081,2031,2032,2011,2020,1194
791,1716347958445402168,2053,2033,2036,2082,2112,2074,1197
792,1716347958455407595,2062,2092,2032,2023,2032,2017,1193
793,1716347958465406641,2051,2061,2061,2077,2079,2083,1197
794,1716347958475413130,2061,2079,2021,2033,2017,2017,1193
795,1716347958485409060,2053,2030,2067,2064,2045,2076,1197
796,1716347958495403868,2069,2086,2038,2040,2036,2028,1191
797,1716347958505405669,2052,2046,2070,2060,2042,2069,1197
798,1716347958515407720,2063,2080,2036,2038,2028,2028,1192
799,1716347958525405834,2048,2036,2053,2066,2056,2073,1197
800,1716347958535407395,2060,2072,2029,2012,2000,2031,1192
801,1716347958545404437,2056,2038,2069,2064,2062,2069,1197
802,1716347958555407069,2062,2083,2037,2038,2029,2021,1193
803,1716347958565409220,2047,2036,2064,2058,2068,2071,1198
804,1716347958575414478,2064,2094,2040,2049,2040,2020,1192
805,1716347958585405438,2051,2040,2081,2066,2073,2092,1196
806,1716347958595406638,2061,2096,2038,2048,2064,2005,1192
807,1716347958605406706,2058,2042,2062,2074,2069,2077,1196
808,1716347958615408136,2063,2088,2041,2033,2028,2013,1193
809,1716347958625406400,2051,2019,2048,2059,2042,2082,1196
810,1716347958635409714,2065,2088,2072,2034,2036,2024,1194
811,1716347958645404522,2047,2022,2044,2069,2066,2075,1196
812,1716347958655405902,2065,2089,2036,2037,2041,2024,1193
813,1716347958665405859,2054,2042,2088,2075,2116,2077,1194
814,1716347958675413180,2062,2070,2018,2030,2035,2022,1193
815,1716347958685411024,2048,2038,2045,2063,2053,2081,1196
816,1716347958695406864,2062,2082,2036,2034,2025,2015,1189
817,1716347958705410959,2049,2032,2069,2066,2061,2077,1195
818,1716347958715407530,2064,2081,2034,2032,2007,2024,1190
819,1716347958725405193,2048,2030,2068,2065,2071,2073,1196
820,1716347958735406012,2062,2084,2035,2037,2024,2017,1192
821,1716347958745405218,2050,2033,2053,2076,2070,2076,1195
822,1716347958755408722,2062,2095,2023,2040,2040,2016,1192
823,1716347958765412446,2052,2032,2045,2069,2087,2068,1195
824,1716347958775413155,2064,2080,2028,2033,2009,2017,1192
825,1716347958785410077,2052,2044,2082,2068,2055,2064,1196
826,1716347958795406458,2060,2084,2029,2037,2028,2025,1192
827,1716347958805407418,2053,2064,2089,2064,2080,2079,1194
828,1716347958815407555,2063,2076,2024,2032,2018,2013,1192
829,1716347958825404337,2048,2037,2075,2072,2110,2082,1196
830,1716347958835409714,2064,2091,2037,2040,2025,2019,1193
831,1716347958845406406,2045,2031,2069,2070,2080,2077,1196
832,1716347958855406664,2064,2097,2037,2040,1992,2029,1193
833,1716347958865409646,2051,2042,2059,2059,2069,2074,1195
834,1716347958875416016,2060,2081,2024,2031,2024,2028,1193
835,1716347958885409802,2049,2037,2098,2094,2096,2067,1198
836,1716347958895406013,2063,2076,2032,2044,2026,2025,1196
837,1716347958905407052,2049,2031,2060,2060,2060,2075,1194
838,1716347958915406749,2059,2073,2022,2032,2007,2013,1189
839,1716347958925406295,2049,2036,2068,2064,2054,2074,1195
840,1716347958935403618,2058,2093,2037,2020,2025,2020,1195
841,1716347958945409487,2047,2018,2037,2061,2085,2073,1198
842,1716347958955406759,2063,2080,2037,2033,2000,2014,1193
843,1716347958965407397,2046,2032,2062,2086,2072,2078,1196
844,1716347958975406623,2062,2097,2042,2038,2031,2015,1193
845,1716347958985409657,2052,2033,2067,2052,2056,2068,1195
846,1716347958995406960,2064,2088,2037,2034,2032,2019,1194
847,1716347959005408721,2048,2030,2061,2067,2052,2084,1196
848,1716347959015408207,2064,2085,2044,2020,1973,2022,1192
849,1716347959025408407,2049,2032,2078,2070,2056,2076,1197
850,1716347959035406491,2059,2080,2041,2046,2024,2032,1193
851,1716347959045404025,2049,2025,2065,2062,2060,2079,1196
852,1716347959055408382,2068,2096,2051,2052,2040,2021,1192
853,1716347959065409271,2047,2024,2050,2061,2111,2078,1197
854,1716347959075407667,2061,2075,2005,2029,2017,2023,1193
855,1716347959085421331,2046,2035,2064,2032,2052,2064,1196
856,1716347959095405511,2057,2057,2020,2062,2092,2018,1191
857,1716347959105406340,2045,2016,2064,2067,2061,2088,1196
858,1716347959115410116,2058,2077,2040,2036,2026,2017,1189
859,1716347959125406257,2047,2035,2065,2067,2088,2072,1196
860,1716347959135405113,2062,2076,2028,2033,2031,2022,1192
861,1716347959145405582,2057,2038,2071,2100,2097,2092,1197
862,1716347959155402896,2062,2075,2022,2031,2040,2024,1192
863,1716347959165408214,2056,2037,2062,2061,2058,2075,1196
864,1716347959175407642,2068,2086,2052,2058,1986,2022,1193
865,1716347959185404124,2056,2033,2060,2068,2052,2069,1197
866,1716347959195408360,2062,2085,2035,2038,2035,2032,1192
867,1716347959205404902,2045,2034,2056,2058,2068,2056,1195
868,1716347959215408347,2066,2090,2039,2040,2041,2030,1192
869,1716347959225410710,2047,2026,2059,2070,2079,2085,1196
870,1716347959235419956,2069,2082,2040,2052,2060,2026,1192
871,1716347959245405457,2048,2024,2052,2056,2092,2081,1196
872,1716347959255404914,2061,2079,2076,2045,2035,2037,1193
873,1716347959265405093,2044,2027,2074,2065,2076,2073,1197
874,1716347959275409980,2068,2069,2024,2024,2022,2024,1193
875,1716347959285406212,2046,2040,2100,2067,2070,2064,1194
876,1716347959295404207,2061,2079,2026,2028,2020,2026,1193
877,1716347959305408283,2053,2042,2069,2069,2063,2081,1196
878,1716347959315406869,2072,2089,2049,2041,2029,2037,1190
879,1716347959325409001,2049,2028,2075,2071,2063,2074,1193
880,1716347959335408699,2064,2105,2038,2029,2024,2013,1191
881,1716347959345406824,2050,2018,2047,2052,2054,2084,1193
882,1716347959355404758,2062,2091,2045,2038,1997,2021,1190
883,1716347959365406781,2044,2030,2060,2065,2068,2075,1194
884,1716347959375411488,2064,2091,2040,2036,2031,2020,1192
885,1716347959385409453,2050,2033,2058,2058,2067,2073,1194
886,1716347959395405854,2062,2080,2029,2030,2033,2027,1193
887,1716347959405406273,2044,2022,2052,2066,2068,2075,1193
888,1716347959415406873,2068,2092,2029,2049,2005,2036,1194
889,1716347959425405959,2050,2030,2080,2068,2039,2064,1198
890,1716347959435406549,2065,2086,2046,2031,1995,2026,1193
891,1716347959445406398,2040,2034,2046,2058,2066,2066,1194
892,1716347959455411466,2068,2093,2033,2029,2029,2038,1192
893,1716347959465406775,2050,2021,2071,2074,2085,2074,1195
894,1716347959475408507,2065,2089,2028,2047,2042,2025,1193
895,1716347959485408605,2048,2044,2082,2078,2065,2070,1196
896,1716347959495424694,2060,2077,2021,2028,2004,2026,1193
897,1716347959505407901,2046,2018,2065,2068,2068,2078,1196
898,1716347959515412799,2064,2090,2029,2028,2022,2017,1191
899,1716347959525403079,2045,2031,2077,2076,2078,2077,1194
900,1716347959535407386,2064,2080,2030,2038,2022,2029,1193
901,1716347959545404148,2048,2012,2069,2065,2044,2074,1196
902,1716347959555404256,2067,2086,2012,2047,2049,2020,1194
903,1716347959565443968,2052,2012,2049,2068,2072,2073,1195
904,1716347959575405586,2067,2096,2036,2038,2030,2021,1193
905,1716347959585408079,2041,2031,2072,2076,2072,2073,1196
906,1716347959595407597,2064,2092,2037,2033,2028,2022,1192
907,1716347959605404379,2046,2017,2067,2068,2070,2079,1196
908,1716347959615406501,2061,2076,2030,2036,2064,2029,1194
909,1716347959625404817,2044,2020,2070,2072,2085,2079,1196
910,1716347959635409103,2073,2104,2055,2043,2023,2017,1192
911,1716347959645406828,2041,2009,2052,2069,2069,2070,1195
912,1716347959655406004,2064,2094,2033,2032,2012,2010,1195
913,1716347959665407235,2047,2028,2078,2068,2072,2071,1196
914,1716347959675425087,2072,2100,2092,2045,2032,2019,1194
915,1716347959685412021,2045,2014,2064,2072,2068,2071,1197
916,1716347959695407220,2070,2085,2040,2030,2020,2021,1193
917,1716347959705406878,2044,2024,2077,2047,2062,2069,1195
918,1716347959715404642,2068,2090,2032,2043,2009,2016,1189
919,1716347959725407667,2044,2026,2088,2068,2075,2084,1195
920,1716347959735404299,2059,2088,2028,2025,2024,2014,1193
921,1716347959745406852,2045,2016,2063,2074,2077,2081,1195
922,1716347959755406780,2060,2084,2025,2046,2024,2030,1190
923,1716347959765406067,2052,2037,2078,2055,2090,2093,1196
924,1716347959775409552,2068,2092,2036,2038,2028,2011,1192
925,1716347959785407216,2048,2036,2076,2061,2069,2080,1194
926,1716347959795410881,2068,2082,2040,2032,2040,2029,1196
927,1716347959805409067,2043,2032,2056,2073,2068,2083,1196
928,1716347959815408274,2068,2083,2032,2037,2024,2014,1192
929,1716347959825407411,2053,2036,2066,2076,2073,2089,1197
930,1716347959835409342,2067,2084,2039,2028,2024,2022,1193
931,1716347959845408169,2040,2021,2051,2064,2058,2072,1196
932,1716347959855408197,2068,2088,2035,2030,2016,2014,1194
933,1716347959865407735,2045,2032,2072,2075,2081,2073,1198
934,1716347959875405820,2062,2080,2033,2029,2025,2013,1194
935,1716347959885406430,2048,2027,2067,2080,2074,2090,1195
936,1716347959895406588,2064,2076,2019,2018,2027,2021,1193
937,1716347959905409823,2044,2042,2057,2058,2064,2072,1198
938,1716347959915408288,2064,2080,2042,2027,2018,2008,1191
939,1716347959925408106,2046,2040,2061,2070,2081,2083,1197
940,1716347959935407944,2059,2073,2037,2046,2028,2026,1193
941,1716347959945406150,2046,2025,2049,2056,2070,2085,1196
942,1716347959955406469,2064,2086,2037,2030,2025,2014,1194
943,1716347959965407679,2053,2023,2069,2074,2079,2085,1195
944,1716347959975404772,2066,2088,2040,2034,2026,2008,1192
945,1716347959985408287,2042,2010,2053,2077,2069,2088,1197
946,1716347959995408075,2062,2076,2046,2033,2041,2021,1194
947,1716347960005409307,2047,2033,2078,2086,2088,2104,1196
948,1716347960015405970,2064,2078,2036,2040,2041,2019,1190
949,1716347960025417661,2050,2048,2078,2070,2084,2078,1196
950,1716347960035407742,2068,2073,2034,2021,1976,1999,1195
951,1716347960045405347,2044,2023,2080,2044,2074,2094,1198
952,1716347960055407489,2062,2060,2044,2037,2028,2031,1194
953,1716347960065406727,2032,2029,2060,2064,2077,2067,1196
954,1716347960075407167,2081,2097,2054,2042,2012,2015,1192
955,1716347960085407758,2046,2028,2053,2067,2070,2094,1197
956,1716347960095408859,2068,2073,2025,2031,2024,2005,1193
957,1716347960105406835,2046,2031,2061,2088,2072,2085,1196
958,1716347960115405242,2064,2110,2042,2030,2024,2018,1194
959,1716347960125407235,2045,2036,2077,2076,2088,2084,1197
960,1716347960135407675,2064,2093,2050,2060,2009,2022,1194
961,1716347960145406773,2046,2034,2070,2064,2073,2092,1195
962,1716347960155416881,2061,2080,2036,2041,2041,2018,1194
963,1716347960165405189,2050,2032,2046,2053,2052,2081,1196
964,1716347960175407071,2066,2104,2037,2044,2030,2024,1193
965,1716347960185409856,2050,2022,2052,2080,2084,2073,1196
966,1716347960195406619,2058,2088,2038,2030,2017,2018,1193
967,1716347960205407200,2054,2044,2072,2069,2072,2081,1195
968,1716347960215406809,2062,2084,2030,2045,2010,2018,1192
969,1716347960225404995,2051,2028,2057,2072,2073,2085,1196
970,1716347960235419892,2061,2078,2037,2029,2025,2012,1195
971,1716347960245411355,2043,2023,2062,2077,2063,2080,1197
972,1716347960255409441,2081,2110,2145,2059,2039,2028,1195
973,1716347960265405694,2048,2028,2059,2065,2078,2083,1196
974,1716347960275404170,2062,2070,2045,2037,2013,2023,1193
975,1716347960285408778,2046,2032,2085,2072,2084,2082,1195
976,1716347960295408447,2072,2074,2014,2042,2034,2021,1193
977,1716347960305409959,2049,2016,2066,2059,2064,2085,1197
978,1716347960315431088,2063,2078,2076,2036,2035,2020,1190
979,1716347960325408625,2047,2031,2084,2083,2072,2089,1195
980,1716347960335406491,2067,2081,2033,2046,2031,2012,1193
981,1716347960345406570,2049,2035,2056,2066,2074,2080,1196
982,1716347960355405969,2065,2065,2039,2045,2039,2016,1192
983,1716347960365423951,2048,2032,2061,2067,2065,2093,1197
984,1716347960375414764,2059,2069,2045,2020,2020,2018,1194
985,1716347960385404705,2048,2024,2063,2069,2074,2073,1196
986,1716347960395411106,2062,2081,2036,2032,2027,2011,1193
987,1716347960405405184,2047,2038,2057,2059,2081,2080,1196
988,1716347960415404543,2056,2057,2020,2035,2007,2027,1194
989,1716347960425404562,2052,2035,2069,2068,2080,2106,1197
990,1716347960435405984,2058,2070,2021,2037,2035,2033,1194
991,1716347960445414760,2049,2044,2061,2078,2093,2069,1196
992,1716347960455409449,2064,2068,2042,2039,2036,2035,1193
993,1716347960465405251,2048,2032,2077,2078,2071,2082,1196
994,1716347960475408396,2057,2085,2062,2047,2037,2024,1193
995,1716347960485403747,2041,2033,2094,2062,2066,2087,1198
996,1716347960495404959,2060,2074,2036,2039,2040,2025,1195
997,1716347960505404146,2048,2052,2045,2056,2059,2082,1198
998,1716347960515407151,2064,2074,2043,2071,2052,2015,1192
999,1716347960525409555,2049,2034,2058,2065,2058,2077,1195
1000,1716347960535407912,2061,2058,2056,2041,2049,2012,1193
1001,1716347960545406308,2052,2041,2092,2059,2065,2067,1195
1002,1716347960555404113,2058,2076,2033,2045,2050,2030,1193
1003,1716347960565404664,2056,2058,2072,2056,2068,2080,1196
1004,1716347960575404212,2067,2070,2018,2047,2036,2028,1194
1005,1716347960585406727,2044,2030,2059,2066,2065,2073,1196
1006,1716347960595404041,2064,2079,2042,2047,2028,2014,1193
1007,1716347960605403059,2045,2031,2044,2064,2066,2080,1196
1008,1716347960615423295,2065,2094,2041,2056,2072,2036,1193
1009,1716347960625408477,2046,2022,2056,2072,2082,2070,1198
1010,1716347960635405952,2062,2053,2015,2037,2024,2022,1195
1011,1716347960645403215,2050,2033,2084,2085,2081,2076,1194
1012,1716347960655404006,2062,2063,2031,2030,2033,2025,1193
1013,1716347960665402884,2048,2040,2052,2068,2068,2077,1196
1014,1716347960675403845,2065,2081,2029,2050,2029,2028,1192
1015,1716347960685405788,2046,2014,2031,2066,2079,2063,1195
1016,1716347960695407881,2056,2070,2039,2056,2047,2034,1192
1017,1716347960705406217,2046,2053,2090,2096,2114,2089,1197
1018,1716347960715405616,2064,2060,2035,2044,2040,2028,1193
1019,1716347960725402660,2049,2046,2056,2072,2066,2086,1194
1020,1716347960735405564,2060,2066,2034,2043,2060,2020,1193
1021,1716347960745443965,2045,2025,2060,2060,2073,2073,1197
1022,1716347960755445117,2059,2064,2056,2052,2041,2022,1192
1023,1716347960765442661,2047,2027,2057,2062,2086,2072,1196
1024,1716347960775440246,2057,2066,2031,2053,2042,2037,1194
1025,1716347960785440486,2042,2034,2057,2063,2064,2078,1195
1026,1716347960795440095,2067,2080,2053,2054,2032,2035,1194
1027,1716347960805442399,2047,2033,2056,2056,2061,2076,1197
1028,1716347960815437479,2065,2069,2036,2047,2029,2031,1194
1029,1716347960825435625,2052,2040,2068,2070,2070,2080,1196
1030,1716347960835436165,2058,2065,2045,2040,2020,2026,1192
1031,1716347960845435553,2049,2027,2052,2054,2056,2077,1194
1032,1716347960855431125,2061,2069,2038,2037,2035,2026,1194
1033,1716347960865430703,2048,2040,2063,2065,2073,2070,1197
1034,1716347960875428759,2062,2068,2027,2033,2030,2039,1193
1035,1716347960885430081,2053,2040,2086,2054,2073,2075,1196
1036,1716347960895429610,2061,2054,2025,2044,2031,2034,1194
1037,1716347960905432905,2050,2032,2062,2072,2092,2082,1197
1038,1716347960915427094,2069,2085,2061,2051,2028,2027,1190
1039,1716347960925424799,2046,2040,2057,2058,2075,2076,1195
1040,1716347960935425500,2061,2084,2038,2055,2072,2012,1192
1041,1716347960945424908,2050,2029,2069,2065,2059,2065,1194
1042,1716347960955422072,2064,2068,2039,2031,2028,2024,1193
1043,1716347960965422061,2046,2024,2069,2064,2066,2082,1195
1044,1716347960975422872,2061,2078,2069,2032,2041,2030,1192
1045,1716347960985420026,2049,2029,2072,2060,2065,2074,1198
1046,1716347960995420046,2065,2088,2050,2041,2030,2027,1194
1047,1716347961005418734,2048,2028,2050,2059,2070,2071,1196
1048,1716347961015417452,2058,2068,2040,2040,2032,2038,1193
1049,1716347961025417182,2048,2042,2082,2059,2070,2082,1197
1050,1716347961035414838,2064,2058,2018,2045,2017,2023,1194
1051,1716347961045414427,2044,2016,2040,2077,2098,2092,1196
1052,1716347961055413846,2063,2072,2046,2041,2035,2032,1193
1053,1716347961065412374,2045,2024,2070,2069,2050,2071,1196
1054,1716347961075412114,2058,2062,2033,2062,2062,2030,1191
1055,1716347961085409028,2052,2043,2071,2065,2066,2069,1198
1056,1716347961095410682,2066,2064,2033,2038,2032,2038,1193
1057,1716347961105411574,2050,2038,2068,2067,2070,2076,1195
1058,1716347961115410512,2066,2072,2049,2045,2025,2012,1190
1059,1716347961125410132,2047,2056,2076,2058,2065,2073,1196
1060,1716347961135410062,2062,2072,2046,2047,2010,2027,1194
1061,1716347961145408780,2046,2035,2052,2041,2053,2069,1196
1062,1716347961155409592,2061,2056,2024,2056,2022,2014,1194
1063,1716347961165410874,2053,2037,2044,2069,2061,2075,1195
1064,1716347961175408501,2062,2084,2041,2052,2032,2042,1193
1065,1716347961185409703,2048,2033,2059,2050,2073,2081,1197
1066,1716347961195410525,2059,2073,2060,2022,2025,2033,1193
1067,1716347961205410675,2058,2042,2104,2064,2065,2071,1195
1068,1716347961215410034,2061,2072,2029,2042,2030,2033,1194
1069,1716347961225409594,2049,2038,2074,2061,2059,2068,1197
1070,1716347961235409565,2062,2044,2036,2046,2040,2034,1193
1071,1716347961245409475,2049,2028,2041,2104,2112,2101,1197
1072,1716347961255407872,2062,2088,2082,2051,2033,2031,1194
1073,1716347961265426336,2052,2033,2062,2066,2072,2081,1197
1074,1716347961275412170,2065,2070,2040,2038,2032,2033,1195
1075,1716347961285410237,2048,2024,2054,2072,2066,2069,1195
1076,1716347961295426127,2068,2089,2056,2043,2034,2006,1192
1077,1716347961305408806,2050,2050,2065,2072,2063,2080,1197
1078,1716347961315457556,2066,2064,2051,2040,2033,2025,1189
1079,1716347961325434393,2049,2040,2073,2065,2072,2068,1193
1080,1716347961335411862,2062,2067,2038,2033,2032,2029,1193
1081,1716347961345411662,2045,2033,2039,2079,2119,2066,1196
1082,1716347961355410671,2064,2089,2049,2037,2018,2042,1192
1083,1716347961365408457,2046,2042,2064,2064,2061,2075,1196
1084,1716347961375410942,2066,2066,2040,2047,2049,2031,1193
1085,1716347961385411783,2045,2035,2063,2069,2059,2076,1193
1086,1716347961395410782,2064,2077,2056,2045,2029,2025,1192
1087,1716347961405409089,2048,2038,2063,2072,2080,2068,1195
1088,1716347961415411084,2063,2078,2037,2044,2032,2026,1192
1089,1716347961425409881,2050,2037,2065,2056,2040,2061,1196
1090,1716347961435409531,2064,2064,2029,2047,2042,2020,1191
1091,1716347961445410874,2056,2030,2064,2065,2060,2076,1196
1092,1716347961455410303,2064,2072,2030,2050,2058,2036,1193
1093,1716347961465408200,2041,2026,2058,2057,2052,2073,1197
1094,1716347961475410514,2058,2065,2037,2054,2026,2027,1195
1095,1716347961485409432,2040,2016,2052,2073,2081,2064,1195
1096,1716347961495444117,2059,2066,2042,2047,2038,2022,1192
1097,1716347961505445219,2046,2028,2076,2060,2060,2071,1197
1098,1716347961515440100,2061,2054,2053,2046,2041,2029,1191
1099,1716347961525438498,2047,2036,2058,2068,2069,2063,1194
1100,1716347961535435623,2061,2067,2040,2044,2047,2038,1192
1101,1716347961545437667,2052,2032,2056,2065,2066,2079,1195
1102,1716347961555435373,2066,2092,2048,2044,2030,2027,1192
1103,1716347961565435223,2052,2023,2063,2051,2056,2061,1194
1104,1716347961575435293,2060,2064,2013,2060,2062,2026,1194
1105,1716347961585432729,2053,2040,2047,2070,2073,2072,1196
1106,1716347961595430746,2058,2072,2032,2045,2034,2023,1194
1107,1716347961605430095,2053,2040,2082,2060,2069,2065,1196
1108,1716347961615430906,2064,2056,2052,2043,2021,2009,1193
1109,1716347961625427481,2048,2021,2041,2065,2068,2073,1196
1110,1716347961635424846,2066,2072,2053,2046,2038,2017,1193
1111,1716347961645428584,2048,2040,2065,2064,2064,2077,1196
1112,1716347961655424216,2068,2068,2045,2041,2038,2030,1192
1113,1716347961665425568,2046,2035,2066,2074,2074,2072,1196
1114,1716347961675421982,2057,2074,2038,2049,2041,2028,1192
1115,1716347961685421652,2048,2012,2052,2069,2063,2064,1196
1116,1716347961695422464,2056,2054,2024,2052,2033,2036,1195
1117,1716347961705427113,2048,2043,2082,2069,2056,2079,1197
1118,1716347961715420020,2064,2074,2037,2048,2048,2033,1192
1119,1716347961725418738,2047,2029,2072,2064,2064,2072,1196
1120,1716347961735416804,2060,2073,2036,2043,2040,2040,1193
1121,1716347961745419740,2052,2047,2064,2056,2064,2072,1195
1122,1716347961755420462,2064,2096,2092,2032,2009,2027,1192
1123,1716347961765415323,2045,2034,2054,2055,2078,2081,1199
1124,1716347961775412618,2060,2073,2053,2028,2032,2034,1192
1125,1716347961785415834,2046,2028,2050,2061,2068,2057,1194
1126,1716347961795419842,2061,2078,2074,2043,2048,2040,1194
1127,1716347961805409573,2051,2057,2064,2056,2057,2064,1197
1128,1716347961815409794,2067,2078,2066,2044,2033,2029,1196
1129,1716347961825409674,2046,2024,2053,2064,2080,2082,1198
1130,1716347961835407200,2061,2057,2036,2041,2032,2045,1194
1131,1716347961845407240,2047,2035,2060,2068,2071,2069,1196
1132,1716347961855408623,2061,2066,2042,2043,2027,2021,1192
1133,1716347961865404206,2044,2023,2063,2065,2090,2076,1196
1134,1716347961875404256,2065,2071,2054,2056,2030,2039,1192
1135,1716347961885402192,2048,2030,2075,2053,2058,2074,1195
1136,1716347961895401661,2068,2073,2059,2073,2062,2036,1194
1137,1716347961905404848,2054,2072,2084,2060,2050,2080,1198
1138,1716347961915403536,2065,2076,2045,2033,2006,2032,1189
1139,1716347961925440715,2045,2043,2054,2064,2073,2080,1197
1140,1716347961935404869,2057,2060,2028,2047,2037,2031,1192
1141,1716347961945404839,2047,2027,2033,2058,2069,2072,1195
1142,1716347961955415950,2060,2072,2027,2045,2034,2040,1193
1143,1716347961965403838,2042,2029,2049,2045,2062,2074,1195
1144,1716347961975401063,2061,2071,2048,2054,2066,2037,1192
1145,1716347961985404230,2057,2037,2068,2065,2082,2081,1196
1146,1716347961995403348,2060,2060,2028,2047,2024,2038,1193
1147,1716347962005438393,2046,2020,2064,2067,2073,2082,1194
1148,1716347962015404351,2056,2062,2034,2057,2037,2037,1194
1149,1716347962025430512,2050,2028,2053,2068,2064,2080,1198
1150,1716347962035411267,2060,2055,2026,2040,2040,2048,1196
1151,1716347962045407391,2050,2032,2064,2065,2052,2075,1198
1152,1716347962055414846,2063,2078,2053,2038,2033,2030,1194
1153,1716347962065408636,2052,2030,2061,2061,2072,2065,1195
1154,1716347962075403317,2062,2069,2037,2042,2032,2040,1192
1155,1716347962085406044,2053,2038,2059,2073,2074,2074,1196
1156,1716347962095406827,2066,2060,2020,2041,2039,2025,1194
1157,1716347962105404553,2041,2028,2049,2072,2078,2081,1198
1158,1716347962115405767,2058,2068,2078,2056,2037,2036,1190
1159,1716347962125406058,2044,2042,2078,2069,2081,2078,1198
1160,1716347962135403375,2065,2064,2054,2037,2032,2031,1194
1161,1716347962145403877,2049,2047,2084,2072,2085,2074,1196
1162,1716347962155402977,2061,2053,2049,2048,2040,2027,1194
1163,1716347962165415131,2049,2036,2054,2092,2108,2068,1198
1164,1716347962175404933,2065,2072,2052,2053,2046,2034,1195
1165,1716347962185412368,2045,2072,2076,2072,2076,2073,1196
1166,1716347962195405917,2069,2074,2038,2042,2041,2036,1192
1167,1716347962205409365,2050,2032,2066,2064,2076,2064,1196
1168,1716347962215411090,2061,2077,2073,2052,2033,2042,1194
1169,1716347962225401613,2051,2038,2051,2053,2052,2062,1198
1170,1716347962235399561,2057,2061,2030,2065,2048,2035,1195
1171,1716347962245404070,2050,2053,2062,2064,2065,2077,1196
1172,1716347962255399543,2058,2095,2046,2037,2027,2009,1191
1173,1716347962265400567,2050,2044,2056,2067,2074,2069,1195
1174,1716347962275403704,2059,2064,2044,2033,2023,2029,1193
1175,1716347962285403595,2048,2040,2060,2060,2058,2071,1197
1176,1716347962295404067,2060,2059,2043,2061,2033,2029,1195
1177,1716347962305401312,2045,2033,2057,2066,2069,2073,1199
1178,1716347962315413947,2064,2089,2050,2053,2052,2024,1191
1179,1716347962325407217,2052,2032,2044,2063,2054,2066,1194
1180,1716347962335402068,2057,2056,2040,2047,2029,2034,1193
1181,1716347962345404133,2046,2024,2043,2067,2061,2072,1197
1182,1716347962355406959,2063,2068,2057,2045,2048,2036,1193
1183,1716347962365404606,2053,2052,2070,2069,2072,2082,1194
1184,1716347962375402002,2057,2062,2040,2057,2047,2038,1193
1185,1716347962385405370,2050,2030,2060,2062,2060,2072,1194
1186,1716347962395405261,2062,2086,2054,2041,2033,2032,1192
1187,1716347962405404652,2052,2041,2074,2060,2065,2072,1196
1188,1716347962415414221,2062,2074,2045,2050,2049,2040,1195
1189,1716347962425404514,2058,2041,2081,2062,2052,2062,1198
1190,1716347962435413151,2060,2065,2058,2045,2038,2037,1195
1191,1716347962445408052,2045,2032,2046,2064,2065,2059,1197
1192,1716347962455406551,2069,2077,2072,2059,2024,2032,1194
1193,1716347962465404138,2049,2047,2060,2057,2060,2072,1196
1194,1716347962475403709,2060,2072,2044,2050,2034,2036,1193
1195,1716347962485403600,2044,2036,2059,2071,2052,2059,1196
1196,1716347962495406185,2056,2058,2037,2054,2043,2041,1193
1197,1716347962505403662,2045,2033,2046,2071,2081,2076,1196
1198,1716347962515403022,2056,2060,2029,2048,2067,2038,1193
1199,1716347962525410027,2048,2041,2083,2057,2066,2084,1197
1200,1716347962535404868,2059,2069,2041,2065,2041,2034,1195
1201,1716347962545410400,2049,2035,2050,2066,2064,2078,1196
1202,1716347962555403007,2061,2064,2060,2050,2049,2036,1195
1203,1716347962565402197,2046,2032,2038,2058,2064,2074,1194
1204,1716347962575399563,2057,2065,2037,2064,2015,2034,1196
1205,1716347962585402330,2050,2037,2058,2073,2094,2072,1195
1206,1716347962595401971,2060,2088,2051,2043,2035,2031,1194
1207,1716347962605402663,2053,2042,2049,2061,2046,2059,1196
1208,1716347962615402744,2065,2075,2066,2059,2052,2047,1193
1209,1716347962625405190,2047,2043,2072,2064,2064,2080,1197
1210,1716347962635404871,2057,2059,2050,2047,2045,2030,1191
1211,1716347962645413629,2045,2038,2037,2066,2078,2065,1197
1212,1716347962655401798,2064,2072,2035,2048,2048,2028,1193
1213,1716347962665407049,2053,2046,2050,2062,2060,2068,1194
1214,1716347962675401470,2059,2059,2030,2049,2042,2038,1193
1215,1716347962685405037,2050,2056,2064,2064,2064,2068,1195
1216,1716347962695403867,2056,2061,2034,2044,2057,2034,1193
1217,1716347962705407745,2056,2052,2056,2084,2068,2074,1196
1218,1716347962715404260,2060,2055,2049,2055,2040,2032,1191
1219,1716347962725404001,2050,2040,2060,2064,2062,2066,1198
1220,1716347962735403982,2056,2063,2044,2054,2038,2031,1195
1221,1716347962745404213,2048,2045,2036,2064,2072,2068,1197
1222,1716347962755400959,2062,2056,2043,2046,2041,2033,1195
1223,1716347962765401542,2052,2032,2053,2060,2062,2075,1196
1224,1716347962775400090,2062,2070,2052,2045,2041,2040,1193
1225,1716347962785404159,2052,2040,2050,2064,2064,2067,1195
1226,1716347962795403489,2061,2065,2043,2055,2065,2032,1192
1227,1716347962805403840,2052,2062,2066,2055,2069,2075,1196
1228,1716347962815403231,2066,2067,2068,2049,2049,2036,1193
1229,1716347962825403673,2048,2041,2073,2064,2051,2064,1196
1230,1716347962835401230,2056,2053,2030,2050,2042,2042,1193
1231,1716347962845402553,2048,2037,2056,2066,2062,2064,1196
1232,1716347962855402645,2061,2066,2040,2050,2038,2036,1194
1233,1716347962865400802,2049,2037,2057,2052,2065,2072,1196
1234,1716347962875403288,2064,2092,2076,2059,2046,2041,1194
1235,1716347962885404703,2044,2038,2056,2068,2068,2072,1197
1236,1716347962895403351,2056,2056,2040,2056,2047,2037,1193
1237,1716347962905402371,2048,2030,2045,2058,2058,2072,1195
1238,1716347962915403133,2058,2076,2066,2029,2020,2037,1191
1239,1716347962925402904,2046,2056,2073,2054,2052,2064,1195
1240,1716347962935402585,2063,2068,2043,2046,2045,2050,1196
1241,1716347962945402506,2050,2040,2049,2061,2064,2071,1197
1242,1716347962955401075,2061,2059,2053,2057,2053,2041,1193
1243,1716347962965400515,2049,2045,2069,2066,2069,2069,1196
1244,1716347962975403261,2061,2064,2059,2058,2042,2044,1194
1245,1716347962985404565,2052,2045,2060,2059,2056,2070,1197
1246,1716347962995406129,2057,2060,2028,2049,2042,2041,1194
1247,1716347963005402495,2050,2034,2072,2057,2066,2065,1196
1248,1716347963015400534,2057,2060,2052,2050,2044,2031,1195
1249,1716347963025403061,2049,2034,2093,2060,2067,2069,1195
1250,1716347963035401840,2057,2069,2053,2054,2050,2042,1194
1251,1716347963045404247,2046,2034,2048,2062,2061,2061,1194
1252,1716347963055402236,2061,2065,2046,2045,2040,2033,1195
1253,1716347963065403099,2050,2018,2059,2054,2035,2061,1195
1254,1716347963075402781,2061,2052,2048,2034,2034,2049,1196
1255,1716347963085402092,2048,2040,2071,2072,2094,2072,1196
1256,1716347963095404098,2057,2080,2110,2054,2048,2040,1193
1257,1716347963105404300,2049,2036,2068,2072,2064,2070,1196
1258,1716347963115401738,2061,2058,2044,2044,2042,2051,1194
1259,1716347963125401359,2056,2053,2073,2068,2054,2062,1196
1260,1716347963135404197,2059,2056,2047,2049,2040,2040,1196
1261,1716347963145401755,2056,2057,2113,2064,2062,2065,1197
1262,1716347963155401346,2061,2044,2025,2041,2026,2046,1193
1263,1716347963165400927,2049,2042,2064,2056,2057,2057,1196
1264,1716347963175402042,2057,2064,2056,2052,2061,2046,1191
1265,1716347963185401132,2048,2039,2058,2064,2061,2060,1195
1266,1716347963195401535,2066,2083,2064,2056,2046,2044,1192
1267,1716347963205401467,2047,2037,2075,2064,2064,2059,1193
1268,1716347963215401049,2058,2051,2045,2047,2051,2049,1196
1269,1716347963225400339,2049,2038,2052,2058,2052,2074,1198
1270,1716347963235403237,2062,2068,2043,2046,2037,2036,1193
1271,1716347963245405173,2047,2049,2051,2069,2067,2068,1196
1272,1716347963255402991,2064,2060,2050,2060,2055,2041,1192
1273,1716347963265400919,2052,2046,2052,2060,2066,2067,1196
1274,1716347963275402875,2059,2056,2040,2040,2047,2046,1194
1275,1716347963285403348,2048,2037,2060,2064,2063,2074,1197
1276,1716347963295402759,2061,2074,2052,2049,2060,2044,1195
1277,1716347963305401299,2047,2035,2074,2059,2064,2057,1196
1278,1716347963315403806,2058,2049,2061,2049,2038,2036,1192
1279,1716347963325403477,2045,2036,2047,2061,2057,2070,1198
1280,1716347963335406144,2062,2058,2062,2049,2036,2042,1194
1281,1716347963345403171,2047,2027,2056,2057,2057,2066,1196
1282,1716347963355402712,2059,2046,2047,2060,2044,2044,1193
1283,1716347963365400330,2047,2040,2060,2054,2064,2069,1195
1284,1716347963375403048,2061,2082,2052,2049,2035,2039,1193
1285,1716347963385403691,2053,2045,2057,2066,2062,2065,1194
1286,1716347963395403242,2062,2063,2074,2051,2044,2035,1191
1287,1716347963405405048,2053,2054,2068,2060,2060,2077,1195
1288,1716347963415421130,2064,2066,2049,2053,2053,2038,1195
1289,1716347963425404952,2049,2030,2064,2060,2064,2072,1197
1290,1716347963435408371,2065,2092,2057,2048,2037,2041,1194
1291,1716347963445404095,2052,2042,2036,2062,2064,2061,1196
1292,1716347963455403766,2057,2053,2030,2045,2045,2039,1192
1293,1716347963465412966,2048,2043,2047,2076,2066,2069,1196
1294,1716347963475405544,2056,2050,2044,2064,2045,2040,1192
1295,1716347963485403092,2051,2043,2057,2060,2048,2057,1196
1296,1716347963495406701,2058,2049,2040,2050,2050,2039,1193
1297,1716347963505402756,2047,2072,2060,2054,2053,2061,1195
1298,1716347963515403449,2064,2070,2044,2053,2039,2046,1193
1299,1716347963525407369,2045,2042,2045,2060,2057,2066,1196
1300,1716347963535402812,2060,2058,2040,2040,2044,2044,1192
1301,1716347963545405610,2049,2031,2051,2050,2052,2068,1197
1302,1716347963555405021,2062,2061,2044,2069,2062,2047,1193
1303,1716347963565405544,2052,2040,2046,2066,2062,2069,1195
1304,1716347963575407760,2057,2052,2046,2056,2043,2045,1192
1305,1716347963585405388,2053,2040,2042,2062,2064,2071,1197
1306,1716347963595405250,2061,2067,2071,2050,2040,2049,1196
1307,1716347963605405222,2050,2042,2051,2064,2059,2061,1196
1308,1716347963615408310,2061,2059,2049,2052,2037,2031,1193
1309,1716347963625407160,2046,2028,2091,2075,2066,2065,1199
1310,1716347963635407563,2058,2043,2046,2053,2049,2047,1195
1311,1716347963645406694,2048,2039,2058,2058,2063,2066,1195
1312,1716347963655404913,2059,2057,2042,2057,2043,2038,1195
1313,1716347963665413160,2049,2050,2052,2074,2076,2064,1195
1314,1716347963675402573,2062,2060,2049,2049,2034,2044,1191
1315,1716347963685404699,2041,2030,2044,2064,2064,2056,1195
1316,1716347963695407837,2065,2066,2032,2049,2036,2045,1193
1317,1716347963705419440,2041,2024,2041,2064,2067,2062,1196
1318,1716347963715403543,2059,2052,2049,2062,2043,2042,1193
1319,1716347963725405409,2048,2044,2037,2069,2068,2074,1198
1320,1716347963735407846,2060,2049,2057,2056,2060,2041,1195
1321,1716347963745405804,2048,2045,2056,2056,2066,2070,1197
1322,1716347963755404764,2065,2076,2071,2056,2045,2048,1195
1323,1716347963765403614,2043,2033,2036,2059,2066,2062,1196
1324,1716347963775406442,2063,2057,2047,2057,2060,2057,1196
1325,1716347963785404581,2048,2045,2050,2064,2080,2066,1194
1326,1716347963795406566,2058,2065,2050,2056,2068,2045,1194
1327,1716347963805437666,2046,2044,2051,2056,2064,2066,1197
1328,1716347963815402984,2060,2068,2065,2055,2053,2044,1194
1329,1716347963825432711,2048,2060,2052,2056,2059,2066,1199
1330,1716347963835412316,2061,2064,2053,2058,2057,2047,1193
1331,1716347963845407459,2052,2048,2036,2059,2049,2065,1198
1332,1716347963855406329,2060,2056,2044,2052,2044,2058,1197
1333,1716347963865404378,2052,2059,2084,2066,2061,2057,1197
1334,1716347963875408788,2055,2056,2044,2053,2064,2046,1192
1335,1716347963885404142,2044,2018,2059,2058,2058,2070,1198
1336,1716347963895404635,2059,2053,2108,2056,2054,2044,1194
1337,1716347963905423923,2045,2031,2046,2053,2047,2068,1196
1338,1716347963915405100,2063,2063,2033,2072,2089,2048,1193
1339,1716347963925403369,2057,2045,2058,2061,2047,2060,1197
1340,1716347963935403121,2061,2056,2047,2052,2052,2047,1193
1341,1716347963945407932,2050,2041,2062,2053,2064,2061,1196
1342,1716347963955405660,2057,2032,2044,2051,2054,2040,1194
1343,1716347963965401905,2047,2040,2041,2064,2054,2066,1196
1344,1716347963975405514,2064,2061,2041,2050,2052,2049,1196
1345,1716347963985402270,2048,2048,2039,2053,2058,2057,1195
1346,1716347963995404236,2065,2075,2056,2058,2074,2054,1197
1347,1716347964005413826,2048,2048,2075,2060,2076,2071,1195
1348,1716347964015402268,2057,2049,2044,2055,2049,2052,1196
1349,1716347964025408792,2048,2016,2048,2064,2068,2069,1198
1350,1716347964035405429,2060,2046,2038,2093,2104,2050,1194
1351,1716347964045404902,2046,2046,2060,2061,2059,2061,1197
1352,1716347964055403793,2057,2058,2041,2062,2053,2046,1193
1353,1716347964065405540,2052,2046,2056,2059,2052,2062,1197
1354,1716347964075405512,2057,2055,2064,2052,2046,2044,1193
1355,1716347964085404323,2050,2049,2038,2064,2070,2058,1195
1356,1716347964095407582,2059,2060,2041,2056,2052,2050,1196
1357,1716347964105422914,2044,2035,2064,2060,2060,2063,1196
1358,1716347964115406567,2059,2058,2069,2057,2060,2050,1196
1359,1716347964125407953,2053,2047,2052,2064,2047,2068,1193
1360,1716347964135407365,2058,2063,2052,2055,2046,2054,1196
1361,1716347964145405364,2049,2056,2062,2064,2044,2060,1197
1362,1716347964155406248,2058,2049,2042,2046,2047,2046,1193
1363,1716347964165409698,2050,2045,2054,2048,2047,2064,1193
1364,1716347964175404362,2058,2052,2044,2052,2050,2054,1195
1365,1716347964185401790,2047,2045,2056,2056,2059,2069,1196
1366,1716347964195406161,2056,2058,2045,2042,2038,2046,1192
1367,1716347964205427453,2052,2056,2057,2059,2056,2064,1197
1368,1716347964215401899,2056,2057,2045,2046,2044,2052,1196
1369,1716347964225399067,2050,2047,2060,2052,2067,2064,1199
1370,1716347964235400283,2059,2051,2043,2053,2053,2041,1194
1371,1716347964245400737,2053,2062,2067,2068,2064,2060,1196
1372,1716347964255400930,2051,2034,2042,2052,2050,2037,1193
1373,1716347964265402606,2047,2040,2043,2052,2056,2072,1196
1374,1716347964275400746,2062,2065,2090,2049,2049,2042,1193
1375,1716347964285400449,2051,2046,2058,2056,2053,2058,1195
1376,1716347964295401704,2059,2049,2053,2053,2054,2050,1194
1377,1716347964305397810,2049,2052,2051,2056,2061,2056,1196
1378,1716347964315398064,2061,2064,2074,2055,2045,2045,1190
1379,1716347964325399259,2046,2045,2048,2045,2060,2056,1196
1380,1716347964335402037,2058,2064,2063,2058,2046,2047,1192
1381,1716347964345399736,2051,2047,2054,2062,2058,2061,1197
1382,1716347964355399569,2060,2050,2057,2057,2053,2051,1197
1383,1716347964365399522,2045,2040,2054,2056,2056,2056,1195
1384,1716347964375399114,2059,2043,2042,2050,2057,2040,1192
1385,1716347964385398818,2056,2065,2069,2060,2070,2063,1196
1386,1716347964395399582,2054,2045,2040,2062,2052,2047,1192
1387,1716347964405399374,2047,2043,2030,2060,2057,2063,1197
1388,1716347964415399047,2058,2050,2044,2056,2049,2047,1194
1389,1716347964425402477,2052,2063,2065,2064,2060,2060,1197
1390,1716347964435398963,2061,2053,2074,2042,2031,2050,1197
1391,1716347964445399608,2048,2044,2049,2053,2060,2060,1198
1392,1716347964455397958,2061,2084,2051,2047,2049,2042,1194
1393,1716347964465402619,2056,2050,2054,2066,2063,2063,1197
1394,1716347964475403093,2052,2045,2038,2052,2032,2053,1198
1395,1716347964485401203,2051,2048,2053,2060,2049,2060,1196
1396,1716347964495409071,2058,2053,2036,2043,2042,2045,1196
1397,1716347964505401640,2050,2045,2060,2053,2065,2058,1195
1398,1716347964515401353,2053,2028,2044,2052,2046,2049,1195
1399,1716347964525406685,2048,2037,2056,2060,2047,2052,1196
1400,1716347964535406067,2061,2064,2073,2056,2043,2045,1193
1401,1716347964545401693,2050,2056,2059,2056,2060,2057,1197
1402,1716347964555401816,2058,2051,2056,2047,2056,2056,1194
1403,1716347964565402170,2050,2050,2082,2061,2056,2067,1195
1404,1716347964575404037,2058,2064,2045,2066,2047,2046,1193
1405,1716347964585399691,2049,2045,2057,2061,2053,2060,1196
1406,1716347964595401728,2056,2046,2040,2048,2045,2047,1193
1407,1716347964605401211,2049,2044,2057,2061,2081,2068,1198
1408,1716347964615401615,2064,2056,2040,2054,2048,2047,1194
1409,1716347964625402029,2060,2061,2073,2079,2088,2063,1197
1410,1716347964635401040,2060,2061,2080,2058,2046,2047,1195
1411,1716347964645401383,2051,2041,2035,2054,2053,2051,1195
1412,1716347964655402839,2052,2029,2050,2047,2062,2050,1197
1413,1716347964665400929,2052,2050,2087,2067,2086,2062,1195
1414,1716347964675401423,2060,2060,2077,2053,2049,2056,1197
1415,1716347964685400855,2056,2058,2100,2060,2059,2061,1196
1416,1716347964695400898,2058,2054,2049,2056,2051,2044,1193
1417,1716347964705402624,2049,2053,2053,2053,2052,2064,1198
1418,1716347964715403499,2060,2071,2077,2054,2052,2041,1192
1419,1716347964725400296,2051,2061,2071,2065,2061,2060,1194
1420,1716347964735399779,2058,2044,2040,2069,2068,2044,1191
1421,1716347964745400003,2050,2053,2051,2056,2052,2061,1195
1422,1716347964755399765,2058,2056,2054,2056,2045,2039,1192
1423,1716347964765403875,2050,2051,2045,2060,2056,2056,1197
1424,1716347964775406203,2058,2040,2041,2049,2040,2047,1193
1425,1716347964785400997,2052,2056,2093,2068,2061,2059,1196
1426,1716347964795405468,2053,2064,2045,2062,2065,2051,1197
1427,1716347964805399591,2056,2064,2078,2057,2047,2060,1197
1428,1716347964815400485,2056,2047,2051,2049,2043,2046,1195
1429,1716347964825400157,2058,2069,2136,2060,2060,2057,1197
1430,1716347964835399830,2062,2054,2046,2045,2046,2045,1194
1431,1716347964845401256,2056,2053,2051,2056,2056,2054,1198
1432,1716347964855402612,2061,2065,2060,2054,2047,2049,1195
1433,1716347964865400942,2048,2045,2052,2056,2061,2061,1194
1434,1716347964875400233,2064,2054,2064,2056,2056,2064,1196
1435,1716347964885400507,2049,2049,2042,2047,2058,2056,1196
1436,1716347964895399278,2056,2046,2052,2050,2051,2050,1193
1437,1716347964905400032,2053,2045,2053,2058,2058,2060,1196
1438,1716347964915399224,2058,2063,2048,2049,2064,2050,1192
1439,1716347964925402934,2053,2060,2060,2053,2043,2060,1196
1440,1716347964935402336,2056,2050,2042,2056,2064,2050,1195
1441,1716347964945401968,2053,2049,2052,2061,2058,2064,1196
1442,1716347964955387374,2056,2047,2052,2052,2047,2039,1192
1443,1716347964965401995,2054,2031,2044,2052,2056,2056,1197
1444,1716347964975401217,2056,2042,2046,2068,2049,2052,1196
1445,1716347964985402262,2049,2052,2048,2048,2030,2056,1195
1446,1716347964995403677,2054,2039,2047,2049,2043,2054,1196
1447,1716347965005399162,2054,2062,2072,2056,2052,2064,1195
1448,1716347965015399757,2058,2045,2037,2056,2056,2054,1193
1449,1716347965025402447,2052,2047,2047,2050,2066,2054,1199
1450,1716347965035402060,2063,2056,2040,2062,2048,2047,1193
1451,1716347965045401723,2054,2056,2064,2063,2064,2068,1198
1452,1716347965055401206,2058,2042,2046,2053,2047,2053,1195
1453,1716347965065401360,2047,2057,2052,2056,2059,2060,1197
1454,1716347965075398690,2056,2045,2053,2068,2052,2054,1196
1455,1716347965085401850,2052,2053,2046,2057,2064,2065,1197
1456,1716347965095401493,2052,2045,2058,2047,2052,2057,1197
1457,1716347965105400515,2056,2064,2042,2060,2060,2062,1196
1458,1716347965115401341,2058,2040,2056,2050,2056,2045,1192
1459,1716347965125400914,2049,2053,2049,2070,2069,2053,1196
1460,1716347965135400377,2060,2050,2077,2056,2064,2047,1193
1461,1716347965145403167,2047,2053,2069,2064,2053,2057,1195
1462,1716347965155401327,2056,2064,2057,2047,2047,2047,1193
1463,1716347965165401181,2052,2056,2059,2055,2056,2061,1197
1464,1716347965175407316,2060,2064,2057,2049,2057,2047,1196
1465,1716347965185404224,2056,2057,2065,2060,2051,2064,1196
1466,1716347965195401243,2051,2048,2048,2052,2052,2054,1198
1467,1716347965205400416,2053,2060,2085,2059,2053,2062,1197
1468,1716347965215399679,2056,2052,2054,2056,2062,2054,1197
1469,1716347965225400935,2049,2050,2045,2044,2045,2058,1198
1470,1716347965235414193,2060,2066,2069,2050,2054,2056,1195
1471,1716347965245413746,2053,2050,2047,2054,2056,2056,1196
1472,1716347965255413761,2053,2046,2066,2056,2055,2053,1197
1473,1716347965265400160,2053,2059,2044,2058,2057,2050,1196
1474,1716347965275401056,2058,2048,2074,2067,2045,2059,1198
1475,1716347965285403424,2053,2058,2072,2049,2061,2064,1197
1476,1716347965295414428,2052,2053,2084,2058,2041,2049,1196
1477,1716347965305400207,2055,2056,2047,2050,2055,2058,1198
1478,1716347965315393168,2052,2050,2053,2055,2045,2052,1195
1479,1716347965325400505,2052,2059,2066,2064,2066,2051,1196
1480,1716347965335415437,2056,2046,2056,2068,2061,2050,1196
1481,1716347965345399751,2056,2064,2056,2073,2097,2058,1197
1482,1716347965355417819,2052,2033,2044,2059,2061,2050,1198
1483,1716347965365398798,2051,2048,2063,2056,2056,2058,1197
1484,1716347965375399423,2060,2038,2060,2060,2058,2057,1195
1485,1716347965385414585,2054,2059,2048,2048,2051,2062,1198
1486,1716347965395412325,2053,2033,2061,2056,2053,2058,1197
1487,1716347965405421226,2050,2076,2088,2044,2041,2053,1195
1488,1716347965415412754,2056,2045,2055,2059,2059,2057,1197
1489,1716347965425412448,2056,2065,2056,2051,2037,2050,1198
1490,1716347965435412813,2056,2041,2063,2065,2072,2065,1196
1491,1716347965445411674,2064,2080,2080,2067,2036,2064,1197
1492,1716347965455401229,2049,2020,2022,2046,2047,2038,1193
1493,1716347965465414578,2050,2044,2010,2046,2047,2045,1194
1494,1716347965475414612,2056,2040,2060,2058,2056,2060,1196
1495,1716347965485411791,2051,2062,2054,2050,2047,2047,1194
1496,1716347965495398761,2056,2036,2056,2060,2056,2065,1197
1497,1716347965505421938,2050,2056,2034,2064,2074,2049,1197
1498,1716347965515412314,2063,2048,2057,2064,2074,2077,1193
1499,1716347965525397641,2051,2068,2052,2052,2056,2046,1194
1500,1716347965535413174,2054,2045,2073,2049,2043,2049,1194
1501,1716347965545412717,2053,2063,2069,2047,2047,2052,1198
1502,1716347965555417721,2062,2066,2057,2064,2060,2060,1195
1503,1716347965565406353,2057,2063,2050,2049,2050,2034,1193
1504,1716347965575392261,2053,2037,2077,2092,2085,2061,1197
1505,1716347965585417101,2052,2069,2053,2056,2046,2049,1196
1506,1716347965595401576,2054,2029,2057,2059,2072,2073,1195
1507,1716347965605430214,2052,2051,2040,2056,2040,2039,1194
1508,1716347965615415240,2056,2048,2087,2066,2073,2060,1195
1509,1716347965625430162,2051,2062,2040,2047,2045,2047,1197
1510,1716347965635416691,2056,2041,2056,2060,2062,2066,1197
1511,1716347965645416104,2047,2061,2038,2045,2046,2047,1194
1512,1716347965655421578,2053,2027,2047,2055,2052,2057,1196
1513,1716347965665409520,2049,2056,2041,2055,2042,2041,1192
1514,1716347965675417819,2052,2026,2045,2057,2064,2066,1196
1515,1716347965685406252,2052,2068,2043,2042,2053,2048,1196
1516,1716347965695406436,2056,2038,2064,2065,2058,2060,1198
1517,1716347965705406500,2060,2100,2049,2042,2049,2041,1192
1518,1716347965715405743,2053,2034,2051,2058,2046,2064,1193
1519,1716347965725406409,2058,2072,2061,2051,2050,2052,1195
1520,1716347965735408106,2053,2037,2052,2054,2058,2062,1197
1521,1716347965745406126,2053,2067,2046,2065,2046,2048,1195
1522,1716347965755405729,2059,2052,2072,2069,2050,2061,1196
1523,1716347965765408298,2055,2079,2039,2041,2040,2039,1193
1524,1716347965775405647,2053,2025,2056,2059,2054,2060,1196
1525,1716347965785408056,2051,2065,2046,2057,2080,2052,1197
1526,1716347965795405726,2052,2028,2056,2057,2062,2064,1196
1527,1716347965805407834,2057,2059,2031,2054,2034,2052,1196
1528,1716347965815410152,2056,2037,2060,2049,2058,2057,1196
1529,1716347965825406479,2050,2076,2047,2051,2062,2042,1194
1530,1716347965835407495,2054,2016,2049,2065,2062,2066,1198
1531,1716347965845405345,2060,2098,2056,2046,2047,2049,1197
1532,1716347965855407243,2057,2039,2066,2061,2053,2066,1196
1533,1716347965865406305,2053,2060,2045,2062,2047,2050,1195
1534,1716347965875407802,2056,2027,2066,2060,2059,2062,1199
1535,1716347965885435206,2057,2065,2049,2050,2040,2040,1195
1536,1716347965895408241,2054,2033,2065,2064,2056,2067,1195
1537,1716347965905436798,2056,2069,2051,2056,2051,2044,1193
1538,1716347965915407177,2053,2054,2063,2053,2065,2075,1196
1539,1716347965925406159,2052,2065,2042,2049,2043,2052,1195
1540,1716347965935404300,2056,2037,2070,2058,2060,2056,1195
1541,1716347965945404183,2053,2060,2051,2049,2042,2056,1196
1542,1716347965955404107,2056,2033,2067,2070,2074,2061,1195
1543,1716347965965405104,2050,2072,2052,2047,2054,2050,1194
1544,1716347965975405709,2056,2037,2063,2057,2060,2053,1194
1545,1716347965985407476,2053,2050,2036,2040,2038,2043,1193
1546,1716347965995404505,2050,2027,2062,2068,2057,2056,1195
1547,1716347966005426141,2060,2070,2075,2057,2048,2057,1196
1548,1716347966015412400,2056,2029,2040,2062,2060,2065,1197
1549,1716347966025403799,2056,2059,2057,2050,2047,2048,1196
1550,1716347966035404806,2058,2045,2059,2072,2064,2062,1195
1551,1716347966045403789,2056,2061,2028,2050,2047,2054,1197
1552,1716347966055403484,2051,2014,2051,2060,2057,2056,1196
1553,1716347966065406634,2054,2061,2045,2046,2049,2043,1194
1554,1716347966075403914,2057,2031,2072,2058,2045,2068,1193
1555,1716347966085408358,2052,2072,2048,2053,2040,2034,1195
1556,1716347966095406920,2057,2027,2052,2065,2061,2056,1195
1557,1716347966105430408,2056,2066,2043,2042,2045,2040,1195
1558,1716347966115410927,2052,2032,2060,2066,2066,2068,1193
1559,1716347966125406524,2052,2050,2047,2066,2045,2043,1192
1560,1716347966135408893,2054,2016,2061,2062,2046,2073,1194
1561,1716347966145405582,2057,2064,2047,2051,2042,2042,1193
1562,1716347966155406028,2052,2025,2065,2064,2059,2062,1193
1563,1716347966165418837,2062,2070,2056,2046,2041,2045,1192
1564,1716347966175401820,2053,2034,2100,2069,2080,2071,1196
1565,1716347966185406825,2056,2067,2052,2046,2064,2054,1197
1566,1716347966195403834,2052,2057,2064,2066,2061,2065,1193
1567,1716347966205435508,2059,2074,2050,2048,2032,2046,1193
1568,1716347966215405317,2050,2020,2072,2065,2068,2068,1196
1569,1716347966225408508,2057,2063,2049,2050,2040,2049,1197
1570,1716347966235406329,2051,2028,2062,2054,2057,2067,1195
1571,1716347966245403468,2059,2072,2077,2064,2071,2047,1194
1572,1716347966255405267,2058,2036,2105,2064,2064,2066,1198
1573,1716347966265414779,2056,2084,2046,2052,2042,2048,1197
1574,1716347966275401690,2056,2037,2076,2075,2061,2077,1197
1575,1716347966285403478,2057,2082,2048,2050,2067,2046,1196
1576,1716347966295404916,2050,2032,2065,2064,2062,2068,1196
1577,1716347966305402537,2060,2065,2055,2042,2038,2042,1194
1578,1716347966315402832,2051,2024,2060,2065,2061,2064,1194
1579,1716347966325403047,2058,2072,2045,2047,2040,2042,1193
1580,1716347966335402672,2050,2028,2033,2056,2075,2062,1197
1581,1716347966345402647,2054,2057,2052,2061,2046,2042,1194
1582,1716347966355403944,2052,2027,2063,2063,2060,2075,1197
1583,1716347966365402637,2057,2076,2053,2052,2037,2045,1194
1584,1716347966375402101,2052,2019,2044,2090,2093,2074,1197
1585,1716347966385418596,2056,2068,2025,2046,2041,2047,1193
1586,1716347966395402471,2055,2040,2100,2067,2068,2068,1196
1587,1716347966405422784,2059,2057,2049,2039,2036,2051,1197
1588,1716347966415402151,2052,2024,2068,2070,2066,2064,1197
1589,1716347966425402176,2052,2072,2040,2046,2038,2050,1198
1590,1716347966435401439,2054,2029,2077,2064,2065,2071,1197
1591,1716347966445402035,2057,2085,2035,2040,2058,2041,1196
1592,1716347966455401129,2050,2031,2068,2064,2068,2066,1197
1593,1716347966465402266,2057,2080,2045,2049,2052,2049,1196
1594,1716347966475402050,2052,2001,2058,2068,2085,2076,1196
1595,1716347966485402236,2056,2056,2041,2047,2038,2033,1193
1596,1716347966495401900,2048,2032,2060,2059,2058,2066,1197
1597,1716347966505401695,2054,2064,2058,2050,2046,2044,1194
1598,1716347966515401650,2056,2037,2096,2058,2053,2068,1194
1599,1716347966525403789,2056,2065,2048,2048,2047,2043,1190
1600,1716347966535402201,2050,2027,2047,2057,2074,2068,1196
1601,1716347966545400783,2061,2066,2033,2046,2064,2044,1192
1602,1716347966555400948,2045,2024,2062,2062,2070,2076,1194
1603,1716347966565414739,2059,2075,2047,2042,2042,2046,1195
1604,1716347966575414984,2051,2026,2064,2065,2057,2068,1196
1605,1716347966585404650,2055,2063,2042,2048,2042,2038,1195
1606,1716347966595404064,2053,2034,2059,2064,2079,2073,1197
1607,1716347966605404119,2058,2072,2040,2040,2043,2046,1193
1608,1716347966615403774,2057,2040,2064,2067,2068,2066,1197
1609,1716347966625404560,2057,2064,2052,2031,2039,2039,1192
1610,1716347966635406018,2052,2037,2080,2067,2073,2076,1195
1611,1716347966645408467,2061,2073,2053,2047,2043,2036,1194
1612,1716347966655401509,2054,2031,2057,2064,2076,2076,1197
1613,1716347966665405422,2060,2104,2056,2050,2041,2044,1194
1614,1716347966675404495,2050,2040,2066,2067,2069,2077,1196
1615,1716347966685402256,2062,2066,2040,2044,2037,2040,1193
1616,1716347966695411177,2050,2028,2057,2060,2078,2079,1194
1617,1716347966705402566,2053,2055,2026,2037,2026,2024,1193
1618,1716347966715402561,2052,2044,2088,2069,2069,2072,1194
1619,1716347966725404630,2051,2063,2034,2034,2046,2039,1194
1620,1716347966735404495,2045,2047,2072,2069,2049,2062,1197
1621,1716347966745384252,2061,2072,2032,2046,2038,2032,1192
1622,1716347966755403002,2054,2037,2062,2072,2062,2066,1195
1623,1716347966765402246,2056,2068,2037,2061,2056,2040,1192
1624,1716347966775397742,2052,2027,2061,2068,2070,2066,1197
1625,1716347966785400392,2052,2070,2033,2052,2060,2030,1192
1626,1716347966795398894,2053,2028,2068,2078,2099,2074,1197
1627,1716347966805401845,2050,2068,2038,2047,2046,2026,1192
1628,1716347966815398874,2054,2025,2083,2084,2083,2076,1197
1629,1716347966825444384,2053,2071,2045,2053,2047,2034,1192
1630,1716347966835401149,2056,2036,2060,2078,2096,2080,1195
1631,1716347966845401564,2056,2070,2035,2045,2025,2037,1193
1632,1716347966855398894,2051,2051,2064,2074,2102,2084,1196
1633,1716347966865400302,2059,2072,2046,2050,2040,2044,1193
1634,1716347966875400477,2046,2039,2068,2069,2061,2077,1194
1635,1716347966885396896,2061,2080,2038,2058,2049,2051,1196
1636,1716347966895401990,2046,2017,2059,2062,2074,2074,1196
1637,1716347966905397787,2060,2075,2034,2042,2038,2048,1198
1638,1716347966915400838,2050,2022,2066,2064,2031,2076,1194
1639,1716347966925400352,2053,2078,2044,2041,2041,2046,1193
1640,1716347966935401619,2053,2018,2067,2072,2069,2060,1196
1641,1716347966945401344,2056,2086,2063,2049,2046,2027,1189
1642,1716347966955399345,2056,2034,2057,2067,2059,2081,1197
1643,1716347966965401033,2054,2066,2050,2032,2031,2041,1191
1644,1716347966975400788,2052,2026,2053,2066,2061,2072,1195
1645,1716347966985402857,2053,2071,2052,2040,2038,2038,1194
1646,1716347966995400557,2051,2028,2084,2069,2069,2068,1193
1647,1716347967005400853,2060,2086,2088,2054,2046,2041,1194
1648,1716347967015399016,2048,2012,2059,2056,2050,2068,1195
1649,1716347967025402087,2052,2072,2040,2056,2052,2043,1194
1650,1716347967035400360,2052,2028,2077,2065,2061,2068,1194
1651,1716347967045400676,2060,2090,2053,2041,2064,2042,1192
1652,1716347967055400872,2050,2026,2077,2060,2058,2062,1197
1653,1716347967065400728,2058,2065,2047,2042,2042,2056,1195
1654,1716347967075400714,2050,2032,2072,2056,2068,2076,1196
1655,1716347967085399769,2056,2049,2026,2045,2040,2042,1194
1656,1716347967095401988,2047,2016,2072,2058,2076,2072,1195
1657,1716347967105397105,2057,2071,2033,2048,2037,2041,1192
1658,1716347967115405276,2052,2028,2066,2068,2053,2059,1194
1659,1716347967125399131,2057,2062,2051,2057,2046,2040,1194
1660,1716347967135400089,2049,2021,2074,2064,2062,2075,1195
1661,1716347967145397560,2054,2076,2044,2046,2037,2030,1193
1662,1716347967155399149,2049,2015,2061,2068,2055,2073,1197
1663,1716347967165400086,2056,2054,2036,2045,2046,2038,1195
1664,1716347967175400102,2045,2022,2056,2084,2094,2070,1197
1665,1716347967185399287,2058,2090,2056,2048,2037,2044,1192
1666,1716347967195399343,2050,2024,2080,2069,2068,2070,1196
1667,1716347967205398437,2058,2065,2042,2052,2045,2047,1192
1668,1716347967215399725,2050,2026,2064,2088,2069,2072,1197
1669,1716347967225398909,2056,2059,2028,2048,2052,2039,1195
1670,1716347967235399206,2052,2051,2072,2065,2068,2071,1197
1671,1716347967245397068,2060,2077,2046,2051,2040,2042,1196
1672,1716347967255396773,2056,2033,2104,2068,2073,2062,1195
1673,1716347967265399495,2049,2066,2033,2047,2041,2037,1193
1674,1716347967275397016,2054,2042,2075,2070,2066,2073,1195
1675,1716347967285399255,2058,2062,2040,2057,2062,2057,1195
1676,1716347967295399221,2056,2043,2074,2098,2107,2079,1195
1677,1716347967305418934,2059,2094,2062,2052,2036,2046,1191
1678,1716347967315405375,2052,2036,2084,2073,2068,2075,1192
1679,1716347967325399109,2056,2075,2042,2045,2038,2044,1193
1680,1716347967335399235,2049,2025,2081,2066,2071,2074,1192
1681,1716347967345398930,2058,2068,2048,2052,2036,2042,1192
1682,1716347967355423442,2049,2033,2071,2078,2099,2072,1196
1683,1716347967365399183,2049,2061,2044,2040,2024,2044,1194
1684,1716347967375398828,2052,2032,2085,2080,2105,2086,1195
1685,1716347967385401209,2060,2077,2062,2048,2051,2050,1197
1686,1716347967395398369,2054,2025,2065,2075,2050,2074,1194
1687,1716347967405411038,2054,2071,2067,2048,2039,2043,1194
1688,1716347967415398711,2048,2025,2066,2066,2092,2069,1194
1689,1716347967425398938,2057,2075,2056,2042,2050,2043,1193
1690,1716347967435398203,2050,2015,2068,2056,2065,2064,1196
1691,1716347967445398700,2056,2076,2037,2042,2053,2047,1193
1692,1716347967455406901,2047,2038,2064,2074,2066,2066,1195
1693,1716347967465403139,2056,2089,2047,2029,2037,2050,1197
1694,1716347967475398617,2047,2024,2065,2064,2068,2073,1194
1695,1716347967485398633,2056,2072,2048,2040,2021,2024,1193
1696,1716347967495397537,2052,2026,2068,2073,2068,2064,1195
1697,1716347967505412020,2054,2060,2029,2046,2046,2041,1193
1698,1716347967515396166,2045,2019,2081,2068,2072,2069,1193
1699,1716347967525398526,2060,2067,2044,2036,2044,2049,1194
1700,1716347967535397290,2052,2020,2050,2066,2068,2072,1195
1701,1716347967545397877,2060,2058,2038,2072,2083,2047,1189
1702,1716347967555395349,2046,2020,2058,2066,2105,2080,1195
1703,1716347967565400885,2058,2081,2073,2057,2052,2025,1192
1704,1716347967575395951,2051,2020,2063,2061,2062,2073,1192
1705,1716347967585397410,2056,2068,2038,2047,2043,2049,1196
1706,1716347967595398257,2042,2024,2069,2065,2065,2065,1196
1707,1716347967605410085,2058,2072,2047,2045,2046,2036,1192
1708,1716347967615413928,2043,2013,2051,2057,2057,2068,1197
1709,1716347967625396973,2061,2081,2045,2054,2042,2036,1192
1710,1716347967635397049,2046,2016,2074,2062,2069,2084,1197
1711,1716347967645395251,2060,2078,2042,2032,2021,2036,1193
1712,1716347967655404444,2054,2025,2057,2064,2071,2071,1196
1713,1716347967665399972,2059,2072,2049,2050,2050,2039,1191
1714,1716347967675393406,2051,2020,2061,2071,2067,2075,1196
1715,1716347967685399634,2057,2084,2039,2043,2040,2034,1193
1716,1716347967695395932,2055,2048,2090,2069,2085,2085,1195
1717,1716347967705415504,2056,2076,2037,2044,2038,2050,1195
1718,1716347967715395954,2052,2020,2066,2072,2058,2071,1193
1719,1716347967725394177,2057,2075,2043,2045,2061,2036,1193
1720,1716347967735395736,2046,2023,2067,2069,2065,2067,1195
1721,1716347967745393999,2056,2078,2040,2040,2048,2038,1194
1722,1716347967755395367,2053,2022,2084,2069,2078,2088,1196
1723,1716347967765397907,2053,2057,2044,2062,2094,2036,1193
1724,1716347967775396841,2044,2004,2060,2067,2102,2079,1194
1725,1716347967785396166,2056,2082,2045,2043,2041,2024,1192
1726,1716347967795396793,2053,2014,2072,2072,2078,2079,1197
1727,1716347967805407119,2057,2080,2035,2044,2040,2035,1192
1728,1716347967815395833,2050,2021,2072,2062,2064,2068,1197
1729,1716347967825399456,2056,2072,2031,2038,2034,2033,1194
1730,1716347967835397288,2047,2028,2068,2067,2075,2075,1194
1731,1716347967845396903,2059,2078,2040,2043,2040,2040,1194
1732,1716347967855393653,2044,2004,2056,2065,2068,2089,1194
1733,1716347967865393539,2052,2064,2027,2051,2037,2030,1194
1734,1716347967875389637,2052,2029,2077,2077,2076,2081,1196
1735,1716347967885392959,2054,2061,2035,2066,2078,2047,1194
1736,1716347967895392745,2044,2024,2064,2071,2070,2074,1195
1737,1716347967905399583,2056,2076,2052,2047,2037,2050,1196
1738,1716347967915395572,2053,2024,2061,2074,2062,2083,1193
1739,1716347967925398764,2055,2067,2039,2049,2029,2026,1192
1740,1716347967935396125,2047,2020,2053,2061,2065,2073,1195
1741,1716347967945395780,2059,2074,2054,2039,2033,2028,1193
1742,1716347967955396437,2048,2022,2065,2072,2074,2080,1194
1743,1716347967965395401,2056,2058,2038,2050,2039,2034,1192
1744,1716347967975395297,2056,2024,2076,2074,2068,2069,1196
1745,1716347967985392608,2056,2079,2054,2040,2031,2029,1192
1746,1716347967995394998,2044,2013,2045,2065,2064,2077,1197
1747,1716347968005404782,2066,2086,2036,2049,2044,2035,1193
1748,1716347968015394931,2047,2031,2058,2076,2102,2079,1195
1749,1716347968025393936,2058,2081,2050,2049,2056,2025,1193
1750,1716347968035395977,2048,2025,2066,2068,2059,2069,1195
1751,1716347968045395342,2057,2064,2045,2045,2040,2015,1193
1752,1716347968055392223,2049,2020,2064,2073,2094,2072,1195
1753,1716347968065394855,2059,2069,2059,2047,2040,2030,1193
1754,1716347968075409038,2052,2008,2051,2079,2056,2075,1197
1755,1716347968085394518,2061,2069,2037,2045,2033,2028,1195
1756,1716347968095391840,2050,2011,2068,2073,2060,2081,1197
1757,1716347968105394672,2054,2081,2049,2058,2038,2034,1194
1758,1716347968115395250,2047,2019,2068,2063,2044,2078,1195
1759,1716347968125395126,2057,2075,2039,2056,2037,2030,1193
1760,1716347968135394633,2047,2009,2060,2076,2096,2076,1197
1761,1716347968145396974,2057,2070,2035,2047,2040,2033,1193
1762,1716347968155394446,2050,2020,2052,2065,2065,2070,1197
1763,1716347968165401636,2056,2065,2036,2041,2040,2032,1192
1764,1716347968175394920,2051,2024,2064,2073,2100,2078,1197
1765,1716347968185394456,2060,2064,2032,2025,2027,2032,1193
1766,1716347968195392650,2048,2037,2070,2069,2081,2076,1196
1767,1716347968205408687,2058,2072,2040,2046,2037,2020,1193
1768,1716347968215395018,2053,2031,2064,2072,2061,2080,1196
1769,1716347968225398141,2060,2073,2051,2061,2073,2044,1193
1770,1716347968235405030,2048,2030,2066,2077,2056,2084,1194
1771,1716347968245393806,2054,2072,2020,2024,2032,2031,1192
1772,1716347968255395647,2045,2017,2036,2093,2100,2078,1195
1773,1716347968265405763,2061,2084,2043,2045,2036,2046,1194
1774,1716347968275396663,2053,2028,2072,2068,2052,2070,1194
1775,1716347968285399835,2060,2064,2044,2038,2008,2028,1194
1776,1716347968295394101,2048,2024,2090,2064,2076,2080,1196
1777,1716347968305390301,2059,2077,2030,2047,2033,2050,1194
1778,1716347968315389857,2053,2026,2047,2074,2060,2065,1194
1779,1716347968325398510,2066,2081,2033,2052,2033,2027,1194
1780,1716347968335393758,2050,2021,2068,2065,2072,2088,1197
1781,1716347968345395749,2059,2090,2032,2047,2047,2024,1194
1782,1716347968355394794,2056,2045,2138,2082,2088,2080,1194
1783,1716347968365399990,2056,2077,2052,2047,2045,2035,1194
1784,1716347968375390519,2049,2027,2081,2065,2054,2080,1197
1785,1716347968385394334,2053,2071,2044,2040,2032,2029,1193
1786,1716347968395394170,2051,2035,2071,2070,2076,2079,1195
1787,1716347968405394938,2056,2066,2041,2048,2033,2035,1191
1788,1716347968415398201,2051,2023,2068,2066,2073,2081,1196
1789,1716347968425400211,2055,2073,2044,2040,2059,2042,1192
1790,1716347968435397734,2053,2040,2083,2067,2067,2072,1197
1791,1716347968445397972,2056,2056,2040,2051,2040,2047,1195
1792,1716347968455397247,2049,2004,2040,2064,2069,2074,1197
1793,1716347968465416449,2057,2073,2033,2061,2045,2032,1193
1794,1716347968475396449,2050,2029,2069,2081,2089,2076,1195
1795,1716347968485396415,2056,2073,2043,2033,2033,2034,1193
1796,1716347968495397454,2053,2030,2068,2070,2065,2074,1195
1797,1716347968505396760,2062,2070,2054,2043,2006,2039,1194
1798,1716347968515405804,2049,2028,2080,2067,2059,2076,1193
1799,1716347968525394860,2057,2077,2044,2044,2037,2037,1192
1800,1716347968535398824,2047,2008,2073,2070,2066,2080,1196
1801,1716347968545394333,2059,2065,2040,2039,2043,2032,1192
1802,1716347968555396644,2052,2030,2088,2068,2072,2078,1197
1803,1716347968565395700,2060,2076,2036,2043,2045,2038,1194
1804,1716347968575393733,2052,2024,2066,2075,2079,2077,1197
1805,1716347968585395613,2056,2079,2032,2038,2032,2030,1192
1806,1716347968595395409,2052,2024,2073,2068,2064,2077,1194
1807,1716347968605398311,2060,2074,2037,2058,2087,2034,1193
1808,1716347968615392798,2052,2025,2064,2064,2054,2073,1196
1809,1716347968625398656,2060,2104,2050,2040,2053,2036,1194
1810,1716347968635395768,2057,2041,2077,2066,2064,2080,1196
1811,1716347968645395774,2053,2067,2040,2039,2038,2033,1192
1812,1716347968655395561,2051,2029,2082,2080,2074,2079,1194
1813,1716347968665393714,2056,2071,2034,2033,2032,2033,1192
1814,1716347968675395384,2047,2013,2064,2072,2072,2082,1196
1815,1716347968685394079,2056,2070,2044,2044,2033,2030,1193
1816,1716347968695393615,2048,2026,2093,2074,2068,2076,1196
1817,1716347968705395836,2059,2074,2032,2049,2034,2050,1194
1818,1716347968715396954,2045,2038,2070,2068,2076,2085,1193
1819,1716347968725400337,2058,2074,2043,2045,2040,2033,1192
1820,1716347968735401246,2050,2021,2078,2090,2088,2080,1194
1821,1716347968745393599,2056,2066,2032,2037,2034,2028,1193
1822,1716347968755395559,2052,2020,2053,2066,2082,2080,1196
1823,1716347968765399914,2058,2072,2038,2034,2033,2030,1194
1824,1716347968775393168,2048,2024,2060,2076,2069,2076,1195
1825,1716347968785395990,2064,2093,2074,2047,2045,2034,1194
1826,1716347968795392821,2046,2007,2065,2055,2074,2073,1197
1827,1716347968805414369,2065,2072,2048,2073,2103,2031,1192
1828,1716347968815392846,2048,2028,2069,2074,2068,2075,1197
1829,1716347968825395317,2062,2079,2043,2044,2036,2030,1194
1830,1716347968835400403,2049,2030,2071,2072,2074,2081,1196
1831,1716347968845399889,2058,2064,2040,2045,2041,2035,1193
1832,1716347968855394606,2052,2023,2064,2067,2077,2076,1196
1833,1716347968865441610,2056,2071,2034,2052,2052,2036,1196
1834,1716347968875392386,2054,2046,2084,2052,2044,2077,1194
1835,1716347968885401850,2064,2090,2043,2056,2044,2036,1193
1836,1716347968895395986,2052,2019,2061,2069,2072,2082,1194
1837,1716347968905422361,2056,2077,2057,2061,2044,2039,1194
1838,1716347968915395729,2050,2014,2061,2065,2075,2073,1195
1839,1716347968925396928,2060,2076,2024,2040,2036,2034,1194
1840,1716347968935396895,2050,2020,2062,2066,2086,2081,1196
1841,1716347968945395730,2053,2056,2042,2035,2036,2025,1193
1842,1716347968955395576,2049,2024,2078,2056,2058,2078,1196
1843,1716347968965402165,2058,2083,2047,2046,2040,2035,1193
1844,1716347968975393436,2056,2051,2080,2077,2076,2097,1196
1845,1716347968985398282,2056,2074,2047,2034,2028,2024,1194
1846,1716347968995395414,2049,2029,2078,2070,2068,2079,1196
1847,1716347969005406491,2062,2100,2078,2044,2018,2028,1193
1848,1716347969015393755,2056,2024,2068,2072,2066,2087,1195
1849,1716347969025398492,2058,2069,2037,2036,2045,2034,1194
1850,1716347969035398099,2052,2030,2072,2077,2068,2078,1196
1851,1716347969045395111,2056,2071,2037,2037,2037,2035,1192
1852,1716347969055397633,2048,2016,2058,2065,2064,2077,1197
1853,1716347969065393413,2064,2088,2036,2042,2062,2043,1193
1854,1716347969075384254,2052,2024,2068,2068,2048,2082,1196
1855,1716347969085398158,2052,2084,2047,2037,2022,2037,1192
1856,1716347969095396993,2051,2040,2056,2069,2075,2072,1196
1857,1716347969105392022,2056,2080,2047,2038,2036,2032,1194
1858,1716347969115400746,2050,2026,2060,2050,2062,2081,1194
1859,1716347969125410041,2056,2077,2068,2050,2048,2042,1192
1860,1716347969135405721,2055,2025,2064,2083,2088,2072,1196
1861,1716347969145395479,2058,2074,2047,2057,2047,2041,1193
1862,1716347969155394586,2050,2029,2073,2077,2056,2072,1196
1863,1716347969165393341,2060,2074,2041,2045,2044,2037,1192
1864,1716347969175393389,2052,2020,2065,2064,2078,2075,1197
1865,1716347969185402544,2061,2090,2064,2048,2033,2045,1193
1866,1716347969195393334,2046,2018,2056,2064,2072,2086,1195
1867,1716347969205400776,2053,2082,2066,2056,2050,2032,1192
1868,1716347969215392458,2047,2012,2037,2064,2073,2077,1196
1869,1716347969225399870,2052,2078,2031,2045,2041,2035,1193
1870,1716347969235400879,2055,2035,2088,2070,2068,2078,1196
1871,1716347969245393273,2057,2073,2042,2045,2033,2044,1194
1872,1716347969255403500,2053,2029,2073,2096,2081,2080,1196
1873,1716347969265396445,2061,2102,2057,2051,2041,2040,1192
1874,1716347969275397144,2056,2029,2070,2057,2074,2068,1196
1875,1716347969285398053,2054,2080,2042,2046,2041,2036,1193
1876,1716347969295403621,2048,2038,2064,2069,2065,2077,1196
1877,1716347969305396185,2061,2072,2009,2044,2025,2040,1192
1878,1716347969315391785,2052,2032,2064,2066,2065,2069,1195
1879,1716347969325417180,2059,2080,2040,2056,2049,2027,1192
1880,1716347969335398693,2048,2028,2066,2074,2076,2084,1197
1881,1716347969345396206,2053,2053,2036,2051,2045,2041,1190
1882,1716347969355394140,2051,2029,2054,2064,2062,2076,1196
1883,1716347969365399107,2057,2080,2060,2049,2029,2048,1196
1884,1716347969375390830,2050,2028,2059,2078,2098,2078,1195
1885,1716347969385397951,2054,2076,2048,2044,2047,2038,1193
1886,1716347969395394312,2048,2029,2057,2061,2062,2065,1195
1887,1716347969405400100,2058,2068,2049,2045,2035,2034,1192
1888,1716347969415394237,2053,2028,2072,2062,2074,2069,1194
1889,1716347969425401068,2061,2072,2047,2053,2040,2040,1194
1890,1716347969435417085,2051,2029,2056,2064,2068,2070,1197
1891,1716347969445394000,2059,2091,2101,2052,2025,2037,1194
1892,1716347969455392796,2052,2030,2063,2071,2051,2074,1197
1893,1716347969465395739,2048,2064,2037,2043,2037,2042,1193
1894,1716347969475393933,2053,2047,2074,2068,2076,2069,1196
1895,1716347969485392789,2057,2069,2043,2039,2049,2041,1194
1896,1716347969495392645,2051,2038,2066,2077,2094,2075,1195
1897,1716347969505397482,2052,2066,2048,2046,2049,2042,1192
1898,1716347969515395286,2056,2030,2066,2062,2069,2072,1194
1899,1716347969525395063,2054,2058,2044,2046,2044,2035,1192
1900,1716347969535402705,2052,2042,2082,2059,2057,2067,1193
1901,1716347969545392915,2052,2067,2062,2045,2045,2037,1190
1902,1716347969555401599,2053,2032,2049,2059,2099,2075,1194
1903,1716347969565393732,2056,2044,2047,2045,2045,2034,1191
1904,1716347969575402436,2049,2029,2084,2068,2064,2062,1197
1905,1716347969585404708,2053,2064,2049,2045,2033,2029,1193
1906,1716347969595393385,2053,2033,2060,2057,2061,2066,1195
1907,1716347969605400115,2054,2062,2065,2041,2038,2044,1192
1908,1716347969615392629,2052,2036,2064,2064,2058,2059,1197
1909,1716347969625407274,2056,2081,2053,2041,2025,2037,1194
1910,1716347969635409125,2051,2032,2062,2060,2064,2061,1196
1911,1716347969645397211,2057,2073,2046,2062,2040,2054,1196
1912,1716347969655399382,2052,2040,2065,2068,2064,2069,1197
1913,1716347969665395333,2058,2072,2052,2057,2048,2036,1192
1914,1716347969675396012,2056,2053,2084,2066,2069,2069,1197
1915,1716347969685420305,2056,2064,2042,2045,2035,2039,1193
1916,1716347969695373546,2058,2048,2065,2062,2059,2060,1195
1917,1716347969705355560,2054,2068,2053,2048,2041,2044,1193
1918,1716347969715398017,2053,2060,2080,2063,2057,2072,1196
1919,1716347969725395640,2060,2070,2042,2044,2052,2043,1190
1920,1716347969735394736,2056,2034,2069,2072,2070,2060,1192
1921,1716347969745409762,2057,2069,2049,2050,2062,2042,1191
1922,1716347969755394090,2052,2042,2092,2064,2069,2073,1195
1923,1716347969765394910,2056,2064,2036,2044,2036,2035,1192
1924,1716347969775396701,2054,2033,2073,2062,2042,2073,1197
1925,1716347969785399183,2054,2062,2042,2047,2054,2030,1192
1926,1716347969795396446,2048,2035,2061,2040,2056,2072,1195
1927,1716347969805395983,2056,2077,2045,2042,2027,2025,1192
1928,1716347969815394568,2055,2034,2069,2066,2053,2061,1195
1929,1716347969825396129,2056,2076,2041,2052,2048,2039,1193
1930,1716347969835391929,2053,2039,2068,2065,2069,2070,1195
1931,1716347969845401985,2053,2056,2041,2043,2042,2043,1192
1932,1716347969855396603,2056,2053,2059,2073,2065,2065,1194
1933,1716347969865394116,2055,2073,2034,2048,2046,2048,1195
1934,1716347969875391659,2058,2038,2073,2061,2058,2069,1194
1935,1716347969885395544,2051,2070,2043,2053,2054,2033,1194
1936,1716347969895390362,2050,2040,2060,2044,2060,2070,1196
1937,1716347969905388036,2056,2058,2036,2052,2046,2036,1195
1938,1716347969915394826,2051,2037,2067,2070,2067,2072,1193
1939,1716347969925396347,2053,2058,2042,2047,2045,2040,1194
1940,1716347969935395142,2046,2029,2064,2062,2056,2067,1196
1941,1716347969945401532,2060,2072,2060,2055,2044,2040,1193
1942,1716347969955393776,2056,2036,2063,2066,2071,2068,1196
1943,1716347969965395647,2056,2075,2046,2053,2048,2034,1193
1944,1716347969975393611,2052,2034,2060,2067,2068,2065,1195
1945,1716347969985393178,2054,2067,2037,2046,2050,2047,1193
1946,1716347969995392965,2053,2046,2060,2056,2055,2064,1195
1947,1716347970005395208,2056,2070,2045,2049,2040,2040,1193
1948,1716347970015394005,2049,2036,2066,2067,2076,2062,1197
1949,1716347970025393984,2054,2071,2056,2056,2041,2034,1195
1950,1716347970035393241,2049,2029,2067,2064,2056,2065,1195
1951,1716347970045404931,2058,2073,2044,2049,2040,2036,1192
1952,1716347970055397626,2054,2035,2067,2070,2065,2064,1196
1953,1716347970065398607,2058,2076,2045,2066,2073,2048,1194
1954,1716347970075401000,2052,2034,2069,2065,2069,2080,1196
1955,1716347970085416939,2056,2063,2044,2056,2032,2029,1192
1956,1716347970095394285,2050,2036,2058,2059,2082,2069,1196
1957,1716347970105399383,2058,2073,2046,2052,2044,2040,1192
1958,1716347970115395605,2052,2044,2070,2063,2066,2060,1194
1959,1716347970125402897,2060,2077,2045,2052,2050,2042,1192
1960,1716347970135394901,2054,2044,2059,2072,2059,2064,1195
1961,1716347970145402444,2056,2056,2043,2049,2046,2044,1193
1962,1716347970155395299,2051,2029,2082,2067,2066,2074,1195
1963,1716347970165393835,2056,2064,2041,2048,2035,2034,1191
1964,1716347970175400576,2052,2037,2060,2060,2066,2076,1195
1965,1716347970185411044,2059,2091,2107,2063,2045,2040,1192
1966,1716347970195392629,2046,2028,2065,2059,2062,2073,1195
1967,1716347970205399309,2060,2053,2043,2046,2037,2030,1193
1968,1716347970215394399,2051,2028,2064,2063,2064,2061,1196
1969,1716347970225402563,2052,2059,2024,2038,2038,2037,1194
1970,1716347970235409946,2052,2034,2062,2066,2065,2065,1197
1971,1716347970245409814,2058,2066,2035,2045,2034,2038,1192
1972,1716347970255394855,2056,2041,2033,2061,2069,2065,1198
1973,1716347970265397078,2054,2065,2031,2041,2041,2028,1195
1974,1716347970275396846,2058,2057,2145,2077,2072,2067,1197
1975,1716347970285406873,2053,2063,2038,2046,2036,2036,1194
1976,1716347970295394820,2051,2032,2062,2066,2066,2070,1196
1977,1716347970305412251,2057,2082,2076,2040,2044,2042,1194
1978,1716347970315392874,2048,2017,2049,2060,2064,2068,1194
1979,1716347970325398723,2056,2057,2026,2047,2036,2038,1191
1980,1716347970335394804,2050,2037,2059,2064,2065,2064,1193
1981,1716347970345394182,2057,2069,2032,2046,2041,2041,1193
1982,1716347970355398920,2057,2039,2064,2064,2072,2076,1196
1983,1716347970365396675,2064,2074,2033,2044,2044,2034,1191
1984,1716347970375394058,2053,2047,2091,2067,2067,2066,1195
1985,1716347970385396301,2057,2079,2083,2052,2042,2034,1192
1986,1716347970395395268,2056,2039,2062,2061,2064,2066,1194
1987,1716347970405406117,2057,2077,2061,2048,2048,2037,1193
1988,1716347970415396007,2052,2038,2048,2068,2070,2069,1195
1989,1716347970425396155,2059,2071,2013,2047,2049,2036,1193
1990,1716347970435391635,2051,2024,2037,2061,2071,2065,1197
1991,1716347970445393768,2056,2059,2026,2045,2036,2036,1193
1992,1716347970455396282,2050,2021,2043,2068,2069,2072,1197
1993,1716347970465393195,2054,2075,2025,2048,2049,2045,1192
1994,1716347970475393133,2056,2041,2065,2066,2062,2060,1195
1995,1716347970485408670,2061,2092,2050,2059,2053,2037,1192
1996,1716347970495396026,2053,2036,2060,2064,2068,2072,1196
1997,1716347970505403729,2058,2085,2080,2055,2044,2038,1193
1998,1716347970515398398,2053,2027,2036,2062,2064,2064,1195
1999,1716347970525401242,2044,2043,1952,2016,2033,2041,1193
2000,1716347970535410157,2066,2094,2174,2069,2069,2069,1196
2001,1716347970545397382,2055,2065,2047,2045,2042,2025,1192
2002,1716347970555393824,2057,2032,2078,2085,2072,2074,1196
2003,1716347970565395095,2056,2051,1956,2028,2037,2037,1192
2004,1716347970575392940,2052,2033,2024,2056,2065,2068,1195
2005,1716347970585405192,2053,2064,2032,2036,2040,2032,1192
2006,1716347970595396524,2055,2045,2081,2053,2078,2074,1194
2007,1716347970605401381,2060,2064,2047,2043,2044,2028,1192
2008,1716347970615395209,2050,2035,2061,2064,2058,2065,1194
2009,1716347970625399045,2062,2076,2062,2043,2034,2038,1193
2010,1716347970635402530,2056,2033,2047,2068,2069,2062,1195
2011,1716347970645397248,2056,2069,2019,2061,2061,2042,1192
2012,1716347970655394512,2046,2026,2047,2032,2034,2060,1195
2013,1716347970665397566,2059,2077,2047,2058,2037,2039,1192
2014,1716347970675394219,2053,2029,2053,2037,2006,2056,1195
2015,1716347970685402323,2056,2073,2037,2064,2023,2047,1193
2016,1716347970695394968,2055,2037,2069,2059,2024,2062,1195
2017,1716347970705400236,2061,2075,2065,2045,2017,2034,1193
2018,1716347970715394805,2046,2028,2053,2056,2075,2068,1194
2019,1716347970725398220,2056,2080,2072,2029,2056,2030,1193
2020,1716347970735397147,2052,2032,2068,2062,2098,2080,1193
2021,1716347970745394571,2060,2080,2042,2047,2019,2028,1192
2022,1716347970755394289,2050,2041,2067,2056,2082,2053,1196
2023,1716347970765432769,2060,2075,2055,2045,2042,2038,1195
2024,1716347970775433128,2054,2034,2058,2054,2032,2068,1196
2025,1716347970785433908,2061,2074,2046,2033,2036,2033,1193
2026,1716347970795432755,2049,2042,2048,2065,2061,2062,1196
2027,1716347970805430971,2062,2077,2022,2057,2071,2037,1194
2028,1716347970815428204,2051,2040,2052,2090,2092,2078,1196
2029,1716347970825427381,2062,2078,2040,2044,2042,2048,1198
2030,1716347970835436927,2056,2034,2059,2071,2048,2070,1198
2031,1716347970845425956,2058,2081,2085,2044,2048,2035,1194
2032,1716347970855425684,2052,2042,2084,2061,2064,2069,1195
2033,1716347970865424972,2056,2069,2043,2044,2056,2021,1193
2034,1716347970875421824,2052,2041,2061,2053,2044,2066,1198
2035,1716347970885424748,2053,2038,2033,2043,2044,2036,1196
2036,1716347970895420078,2050,2034,2046,2058,2068,2070,1197
2037,1716347970905423684,2057,2076,2054,2046,2036,2046,1193
2038,1716347970915419375,2057,2053,2125,2074,2052,2068,1194
2039,1716347970925417930,2059,2072,2042,2040,2017,2021,1192
2040,1716347970935425553,2049,2040,2055,2065,2098,2070,1196
2041,1716347970945419080,2062,2078,2059,2043,2046,2036,1193
2042,1716347970955415482,2054,2034,2070,2052,2048,2078,1195
2043,1716347970965414419,2056,2069,2032,2052,2019,2028,1193
2044,1716347970975413035,2050,2032,2048,2048,2050,2067,1197
2045,1716347970985412402,2062,2077,2050,2031,1967,2030,1193
2046,1716347970995411840,2053,2031,2056,2052,2041,2074,1193
2047,1716347971005410907,2062,2075,2042,2046,2043,2034,1193
2048,1716347971015408602,2055,2036,2084,2068,2053,2058,1197
2049,1716347971025410315,2060,2066,2033,2041,2018,2042,1195
2050,1716347971035407009,2053,2032,2054,2058,2046,2062,1196
2051,1716347971045406778,2057,2075,2053,2033,2010,2024,1192
2052,1716347971055404374,2050,2029,2052,2052,2060,2074,1195
2053,1716347971065404874,2054,2074,2037,2060,2025,2044,1196
2054,1716347971075407017,2056,2045,2060,2084,2096,2076,1197
2055,1716347971085408550,2058,2071,2032,2051,2072,2035,1196
2056,1716347971095403750,2056,2052,2064,2053,2069,2072,1197
2057,1716347971105404271,2056,2078,2044,2045,2046,2029,1194
2058,1716347971115404872,2050,2035,2048,2058,2056,2065,1192
2059,1716347971125404902,2058,2072,2028,2049,2058,2040,1192
2060,1716347971135408268,2059,2051,2073,2061,2036,2056,1197
2061,1716347971145408978,2056,2071,2036,2052,2046,2042,1193
2062,1716347971155405501,2053,2012,2056,2068,2076,2064,1195
2063,1716347971165403036,2056,2063,2042,2033,2026,2037,1192
2064,1716347971175402615,2050,2037,2055,2056,2053,2058,1196
2065,1716347971185412383,2062,2069,2052,2051,2024,2031,1195
2066,1716347971195404178,2059,2037,2061,2078,2061,2064,1197
2067,1716347971205408916,2056,2082,2074,2050,2028,2037,1196
2068,1716347971215402694,2057,2037,2055,2059,2041,2072,1198
2069,1716347971225407442,2064,2064,2030,2038,2029,2032,1194
2070,1716347971235405248,2053,2032,2040,2049,2065,2062,1199
2071,1716347971245408714,2058,2073,2030,2032,2005,2026,1195
2072,1716347971255404906,2051,2042,2061,2046,2051,2057,1197
2073,1716347971265404806,2058,2076,2048,2057,2049,2036,1194
2074,1716347971275404114,2056,2057,2062,2058,2064,2065,1199
2075,1716347971285413882,2055,2060,2053,2038,2044,2039,1193
2076,1716347971295408361,2053,2028,2051,2056,2046,2058,1198
2077,1716347971305405355,2057,2074,2043,2046,2053,2054,1195
2078,1716347971315408761,2052,2051,2056,2076,2094,2068,1195
2079,1716347971325421224,2053,2064,2035,2050,2044,2032,1194
2080,1716347971335405395,2054,2038,2053,2050,2028,2065,1196
2081,1716347971345405304,2053,2070,2034,2062,2089,2045,1194
2082,1716347971355404472,2055,2028,2055,2060,2046,2076,1197
2083,1716347971365403069,2063,2073,2045,2037,2054,2050,1198
2084,1716347971375404461,2052,2028,2064,2064,2060,2073,1197
2085,1716347971385411814,2052,2076,2045,2058,2044,2047,1193
2086,1716347971395404711,2054,2039,2066,2058,2074,2065,1198
2087,1716347971405404681,2056,2064,2044,2051,2049,2021,1192
2088,1716347971415404259,2054,2035,2064,2077,2109,2072,1195
2089,1716347971425404910,2054,2064,2041,2037,2014,2040,1193
2090,1716347971435454371,2056,2056,2095,2068,2073,2071,1196
2091,1716347971445407554,2059,2082,2045,2039,2012,2032,1194
2092,1716347971455438251,2056,2033,2062,2052,2073,2069,1197
2093,1716347971465404418,2061,2084,2053,2066,2059,2046,1193
2094,1716347971475436407,2052,2042,2056,2053,2064,2059,1198
2095,1716347971485428241,2061,2080,2059,2033,2010,2038,1194
2096,1716347971495429814,2056,2058,2064,2062,2041,2072,1198
2097,1716347971505432608,2058,2073,2046,2048,2070,2028,1195
2098,1716347971515430213,2058,2058,2086,2105,2168,2076,1195
2099,1716347971525429541,2055,2070,2040,2046,2037,2036,1190
2100,1716347971535428028,2065,2046,2067,2062,2080,2081,1195
2101,1716347971545429301,2053,2072,2068,2043,2006,2022,1192
2102,1716347971555430152,2055,2036,2058,2068,2056,2066,1196
2103,1716347971565413691,2057,2073,2040,2041,2036,2032,1194
2104,1716347971575401317,2051,2043,2050,2084,2091,2074,1195
2105,1716347971585430351,2056,2051,2039,2042,2045,2028,1194
2106,1716347971595428808,2051,2027,2044,2060,2049,2058,1195
2107,1716347971605429719,2056,2067,2037,2038,2038,2041,1193
2108,1716347971615429569,2053,2048,2073,2075,2052,2068,1196
2109,1716347971625429368,2056,2073,2032,2033,2026,2029,1193
2110,1716347971635429047,2060,2052,2080,2065,2031,2048,1194
2111,1716347971645428986,2054,2074,2052,2044,2030,2032,1192
2112,1716347971655429156,2054,2052,2055,2060,2056,2068,1197
2113,1716347971665411913,2056,2093,2044,2053,2054,2036,1194
2114,1716347971675434114,2056,2057,2060,2049,2064,2061,1196
2115,1716347971685412965,2056,2074,2035,2042,2043,2034,1194
2116,1716347971695411652,2056,2040,2060,2062,2085,2072,1196
2117,1716347971705411942,2053,2061,2033,2056,2046,2032,1193
2118,1716347971715411942,2057,2050,2089,2066,2035,2061,1194
2119,1716347971725411741,2052,2096,2041,2045,2048,2044,1192
2120,1716347971735411059,2060,2045,2068,2063,2057,2060,1200
2121,1716347971745411530,2054,2069,2037,2027,2057,2053,1194
2122,1716347971755411891,2060,2047,2108,2081,2089,2067,1195
2123,1716347971765411830,2059,2064,2040,2037,2037,2034,1193
2124,1716347971775435784,2056,2025,2060,2067,2057,2069,1194
2125,1716347971785413642,2058,2069,2040,2048,2052,2045,1194
2126,1716347971795411468,2057,2064,2064,2085,2027,2079,1194
2127,1716347971805410786,2056,2070,2038,2034,2038,2028,1194
2128,1716347971815411507,2049,2034,2058,2064,2061,2060,1194
2129,1716347971825398303,2062,2075,2048,2051,2034,2042,1195
2130,1716347971835398683,2052,2034,2060,2058,2056,2061,1196
2131,1716347971845395937,2060,2077,2084,2020,2020,2028,1193
2132,1716347971855404513,2053,2025,2089,2053,2064,2053,1196
2133,1716347971865396658,2053,2065,2033,2036,2034,2031,1194
2134,1716347971875439256,2050,2037,2068,2061,2068,2063,1197
2135,1716347971885394363,2060,2078,2050,2042,2032,2033,1193
2136,1716347971895399933,2056,2038,2073,2058,2056,2067,1196
2137,1716347971905432613,2053,2077,2043,2045,2040,2038,1193
2138,1716347971915394201,2053,2061,2074,2050,2042,2065,1195
2139,1716347971925403017,2064,2075,2046,2037,2061,2034,1193
2140,1716347971935430027,2050,2040,2068,2062,2061,2066,1196
2141,1716347971945430607,2057,2078,2035,2069,2070,2040,1192
2142,1716347971955397376,2056,2037,2060,2050,2032,2062,1194
2143,1716347971965396814,2058,2077,2050,2053,2060,2036,1195
2144,1716347971975438652,2050,2036,2065,2052,2050,2054,1195
2145,1716347971985428582,2058,2069,2044,2047,2056,2045,1193
2146,1716347971995424945,2056,2029,2069,2062,2129,2068,1195
2147,1716347972005393015,2056,2058,2039,2045,2049,2040,1194
2148,1716347972015427620,2056,2044,2062,2061,2058,2066,1197
2149,1716347972025391484,2057,2065,2046,2047,2053,2020,1194
2150,1716347972035425558,2058,2047,2079,2069,2065,2072,1195
2151,1716347972045425358,2059,2084,2057,2049,2032,2037,1193
2152,1716347972055393179,2057,2042,2061,2068,2044,2072,1196
2153,1716347972065395413,2056,2053,2037,2041,2036,2041,1195
2154,1716347972075414349,2052,2031,2064,2053,2068,2069,1196
2155,1716347972085424559,2054,2070,2036,2049,2054,2037,1192
2156,1716347972095406946,2055,2036,2056,2064,2056,2061,1197
2157,1716347972105394584,2063,2090,2080,2057,2035,2037,1191
2158,1716347972115392481,2058,2052,2064,2062,2059,2068,1193
2159,1716347972125394094,2059,2079,2054,2041,2040,2038,1194
2160,1716347972135405656,2058,2060,2129,2062,2069,2071,1196
2161,1716347972145401479,2057,2081,2036,2044,2028,2038,1195
2162,1716347972155394116,2052,2036,2072,2064,2073,2068,1196
2163,1716347972165391562,2057,2072,2034,2024,2038,2024,1193
2164,1716347972175417150,2060,2048,2090,2072,2053,2069,1196
2165,1716347972185400129,2059,2071,2040,2043,2022,2040,1192
2166,1716347972195396232,2053,2031,2058,2061,2070,2060,1197
2167,1716347972205399739,2060,2101,2036,2058,2056,2039,1194
2168,1716347972215398007,2058,2047,2062,2075,2072,2057,1196
2169,1716347972225391816,2056,2073,2041,2065,2039,2042,1195
2170,1716347972235391446,2052,2041,2059,2051,2057,2065,1197
2171,1716347972245396424,2058,2070,2033,2049,2037,2042,1192
2172,1716347972255396475,2054,2052,2077,2058,2025,2065,1197
2173,1716347972265392749,2063,2096,2083,2050,2040,2039,1193
2174,1716347972275406855,2056,2031,2053,2052,2047,2053,1197
2175,1716347972285396036,2058,2073,2041,2037,2031,2033,1193
2176,1716347972295399693,2051,2036,2064,2055,2049,2064,1197
2177,1716347972305394374,2064,2076,2044,2026,2037,2031,1194
2178,1716347972315395687,2057,2042,2062,2090,2116,2072,1194
2179,1716347972325391740,2061,2090,2025,2038,2026,2033,1195
2180,1716347972335399085,2052,2042,2060,2054,2073,2059,1196
2181,1716347972345395068,2056,2081,2048,2051,2047,2037,1193
2182,1716347972355396371,2049,2037,2074,2072,2068,2065,1196
2183,1716347972365396642,2058,2078,2034,2045,2072,2041,1194
2184,1716347972375394037,2052,2047,2106,2067,2067,2065,1197
2185,1716347972385394058,2060,2082,2042,2048,2037,2042,1192
2186,1716347972395393337,2057,2080,2077,2074,2072,2069,1197
2187,1716347972405396524,2062,2076,2047,2057,2064,2034,1193
2188,1716347972415394010,2054,2040,2060,2043,2033,2062,1194
2189,1716347972425393910,2061,2078,2046,2036,2040,2035,1195
2190,1716347972435394802,2053,2042,2086,2052,2048,2063,1197
2191,1716347972445395023,2057,2076,2036,2043,2045,2045,1194
2192,1716347972455393110,2054,2066,2077,2062,2065,2079,1195
2193,1716347972465393261,2059,2071,2040,2045,2028,2040,1192
2194,1716347972475391368,2054,2046,2078,2058,2063,2070,1198
2195,1716347972485394074,2056,2077,2047,2050,2035,2045,1192
2196,1716347972495392592,2051,2040,2088,2048,2053,2057,1196
2197,1716347972505392933,2062,2084,2051,2030,2044,2037,1194
2198,1716347972515392402,2047,2021,2058,2085,2058,2068,1194
2199,1716347972525391962,2056,2082,2034,2042,2037,2033,1192
2200,1716347972535392433,2051,2021,2060,2067,2083,2065,1193
2201,1716347972545401019,2062,2079,2043,2046,2036,2024,1192
2202,1716347972555393516,2056,2046,2084,2064,2053,2061,1196
2203,1716347972565393005,2061,2088,2044,2045,2048,2032,1194
2204,1716347972575392846,2053,2064,2074,2061,2085,2078,1198
2205,1716347972585392245,2061,2084,2038,2060,2053,2025,1192
2206,1716347972595429835,2054,2036,2072,2056,2068,2063,1197
2207,1716347972605395653,2061,2077,2042,2047,2044,2028,1195
2208,1716347972615387668,2050,2014,2056,2072,2051,2065,1195
2209,1716347972625392588,2068,2080,2029,2047,2058,2049,1198
2210,1716347972635391577,2046,2010,2059,2064,2056,2065,1196
2211,1716347972645437052,2059,2061,2061,2047,2025,2038,1193
2212,1716347972655392379,2054,2033,2072,2056,2033,2051,1197
