seq,time,data[0],data[1],data[2],data[3],data[4],data[5],data[6]
201,1716347322958791539,2058,2066,2047,2052,2052,2053,1197
202,1716347322968799444,2055,2042,2052,2056,2053,2054,1195
203,1716347322978781760,2058,2056,2044,2070,2072,2056,1194
204,1716347322988743024,2053,2056,2071,2058,2056,2056,1195
205,1716347322998784453,2056,2061,2062,2056,2053,2057,1195
206,1716347323008743805,2055,2048,2042,2048,2045,2048,1197
207,1716347323018786416,2061,2053,2061,2050,2051,2054,1197
208,1716347323028742561,2052,2024,2039,2053,2046,2051,1195
209,1716347323038785193,2053,2037,2040,2060,2050,2053,1196
210,1716347323048741819,2053,2053,2057,2052,2052,2052,1195
211,1716347323058785813,2056,2052,2048,2047,2033,2049,1196
212,1716347323068742479,2056,2047,2052,2060,2034,2049,1196
213,1716347323078784920,2053,2052,2045,2049,2047,2049,1198
214,1716347323088741617,2056,2053,2047,2056,2055,2053,1196
215,1716347323098786231,2056,2051,2053,2045,2052,2053,1196
216,1716347323108742236,2062,2088,2072,2056,2050,2050,1195
217,1716347323118792703,2062,2052,2051,2052,2051,2052,1196
218,1716347323128742345,2055,2054,2053,2056,2052,2053,1197
219,1716347323138786871,2056,2064,2089,2051,2064,2054,1197
220,1716347323148742775,2054,2050,2062,2057,2052,2054,1195
221,1716347323158784926,2054,2039,2046,2066,2052,2051,1195
222,1716347323168742905,2050,2063,2047,2056,2054,2047,1192
223,1716347323178786828,2057,2052,2026,2046,2043,2056,1195
224,1716347323188743655,2053,2048,2047,2052,2042,2052,1195
225,1716347323198784944,2053,2062,2056,2050,2042,2044,1194
226,1716347323208741780,2050,2056,2072,2054,2045,2051,1197
227,1716347323218785464,2056,2066,2056,2056,2054,2054,1193
228,1716347323228743112,2054,2070,2064,2061,2063,2053,1195
229,1716347323238784811,2057,2052,2054,2054,2045,2056,1196
230,1716347323248746287,2050,2034,2054,2046,2054,2052,1196
231,1716347323258787866,2059,2062,2083,2057,2056,2056,1197
232,1716347323268745083,2056,2056,2054,2052,2044,2051,1196
233,1716347323278785240,2052,2048,2054,2056,2048,2052,1196
234,1716347323288744761,2053,2049,2046,2057,2059,2052,1196
235,1716347323298787333,2051,2057,2054,2053,2056,2052,1196
236,1716347323308742887,2057,2056,2065,2058,2050,2061,1197
237,1716347323318786069,2052,2048,2050,2051,2052,2053,1196
238,1716347323328791860,2056,2036,2035,2047,2052,2051,1197
239,1716347323338784325,2055,2056,2062,2056,2054,2053,1197
240,1716347323348742514,2059,2054,2055,2056,2067,2056,1198
241,1716347323358783452,2056,2060,2083,2064,2072,2056,1197
242,1716347323368742574,2053,2047,2056,2056,2052,2056,1198
243,1716347323378784262,2058,2072,2055,2052,2054,2056,1195
244,1716347323388741931,2058,2052,2049,2056,2056,2054,1195
245,1716347323398788289,2056,2056,2047,2069,2074,2054,1197
246,1716347323408742801,2056,2051,2064,2059,2053,2054,1196
247,1716347323418786856,2066,2047,2056,2056,2054,2053,1195
248,1716347323428743872,2052,2042,2047,2058,2052,2051,1196
249,1716347323438786193,2061,2065,2063,2055,2050,2055,1196
250,1716347323448807574,2054,2066,2056,2052,2048,2055,1196
251,1716347323458788095,2059,2057,2054,2053,2053,2055,1195
252,1716347323468742638,2051,2046,2065,2068,2056,2058,1197
253,1716347323478787924,2060,2066,2097,2063,2058,2053,1199
254,1716347323488742606,2053,2043,2047,2056,2052,2053,1196
255,1716347323498788955,2056,2066,2073,2060,2049,2053,1200
256,1716347323508741503,2055,2064,2064,2056,2047,2053,1195
257,1716347323518793643,2057,2067,2058,2072,2058,2049,1196
258,1716347323528807570,2055,2042,2051,2053,2053,2048,1196
259,1716347323538791568,2057,2057,2047,2050,2047,2056,1197
260,1716347323548799262,2052,2048,2059,2055,2061,2054,1197
261,1716347323558793130,2058,2075,2084,2065,2072,2057,1197
262,1716347323568796796,2056,2052,2052,2053,2046,2050,1196
263,1716347323578795073,2060,2064,2073,2058,2047,2056,1196
264,1716347323588796966,2052,2049,2056,2057,2054,2053,1196
265,1716347323598795602,2062,2039,2048,2056,2059,2056,1196
266,1716347323608800271,2050,2049,2089,2058,2056,2060,1194
267,1716347323618796694,2057,2072,2081,2062,2058,2052,1196
268,1716347323628802815,2054,2050,2066,2069,2075,2058,1196
269,1716347323638801292,2058,2073,2074,2056,2056,2055,1197
270,1716347323648796221,2052,2042,2050,2052,2050,2053,1197
271,1716347323658801020,2056,2053,2051,2053,2052,2058,1196
272,1716347323668796070,2052,2048,2065,2056,2056,2054,1198
273,1716347323678783905,2057,2056,2052,2056,2053,2052,1196
274,1716347323688795638,2053,2048,2057,2053,2040,2056,1196
275,1716347323698784897,2059,2064,2053,2052,2046,2054,1196
276,1716347323708742104,2046,2048,2078,2057,2050,2050,1197
277,1716347323718785787,2055,2054,2061,2057,2046,2052,1196
278,1716347323728742733,2055,2043,2069,2056,2052,2048,1196
279,1716347323738786537,2057,2060,2050,2058,2060,2056,1197
280,1716347323748742603,2050,2050,2057,2060,2068,2050,1198
281,1716347323758784212,2058,2060,2076,2051,2054,2057,1196
282,1716347323768742020,2052,2060,2073,2057,2044,2053,1196
283,1716347323778784382,2062,2061,2046,2049,2053,2054,1195
284,1716347323788742470,2049,2020,2049,2058,2052,2056,1197
285,1716347323798783278,2059,2050,2056,2053,2041,2053,1195
286,1716347323808742289,2051,2045,2047,2056,2053,2051,1196
287,1716347323818793997,2053,2045,2052,2053,2050,2051,1196
288,1716347323828742258,2058,2057,2088,2056,2057,2053,1195
289,1716347323838786582,2054,2045,2043,2053,2053,2053,1194
290,1716347323848795699,2056,2063,2070,2074,2081,2057,1197
291,1716347323858783536,2058,2054,2059,2052,2054,2052,1198
292,1716347323868741944,2052,2048,2056,2054,2047,2053,1196
293,1716347323878786259,2058,2056,2047,2056,2051,2048,1195
294,1716347323888741684,2061,2058,2088,2057,2058,2058,1195
295,1716347323898783172,2060,2060,2092,2076,2067,2056,1196
296,1716347323908807639,2053,2046,2042,2053,2046,2050,1196
297,1716347323918785977,2061,2061,2075,2056,2054,2054,1195
298,1716347323928742472,2053,2050,2047,2055,2052,2052,1197
299,1716347323938785916,2056,2047,2050,2060,2061,2058,1197
300,1716347323948741901,2057,2046,2064,2058,2050,2053,1198
301,1716347323958786686,2054,2048,2066,2056,2060,2055,1196
302,1716347323968742972,2056,2053,2052,2047,2047,2051,1197
303,1716347323978787867,2057,2058,2054,2056,2060,2056,1196
304,1716347323988741628,2058,2051,2044,2054,2041,2052,1196
305,1716347323998786524,2054,2047,2053,2049,2049,2052,1194
306,1716347324008811360,2063,2081,2162,2059,2057,2056,1196
307,1716347324018787194,2050,2025,2028,2047,2056,2052,1196
308,1716347324028742608,2054,2061,2088,2059,2049,2049,1195
309,1716347324038786190,2053,2054,2066,2065,2085,2060,1196
310,1716347324048741314,2052,2046,2041,2050,2054,2049,1196
311,1716347324058782613,2057,2050,2034,2042,2051,2057,1197
312,1716347324068742535,2052,2046,2025,2052,2052,2051,1195
313,1716347324078783564,2060,2069,2059,2060,2057,2053,1195
314,1716347324088742304,2057,2070,2061,2057,2055,2054,1198
315,1716347324098784324,2057,2055,2045,2059,2054,2050,1195
316,1716347324108803350,2054,2049,2047,2045,2046,2053,1196
317,1716347324118784324,2058,2047,2040,2061,2045,2052,1197
318,1716347324128743093,2053,2056,2080,2070,2073,2058,1197
319,1716347324138784292,2061,2075,2061,2062,2056,2052,1199
320,1716347324148741159,2050,2025,2048,2053,2058,2055,1198
321,1716347324158783269,2054,2044,2049,2067,2081,2059,1193
322,1716347324168815280,2052,2045,2052,2052,2045,2056,1193
323,1716347324178790623,2054,2041,2028,2050,2045,2051,1196
324,1716347324188824227,2057,2055,2083,2060,2052,2060,1198
325,1716347324198786894,2052,2046,2056,2060,2052,2053,1197
326,1716347324208743160,2054,2058,2037,2074,2067,2058,1194
327,1716347324218784108,2050,2036,2017,2051,2061,2056,1196
328,1716347324228742046,2065,2081,2187,2081,2073,2058,1198
329,1716347324238783085,2053,2054,2037,2048,2050,2052,1196
330,1716347324248742858,2047,2042,2052,2056,2052,2053,1195
331,1716347324258790308,2054,2049,2044,2056,2052,2053,1197
332,1716347324268742115,2060,2069,2053,2064,2049,2056,1194
333,1716347324278788002,2056,2064,2041,2054,2039,2046,1195
334,1716347324288742053,2055,2065,2056,2056,2060,2052,1197
335,1716347324298783904,2060,2066,2048,2044,2059,2050,1197
336,1716347324308741632,2053,2050,2068,2047,2058,2056,1196
337,1716347324318787449,2058,2058,2048,2052,2056,2052,1196
338,1716347324328741932,2050,2044,2056,2052,2045,2052,1198
339,1716347324338788962,2058,2058,2067,2056,2048,2057,1198
340,1716347324348741940,2056,2052,2052,2058,2056,2056,1197
341,1716347324358789612,2059,2078,2056,2053,2055,2056,1196
342,1716347324368741950,2060,2051,2060,2063,2052,2052,1197
343,1716347324378789040,2065,2065,2058,2048,2054,2053,1194
344,1716347324388741458,2056,2049,2074,2052,2042,2056,1195
345,1716347324398790201,2056,2051,2024,2047,2050,2049,1197
346,1716347324408742488,2064,2054,2045,2056,2059,2057,1196
347,1716347324418794197,2050,2042,2032,2056,2052,2056,1195
348,1716347324428792634,2052,2061,2064,2058,2053,2047,1194
349,1716347324438793345,2064,2061,2080,2044,2054,2053,1196
350,1716347324448742096,2052,2041,2046,2064,2057,2057,1196
351,1716347324458795047,2057,2059,2040,2052,2040,2052,1196
352,1716347324468802110,2054,2043,2046,2058,2051,2052,1196
353,1716347324478795727,2060,2052,2041,2056,2052,2056,1200
354,1716347324488741433,2049,2037,2043,2059,2072,2056,1198
355,1716347324498786749,2058,2060,2049,2053,2046,2056,1196
356,1716347324508742373,2047,2042,2043,2053,2050,2046,1194
357,1716347324518795445,2061,2060,2079,2064,2070,2052,1194
358,1716347324528742273,2056,2041,2041,2052,2047,2054,1196
359,1716347324538784282,2059,2060,2058,2041,2044,2052,1197
360,1716347324548742261,2052,2049,2056,2061,2059,2056,1195
361,1716347324558783971,2056,2056,2056,2046,2054,2050,1193
362,1716347324568805672,2053,2045,2055,2052,2048,2052,1196
363,1716347324578786856,2058,2088,2072,2052,2049,2050,1194
364,1716347324588812645,2062,2054,2057,2064,2085,2059,1195
365,1716347324598786293,2053,2054,2056,2054,2053,2052,1196
366,1716347324608741477,2047,2037,2042,2051,2056,2056,1197
367,1716347324618792966,2058,2065,2056,2057,2044,2053,1197
368,1716347324628742998,2052,2049,2051,2048,2037,2054,1197
369,1716347324638786702,2061,2063,2106,2041,2037,2051,1194
370,1716347324648742958,2052,2040,2055,2045,2041,2048,1194
371,1716347324658788043,2062,2061,2047,2058,2056,2054,1197
372,1716347324668743778,2052,2046,2052,2054,2053,2056,1196
373,1716347324678785829,2059,2066,2057,2054,2051,2053,1196
374,1716347324688744218,2062,2079,2124,2073,2066,2057,1198
375,1716347324698817298,2056,2056,2043,2040,2041,2048,1193
376,1716347324708743426,2054,2044,2039,2060,2056,2056,1196
377,1716347324718785917,2069,2092,2049,2058,2058,2054,1197
378,1716347324728747422,2053,2039,2039,2049,2058,2054,1197
379,1716347324738783742,2058,2068,2064,2058,2055,2056,1198
380,1716347324748741399,2050,2049,2072,2061,2053,2052,1197
381,1716347324758808177,2060,2060,2080,2060,2056,2052,1195
382,1716347324768743263,2054,2045,2053,2054,2046,2053,1196
383,1716347324778785333,2056,2058,2076,2052,2048,2051,1193
384,1716347324788741558,2056,2052,2064,2056,2050,2053,1195
385,1716347324798786685,2056,2061,2061,2054,2048,2052,1195
386,1716347324808806382,2064,2071,2061,2050,2064,2061,1197
387,1716347324818785942,2059,2052,2023,2052,2052,2054,1196
388,1716347324828751686,2057,2048,2036,2061,2054,2052,1197
389,1716347324838788105,2061,2058,2053,2054,2053,2056,1195
390,1716347324848817711,2060,2064,2058,2059,2052,2056,1196
391,1716347324858791290,2056,2056,2047,2050,2046,2056,1193
392,1716347324868744721,2049,2038,2044,2057,2046,2050,1196
393,1716347324878785368,2058,2056,2050,2059,2056,2052,1197
394,1716347324888797922,2058,2056,2040,2058,2051,2053,1195
395,1716347324898794274,2057,2052,2041,2053,2057,2056,1194
396,1716347324908742173,2050,2045,2056,2057,2066,2051,1197
397,1716347324918785877,2059,2054,2046,2059,2060,2052,1195
398,1716347324928742513,2056,2052,2047,2042,2049,2053,1197
399,1716347324938783361,2059,2064,2051,2059,2049,2056,1195
400,1716347324948741430,2060,2053,2039,2056,2054,2050,1198
401,1716347324958787268,2056,2058,2064,2064,2059,2059,1197
402,1716347324968743042,2053,2074,2057,2056,2052,2056,1196
403,1716347324978784491,2059,2057,2050,2052,2049,2052,1192
404,1716347324988743492,2055,2054,2051,2056,2057,2053,1196
405,1716347324998785402,2057,2056,2048,2054,2053,2056,1197
406,1716347325008743050,2050,2051,2052,2050,2054,2056,1193
407,1716347325018786353,2050,2052,2040,2060,2056,2052,1198
408,1716347325028743690,2052,2044,2033,2050,2045,2051,1197
409,1716347325038785210,2058,2061,2073,2051,2043,2047,1193
410,1716347325048741756,2059,2047,2056,2059,2048,2056,1197
411,1716347325058786772,2060,2062,2045,2054,2040,2047,1194
412,1716347325068744269,2054,2051,2052,2059,2052,2055,1196
413,1716347325078784036,2056,2061,2045,2048,2050,2053,1195
414,1716347325088812380,2055,2052,2050,2059,2053,2053,1195
415,1716347325098786039,2057,2058,2045,2069,2081,2053,1197
416,1716347325108742204,2053,2069,2056,2042,2045,2051,1196
417,1716347325118787300,2056,2057,2056,2042,2052,2056,1198
418,1716347325128743125,2056,2044,2043,2061,2059,2054,1197
419,1716347325138788532,2056,2061,2041,2049,2056,2052,1197
420,1716347325148743234,2053,2050,2060,2048,2046,2056,1196
421,1716347325158784593,2060,2054,2062,2060,2053,2052,1196
422,1716347325168742132,2059,2046,2056,2065,2068,2058,1196
423,1716347325178786085,2056,2057,2053,2044,2046,2053,1193
424,1716347325188742731,2054,2045,2040,2061,2057,2060,1195
425,1716347325198793138,2060,2069,2060,2060,2056,2056,1195
426,1716347325208747008,2047,2043,2041,2066,2051,2052,1196
427,1716347325218784310,2057,2058,2056,2051,2048,2051,1197
428,1716347325228741738,2058,2056,2049,2057,2045,2053,1195
429,1716347325238786163,2055,2051,2052,2043,2042,2054,1195
430,1716347325248742197,2058,2070,2122,2056,2054,2061,1197
431,1716347325258785621,2057,2063,2056,2053,2057,2054,1197
432,1716347325268741927,2057,2055,2061,2056,2050,2056,1197
433,1716347325278785730,2055,2042,2036,2039,2045,2045,1193
434,1716347325288742035,2053,2036,2045,2056,2052,2056,1196
435,1716347325298782323,2061,2072,2075,2058,2058,2057,1195
436,1716347325308742706,2051,2045,2049,2058,2054,2053,1196
437,1716347325318781460,2056,2062,2083,2065,2065,2053,1196
438,1716347325328741984,2056,2052,2055,2049,2049,2049,1196
439,1716347325338784966,2055,2061,2057,2056,2056,2054,1197
440,1716347325348742453,2052,2039,2052,2060,2056,2059,1197
441,1716347325358783462,2054,2052,2028,2055,2046,2053,1196
442,1716347325368742363,2056,2045,2068,2056,2053,2057,1196
443,1716347325378785315,2052,2052,2047,2050,2049,2054,1193
444,1716347325388821103,2053,2056,2062,2059,2054,2056,1196
445,1716347325398786887,2055,2042,2027,2050,2049,2052,1196
446,1716347325408742081,2055,2050,2058,2052,2050,2052,1196
447,1716347325418784852,2056,2056,2046,2058,2050,2050,1196
448,1716347325428741869,2058,2038,2041,2058,2052,2051,1196
449,1716347325438789921,2060,2060,2057,2058,2044,2046,1192
450,1716347325448742810,2052,2047,2069,2056,2044,2055,1195
451,1716347325458808636,2057,2068,2055,2056,2051,2053,1195
452,1716347325468742248,2056,2045,2066,2052,2038,2051,1197
453,1716347325478789579,2059,2054,2049,2056,2050,2046,1194
454,1716347325488743198,2050,2045,2050,2053,2045,2056,1195
455,1716347325498792172,2056,2068,2086,2054,2056,2051,1194
456,1716347325508743559,2052,2054,2047,2057,2064,2057,1195
457,1716347325518793474,2057,2062,2050,2050,2045,2047,1194
458,1716347325528797130,2056,2046,2059,2053,2050,2057,1195
459,1716347325538794445,2056,2058,2052,2056,2048,2053,1198
460,1716347325548797380,2056,2055,2068,2042,2066,2053,1198
461,1716347325558795937,2052,2047,2044,2056,2053,2052,1196
462,1716347325568804042,2051,2034,2041,2056,2057,2056,1195
463,1716347325578796337,2060,2053,2059,2047,2040,2054,1193
464,1716347325588808390,2052,2041,2049,2056,2045,2050,1197
465,1716347325598797778,2061,2066,2065,2060,2051,2056,1196
466,1716347325608806004,2049,2040,2044,2057,2053,2052,1196
467,1716347325618799932,2056,2067,2056,2054,2060,2053,1195
468,1716347325628805523,2061,2058,2089,2058,2055,2056,1196
469,1716347325638799861,2056,2049,2049,2060,2064,2058,1194
470,1716347325648810531,2049,2044,2075,2081,2072,2059,1194
471,1716347325658783459,2056,2066,2068,2051,2045,2052,1194
472,1716347325668805941,2050,2051,2053,2056,2077,2057,1195
473,1716347325678802514,2056,2056,2049,2069,2075,2057,1198
474,1716347325688810950,2056,2049,2054,2057,2052,2056,1196
475,1716347325698803746,2059,2060,2046,2056,2056,2054,1196
476,1716347325708813133,2058,2060,2064,2038,2052,2056,1195
477,1716347325718788105,2056,2055,2053,2059,2056,2056,1195
478,1716347325728812041,2053,2053,2066,2052,2047,2047,1194
479,1716347325738788645,2052,2070,2072,2050,2050,2049,1197
480,1716347325748742375,2056,2045,2042,2056,2055,2051,1197
481,1716347325758783484,2059,2064,2081,2053,2061,2056,1194
482,1716347325768743076,2055,2059,2046,2053,2049,2048,1195
483,1716347325778789905,2059,2062,2046,2052,2054,2050,1193
484,1716347325788812388,2054,2048,2047,2056,2045,2052,1195
485,1716347325798786018,2056,2061,2057,2056,2049,2054,1195
486,1716347325808813419,2051,2053,2053,2040,2046,2049,1195
487,1716347325818791186,2059,2057,2024,2047,2040,2053,1197
488,1716347325828748734,2052,2047,2070,2054,2056,2054,1195
489,1716347325838795273,2058,2064,2060,2048,2058,2054,1195
490,1716347325848742301,2059,2059,2056,2056,2057,2052,1196
491,1716347325858800733,2056,2063,2066,2046,2040,2052,1196
492,1716347325868741549,2050,2050,2056,2053,2049,2054,1194
493,1716347325878785543,2060,2052,2042,2056,2071,2054,1197
494,1716347325888803757,2054,2044,2045,2053,2052,2054,1196
495,1716347325898788648,2052,2046,2027,2047,2053,2052,1197
496,1716347325908834265,2060,2064,2107,2072,2040,2057,1196
497,1716347325918791873,2056,2077,2057,2070,2079,2050,1195
498,1716347325928745654,2052,2041,2055,2054,2047,2053,1197
499,1716347325938789468,2057,2058,2049,2054,2054,2053,1197
500,1716347325948742817,2052,2052,2081,2060,2059,2057,1197
501,1716347325958795538,2056,2056,2040,2056,2065,2054,1197
502,1716347325968741775,2056,2049,2060,2056,2045,2051,1197
503,1716347325978784095,2056,2067,2080,2056,2051,2054,1196
504,1716347325988743146,2058,2057,2037,2056,2060,2057,1193
505,1716347325998783203,2056,2053,2053,2054,2052,2057,1196
506,1716347326008812028,2053,2059,2056,2064,2052,2054,1196
507,1716347326018784855,2058,2060,2061,2054,2043,2050,1197
508,1716347326028744387,2049,2047,2061,2074,2072,2057,1197
509,1716347326038786718,2056,2054,2056,2060,2074,2051,1196
510,1716347326048742433,2060,2066,2074,2073,2066,2062,1195
511,1716347326058784292,2053,2044,2040,2059,2060,2049,1195
512,1716347326068797918,2053,2036,2046,2052,2052,2052,1196
513,1716347326078786325,2059,2060,2057,2056,2052,2053,1197
514,1716347326088744475,2056,2046,2057,2054,2050,2055,1196
515,1716347326098788559,2056,2064,2052,2060,2057,2052,1197
516,1716347326108815199,2064,2069,2122,2062,2052,2056,1196
517,1716347326118787777,2057,2074,2089,2064,2057,2052,1195
518,1716347326128744102,2054,2049,2054,2056,2052,2056,1197
519,1716347326138791563,2054,2056,2040,2051,2050,2054,1196
520,1716347326148743019,2054,2042,2052,2056,2052,2053,1197
521,1716347326158789057,2067,2079,2068,2061,2053,2058,1196
522,1716347326168742418,2064,2046,2050,2056,2066,2050,1196
523,1716347326178786231,2058,2073,2081,2061,2065,2058,1192
524,1716347326188744550,2054,2057,2064,2044,2046,2056,1196
525,1716347326198791801,2059,2062,2044,2054,2049,2055,1195
526,1716347326208813452,2050,2040,2054,2062,2060,2057,1197
527,1716347326218785167,2053,2061,2070,2057,2053,2052,1197
528,1716347326228751262,2057,2068,2047,2047,2051,2056,1195
529,1716347326238793202,2058,2063,2047,2072,2056,2053,1196
530,1716347326248742725,2049,2034,2044,2059,2052,2057,1197
531,1716347326258782541,2054,2052,2056,2051,2047,2050,1196
532,1716347326268741491,2056,2044,2045,2047,2052,2057,1196
533,1716347326278784894,2054,2060,2065,2050,2048,2052,1195
534,1716347326288744978,2054,2048,2086,2056,2052,2057,1195
535,1716347326298785716,2062,2080,2098,2069,2079,2057,1196
536,1716347326308799060,2053,2053,2056,2055,2048,2051,1195
537,1716347326318787708,2057,2074,2057,2054,2052,2050,1195
538,1716347326328741469,2057,2053,2053,2058,2061,2056,1197
539,1716347326338790253,2058,2059,2057,2059,2060,2056,1195
540,1716347326348742510,2054,2053,2062,2057,2055,2053,1196
541,1716347326358792536,2057,2064,2060,2062,2045,2052,1196
542,1716347326368797996,2053,2040,2050,2035,2041,2051,1195
543,1716347326378792746,2060,2053,2052,2053,2047,2053,1194
544,1716347326388742188,2056,2051,2072,2056,2060,2054,1198
545,1716347326398795460,2056,2065,2056,2048,2058,2052,1194
546,1716347326408811961,2053,2047,2047,2064,2056,2052,1194
547,1716347326418792955,2056,2056,2038,2053,2065,2050,1195
548,1716347326428802142,2053,2040,2056,2061,2060,2053,1195
549,1716347326438797652,2057,2058,2049,2057,2052,2050,1194
550,1716347326448802992,2056,2047,2046,2053,2058,2050,1196
551,1716347326458797662,2060,2058,2050,2052,2051,2054,1194
552,1716347326468800788,2048,2024,2042,2054,2074,2057,1195
553,1716347326478782862,2054,2041,2041,2052,2050,2047,1192
554,1716347326488743046,2056,2044,2045,2056,2054,2053,1195
555,1716347326498786208,2058,2064,2054,2057,2056,2058,1196
556,1716347326508820194,2053,2053,2049,2056,2053,2057,1197
557,1716347326518782861,2058,2057,2034,2055,2051,2050,1194
558,1716347326528741972,2051,2042,2044,2056,2053,2057,1196
559,1716347326538786046,2058,2064,2057,2050,2048,2051,1198
560,1716347326548741841,2052,2056,2056,2050,2042,2049,1196
561,1716347326558785204,2057,2060,2040,2058,2050,2052,1196
562,1716347326568817846,2056,2049,2059,2052,2049,2053,1195
563,1716347326578783350,2056,2057,2043,2052,2051,2053,1195
564,1716347326588744044,2057,2056,2043,2057,2066,2055,1193
565,1716347326598786505,2056,2061,2050,2044,2046,2052,1195
566,1716347326608813767,2051,2040,2047,2058,2056,2057,1197
567,1716347326618784791,2064,2072,2051,2052,2054,2056,1195
568,1716347326628741908,2053,2042,2038,2056,2054,2056,1196
569,1716347326638788427,2057,2069,2046,2041,2049,2049,1195
570,1716347326648752527,2050,2041,2043,2066,2074,2052,1197
571,1716347326658787514,2063,2079,2075,2062,2052,2052,1195
572,1716347326668742678,2049,2041,2045,2052,2051,2055,1195
573,1716347326678782995,2058,2062,2049,2049,2056,2050,1197
574,1716347326688742116,2053,2051,2061,2056,2049,2054,1197
575,1716347326698789236,2059,2075,2053,2057,2058,2051,1197
576,1716347326708815366,2052,2040,2059,2054,2052,2054,1196
577,1716347326718783945,2056,2042,2038,2047,2061,2053,1196
578,1716347326728741693,2052,2038,2059,2060,2051,2053,1196
579,1716347326738785337,2055,2062,2041,2053,2051,2048,1197
580,1716347326748741833,2052,2048,2061,2060,2052,2053,1197
581,1716347326758785376,2053,2056,2049,2047,2043,2051,1194
582,1716347326768804662,2055,2045,2060,2054,2049,2052,1197
583,1716347326778782730,2058,2058,2042,2057,2053,2054,1196
584,1716347326788742843,2052,2046,2052,2053,2049,2052,1197
585,1716347326798786186,2055,2058,2057,2057,2064,2054,1195
586,1716347326808816373,2058,2046,2052,2058,2052,2056,1196
587,1716347326818787818,2056,2051,2033,2064,2050,2049,1196
588,1716347326828741820,2052,2041,2075,2059,2053,2060,1195
589,1716347326838786876,2058,2070,2051,2056,2056,2053,1196
590,1716347326848742359,2049,2049,2059,2056,2051,2053,1196
591,1716347326858784611,2058,2057,2034,2052,2059,2052,1195
592,1716347326868742249,2050,2049,2064,2052,2052,2056,1197
593,1716347326878781193,2057,2065,2050,2045,2044,2049,1198
594,1716347326888742248,2054,2056,2064,2056,2048,2057,1196
595,1716347326898787625,2059,2060,2042,2052,2050,2049,1195
596,1716347326908813454,2050,2048,2044,2055,2053,2053,1198
597,1716347326918785089,2056,2065,2065,2060,2069,2054,1196
598,1716347326928743649,2050,2041,2060,2056,2066,2056,1197
599,1716347326938786781,2061,2068,2038,2057,2070,2056,1197
600,1716347326948742065,2056,2040,2056,2053,2063,2054,1198
601,1716347326958794055,2056,2052,2041,2066,2069,2056,1195
602,1716347326968806678,2054,2057,2046,2054,2044,2053,1197
603,1716347326978782502,2060,2065,2049,2053,2054,2050,1194
604,1716347326988742585,2053,2044,2044,2054,2050,2053,1197
605,1716347326998788572,2060,2064,2056,2052,2052,2052,1194
606,1716347327008828649,2056,2041,2051,2058,2051,2056,1193
607,1716347327018784283,2056,2053,2030,2056,2056,2047,1194
608,1716347327028743936,2053,2050,2054,2056,2053,2050,1198
609,1716347327038799372,2057,2056,2036,2057,2058,2051,1196
610,1716347327048742162,2058,2064,2067,2064,2072,2056,1195
611,1716347327058787398,2055,2054,2046,2054,2048,2052,1198
612,1716347327068742431,2052,2043,2044,2064,2050,2054,1196
613,1716347327078779041,2060,2072,2058,2054,2053,2052,1196
614,1716347327088805752,2056,2044,2062,2064,2059,2053,1194
615,1716347327098787336,2055,2056,2054,2048,2056,2049,1195
616,1716347327108813847,2053,2041,2044,2057,2053,2052,1198
617,1716347327118782256,2064,2061,2051,2054,2060,2053,1198
618,1716347327128743581,2047,2041,2056,2066,2059,2055,1196
619,1716347327138788628,2058,2056,2047,2057,2052,2050,1196
620,1716347327148742840,2052,2042,2048,2056,2048,2058,1196
621,1716347327158786572,2062,2068,2063,2053,2047,2051,1196
622,1716347327168743369,2048,2030,2041,2058,2055,2055,1195
623,1716347327178780410,2052,2062,2051,2057,2057,2051,1194
624,1716347327188742297,2052,2046,2067,2053,2053,2056,1194
625,1716347327198786742,2057,2059,2038,2052,2049,2050,1196
626,1716347327208809685,2053,2044,2061,2069,2054,2052,1194
627,1716347327218783465,2056,2061,2047,2059,2052,2054,1195
628,1716347327228743678,2052,2053,2065,2058,2045,2056,1194
629,1716347327238787422,2054,2057,2050,2047,2045,2047,1194
630,1716347327248742124,2059,2052,2048,2047,2047,2056,1197
631,1716347327258786248,2059,2076,2077,2056,2053,2055,1194
632,1716347327268741462,2057,2052,2052,2058,2057,2056,1194
633,1716347327278785036,2056,2059,2053,2058,2058,2051,1195
634,1716347327288742374,2056,2045,2069,2053,2056,2057,1196
635,1716347327298788722,2057,2063,2047,2056,2056,2056,1196
636,1716347327308807758,2063,2064,2062,2061,2066,2063,1196
637,1716347327318786717,2057,2060,2040,2054,2052,2054,1196
638,1716347327328742402,2053,2050,2077,2044,2056,2058,1196
639,1716347327338784923,2053,2053,2041,2055,2056,2049,1196
640,1716347327348744284,2058,2056,2088,2060,2059,2056,1196
641,1716347327358782988,2058,2053,2057,2054,2053,2053,1196
642,1716347327368741869,2053,2040,2052,2058,2052,2052,1195
643,1716347327378783890,2056,2055,2044,2055,2057,2050,1194
644,1716347327388741609,2056,2046,2048,2059,2056,2058,1196
645,1716347327398785452,2063,2074,2052,2060,2055,2056,1196
646,1716347327408809648,2053,2047,2053,2062,2054,2056,1196
647,1716347327418787565,2056,2066,2041,2057,2070,2050,1196
648,1716347327428811942,2052,2047,2054,2057,2053,2057,1195
649,1716347327438788747,2056,2061,2044,2052,2054,2050,1197
650,1716347327448743118,2058,2049,2061,2056,2047,2050,1195
651,1716347327458789267,2055,2057,2046,2056,2052,2050,1197
652,1716347327468794998,2056,2045,2047,2045,2068,2055,1194
653,1716347327478790940,2061,2059,2038,2057,2059,2056,1198
654,1716347327488743158,2052,2044,2073,2072,2064,2056,1197
655,1716347327498792943,2059,2066,2069,2067,2072,2053,1197
656,1716347327508806799,2050,2047,2048,2054,2052,2051,1196
657,1716347327518793994,2057,2064,2050,2057,2054,2053,1194
658,1716347327528797270,2054,2068,2063,2056,2050,2057,1197
659,1716347327538795426,2058,2066,2056,2057,2056,2050,1196
660,1716347327548807308,2052,2043,2056,2053,2046,2057,1198
661,1716347327558796888,2057,2064,2041,2050,2046,2050,1196
662,1716347327568804142,2056,2046,2060,2060,2054,2055,1197
663,1716347327578781518,2051,2065,2047,2052,2052,2048,1195
664,1716347327588804132,2052,2043,2059,2053,2047,2056,1196
665,1716347327598799371,2060,2058,2053,2058,2056,2052,1198
666,1716347327608807837,2052,2048,2057,2055,2053,2049,1196
667,1716347327618799762,2060,2059,2058,2054,2052,2052,1196
668,1716347327628796335,2056,2049,2056,2054,2050,2055,1197
669,1716347327638801674,2055,2056,2058,2045,2044,2047,1194
670,1716347327648806573,2057,2046,2055,2065,2080,2059,1196
671,1716347327658786074,2056,2064,2032,2049,2057,2056,1197
672,1716347327668797365,2051,2042,2044,2053,2063,2052,1196
673,1716347327678784240,2058,2067,2059,2038,2052,2053,1196
674,1716347327688742960,2054,2056,2068,2059,2056,2056,1196
675,1716347327698784729,2051,2058,2053,2052,2052,2052,1195
676,1716347327708826770,2052,2046,2056,2055,2053,2058,1197
677,1716347327718790089,2060,2077,2072,2059,2057,2056,1197
678,1716347327728742999,2054,2049,2044,2049,2042,2054,1194
679,1716347327738791802,2056,2056,2035,2053,2048,2053,1196
680,1716347327748741454,2056,2056,2058,2054,2052,2052,1196
681,1716347327758787222,2061,2081,2047,2061,2047,2050,1195
682,1716347327768742005,2062,2055,2060,2054,2047,2056,1196
683,1716347327778785348,2050,2066,2045,2051,2050,2052,1196
684,1716347327788741864,2052,2058,2053,2050,2053,2053,1197
685,1716347327798788423,2052,2050,2049,2055,2048,2050,1194
686,1716347327808821737,2055,2050,2061,2057,2056,2056,1195
687,1716347327818789234,2061,2068,2072,2057,2057,2052,1196
688,1716347327828745751,2053,2052,2052,2058,2054,2057,1195
689,1716347327838788622,2056,2046,2040,2053,2053,2058,1197
690,1716347327848743946,2054,2044,2056,2062,2057,2055,1195
691,1716347327858787529,2057,2056,2050,2056,2066,2054,1196
692,1716347327868745849,2053,2056,2061,2056,2062,2053,1197
693,1716347327878790144,2054,2049,2051,2056,2064,2050,1197
694,1716347327888742201,2059,2045,2059,2058,2052,2054,1196
695,1716347327898785694,2058,2057,2060,2054,2057,2056,1197
696,1716347327908823286,2053,2058,2059,2056,2052,2054,1197
697,1716347327918788710,2057,2069,2052,2049,2047,2052,1197
698,1716347327928745226,2053,2049,2050,2053,2050,2057,1194
699,1716347327938789530,2054,2058,2053,2056,2049,2048,1198
700,1716347327948743281,2048,2025,2049,2060,2045,2056,1194
701,1716347327958790481,2061,2068,2056,2049,2052,2049,1198
702,1716347327968744042,2057,2058,2047,2048,2044,2056,1195
703,1716347327978787214,2052,2047,2043,2049,2048,2050,1195
704,1716347327988743520,2054,2060,2061,2059,2053,2057,1194
705,1716347327998786382,2050,2037,2026,2054,2065,2050,1195
706,1716347328008811390,2059,2051,2061,2056,2059,2058,1196
707,1716347328018792012,2060,2062,2034,2046,2052,2053,1197
708,1716347328028744130,2057,2062,2060,2037,2053,2056,1198
709,1716347328038788695,2060,2060,2040,2052,2062,2052,1199
710,1716347328048744259,2058,2052,2052,2062,2054,2050,1197
711,1716347328058783795,2056,2060,2057,2049,2049,2050,1196
712,1716347328068756563,2058,2053,2061,2052,2044,2051,1198
713,1716347328078781230,2065,2064,2060,2057,2057,2048,1197
714,1716347328088742686,2057,2066,2060,2052,2052,2053,1196
715,1716347328098788904,2054,2050,2025,2054,2050,2049,1196
716,1716347328108844209,2056,2055,2070,2064,2056,2056,1197
717,1716347328118788943,2050,2050,2032,2056,2064,2053,1194
718,1716347328128742844,2056,2056,2051,2056,2044,2058,1194
719,1716347328138787119,2051,2057,2057,2053,2043,2050,1196
720,1716347328148741692,2053,2050,2049,2074,2048,2057,1196
721,1716347328158785525,2059,2076,2055,2061,2044,2050,1197
722,1716347328168741480,2053,2044,2069,2049,2043,2056,1195
723,1716347328178785064,2058,2057,2044,2055,2065,2056,1195
724,1716347328188744926,2051,2050,2048,2054,2053,2052,1196
725,1716347328198788049,2056,2068,2086,2057,2050,2048,1193
726,1716347328208822225,2056,2050,2052,2058,2057,2057,1196
727,1716347328218791305,2059,2064,2046,2064,2068,2057,1195
728,1716347328228741338,2051,2048,2055,2058,2056,2054,1196
729,1716347328238787687,2056,2050,2046,2052,2051,2052,1197
730,1716347328248743782,2053,2043,2076,2049,2050,2053,1197
731,1716347328258788939,2053,2047,2068,2050,2058,2047,1195
732,1716347328268808566,2052,2040,2036,2056,2051,2057,1197
733,1716347328278783448,2058,2060,2055,2053,2043,2051,1194
734,1716347328288744803,2058,2053,2077,2057,2053,2060,1195
735,1716347328298789709,2056,2056,2047,2056,2052,2051,1195
736,1716347328308831639,2053,2040,2053,2060,2053,2060,1196
737,1716347328318792103,2064,2091,2056,2059,2054,2047,1195
738,1716347328328797082,2063,2072,2075,2064,2049,2056,1196
739,1716347328338793645,2056,2056,2055,2056,2056,2053,1196
740,1716347328348797873,2057,2051,2039,2056,2057,2053,1196
741,1716347328358795869,2056,2068,2066,2056,2047,2055,1196
742,1716347328368797331,2048,2045,2054,2057,2052,2053,1196
743,1716347328378793584,2063,2070,2054,2062,2058,2054,1194
744,1716347328388815556,2049,2044,2053,2056,2047,2053,1195
745,1716347328398795858,2057,2038,2045,2046,2053,2054,1197
746,1716347328408830774,2053,2046,2061,2058,2064,2052,1196
747,1716347328418794534,2056,2061,2061,2052,2050,2049,1195
748,1716347328428802159,2056,2043,2048,2051,2058,2056,1197
749,1716347328438803641,2055,2060,2064,2055,2055,2055,1197
750,1716347328448802088,2052,2049,2058,2059,2060,2052,1196
751,1716347328458784253,2054,2056,2047,2057,2050,2057,1197
752,1716347328468801335,2056,2051,2047,2059,2053,2056,1196
753,1716347328478779764,2056,2040,2056,2056,2052,2049,1200
754,1716347328488742793,2053,2046,2060,2056,2053,2055,1194
755,1716347328498784803,2052,2053,2041,2053,2046,2047,1196
756,1716347328508815873,2054,2060,2048,2059,2040,2054,1200
757,1716347328518782819,2057,2062,2047,2056,2053,2047,1194
758,1716347328528741769,2057,2045,2056,2065,2052,2050,1198
759,1716347328538788719,2053,2055,2050,2047,2031,2049,1198
760,1716347328548743733,2052,2045,2056,2053,2040,2056,1195
761,1716347328558784270,2054,2060,2052,2055,2050,2056,1198
762,1716347328568812224,2056,2052,2053,2056,2053,2053,1197
763,1716347328578775032,2056,2057,2051,2054,2061,2050,1197
764,1716347328588744773,2052,2048,2056,2056,2047,2056,1197
765,1716347328598783888,2051,2052,2047,2052,2053,2053,1195
766,1716347328608829656,2053,2046,2047,2056,2057,2058,1197
767,1716347328618780271,2056,2053,2044,2052,2046,2049,1195
768,1716347328628743169,2051,2040,2050,2056,2053,2056,1197
769,1716347328638786322,2061,2072,2069,2058,2057,2054,1196
770,1716347328648744581,2057,2050,2056,2056,2056,2058,1197
771,1716347328658788775,2053,2045,2043,2053,2056,2052,1197
772,1716347328668743087,2053,2052,2061,2050,2050,2056,1199
773,1716347328678787553,2059,2070,2103,2046,2044,2049,1200
774,1716347328688761633,2052,2032,2068,2052,2047,2060,1196
775,1716347328698787452,2052,2063,2048,2062,2050,2053,1196
776,1716347328708805215,2056,2056,2060,2053,2040,2053,1197
777,1716347328718784736,2054,2062,2052,2053,2052,2050,1197
778,1716347328728743897,2058,2056,2104,2076,2060,2057,1197
779,1716347328738785888,2056,2059,2060,2056,2050,2052,1196
780,1716347328748744207,2053,2053,2063,2077,2081,2054,1196
781,1716347328758786498,2056,2077,2073,2052,2057,2052,1198
782,1716347328768744056,2056,2064,2049,2051,2055,2053,1197
783,1716347328778787319,2060,2075,2056,2057,2056,2056,1196
784,1716347328788742633,2057,2051,2089,2060,2056,2055,1200
785,1716347328798786036,2059,2060,2044,2055,2052,2051,1196
786,1716347328808813819,2054,2045,2056,2055,2053,2056,1197
787,1716347328818786636,2058,2054,2045,2047,2045,2056,1196
788,1716347328828744885,2058,2080,2116,2061,2064,2058,1196
789,1716347328838786375,2061,2073,2069,2066,2056,2056,1197
790,1716347328848744304,2054,2053,2064,2068,2058,2053,1199
791,1716347328858757058,2057,2065,2056,2064,2073,2054,1197
792,1716347328868746598,2052,2044,2048,2053,2048,2053,1196
793,1716347328878789009,2052,2061,2051,2054,2052,2048,1197
794,1716347328888744994,2053,2054,2057,2056,2053,2054,1195
795,1716347328898786954,2057,2060,2044,2059,2057,2051,1197
796,1716347328908809988,2056,2045,2065,2055,2050,2056,1197
797,1716347328918788226,2056,2064,2046,2052,2054,2048,1195
798,1716347328928744432,2050,2041,2053,2056,2053,2057,1198
799,1716347328938787745,2060,2063,2050,2051,2052,2054,1200
800,1716347328948742226,2061,2051,2042,2055,2053,2057,1197
801,1716347328958786662,2051,2056,2045,2049,2062,2048,1198
802,1716347328968742747,2056,2057,2090,2067,2073,2059,1197
803,1716347328978787483,2058,2040,2048,2053,2049,2051,1196
804,1716347328988744991,2048,2033,2047,2057,2042,2060,1196
805,1716347328998787061,2056,2064,2030,2055,2053,2050,1196
806,1716347329008813902,2059,2056,2092,2056,2050,2057,1198
807,1716347329018788484,2056,2064,2044,2056,2054,2052,1197
808,1716347329028747434,2053,2047,2059,2053,2056,2057,1197
809,1716347329038787020,2061,2060,2049,2058,2052,2054,1196
810,1716347329048806828,2049,2025,2053,2059,2053,2057,1197
811,1716347329058785517,2056,2052,2050,2050,2044,2052,1195
812,1716347329068746943,2052,2034,2045,2056,2034,2052,1195
813,1716347329078788221,2058,2056,2041,2049,2046,2049,1196
814,1716347329088746330,2052,2043,2045,2051,2051,2052,1197
815,1716347329098786247,2053,2060,2062,2047,2050,2053,1197
816,1716347329108827005,2053,2052,2066,2056,2054,2056,1197
817,1716347329118787679,2059,2067,2047,2056,2056,2053,1195
818,1716347329128744937,2052,2052,2056,2053,2060,2056,1196
819,1716347329138749676,2055,2059,2059,2053,2054,2052,1200
820,1716347329148743945,2052,2047,2057,2057,2058,2056,1196
821,1716347329158789522,2057,2067,2054,2050,2047,2048,1198
822,1716347329168744114,2049,2043,2056,2056,2050,2056,1197
823,1716347329178786866,2058,2078,2059,2056,2056,2047,1192
824,1716347329188743502,2053,2040,2092,2057,2054,2057,1197
825,1716347329198786695,2048,2050,2061,2053,2047,2047,1195
826,1716347329208742691,2050,2042,2058,2060,2066,2056,1197
827,1716347329218786895,2056,2065,2054,2063,2059,2052,1194
828,1716347329228742831,2057,2058,2064,2065,2056,2055,1195
829,1716347329238785001,2053,2057,2038,2048,2042,2049,1196
830,1716347329248744162,2052,2043,2045,2056,2050,2059,1196
831,1716347329258783838,2056,2065,2036,2057,2057,2049,1197
832,1716347329268741637,2054,2047,2064,2058,2057,2053,1196
833,1716347329278782124,2056,2056,2052,2053,2052,2051,1197
834,1716347329288742819,2052,2049,2047,2059,2049,2056,1195
835,1716347329298786292,2056,2060,2064,2061,2049,2048,1196
836,1716347329308804898,2052,2052,2056,2060,2061,2056,1195
837,1716347329318782273,2056,2060,2042,2054,2047,2049,1196
838,1716347329328742356,2052,2052,2078,2059,2050,2053,1194
839,1716347329338783686,2063,2055,2058,2051,2044,2054,1197
840,1716347329348751814,2056,2048,2056,2053,2046,2057,1196
841,1716347329358787963,2051,2056,2039,2054,2050,2047,1194
842,1716347329368744560,2054,2037,2040,2071,2041,2050,1195
843,1716347329378805877,2058,2068,2065,2057,2045,2050,1194
844,1716347329388742105,2053,2046,2052,2057,2056,2057,1196
845,1716347329398786800,2057,2062,2056,2056,2052,2052,1196
846,1716347329408742444,2053,2031,2044,2057,2053,2054,1195
847,1716347329418787962,2047,2031,2030,2056,2053,2052,1195
848,1716347329428811567,2060,2054,2061,2060,2053,2056,1196
849,1716347329438803000,2054,2056,2051,2052,2050,2044,1193
850,1716347329448745129,2052,2046,2056,2059,2056,2054,1196
851,1716347329458790235,2056,2069,2066,2059,2057,2056,1195
852,1716347329468743696,2061,2059,2076,2068,2061,2058,1196
853,1716347329478797248,2056,2063,2052,2048,2040,2046,1193
854,1716347329488795945,2064,2078,2068,2052,2041,2052,1198
855,1716347329498795675,2058,2047,2046,2053,2048,2053,1197
856,1716347329508797027,2058,2052,2060,2054,2054,2054,1196
857,1716347329518794682,2060,2064,2056,2054,2052,2054,1195
858,1716347329528802547,2061,2050,2046,2057,2059,2053,1197
859,1716347329538796074,2058,2057,2044,2052,2051,2049,1197
860,1716347329548801585,2053,2043,2040,2056,2052,2058,1197
861,1716347329558798087,2056,2058,2043,2053,2050,2049,1198
862,1716347329568809839,2058,2074,2059,2059,2058,2060,1198
863,1716347329578780854,2063,2074,2050,2053,2069,2051,1196
864,1716347329588795281,2056,2058,2062,2057,2032,2054,1195
865,1716347329598782336,2056,2057,2056,2051,2049,2050,1197
866,1716347329608806643,2052,2041,2036,2056,2042,2052,1196
867,1716347329618783338,2055,2066,2067,2060,2065,2048,1197
868,1716347329628815038,2049,2045,2052,2052,2046,2056,1196
869,1716347329638781463,2057,2064,2056,2058,2057,2049,1196
870,1716347329648806781,2061,2077,2058,2050,2041,2056,1196
871,1716347329658805549,2060,2064,2052,2047,2046,2060,1196
872,1716347329668744351,2053,2046,2051,2053,2056,2054,1197
873,1716347329678788556,2059,2073,2050,2048,2046,2047,1193
874,1716347329688743509,2053,2042,2057,2052,2041,2052,1196
875,1716347329698786982,2058,2060,2055,2052,2049,2052,1198
876,1716347329708747206,2054,2044,2050,2055,2056,2056,1196
877,1716347329718783555,2054,2056,2039,2056,2060,2050,1196
878,1716347329728813612,2057,2045,2072,2060,2053,2052,1198
879,1716347329738794866,2053,2057,2056,2056,2056,2052,1196
880,1716347329748744228,2054,2038,2041,2056,2056,2056,1197
881,1716347329758791118,2053,2057,2040,2056,2048,2044,1194
882,1716347329768743928,2053,2052,2097,2060,2048,2055,1196
883,1716347329778795817,2059,2068,2062,2059,2049,2053,1194
884,1716347329788741823,2053,2045,2054,2054,2049,2056,1199
885,1716347329798786318,2057,2051,2047,2056,2061,2049,1194
886,1716347329808748815,2060,2052,2064,2061,2054,2056,1196
887,1716347329818784925,2058,2056,2050,2052,2053,2052,1194
888,1716347329828807458,2054,2058,2057,2054,2044,2053,1194
889,1716347329838784103,2053,2053,2039,2055,2060,2051,1195
890,1716347329848752632,2053,2046,2072,2060,2058,2057,1197
891,1716347329858790284,2050,2056,2068,2048,2047,2047,1193
892,1716347329868744396,2062,2074,2075,2062,2046,2049,1195
893,1716347329878791005,2056,2064,2050,2052,2058,2049,1196
894,1716347329888744114,2052,2058,2067,2056,2056,2055,1196
895,1716347329898789892,2056,2058,2050,2050,2046,2052,1197
896,1716347329908747410,2053,2046,2058,2060,2047,2053,1196
897,1716347329918787597,2056,2060,2061,2050,2056,2050,1197
898,1716347329928831942,2054,2021,2048,2059,2087,2065,1198
899,1716347329938787717,2053,2045,2068,2052,2046,2053,1197
900,1716347329948744264,2049,2040,2045,2056,2054,2052,1196
901,1716347329958783188,2061,2069,2052,2056,2058,2054,1197
902,1716347329968746096,2051,2054,2067,2057,2060,2058,1198
903,1716347329978791453,2054,2058,2052,2051,2052,2052,1196
904,1716347329988742689,2056,2054,2058,2055,2052,2051,1197
905,1716347329998807083,2053,2056,2044,2053,2054,2048,1196
906,1716347330008742538,2054,2036,2054,2057,2054,2057,1197
907,1716347330018783297,2054,2059,2050,2048,2045,2054,1197
908,1716347330028806140,2053,2047,2053,2057,2055,2054,1195
909,1716347330038789638,2062,2060,2071,2052,2051,2050,1197
910,1716347330048744001,2056,2064,2063,2057,2073,2053,1196
911,1716347330058787444,2056,2066,2051,2055,2050,2053,1196
912,1716347330068743919,2052,2038,2053,2055,2066,2052,1196
913,1716347330078784968,2057,2064,2068,2053,2059,2050,1197
914,1716347330088742476,2048,2039,2047,2053,2047,2047,1196
915,1716347330098783044,2054,2060,2064,2049,2050,2052,1196
916,1716347330108742035,2057,2056,2072,2058,2047,2056,1197
917,1716347330118784136,2052,2064,2056,2052,2053,2056,1196
918,1716347330128808583,2062,2059,2048,2056,2052,2056,1195
919,1716347330138793033,2060,2065,2054,2060,2057,2051,1198
920,1716347330148745762,2056,2048,2057,2055,2048,2054,1196
921,1716347330158790156,2059,2059,2049,2056,2066,2051,1195
922,1716347330168743126,2056,2052,2058,2050,2054,2051,1196
923,1716347330178798452,2056,2057,2052,2059,2064,2053,1194
924,1716347330188796377,2051,2036,2044,2053,2054,2054,1195
925,1716347330198792870,2054,2053,2047,2050,2052,2050,1195
926,1716347330208743085,2053,2050,2100,2061,2054,2056,1195
927,1716347330218789323,2056,2060,2056,2056,2065,2053,1195
928,1716347330228811806,2056,2046,2060,2053,2052,2053,1197
929,1716347330238797178,2056,2059,2057,2055,2053,2051,1197
930,1716347330248743655,2052,2041,2049,2059,2057,2053,1197
931,1716347330258793741,2057,2073,2060,2064,2081,2058,1196
932,1716347330268798089,2056,2041,2052,2057,2059,2056,1193
933,1716347330278820271,2061,2064,2062,2066,2054,2056,1196
934,1716347330288798260,2058,2047,2052,2052,2055,2058,1197
935,1716347330298795484,2058,2068,2072,2046,2047,2053,1197
936,1716347330308800062,2053,2058,2114,2060,2053,2054,1197
937,1716347330318796024,2053,2057,2047,2048,2045,2047,1194
938,1716347330328815070,2052,2046,2059,2058,2065,2054,1197
939,1716347330338795873,2058,2044,2052,2052,2059,2056,1196
940,1716347330348798488,2055,2042,2053,2052,2054,2056,1197
941,1716347330358797997,2057,2064,2050,2069,2086,2056,1197
942,1716347330368804439,2054,2053,2052,2057,2054,2056,1196
943,1716347330378799229,2060,2075,2062,2054,2052,2051,1194
944,1716347330388804459,2053,2042,2051,2057,2060,2053,1195
945,1716347330398802214,2061,2074,2066,2055,2053,2052,1197
946,1716347330408803997,2058,2043,2045,2060,2058,2054,1195
947,1716347330418799759,2056,2060,2072,2047,2042,2047,1192
948,1716347330428820148,2056,2058,2057,2048,2040,2053,1199
949,1716347330438802263,2056,2052,2045,2036,2045,2053,1194
950,1716347330448806110,2053,2052,2055,2052,2059,2060,1197
951,1716347330458804407,2056,2056,2032,2052,2055,2051,1197
952,1716347330468814546,2048,2028,2033,2056,2062,2056,1197
953,1716347330478789017,2054,2046,2033,2056,2054,2053,1196
954,1716347330488744441,2056,2039,2052,2053,2043,2056,1198
955,1716347330498789187,2058,2071,2070,2054,2054,2049,1197
956,1716347330508743669,2062,2050,2064,2055,2044,2054,1195
957,1716347330518787774,2062,2056,2056,2048,2056,2052,1196
958,1716347330528807060,2054,2055,2070,2057,2057,2052,1197
959,1716347330538791841,2053,2052,2056,2066,2065,2051,1196
960,1716347330548744089,2050,2046,2047,2054,2056,2055,1196
961,1716347330558787281,2060,2070,2082,2053,2059,2053,1196
962,1716347330568744058,2058,2059,2067,2054,2047,2053,1196
963,1716347330578789385,2053,2073,2051,2051,2044,2052,1195
964,1716347330588745671,2054,2053,2046,2063,2051,2056,1197
965,1716347330598787351,2057,2070,2038,2052,2039,2047,1194
966,1716347330608743747,2059,2049,2053,2053,2041,2047,1192
967,1716347330618793212,2057,2053,2044,2044,2064,2053,1192
968,1716347330628831586,2059,2056,2049,2056,2052,2052,1198
969,1716347330638782370,2053,2061,2051,2052,2048,2050,1197
970,1716347330648742213,2054,2052,2052,2051,2051,2054,1195
971,1716347330658787059,2059,2056,2029,2036,2054,2049,1194
972,1716347330668741711,2054,2028,2046,2061,2060,2062,1197
973,1716347330678790285,2052,2053,2046,2053,2054,2056,1197
974,1716347330688792839,2057,2042,2060,2056,2056,2056,1196
975,1716347330698788671,2053,2057,2040,2069,2082,2052,1197
976,1716347330708743975,2059,2052,2060,2053,2056,2058,1196
977,1716347330718787469,2056,2059,2040,2047,2048,2052,1197
978,1716347330728809451,2056,2052,2066,2057,2047,2052,1195
979,1716347330738788971,2060,2062,2068,2052,2053,2053,1197
980,1716347330748744466,2056,2027,2053,2057,2050,2059,1197
981,1716347330758787698,2049,2048,2056,2054,2046,2050,1197
982,1716347330768744334,2048,2045,2056,2049,2040,2056,1197
983,1716347330778792146,2052,2068,2059,2046,2045,2049,1193
984,1716347330788743983,2057,2054,2099,2057,2052,2053,1198
985,1716347330798800191,2053,2048,2042,2041,2053,2053,1198
986,1716347330808799199,2050,2044,2045,2052,2054,2054,1196
987,1716347330818786935,2056,2058,2046,2058,2057,2052,1197
988,1716347330828809118,2048,2040,2054,2060,2069,2056,1197
989,1716347330838786885,2055,2058,2043,2058,2056,2054,1198
990,1716347330848741968,2049,2046,2038,2056,2049,2049,1197
991,1716347330858796743,2054,2054,2052,2052,2052,2051,1198
992,1716347330868742929,2056,2051,2054,2058,2054,2053,1195
993,1716347330878792745,2056,2051,2036,2051,2049,2053,1196
994,1716347330888743119,2060,2058,2069,2054,2052,2052,1196
995,1716347330898792433,2053,2053,2045,2052,2050,2050,1196
996,1716347330908745363,2057,2041,2044,2061,2053,2054,1197
997,1716347330918787714,2056,2066,2082,2046,2052,2053,1197
998,1716347330928809205,2054,2046,2053,2062,2058,2054,1196
999,1716347330938789127,2056,2059,2052,2064,2056,2048,1197
1000,1716347330948744090,2052,2052,2067,2067,2077,2059,1197
1001,1716347330958787664,2059,2055,2046,2053,2054,2047,1195
1002,1716347330968744440,2056,2056,2046,2048,2036,2053,1195
1003,1716347330978795848,2056,2057,2033,2050,2050,2046,1193
1004,1716347330988743968,2052,2028,2057,2056,2061,2058,1195
1005,1716347330998784737,2056,2045,2045,2058,2048,2045,1194
1006,1716347331008742595,2058,2053,2048,2055,2048,2056,1198
1007,1716347331018784956,2057,2057,2047,2051,2052,2048,1197
1008,1716347331028744038,2060,2064,2073,2060,2055,2056,1199
1009,1716347331038781700,2053,2059,2060,2066,2058,2053,1196
1010,1716347331048742905,2053,2050,2056,2068,2076,2060,1198
1011,1716347331058787631,2061,2064,2050,2054,2051,2052,1198
1012,1716347331068742945,2059,2053,2056,2060,2066,2058,1196
1013,1716347331078791618,2058,2072,2068,2057,2061,2056,1197
1014,1716347331088743095,2063,2059,2055,2057,2050,2058,1195
1015,1716347331098780487,2056,2065,2062,2052,2055,2056,1195
1016,1716347331108743005,2056,2045,2056,2056,2053,2053,1198
1017,1716347331118784284,2050,2061,2059,2064,2062,2051,1197
1018,1716347331128742654,2056,2052,2056,2060,2053,2052,1196
1019,1716347331138780636,2051,2050,2042,2042,2049,2048,1196
1020,1716347331148743866,2056,2045,2053,2058,2052,2053,1197
1021,1716347331158792879,2058,2076,2060,2062,2052,2052,1196
1022,1716347331168744256,2053,2041,2048,2050,2049,2051,1196
1023,1716347331178792358,2054,2047,2052,2039,2053,2052,1197
1024,1716347331188744325,2057,2056,2053,2061,2029,2050,1197
1025,1716347331198784222,2056,2064,2050,2058,2058,2049,1198
1026,1716347331208744255,2050,2047,2054,2054,2050,2054,1199
1027,1716347331218785674,2056,2080,2060,2078,2080,2054,1197
1028,1716347331228746519,2060,2056,2056,2061,2052,2056,1196
1029,1716347331238783179,2053,2061,2050,2053,2052,2047,1193
1030,1716347331248744474,2053,2046,2047,2052,2053,2051,1196
1031,1716347331258787667,2057,2063,2043,2054,2053,2051,1197
1032,1716347331268743442,2053,2057,2068,2056,2051,2053,1195
1033,1716347331278783940,2064,2084,2058,2059,2056,2055,1196
1034,1716347331288742330,2053,2043,2053,2054,2057,2053,1196
1035,1716347331298790532,2060,2091,2077,2053,2052,2054,1195
1036,1716347331308744303,2061,2054,2053,2069,2057,2057,1196
1037,1716347331318787085,2053,2062,2040,2052,2044,2052,1197
1038,1716347331328743331,2056,2049,2045,2063,2046,2059,1196
1039,1716347331338786594,2060,2055,2057,2050,2046,2052,1198
1040,1716347331348744774,2053,2049,2056,2064,2056,2055,1196
1041,1716347331358786834,2063,2072,2056,2057,2058,2055,1197
1042,1716347331368745715,2056,2050,2052,2056,2058,2053,1198
1043,1716347331378832752,2053,2068,2037,2050,2046,2053,1194
1044,1716347331388742498,2051,2042,2045,2055,2059,2057,1195
1045,1716347331398789368,2053,2064,2034,2050,2053,2056,1195
1046,1716347331408744892,2054,2049,2051,2064,2053,2054,1197
1047,1716347331418791762,2053,2060,2054,2056,2052,2049,1195
1048,1716347331428745503,2056,2046,2055,2054,2058,2054,1197
1049,1716347331438813834,2059,2061,2051,2060,2085,2053,1195
1050,1716347331448808945,2052,2080,2099,2060,2053,2060,1195
1051,1716347331458797322,2063,2064,2046,2052,2053,2053,1194
1052,1716347331468798705,2062,2057,2083,2064,2055,2053,1194
1053,1716347331478798264,2061,2064,2039,2064,2065,2051,1196
1054,1716347331488798173,2057,2052,2052,2059,2060,2053,1196
1055,1716347331498796580,2058,2062,2044,2050,2052,2054,1196
1056,1716347331508802020,2057,2052,2058,2051,2058,2057,1197
1057,1716347331518798003,2053,2057,2045,2061,2051,2052,1196
1058,1716347331528803914,2060,2060,2065,2060,2066,2058,1197
1059,1716347331538799054,2056,2064,2064,2056,2054,2050,1199
1060,1716347331548804765,2062,2054,2053,2054,2051,2054,1196
1061,1716347331558800346,2051,2056,2047,2037,2024,2052,1200
1062,1716347331568795146,2049,2041,2036,2052,2048,2056,1198
1063,1716347331578809083,2052,2065,2033,2058,2059,2052,1194
1064,1716347331588796649,2052,2052,2061,2066,2058,2057,1196
1065,1716347331598785767,2056,2057,2038,2052,2053,2048,1196
1066,1716347331608795976,2058,2054,2050,2060,2053,2056,1196
1067,1716347331618786609,2055,2059,2047,2060,2050,2047,1194
1068,1716347331628743615,2056,2043,2042,2060,2047,2052,1197
1069,1716347331638785015,2052,2052,2041,2052,2049,2053,1198
1070,1716347331648741712,2061,2062,2052,2056,2052,2053,1197
1071,1716347331658788642,2052,2045,2047,2048,2040,2051,1197
1072,1716347331668743725,2052,2052,2056,2048,2038,2051,1196
1073,1716347331678812698,2056,2060,2053,2031,2059,2048,1200
1074,1716347331688749266,2056,2060,2080,2059,2047,2054,1195
1075,1716347331698789423,2058,2052,2049,2055,2053,2050,1194
1076,1716347331708742332,2052,2040,2042,2056,2053,2050,1194
1077,1716347331718785605,2056,2076,2078,2061,2052,2056,1196
1078,1716347331728743123,2056,2056,2059,2046,2044,2056,1197
1079,1716347331738788861,2062,2090,2061,2056,2052,2056,1198
1080,1716347331748742862,2058,2052,2056,2050,2045,2052,1197
1081,1716347331758786636,2055,2050,2047,2052,2064,2053,1197
1082,1716347331768743764,2056,2056,2068,2057,2056,2054,1196
1083,1716347331778788790,2058,2057,2044,2066,2055,2050,1194
1084,1716347331788744375,2052,2037,2053,2061,2052,2057,1198
1085,1716347331798790262,2053,2076,2050,2056,2061,2048,1197
1086,1716347331808744465,2054,2056,2050,2056,2056,2055,1196
1087,1716347331818785182,2056,2061,2056,2055,2062,2056,1196
1088,1716347331828742339,2057,2050,2054,2064,2061,2056,1197
1089,1716347331838790673,2058,2056,2049,2056,2077,2058,1195
1090,1716347331848742770,2056,2059,2056,2064,2068,2053,1198
1091,1716347331858787596,2056,2064,2061,2052,2053,2048,1197
1092,1716347331868744052,2053,2051,2057,2062,2066,2053,1197
1093,1716347331878788698,2056,2069,2059,2064,2053,2060,1195
1094,1716347331888744002,2057,2061,2065,2065,2053,2054,1198
1095,1716347331898785631,2055,2061,2069,2058,2056,2048,1197
1096,1716347331908743661,2053,2042,2071,2049,2046,2056,1195
1097,1716347331918784098,2050,2050,2049,2049,2065,2054,1195
1098,1716347331928743640,2056,2042,2044,2056,2056,2056,1197
1099,1716347331938784659,2060,2053,2063,2054,2037,2053,1200
1100,1716347331948744011,2050,2050,2061,2053,2052,2056,1197
1101,1716347331958788877,2057,2062,2068,2056,2056,2053,1196
1102,1716347331968744501,2052,2054,2055,2056,2055,2056,1194
1103,1716347331978801451,2058,2068,2056,2065,2047,2051,1194
1104,1716347331988742497,2052,2050,2049,2054,2054,2052,1195
1105,1716347331998791401,2057,2065,2069,2053,2053,2049,1197
1106,1716347332008799186,2051,2042,2055,2061,2063,2057,1195
1107,1716347332018787313,2056,2079,2056,2040,2049,2050,1196
1108,1716347332028744250,2061,2051,2064,2055,2053,2056,1196
1109,1716347332038787763,2058,2062,2074,2052,2053,2051,1197
1110,1716347332048741294,2058,2068,2093,2057,2043,2056,1195
1111,1716347332058795818,2056,2057,2045,2049,2045,2052,1195
1112,1716347332068744510,2054,2052,2052,2058,2051,2057,1196
1113,1716347332078824022,2058,2066,2051,2052,2056,2052,1198
1114,1716347332088743216,2054,2045,2061,2062,2050,2057,1196
1115,1716347332098791089,2056,2065,2077,2050,2048,2052,1196
1116,1716347332108744038,2058,2032,2054,2053,2048,2054,1195
1117,1716347332118786570,2050,2045,2037,2051,2044,2049,1196
1118,1716347332128743687,2054,2048,2046,2061,2049,2056,1196
1119,1716347332138793874,2056,2056,2052,2042,2039,2050,1198
1120,1716347332148747604,2056,2056,2074,2047,2052,2056,1195
1121,1716347332158796709,2057,2057,2048,2060,2061,2051,1198
1122,1716347332168742804,2053,2042,2060,2050,2047,2052,1195
1123,1716347332178796047,2053,2054,2050,2059,2056,2050,1193
1124,1716347332188747533,2052,2048,2052,2056,2053,2055,1195
1125,1716347332198794744,2056,2073,2075,2058,2048,2050,1195
1126,1716347332208797940,2052,2042,2047,2053,2037,2052,1194
1127,1716347332218785567,2056,2066,2065,2058,2052,2047,1192
1128,1716347332228805985,2056,2060,2073,2053,2047,2056,1196
1129,1716347332238791788,2056,2073,2058,2060,2056,2057,1195
1130,1716347332248741611,2051,2042,2048,2050,2034,2045,1192
1131,1716347332258793040,2054,2054,2044,2045,2048,2052,1196
1132,1716347332268746029,2059,2057,2089,2052,2055,2056,1194
1133,1716347332278805985,2058,2061,2070,2056,2054,2050,1194
1134,1716347332288745909,2055,2044,2062,2057,2056,2055,1195
1135,1716347332298799021,2056,2058,2060,2056,2051,2052,1195
1136,1716347332308800954,2053,2041,2074,2066,2084,2057,1197
1137,1716347332318795695,2057,2060,2056,2064,2036,2044,1193
1138,1716347332328806415,2053,2052,2056,2055,2041,2052,1196
1139,1716347332338797487,2056,2071,2053,2050,2043,2050,1197
1140,1716347332348802346,2053,2048,2045,2055,2060,2047,1192
1141,1716347332358798459,2056,2053,2051,2054,2053,2054,1195
1142,1716347332368805713,2053,2048,2048,2054,2061,2057,1195
1143,1716347332378811053,2052,2056,2053,2053,2053,2053,1196
1144,1716347332388804129,2051,2046,2047,2056,2057,2052,1195
1145,1716347332398789752,2055,2057,2045,2053,2058,2047,1193
1146,1716347332408744404,2053,2048,2053,2056,2056,2056,1196
1147,1716347332418793739,2050,2056,2053,2052,2053,2051,1196
1148,1716347332428744124,2056,2046,2052,2054,2052,2054,1196
1149,1716347332438803397,2057,2045,2054,2069,2081,2050,1196
1150,1716347332448743171,2056,2047,2058,2060,2050,2052,1195
1151,1716347332458792115,2056,2054,2046,2054,2052,2050,1196
1152,1716347332468748441,2057,2048,2056,2056,2057,2056,1198
1153,1716347332478810951,2052,2057,2048,2052,2060,2053,1197
1154,1716347332488743622,2056,2056,2075,2061,2057,2060,1198
1155,1716347332498790572,2053,2052,2040,2057,2061,2053,1198
1156,1716347332508799910,2053,2046,2040,2062,2065,2056,1197
1157,1716347332518786744,2059,2071,2047,2066,2056,2054,1194
1158,1716347332528744493,2056,2052,2048,2061,2054,2060,1196
1159,1716347332538812664,2052,2056,2074,2067,2061,2049,1197
1160,1716347332548744032,2051,2040,2047,2056,2054,2054,1197
1161,1716347332558789629,2056,2060,2053,2053,2045,2055,1196
1162,1716347332568744552,2057,2049,2061,2059,2056,2056,1196
1163,1716347332578829405,2054,2061,2067,2057,2057,2056,1196
1164,1716347332588743320,2053,2046,2046,2057,2050,2056,1196
1165,1716347332598791212,2056,2058,2043,2060,2065,2056,1197
1166,1716347332608798375,2053,2061,2074,2058,2048,2052,1195
1167,1716347332618785350,2056,2052,2058,2060,2055,2054,1198
1168,1716347332628747958,2056,2053,2054,2053,2048,2056,1197
1169,1716347332638789187,2055,2056,2048,2052,2053,2050,1197
1170,1716347332648744141,2056,2058,2091,2057,2056,2057,1196
1171,1716347332658789999,2053,2052,2032,2049,2053,2052,1195
1172,1716347332668742447,2056,2048,2053,2058,2057,2057,1196
1173,1716347332678792163,2053,2056,2055,2056,2053,2052,1197
1174,1716347332688742597,2064,2052,2064,2059,2051,2056,1197
1175,1716347332698787153,2058,2052,2045,2054,2045,2054,1196
1176,1716347332708742326,2047,2032,2044,2041,2043,2057,1198
1177,1716347332718790509,2057,2066,2049,2047,2041,2048,1194
1178,1716347332728743739,2056,2051,2049,2050,2040,2049,1195
1179,1716347332738786060,2056,2060,2052,2056,2041,2052,1198
1180,1716347332748743248,2056,2059,2053,2063,2058,2058,1195
1181,1716347332758784617,2057,2078,2054,2056,2054,2050,1196
1182,1716347332768742546,2056,2062,2056,2056,2052,2054,1198
1183,1716347332778784356,2053,2049,2040,2051,2061,2054,1195
1184,1716347332788743047,2053,2050,2056,2058,2057,2052,1196
1185,1716347332798784807,2053,2052,2048,2057,2058,2052,1196
1186,1716347332808745541,2054,2047,2042,2042,2052,2056,1197
1187,1716347332818786840,2056,2081,2077,2057,2046,2053,1198
1188,1716347332828741683,2063,2056,2047,2059,2060,2054,1196
1189,1716347332838785317,2056,2056,2045,2059,2060,2052,1195
1190,1716347332848743326,2056,2053,2054,2054,2035,2052,1197
1191,1716347332858784265,2056,2059,2058,2051,2054,2050,1199
1192,1716347332868743005,2060,2060,2064,2057,2050,2056,1199
1193,1716347332878784996,2053,2051,2044,2050,2052,2052,1194
1194,1716347332888746292,2053,2043,2069,2058,2053,2056,1197
1195,1716347332898784164,2050,2032,2040,2046,2050,2047,1194
1196,1716347332908742875,2056,2047,2091,2051,2040,2054,1195
1197,1716347332918784885,2052,2056,2050,2051,2049,2053,1193
1198,1716347332928742915,2056,2052,2058,2063,2056,2055,1196
1199,1716347332938787220,2056,2050,2045,2052,2053,2048,1196
1200,1716347332948742033,2057,2057,2057,2052,2066,2057,1195
1201,1716347332958785376,2054,2064,2069,2058,2057,2052,1197
1202,1716347332968741561,2053,2042,2052,2055,2052,2054,1195
1203,1716347332978803691,2058,2048,2032,2049,2044,2053,1195
1204,1716347332988743425,2054,2047,2075,2060,2040,2056,1195
1205,1716347332998785325,2058,2052,2051,2052,2052,2055,1197
1206,1716347333008743905,2049,2045,2042,2053,2046,2052,1196
1207,1716347333018786657,2054,2044,2044,2052,2056,2058,1196
1208,1716347333028743424,2055,2047,2054,2059,2065,2059,1196
1209,1716347333038785425,2054,2056,2043,2057,2052,2054,1194
1210,1716347333048741580,2056,2046,2041,2056,2051,2054,1197
1211,1716347333058784082,2057,2053,2048,2054,2054,2047,1194
1212,1716347333068741811,2059,2066,2088,2073,2057,2058,1195
1213,1716347333078785925,2054,2076,2056,2051,2050,2056,1196
1214,1716347333088741650,2056,2045,2054,2058,2056,2056,1193
1215,1716347333098785935,2052,2053,2064,2050,2038,2051,1197
1216,1716347333108741850,2051,2050,2056,2058,2064,2057,1197
1217,1716347333118788049,2056,2056,2044,2056,2051,2052,1196
1218,1716347333128742621,2052,2044,2026,2061,2056,2055,1194
1219,1716347333138784472,2058,2063,2078,2052,2054,2049,1198
1220,1716347333148743102,2052,2053,2064,2058,2056,2057,1196
1221,1716347333158785634,2053,2054,2050,2053,2041,2050,1195
1222,1716347333168742511,2056,2048,2057,2057,2057,2054,1196
1223,1716347333178798438,2056,2052,2032,2052,2056,2055,1194
1224,1716347333188743252,2051,2043,2039,2049,2052,2056,1195
1225,1716347333198787798,2051,2039,2033,2041,2037,2050,1196
1226,1716347333208742470,2052,2050,2084,2061,2061,2054,1197
1227,1716347333218788990,2057,2061,2061,2061,2045,2052,1197
1228,1716347333228741408,2052,2046,2056,2056,2046,2054,1196
1229,1716347333238788048,2053,2057,2048,2052,2056,2052,1195
1230,1716347333248741578,2060,2061,2059,2062,2059,2056,1196
1231,1716347333258790883,2053,2044,2046,2056,2054,2056,1196
1232,1716347333268743332,2050,2040,2050,2058,2063,2056,1195
1233,1716347333278807284,2053,2049,2056,2045,2050,2054,1199
1234,1716347333288743181,2057,2048,2061,2050,2049,2053,1196
1235,1716347333298788548,2060,2070,2082,2052,2041,2047,1194
1236,1716347333308748181,2057,2050,2049,2051,2053,2055,1196
1237,1716347333318788658,2053,2049,2056,2053,2052,2053,1196
1238,1716347333328743231,2052,2047,2074,2057,2052,2056,1195
1239,1716347333338792866,2053,2050,2067,2029,2044,2056,1197
1240,1716347333348742539,2054,2050,2073,2064,2088,2059,1195
1241,1716347333358791012,2056,2058,2051,2054,2056,2052,1197
1242,1716347333368742830,2057,2051,2059,2053,2056,2058,1195
1243,1716347333378790772,2056,2059,2054,2064,2072,2052,1194
1244,1716347333388745715,2054,2049,2047,2052,2053,2053,1196
1245,1716347333398791583,2069,2069,2046,2057,2048,2059,1196
1246,1716347333408795831,2061,2048,2065,2059,2071,2056,1195
1247,1716347333418793596,2053,2052,2050,2056,2052,2047,1194
1248,1716347333428796392,2056,2042,2049,2057,2050,2058,1196
1249,1716347333438800319,2055,2054,2052,2051,2050,2050,1196
1250,1716347333448796582,2053,2052,2050,2059,2056,2060,1195
1251,1716347333458794468,2052,2056,2052,2043,2044,2048,1195
1252,1716347333468801822,2056,2047,2052,2060,2056,2052,1198
1253,1716347333478796932,2058,2064,2051,2054,2055,2051,1197
1254,1716347333488799747,2056,2045,2045,2054,2057,2056,1196
1255,1716347333498796371,2057,2061,2062,2056,2048,2054,1195
1256,1716347333508806590,2057,2047,2050,2058,2058,2057,1196
1257,1716347333518799707,2055,2056,2042,2055,2041,2051,1194
1258,1716347333528804666,2060,2052,2080,2047,2036,2058,1197
1259,1716347333538807091,2059,2056,2048,2042,2039,2048,1196
1260,1716347333548796791,2059,2073,2060,2055,2050,2053,1198
1261,1716347333558785440,2056,2052,2032,2056,2056,2050,1196
1262,1716347333568796220,2052,2052,2052,2049,2051,2053,1194
1263,1716347333578787623,2058,2057,2048,2056,2056,2051,1196
1264,1716347333588742657,2056,2048,2052,2059,2053,2056,1196
1265,1716347333598787122,2061,2067,2068,2046,2038,2053,1194
1266,1716347333608741755,2058,2052,2053,2052,2050,2054,1194
1267,1716347333618788024,2052,2077,2057,2060,2056,2053,1195
1268,1716347333628744741,2060,2043,2048,2058,2080,2056,1197
1269,1716347333638784136,2056,2056,2046,2047,2040,2048,1196
1270,1716347333648744150,2052,2048,2058,2060,2054,2056,1196
1271,1716347333658788414,2057,2053,2049,2057,2056,2051,1192
1272,1716347333668742837,2052,2049,2083,2056,2051,2050,1197
1273,1716347333678783605,2058,2060,2049,2060,2056,2057,1197
1274,1716347333688743147,2051,2025,2050,2057,2056,2059,1195
1275,1716347333698764037,2055,2056,2061,2053,2046,2054,1196
1276,1716347333708743918,2056,2057,2068,2074,2072,2058,1193
1277,1716347333718786360,2057,2066,2051,2061,2057,2050,1195
1278,1716347333728743858,2052,2053,2058,2064,2058,2060,1195
1279,1716347333738785408,2052,2053,2050,2053,2053,2052,1197
1280,1716347333748745270,2052,2040,2077,2059,2069,2054,1195
1281,1716347333758790487,2055,2080,2064,2061,2066,2052,1197
1282,1716347333768744609,2056,2046,2060,2058,2052,2054,1197
1283,1716347333778791318,2052,2068,2093,2060,2054,2053,1195
1284,1716347333788743296,2053,2049,2054,2047,2036,2047,1192
1285,1716347333798788463,2052,2057,2055,2052,2052,2047,1194
1286,1716347333808743646,2054,2048,2052,2056,2058,2053,1197
1287,1716347333818787320,2056,2063,2055,2054,2050,2054,1197
1288,1716347333828744227,2056,2072,2058,2057,2048,2055,1194
1289,1716347333838787300,2059,2056,2046,2057,2060,2049,1196
1290,1716347333848745479,2054,2041,2044,2056,2053,2053,1196
1291,1716347333858790015,2057,2052,2048,2054,2049,2050,1196
1292,1716347333868744397,2061,2060,2056,2073,2084,2062,1196
1293,1716347333878787721,2056,2081,2038,2050,2068,2053,1196
1294,1716347333888742573,2058,2043,2045,2047,2056,2052,1197
1295,1716347333898787059,2057,2063,2056,2068,2069,2053,1195
1296,1716347333908743496,2053,2044,2052,2057,2057,2055,1198
1297,1716347333918787580,2051,2048,2049,2053,2050,2053,1195
1298,1716347333928745580,2053,2046,2060,2060,2056,2056,1197
1299,1716347333938789734,2050,2054,2052,2064,2080,2052,1198
1300,1716347333948744117,2049,2040,2075,2058,2056,2057,1197
1301,1716347333958787359,2049,2040,2040,2056,2058,2060,1195
1302,1716347333968743465,2056,2047,2052,2044,2056,2052,1197
1303,1716347333978790365,2057,2061,2051,2056,2057,2055,1195
1304,1716347333988742092,2053,2039,2045,2050,2045,2053,1197
1305,1716347333998784153,2061,2067,2041,2056,2053,2051,1196
1306,1716347334008742863,2053,2053,2072,2057,2052,2056,1197
1307,1716347334018783010,2057,2058,2048,2065,2075,2050,1195
1308,1716347334028744015,2064,2056,2046,2052,2045,2058,1195
1309,1716347334038784413,2051,2056,2059,2050,2051,2052,1196
1310,1716347334048745117,2052,2052,2058,2057,2054,2057,1196
1311,1716347334058788029,2054,2056,2062,2058,2056,2048,1196
1312,1716347334068743744,2052,2054,2049,2056,2052,2053,1196
1313,1716347334078784232,2053,2065,2057,2051,2052,2053,1197
1314,1716347334088745217,2053,2046,2052,2060,2060,2064,1196
1315,1716347334098788520,2053,2032,2033,2049,2049,2052,1196
1316,1716347334108744005,2053,2042,2050,2064,2069,2062,1196
1317,1716347334118794842,2050,2053,2056,2053,2060,2052,1195
1318,1716347334128744797,2052,2045,2064,2057,2052,2057,1196
1319,1716347334138790204,2055,2056,2053,2046,2068,2053,1197
1320,1716347334148744235,2057,2049,2049,2057,2045,2053,1195
1321,1716347334158787608,2052,2049,2039,2052,2056,2050,1196
1322,1716347334168742983,2056,2061,2061,2061,2070,2058,1197
1323,1716347334178788480,2056,2049,2070,2056,2054,2050,1193
1324,1716347334188743724,2053,2048,2042,2054,2053,2054,1193
1325,1716347334198789582,2058,2064,2054,2066,2072,2058,1196
1326,1716347334208742802,2056,2052,2056,2054,2047,2051,1198
1327,1716347334218790984,2056,2051,2049,2056,2050,2051,1197
1328,1716347334228742811,2053,2046,2056,2056,2050,2048,1195
1329,1716347334238800533,2057,2064,2061,2068,2060,2052,1195
1330,1716347334248744364,2058,2069,2058,2053,2050,2054,1195
1331,1716347334258793760,2060,2064,2053,2053,2049,2052,1196
1332,1716347334268796976,2054,2057,2070,2059,2047,2052,1196
1333,1716347334278795292,2058,2061,2053,2053,2051,2050,1198
1334,1716347334288796064,2057,2052,2060,2053,2054,2059,1196
1335,1716347334298797457,2056,2053,2047,2056,2072,2053,1195
1336,1716347334308802666,2053,2049,2068,2057,2056,2056,1195
1337,1716347334318798378,2057,2064,2073,2077,2080,2049,1195
1338,1716347334328802796,2057,2073,2058,2065,2075,2059,1195
1339,1716347334338802806,2050,2054,2052,2056,2055,2050,1197
1340,1716347334348804780,2051,2057,2059,2056,2051,2051,1194
1341,1716347334358799820,2054,2053,2058,2073,2073,2058,1195
1342,1716347334368805702,2052,2043,2051,2056,2053,2057,1195
1343,1716347334378804770,2055,2056,2065,2053,2052,2052,1193
1344,1716347334388741087,2058,2049,2052,2058,2052,2060,1194
1345,1716347334398792827,2054,2054,2073,2059,2064,2051,1197
1346,1716347334408744284,2059,2070,2072,2056,2056,2058,1194
1347,1716347334418786074,2058,2055,2033,2050,2062,2049,1194
1348,1716347334428744715,2052,2045,2061,2065,2065,2053,1197
1349,1716347334438822083,2058,2064,2047,2048,2048,2049,1194
1350,1716347334448741137,2056,2047,2047,2043,2041,2052,1194
1351,1716347334458792266,2054,2046,2052,2050,2054,2053,1196
1352,1716347334468743612,2056,2061,2052,2055,2058,2053,1195
1353,1716347334478787506,2054,2052,2052,2051,2049,2054,1195
1354,1716347334488744283,2057,2056,2069,2056,2052,2057,1196
1355,1716347334498787075,2056,2072,2056,2051,2050,2053,1197
1356,1716347334508743992,2057,2053,2067,2051,2044,2048,1195
1357,1716347334518790302,2052,2053,2050,2053,2056,2057,1197
1358,1716347334528746276,2056,2049,2059,2056,2052,2052,1195
1359,1716347334538803296,2060,2067,2055,2068,2067,2057,1198
1360,1716347334548744754,2056,2050,2056,2058,2060,2059,1195
1361,1716347334558784320,2049,2057,2046,2054,2053,2050,1198
1362,1716347334568744654,2051,2042,2040,2059,2066,2053,1196
1363,1716347334578787797,2054,2053,2050,2065,2080,2058,1195
1364,1716347334588744453,2056,2046,2048,2056,2041,2056,1195
1365,1716347334598784360,2052,2052,2048,2052,2049,2054,1196
1366,1716347334608799148,2054,2042,2051,2060,2073,2057,1196
1367,1716347334618785452,2052,2050,2041,2056,2053,2056,1196
1368,1716347334628744352,2052,2036,2045,2054,2052,2054,1197
1369,1716347334638791874,2055,2044,2048,2051,2054,2048,1195
1370,1716347334648744563,2058,2041,2050,2058,2057,2056,1195
1371,1716347334658785391,2050,2056,2041,2048,2046,2047,1194
1372,1716347334668746997,2054,2046,2039,2049,2053,2058,1196
1373,1716347334678792425,2058,2064,2068,2052,2056,2051,1196
1374,1716347334688743762,2054,2057,2081,2053,2049,2056,1196
1375,1716347334698761074,2057,2056,2059,2049,2042,2049,1197
1376,1716347334708800220,2056,2058,2056,2056,2043,2062,1195
1377,1716347334718786573,2056,2048,2046,2057,2057,2059,1196
1378,1716347334728743470,2052,2037,2048,2056,2056,2052,1196
1379,1716347334738785792,2062,2071,2085,2054,2057,2053,1198
1380,1716347334748742037,2058,2047,2052,2054,2054,2056,1196
1381,1716347334758784779,2052,2057,2088,2074,2056,2059,1197
1382,1716347334768745845,2052,2056,2058,2058,2052,2053,1197
1383,1716347334778786623,2056,2054,2052,2056,2048,2049,1193
1384,1716347334788742848,2056,2053,2060,2056,2056,2060,1194
1385,1716347334798785371,2056,2067,2053,2050,2041,2053,1196
1386,1716347334808742778,2055,2050,2045,2049,2046,2054,1193
1387,1716347334818786833,2057,2059,2052,2054,2049,2052,1194
1388,1716347334828742639,2058,2058,2077,2054,2045,2055,1197
1389,1716347334838787184,2053,2050,2054,2047,2044,2056,1196
1390,1716347334848744422,2056,2052,2064,2056,2056,2053,1194
1391,1716347334858789839,2061,2060,2064,2055,2053,2052,1195
1392,1716347334868742748,2054,2056,2066,2054,2052,2056,1195
1393,1716347334878768007,2052,2036,2041,2051,2050,2050,1197
1394,1716347334888796501,2055,2058,2116,2059,2052,2049,1197
1395,1716347334898787223,2056,2056,2047,2054,2053,2052,1196
1396,1716347334908742137,2058,2046,2058,2058,2050,2053,1196
1397,1716347334918787273,2058,2044,2053,2056,2055,2051,1195
1398,1716347334928744521,2056,2040,2054,2070,2083,2060,1196
1399,1716347334938824966,2058,2054,2084,2060,2056,2049,1195
1400,1716347334948741525,2052,2038,2049,2058,2054,2054,1195
1401,1716347334958785320,2047,2052,2049,2058,2054,2051,1197
1402,1716347334968741706,2053,2054,2072,2056,2055,2058,1196
1403,1716347334978794297,2058,2061,2046,2060,2053,2058,1194
1404,1716347334988743970,2055,2060,2078,2057,2056,2056,1194
1405,1716347334998784407,2056,2049,2040,2056,2059,2051,1196
1406,1716347335008747176,2055,2049,2075,2061,2053,2053,1195
1407,1716347335018787223,2054,2059,2035,2056,2045,2050,1197
1408,1716347335028744390,2054,2068,2060,2054,2055,2056,1198
1409,1716347335038808954,2056,2048,2036,2046,2047,2050,1196
1410,1716347335048743268,2054,2054,2082,2066,2064,2053,1195
1411,1716347335058786061,2052,2066,2047,2058,2056,2053,1197
1412,1716347335068744019,2054,2054,2056,2066,2061,2056,1195
1413,1716347335078791331,2057,2050,2056,2052,2053,2053,1197
1414,1716347335088745122,2056,2052,2053,2056,2055,2056,1197
1415,1716347335098783586,2053,2031,2046,2054,2057,2057,1197
1416,1716347335108747396,2057,2050,2092,2068,2064,2056,1195
1417,1716347335118788034,2047,2056,2045,2052,2040,2049,1195
1418,1716347335128748027,2053,2053,2051,2050,2053,2056,1196
1419,1716347335138805017,2057,2049,2044,2056,2055,2049,1196
1420,1716347335148742867,2058,2046,2052,2058,2054,2054,1197
1421,1716347335158785389,2054,2056,2056,2056,2052,2056,1196
1422,1716347335168743038,2054,2047,2048,2054,2052,2056,1198
1423,1716347335178791441,2053,2058,2045,2049,2035,2051,1195
1424,1716347335188742587,2054,2049,2044,2066,2052,2052,1196
1425,1716347335198787814,2057,2079,2093,2053,2047,2049,1194
1426,1716347335208743338,2056,2044,2045,2045,2045,2056,1196
1427,1716347335218784808,2057,2061,2064,2050,2048,2059,1194
1428,1716347335228743017,2056,2052,2044,2054,2051,2053,1196
1429,1716347335238807611,2056,2050,2056,2053,2048,2050,1196
1430,1716347335248743047,2056,2041,2056,2060,2053,2054,1194
1431,1716347335258783956,2055,2052,2047,2052,2055,2053,1195
1432,1716347335268748078,2057,2061,2066,2060,2052,2055,1197
1433,1716347335278790348,2057,2062,2053,2056,2052,2048,1199
1434,1716347335288799496,2052,2049,2034,2051,2045,2062,1197
1435,1716347335298785189,2057,2068,2093,2058,2044,2056,1196
1436,1716347335308742627,2058,2056,2066,2060,2060,2056,1196
1437,1716347335318787623,2054,2051,2052,2052,2047,2047,1195
1438,1716347335328743578,2055,2047,2051,2060,2040,2059,1194
1439,1716347335338805448,2053,2040,2052,2038,2043,2056,1196
1440,1716347335348742306,2047,2033,2036,2050,2054,2056,1196
1441,1716347335358789927,2053,2050,2060,2050,2052,2045,1194
1442,1716347335368742807,2052,2043,2033,2059,2053,2056,1194
1443,1716347335378797613,2052,2045,2040,2047,2050,2053,1193
1444,1716347335388753017,2053,2056,2078,2057,2047,2056,1193
1445,1716347335398792673,2060,2052,2048,2053,2056,2050,1193
1446,1716347335408796640,2052,2042,2060,2056,2046,2053,1196
1447,1716347335418793654,2054,2062,2047,2054,2047,2048,1196
1448,1716347335428795889,2051,2041,2046,2056,2053,2056,1196
1449,1716347335438808854,2056,2068,2079,2056,2057,2052,1195
1450,1716347335448799897,2058,2052,2052,2056,2058,2056,1195
1451,1716347335458796069,2056,2056,2047,2051,2048,2056,1196
1452,1716347335468801320,2060,2056,2068,2052,2052,2056,1195
1453,1716347335478797863,2052,2045,2044,2051,2053,2056,1196
1454,1716347335488802201,2056,2055,2047,2060,2061,2056,1196
1455,1716347335498798864,2056,2072,2039,2054,2050,2053,1198
1456,1716347335508796891,2058,2053,2052,2057,2051,2058,1194
1457,1716347335518782904,2057,2056,2052,2051,2054,2047,1194
1458,1716347335528797612,2053,2056,2052,2056,2055,2056,1196
1459,1716347335538805908,2053,2049,2025,2053,2046,2056,1196
1460,1716347335548809555,2056,2061,2065,2056,2052,2058,1195
1461,1716347335558784066,2061,2075,2113,2059,2053,2052,1197
1462,1716347335568798013,2057,2057,2062,2054,2054,2054,1196
1463,1716347335578804415,2058,2061,2041,2051,2050,2050,1193
1464,1716347335588743027,2061,2060,2056,2056,2052,2053,1194
1465,1716347335598786761,2056,2052,2044,2052,2052,2052,1196
1466,1716347335608747375,2054,2057,2068,2056,2060,2053,1194
1467,1716347335618786861,2054,2061,2066,2052,2056,2052,1195
1468,1716347335628744120,2052,2052,2080,2060,2049,2057,1192
1469,1716347335638810106,2053,2048,2044,2052,2053,2049,1195
1470,1716347335648742386,2058,2060,2070,2063,2061,2057,1197
1471,1716347335658788795,2057,2051,2042,2065,2072,2056,1195
1472,1716347335668796770,2058,2089,2060,2065,2057,2057,1195
1473,1716347335678812601,2063,2070,2104,2064,2052,2053,1197
1474,1716347335688805156,2052,2050,2042,2072,2064,2056,1195
1475,1716347335698792612,2052,2058,2059,2054,2050,2056,1196
1476,1716347335708742345,2052,2057,2053,2056,2052,2052,1196
1477,1716347335718788625,2056,2065,2076,2060,2053,2051,1196
1478,1716347335728743879,2056,2058,2068,2054,2054,2052,1195
1479,1716347335738817740,2058,2081,2058,2046,2040,2050,1198
1480,1716347335748742456,2056,2049,2052,2058,2054,2054,1198
1481,1716347335758789025,2060,2064,2046,2060,2056,2052,1197
1482,1716347335768798824,2059,2052,2059,2053,2054,2053,1196
1483,1716347335778799415,2056,2053,2041,2048,2045,2056,1194
1484,1716347335788742435,2055,2059,2046,2052,2056,2056,1195
1485,1716347335798789677,2054,2047,2070,2058,2058,2053,1195
1486,1716347335808742115,2058,2084,2057,2042,2048,2054,1195
1487,1716347335818788845,2066,2071,2084,2063,2056,2056,1197
1488,1716347335828742897,2054,2046,2045,2053,2052,2052,1196
1489,1716347335838803303,2057,2065,2052,2056,2053,2055,1196
1490,1716347335848795378,2060,2047,2052,2065,2064,2053,1195
1491,1716347335858791129,2057,2061,2057,2060,2058,2059,1196
1492,1716347335868749249,2056,2049,2053,2061,2054,2054,1195
1493,1716347335878797872,2058,2060,2056,2056,2057,2052,1195
1494,1716347335888741664,2057,2068,2106,2062,2056,2056,1196
1495,1716347335898785909,2053,2049,2056,2053,2042,2057,1196
1496,1716347335908741514,2055,2049,2042,2056,2063,2057,1196
1497,1716347335918788384,2057,2052,2047,2060,2053,2052,1195
1498,1716347335928742827,2056,2049,2056,2054,2047,2056,1196
1499,1716347335938798393,2054,2043,2046,2053,2051,2055,1196
1500,1716347335948741674,2058,2042,2036,2046,2053,2052,1197
1501,1716347335958784126,2054,2049,2050,2076,2107,2062,1195
1502,1716347335968743067,2059,2062,2061,2057,2047,2049,1196
1503,1716347335978795728,2056,2045,2053,2054,2045,2053,1197
1504,1716347335988741433,2060,2050,2056,2058,2056,2058,1195
1505,1716347335998783585,2056,2058,2063,2054,2053,2056,1195
1506,1716347336008741544,2052,2038,2043,2054,2056,2053,1195
1507,1716347336018784807,2056,2049,2057,2057,2052,2056,1198
1508,1716347336028743247,2050,2033,2033,2059,2056,2053,1197
1509,1716347336038797752,2054,2047,2032,2049,2059,2054,1195
1510,1716347336048742696,2060,2076,2080,2057,2045,2059,1197
1511,1716347336058787042,2043,2040,2037,2045,2058,2053,1196
1512,1716347336068810146,2050,2053,2048,2055,2052,2056,1195
1513,1716347336078784767,2058,2051,2047,2056,2061,2066,1197
1514,1716347336088748578,2052,2039,2054,2051,2056,2052,1196
1515,1716347336098794786,2054,2050,2046,2056,2041,2058,1197
1516,1716347336108747926,2056,2053,2060,2055,2049,2058,1195
1517,1716347336118789646,2051,2041,2034,2052,2049,2052,1193
1518,1716347336128743467,2056,2047,2038,2052,2052,2056,1195
1519,1716347336138788605,2054,2047,2044,2061,2067,2052,1197
1520,1716347336148744019,2055,2048,2040,2053,2052,2057,1197
1521,1716347336158789096,2057,2061,2053,2064,2014,2034,1195
1522,1716347336168743588,2057,2052,2056,2068,2077,2064,1199
1523,1716347336178791089,2056,2056,2059,2054,2053,2053,1194
1524,1716347336188798293,2056,2057,2084,2061,2051,2052,1195
1525,1716347336198792132,2049,2046,2068,2056,2052,2057,1194
1526,1716347336208796831,2052,2051,2064,2055,2056,2051,1195
1527,1716347336218791250,2061,2056,2074,2058,2056,2052,1194
1528,1716347336228797382,2059,2055,2038,2054,2065,2056,1195
1529,1716347336238794356,2058,2074,2151,2064,2057,2052,1196
1530,1716347336248743538,2056,2060,2041,2054,2054,2056,1197
1531,1716347336258795729,2050,2044,2053,2050,2042,2056,1197
1532,1716347336268797532,2052,2024,2044,2064,2055,2057,1196
1533,1716347336278793484,2047,2042,2056,2059,2053,2054,1195
1534,1716347336288803223,2050,2052,2057,2058,2070,2057,1194
1535,1716347336298796801,2058,2047,2046,2069,2068,2053,1196
1536,1716347336308803313,2056,2047,2065,2062,2050,2056,1194
1537,1716347336318797702,2057,2050,2042,2062,2059,2055,1197
1538,1716347336328803163,2051,2044,2062,2056,2052,2053,1195
1539,1716347336338797813,2052,2045,2051,2056,2047,2049,1197
1540,1716347336348744321,2052,2051,2065,2052,2049,2051,1196
1541,1716347336358787614,2051,2050,2046,2054,2054,2057,1194
1542,1716347336368766393,2067,2076,2146,2063,2062,2056,1196
1543,1716347336378791791,2052,2046,2041,2058,2057,2049,1195
1544,1716347336388743619,2052,2041,2055,2056,2056,2052,1195
1545,1716347336398783396,2056,2058,2092,2052,2046,2050,1196
1546,1716347336408742928,2052,2064,2056,2054,2046,2052,1197
1547,1716347336418784087,2049,2049,2063,2049,2040,2049,1195
1548,1716347336428742056,2056,2052,2056,2056,2042,2044,1192
1549,1716347336438786962,2054,2049,2029,2056,2051,2046,1193
1550,1716347336448744290,2054,2052,2048,2040,2045,2058,1194
1551,1716347336458785600,2058,2050,2060,2051,2044,2050,1196
1552,1716347336468742988,2057,2060,2054,2053,2054,2049,1196
1553,1716347336478787073,2058,2049,2057,2049,2041,2049,1194
1554,1716347336488742628,2056,2066,2061,2055,2055,2056,1196
1555,1716347336498785089,2057,2065,2058,2056,2062,2050,1198
1556,1716347336508741465,2058,2060,2067,2051,2056,2061,1194
1557,1716347336518786381,2052,2052,2039,2054,2060,2058,1194
1558,1716347336528816659,2056,2043,2046,2061,2056,2052,1196
1559,1716347336538797743,2056,2062,2041,2043,2027,2045,1194
1560,1716347336548742808,2055,2058,2058,2053,2050,2053,1195
1561,1716347336558787033,2053,2056,2064,2057,2052,2057,1197
1562,1716347336568745253,2052,2032,2044,2052,2050,2052,1193
1563,1716347336578790349,2056,2049,2047,2053,2051,2049,1195
1564,1716347336588742888,2052,2051,2037,2052,2055,2056,1195
1565,1716347336598785059,2054,2057,2043,2062,2060,2049,1196
1566,1716347336608802342,2064,2062,2068,2057,2050,2052,1194
1567,1716347336618790640,2047,2054,2054,2054,2068,2052,1196
1568,1716347336628742297,2058,2053,2062,2056,2048,2048,1195
1569,1716347336638787334,2049,2041,2036,2053,2052,2052,1195
1570,1716347336648742888,2054,2046,2054,2048,2045,2056,1196
1571,1716347336658785019,2052,2065,2085,2060,2046,2053,1194
1572,1716347336668742898,2050,2045,2049,2066,2065,2053,1196
1573,1716347336678787344,2056,2055,2054,2049,2052,2055,1197
1574,1716347336688741867,2056,2053,2042,2062,2059,2052,1197
1575,1716347336698789087,2060,2059,2064,2053,2052,2054,1196
1576,1716347336708745854,2054,2048,2049,2053,2042,2056,1196
1577,1716347336718792644,2054,2054,2094,2057,2048,2052,1197
1578,1716347336728741957,2053,2046,2042,2049,2049,2052,1195
1579,1716347336738787004,2057,2059,2058,2057,2054,2054,1200
1580,1716347336748742669,2058,2050,2044,2056,2049,2050,1196
1581,1716347336758787604,2057,2052,2084,2060,2054,2053,1195
1582,1716347336768745253,2052,2047,2045,2067,2056,2049,1195
1583,1716347336778786563,2053,2053,2053,2052,2057,2053,1196
1584,1716347336788741887,2056,2047,2082,2066,2064,2057,1195
1585,1716347336798787875,2052,2056,2062,2056,2054,2050,1197
1586,1716347336808743600,2054,2051,2064,2061,2052,2050,1194
1587,1716347336818791552,2053,2050,2046,2060,2066,2060,1198
1588,1716347336828742869,2057,2057,2059,2055,2050,2052,1195
1589,1716347336838791983,2054,2056,2058,2053,2053,2056,1195
1590,1716347336848743911,2050,2043,2058,2060,2055,2053,1196
1591,1716347336858792825,2058,2052,2040,2053,2058,2046,1192
1592,1716347336868751966,2052,2045,2053,2056,2056,2056,1197
1593,1716347336878785541,2052,2045,2051,2058,2056,2051,1195
1594,1716347336888742178,2059,2064,2050,2052,2080,2060,1198
1595,1716347336898786623,2052,2053,2050,2054,2049,2060,1196
1596,1716347336908743009,2056,2057,2067,2053,2042,2054,1198
1597,1716347336918787004,2054,2065,2084,2057,2058,2052,1196
1598,1716347336928743079,2063,2078,2062,2061,2073,2056,1197
1599,1716347336938791753,2060,2063,2075,2056,2053,2055,1197
1600,1716347336948743189,2056,2051,2050,2056,2056,2053,1195
1601,1716347336958785311,2056,2051,2050,2074,2076,2054,1198
1602,1716347336968743481,2056,2052,2047,2051,2054,2057,1194
1603,1716347336978783277,2051,2047,2042,2054,2049,2049,1195
1604,1716347336988742699,2055,2053,2052,2057,2049,2052,1195
1605,1716347336998791953,2052,2046,2045,2056,2055,2056,1196
1606,1716347337008746115,2056,2050,2068,2052,2057,2056,1193
1607,1716347337018789339,2050,2024,2039,2054,2041,2053,1199
1608,1716347337028748871,2060,2073,2064,2060,2062,2054,1194
1609,1716347337038792395,2052,2038,2042,2052,2056,2050,1196
1610,1716347337048745034,2059,2052,2076,2058,2058,2056,1194
1611,1716347337058789720,2055,2070,2099,2062,2066,2053,1195
1612,1716347337068744332,2056,2051,2040,2047,2049,2056,1195
1613,1716347337078789139,2056,2055,2084,2060,2056,2057,1196
1614,1716347337088745325,2050,2028,2045,2054,2052,2052,1196
1615,1716347337098790912,2051,2048,2064,2057,2056,2052,1197
1616,1716347337108743321,2054,2042,2049,2057,2054,2056,1196
1617,1716347337118790241,2056,2056,2062,2057,2056,2052,1198
1618,1716347337128743251,2064,2056,2062,2061,2072,2056,1194
1619,1716347337138783859,2056,2054,2028,2056,2048,2056,1197
1620,1716347337148745205,2055,2053,2056,2056,2054,2053,1196
1621,1716347337158787005,2058,2061,2066,2049,2061,2052,1197
1622,1716347337168797425,2057,2060,2056,2056,2052,2053,1197
1623,1716347337178798698,2050,2049,2056,2060,2057,2058,1196
1624,1716347337188746047,2060,2064,2056,2058,2061,2053,1197
1625,1716347337198784461,2057,2065,2056,2053,2049,2053,1195
1626,1716347337208796183,2057,2048,2028,2061,2060,2056,1197
1627,1716347337218790332,2056,2040,2042,2054,2050,2052,1193
1628,1716347337228743923,2058,2047,2044,2058,2051,2053,1197
1629,1716347337238794420,2059,2097,2068,2054,2049,2050,1196
1630,1716347337248744394,2058,2049,2036,2048,2048,2052,1193
1631,1716347337258792857,2054,2052,2033,2040,2053,2053,1195
1632,1716347337268743112,2061,2060,2047,2052,2046,2053,1195
1633,1716347337278789862,2056,2054,2044,2057,2052,2050,1198
1634,1716347337288813448,2057,2054,2046,2055,2048,2056,1194
1635,1716347337298787828,2057,2056,2056,2059,2049,2056,1196
1636,1716347337308744595,2064,2072,2070,2052,2053,2054,1196
1637,1716347337318791315,2049,2049,2057,2052,2052,2054,1197
1638,1716347337328742541,2057,2051,2076,2056,2052,2056,1198
1639,1716347337338945712,2055,2044,2076,2056,2056,2049,1198
1640,1716347337348744385,2059,2050,2044,2054,2059,2054,1196
1641,1716347337358794231,2053,2044,2042,2057,2056,2054,1196
1642,1716347337368797216,2055,2048,2053,2053,2057,2056,1198
1643,1716347337378804190,2052,2034,2048,2047,2054,2053,1194
1644,1716347337388799881,2056,2045,2039,2057,2042,2055,1194
1645,1716347337398794521,2058,2053,2058,2059,2062,2053,1197
1646,1716347337408804952,2054,2058,2028,2051,2045,2053,1196
1647,1716347337418798139,2053,2048,2071,2054,2061,2056,1198
1648,1716347337428806645,2057,2065,2044,2057,2054,2051,1195
1649,1716347337438798369,2059,2047,2047,2056,2057,2056,1197
1650,1716347337448810954,2052,2049,2050,2046,2045,2052,1194
1651,1716347337458799581,2052,2041,2049,2050,2045,2053,1197
1652,1716347337468805243,2057,2053,2045,2056,2060,2053,1196
1653,1716347337478800494,2056,2048,2049,2058,2061,2056,1197
1654,1716347337488811374,2059,2069,2057,2068,2077,2056,1197
1655,1716347337498784904,2053,2052,2052,2056,2053,2053,1196
1656,1716347337508750809,2053,2036,2057,2072,2088,2063,1196
1657,1716347337518784984,2051,2044,2052,2052,2054,2054,1196
1658,1716347337528743524,2053,2056,2063,2064,2057,2053,1197
1659,1716347337538784503,2052,2046,2043,2048,2052,2053,1198
1660,1716347337548745418,2058,2062,2084,2065,2065,2053,1197
1661,1716347337558787649,2055,2047,2044,2053,2048,2056,1195
1662,1716347337568744116,2057,2064,2060,2053,2057,2052,1195
1663,1716347337578787119,2048,2044,2049,2054,2052,2051,1196
1664,1716347337588744246,2058,2065,2050,2058,2053,2054,1196
1665,1716347337598786618,2052,2036,2028,2054,2046,2053,1195
1666,1716347337608797508,2057,2049,2033,2053,2056,2062,1197
1667,1716347337618790716,2055,2047,2041,2062,2058,2056,1195
1668,1716347337628744658,2059,2053,2053,2050,2048,2050,1195
1669,1716347337638785095,2054,2040,2049,2054,2051,2053,1196
1670,1716347337648797419,2056,2059,2057,2062,2082,2058,1196
1671,1716347337658790075,2050,2045,2056,2053,2052,2056,1196
1672,1716347337668744047,2053,2061,2040,2051,2052,2055,1196
1673,1716347337678792931,2052,2050,2059,2056,2055,2049,1200
1674,1716347337688813139,2054,2049,2037,2052,2041,2056,1196
1675,1716347337698784695,2057,2056,2085,2051,2046,2054,1196
1676,1716347337708743916,2057,2052,2052,2060,2056,2052,1195
1677,1716347337718789123,2051,2041,2057,2054,2049,2052,1198
1678,1716347337728744218,2052,2047,2048,2059,2057,2052,1197
1679,1716347337738792901,2057,2057,2058,2055,2049,2054,1198
1680,1716347337748744758,2052,2056,2042,2055,2049,2053,1195
1681,1716347337758788793,2057,2050,2052,2056,2054,2053,1194
1682,1716347337768743476,2054,2053,2052,2054,2056,2056,1194
1683,1716347337778791879,2050,2040,2040,2045,2049,2052,1192
1684,1716347337788804905,2058,2044,2047,2052,2051,2045,1193
1685,1716347337798784415,2045,2049,2060,2053,2052,2052,1195
1686,1716347337808744398,2057,2058,2064,2056,2050,2056,1197
1687,1716347337818787100,2049,2048,2064,2056,2048,2052,1197
1688,1716347337828742615,2055,2045,2043,2049,2041,2056,1195
1689,1716347337838796719,2055,2058,2049,2064,2055,2050,1195
1690,1716347337848744088,2059,2045,2044,2051,2050,2056,1194
1691,1716347337858790547,2053,2046,2061,2056,2063,2054,1197
1692,1716347337868744038,2058,2044,2047,2052,2050,2050,1196
1693,1716347337878791920,2065,2069,2096,2076,2050,2056,1196
1694,1716347337888806729,2061,2072,2063,2062,2048,2056,1196
1695,1716347337898788604,2052,2045,2072,2054,2046,2049,1197
1696,1716347337908744449,2057,2054,2047,2048,2048,2054,1195
1697,1716347337918790507,2052,2021,2048,2056,2052,2053,1198
1698,1716347337928743878,2056,2047,2053,2055,2057,2056,1196
1699,1716347337938797952,2056,2050,2053,2057,2053,2050,1196
1700,1716347337948744570,2054,2053,2055,2052,2048,2053,1196
1701,1716347337958785027,2050,2045,2050,2054,2052,2052,1194
1702,1716347337968744149,2056,2050,2041,2055,2049,2053,1197
1703,1716347337978793855,2049,2024,2048,2056,2049,2051,1194
1704,1716347337988744230,2049,2047,2045,2058,2051,2052,1195
1705,1716347337998785198,2053,2056,2077,2064,2062,2056,1194
1706,1716347338008743929,2057,2057,2085,2068,2060,2053,1195
1707,1716347338018790188,2053,2052,2053,2068,2069,2061,1198
1708,1716347338028744460,2058,2056,2051,2056,2053,2052,1197
1709,1716347338038790028,2057,2050,2051,2056,2051,2054,1197
1710,1716347338048743879,2057,2047,2048,2060,2056,2053,1195
1711,1716347338058786271,2056,2047,2046,2056,2052,2056,1193
1712,1716347338068744180,2057,2079,2085,2059,2051,2054,1195
1713,1716347338078787644,2056,2053,2066,2057,2045,2056,1197
1714,1716347338088751324,2059,2056,2057,2067,2058,2056,1197
1715,1716347338098788225,2056,2052,2056,2050,2032,2052,1195
1716,1716347338108745833,2059,2052,2042,2044,2044,2056,1195
1717,1716347338118790279,2056,2047,2046,2053,2042,2051,1196
1718,1716347338128744812,2056,2054,2049,2056,2058,2056,1196
1719,1716347338138788045,2053,2045,2028,2062,2053,2050,1195
1720,1716347338148742498,2058,2052,2042,2051,2049,2049,1196
1721,1716347338158789318,2050,2050,2056,2057,2056,2053,1197
1722,1716347338168748139,2054,2058,2050,2054,2057,2057,1196
1723,1716347338178793155,2052,2057,2066,2060,2056,2056,1196
1724,1716347338188745825,2055,2058,2052,2061,2058,2056,1194
1725,1716347338198793706,2053,2052,2060,2053,2056,2054,1197
1726,1716347338208744742,2053,2053,2046,2058,2073,2056,1198
1727,1716347338218793567,2058,2058,2098,2060,2053,2056,1195
1728,1716347338228744563,2052,2069,2068,2055,2044,2054,1195
1729,1716347338238794428,2052,2060,2048,2049,2048,2056,1196
1730,1716347338248798927,2058,2070,2056,2056,2053,2052,1195
1731,1716347338258795010,2055,2046,2038,2066,2049,2055,1197
1732,1716347338268838424,2056,2048,2027,2052,2052,2053,1196
1733,1716347338278795912,2053,2038,2033,2064,2060,2054,1199
1734,1716347338288804769,2060,2057,2052,2056,2056,2054,1196
1735,1716347338298792516,2056,2045,2073,2052,2043,2050,1198
1736,1716347338308808938,2056,2041,2051,2054,2048,2056,1196
1737,1716347338318801183,2059,2050,2049,2051,2047,2051,1195
1738,1716347338328806603,2058,2056,2056,2053,2048,2050,1196
1739,1716347338338816352,2056,2047,2054,2056,2060,2056,1197
1740,1716347338348742681,2056,2052,2061,2053,2055,2052,1196
1741,1716347338358789110,2054,2032,2040,2052,2053,2056,1194
1742,1716347338368744935,2051,2053,2045,2056,2050,2052,1197
1743,1716347338378806814,2053,2056,2067,2057,2066,2056,1193
1744,1716347338388744754,2055,2053,2049,2066,2058,2052,1196
1745,1716347338398787056,2047,2029,2054,2062,2053,2053,1195
1746,1716347338408745416,2056,2049,2046,2054,2057,2052,1197
1747,1716347338418759924,2052,2047,2053,2056,2055,2056,1196
1748,1716347338428744204,2062,2062,2068,2056,2045,2052,1195
1749,1716347338438789952,2050,2056,2064,2053,2053,2051,1197
1750,1716347338448744946,2056,2057,2038,2052,2051,2050,1194
1751,1716347338458789552,2053,2042,2038,2064,2084,2054,1196
1752,1716347338468745677,2056,2047,2049,2058,2050,2052,1193
1753,1716347338478785645,2057,2045,2044,2061,2057,2057,1196
1754,1716347338488744626,2057,2067,2052,2048,2052,2051,1196
1755,1716347338498790063,2058,2048,2047,2053,2058,2054,1196
1756,1716347338508743814,2055,2055,2060,2062,2082,2050,1196
1757,1716347338518789933,2052,2051,2070,2064,2057,2057,1196
1758,1716347338528744266,2058,2061,2055,2052,2050,2055,1195
1759,1716347338538798250,2050,2044,2060,2058,2056,2054,1197
1760,1716347338548752141,2056,2056,2051,2055,2054,2051,1197
1761,1716347338558787559,2053,2065,2100,2045,2046,2056,1196
1762,1716347338568745107,2049,2050,2050,2047,2040,2045,1194
1763,1716347338578790064,2056,2059,2072,2049,2045,2056,1196
1764,1716347338588747773,2056,2052,2046,2053,2050,2052,1194
1765,1716347338598789884,2052,2039,2042,2040,2042,2057,1196
1766,1716347338608742833,2054,2054,2053,2056,2052,2056,1196
1767,1716347338618801927,2054,2056,2049,2060,2047,2052,1197
1768,1716347338628742734,2055,2044,2028,2051,2059,2056,1197
1769,1716347338638786859,2053,2052,2057,2053,2050,2056,1196
1770,1716347338648742954,2052,2052,2050,2049,2046,2053,1196
1771,1716347338658790857,2048,2039,2052,2064,2060,2056,1196
1772,1716347338668742684,2054,2056,2056,2059,2057,2054,1195
1773,1716347338678760078,2049,2049,2056,2057,2060,2052,1196
1774,1716347338688745149,2059,2057,2050,2053,2054,2052,1196
1775,1716347338698792140,2056,2053,2060,2057,2051,2052,1197
1776,1716347338708742274,2053,2048,2036,2055,2053,2051,1198
1777,1716347338718785427,2053,2049,2056,2052,2052,2052,1196
1778,1716347338728742144,2056,2064,2054,2057,2056,2053,1195
1779,1716347338738786960,2054,2053,2058,2057,2054,2058,1197
1780,1716347338748743096,2058,2060,2053,2050,2045,2051,1197
1781,1716347338758789055,2053,2047,2059,2042,2054,2056,1196
1782,1716347338768742926,2054,2064,2065,2049,2049,2052,1199
1783,1716347338778788513,2060,2065,2052,2059,2057,2056,1193
1784,1716347338788742755,2052,2056,2056,2050,2047,2051,1194
1785,1716347338798786169,2056,2050,2063,2056,2053,2056,1194
1786,1716347338808742125,2054,2053,2052,2054,2052,2053,1194
1787,1716347338818789987,2054,2056,2064,2059,2061,2056,1194
1788,1716347338828743487,2056,2050,2042,2045,2050,2056,1197
1789,1716347338838788254,2052,2042,2033,2058,2060,2052,1197
1790,1716347338848743057,2058,2057,2068,2066,2067,2054,1195
1791,1716347338858789727,2052,2042,2046,2048,2048,2054,1198
1792,1716347338868743648,2056,2043,2047,2057,2053,2056,1194
1793,1716347338878785739,2056,2047,2052,2053,2039,2052,1196
1794,1716347338888742887,2056,2057,2032,2044,2047,2056,1196
1795,1716347338898788104,2053,2044,2041,2049,2041,2050,1195
1796,1716347338908741855,2060,2061,2066,2050,2047,2056,1196
1797,1716347338918790289,2056,2056,2050,2054,2052,2055,1197
1798,1716347338928742577,2060,2069,2054,2052,2047,2052,1198
1799,1716347338938789357,2057,2052,2056,2052,2052,2048,1195
1800,1716347338948742868,2056,2061,2050,2052,2045,2049,1195
1801,1716347338958787674,2056,2054,2062,2056,2058,2055,1196
1802,1716347338968743459,2061,2051,2046,2050,2056,2051,1196
1803,1716347338978798745,2058,2065,2111,2070,2064,2062,1193
1804,1716347338988742748,2053,2065,2060,2054,2049,2054,1195
1805,1716347338998789648,2054,2054,2057,2054,2056,2055,1195
1806,1716347339008754540,2058,2062,2076,2056,2078,2053,1193
1807,1716347339018788937,2048,2041,2053,2056,2050,2050,1197
1808,1716347339028742889,2051,2058,2069,2058,2070,2056,1195
1809,1716347339038787725,2052,2046,2062,2058,2056,2053,1195
1810,1716347339048743129,2053,2062,2047,2052,2052,2050,1195
1811,1716347339058789138,2058,2068,2065,2056,2056,2056,1196
1812,1716347339068802123,2059,2058,2058,2059,2052,2054,1195
1813,1716347339078788637,2056,2059,2057,2057,2050,2054,1197
1814,1716347339088742288,2064,2060,2060,2052,2046,2052,1197
1815,1716347339098789219,2048,2044,2048,2052,2047,2054,1197
1816,1716347339108741548,2053,2057,2051,2056,2052,2055,1196
1817,1716347339118799539,2052,2046,2045,2046,2049,2058,1196
1818,1716347339128742650,2062,2073,2079,2057,2057,2052,1195
1819,1716347339138786224,2054,2060,2066,2055,2056,2057,1196
1820,1716347339148744744,2057,2056,2051,2058,2056,2054,1197
1821,1716347339158788579,2056,2052,2069,2075,2052,2050,1195
1822,1716347339168744765,2061,2066,2056,2056,2065,2053,1197
1823,1716347339178788609,2055,2050,2055,2052,2053,2053,1193
1824,1716347339188743272,2053,2056,2051,2055,2053,2049,1194
1825,1716347339198788930,2052,2054,2056,2058,2053,2055,1196
1826,1716347339208741920,2057,2058,2048,2058,2050,2052,1193
1827,1716347339218791676,2056,2052,2062,2059,2051,2053,1194
1828,1716347339228743543,2056,2060,2056,2057,2058,2056,1193
1829,1716347339238788159,2059,2049,2076,2053,2056,2052,1195
1830,1716347339248801766,2056,2065,2050,2056,2059,2053,1196
1831,1716347339258788140,2054,2056,2060,2066,2042,2058,1194
1832,1716347339268744586,2057,2060,2057,2060,2065,2056,1194
1833,1716347339278789873,2056,2058,2056,2060,2058,2053,1195
1834,1716347339288749125,2052,2045,2034,2048,2045,2052,1193
1835,1716347339298791577,2055,2045,2054,2058,2051,2055,1197
1836,1716347339308741821,2058,2060,2056,2053,2053,2056,1198
1837,1716347339318792629,2056,2051,2045,2053,2053,2056,1195
1838,1716347339328795976,2050,2054,2041,2053,2037,2050,1197
1839,1716347339338802238,2053,2047,2049,2051,2052,2060,1197
1840,1716347339348743164,2064,2066,2062,2057,2054,2052,1197
1841,1716347339358795034,2058,2061,2063,2058,2051,2052,1194
1842,1716347339368802870,2060,2064,2055,2050,2045,2051,1194
1843,1716347339378802278,2053,2049,2049,2062,2042,2050,1192
1844,1716347339388812318,2054,2050,2041,2056,2064,2056,1193
1845,1716347339398795345,2056,2049,2078,2064,2060,2057,1192
1846,1716347339408803081,2056,2052,2052,2053,2051,2052,1193
1847,1716347339418798762,2054,2051,2056,2056,2058,2058,1195
1848,1716347339428805796,2063,2052,2050,2059,2065,2049,1195
1849,1716347339438802189,2051,2045,2066,2064,2074,2056,1195
1850,1716347339448810656,2052,2035,2042,2059,2053,2055,1197
1851,1716347339458785267,2052,2036,2041,2054,2052,2056,1197
1852,1716347339468798492,2056,2059,2046,2052,2046,2053,1196
1853,1716347339478807420,2058,2043,2045,2057,2056,2056,1197
1854,1716347339488809023,2056,2062,2048,2059,2061,2052,1196
1855,1716347339498782012,2047,2045,2049,2056,2053,2053,1196
1856,1716347339508797302,2053,2060,2048,2052,2056,2052,1197
1857,1716347339518787222,2058,2054,2065,2054,2059,2057,1197
1858,1716347339528811869,2056,2048,2053,2059,2070,2053,1195
1859,1716347339538788154,2053,2049,2057,2046,2059,2060,1199
1860,1716347339548744551,2054,2063,2059,2051,2050,2052,1197
1861,1716347339558784167,2056,2058,2044,2053,2050,2053,1197
1862,1716347339568742627,2062,2061,2060,2053,2046,2053,1198
1863,1716347339578785099,2056,2056,2065,2058,2051,2053,1196
1864,1716347339588742007,2054,2052,2033,2052,2064,2053,1197
1865,1716347339598784248,2056,2057,2046,2045,2056,2056,1197
1866,1716347339608742798,2052,2050,2042,2055,2053,2053,1197
1867,1716347339618785220,2052,2048,2056,2053,2049,2053,1196
1868,1716347339628742979,2056,2068,2056,2054,2049,2052,1194
1869,1716347339638823263,2053,2044,2054,2062,2056,2058,1197
1870,1716347339648743790,2056,2056,2054,2068,2080,2053,1196
1871,1716347339658788116,2057,2066,2106,2058,2050,2056,1196
1872,1716347339668743511,2058,2031,2037,2053,2051,2049,1196
1873,1716347339678787786,2054,2057,2099,2053,2049,2054,1196
1874,1716347339688742098,2056,2038,2042,2060,2045,2050,1198
1875,1716347339698789249,2049,2042,2047,2056,2047,2053,1200
1876,1716347339708742519,2057,2050,2047,2049,2050,2053,1197
1877,1716347339718787656,2049,2042,2048,2064,2064,2052,1197
1878,1716347339728742439,2060,2053,2049,2060,2053,2054,1197
1879,1716347339738785402,2049,2035,2049,2058,2057,2052,1198
1880,1716347339748741728,2057,2053,2042,2053,2056,2056,1196
1881,1716347339758786745,2061,2064,2047,2063,2058,2057,1197
1882,1716347339768742419,2056,2069,2068,2059,2044,2049,1197
1883,1716347339778782046,2055,2048,2058,2058,2052,2056,1193
1884,1716347339788741629,2059,2061,2040,2054,2063,2057,1196
1885,1716347339798784010,2056,2047,2072,2060,2063,2058,1196
1886,1716347339808742520,2058,2052,2040,2056,2051,2050,1196
1887,1716347339818786385,2058,2076,2072,2059,2056,2053,1195
1888,1716347339828741549,2058,2057,2046,2050,2049,2053,1194
1889,1716347339838789912,2061,2068,2047,2078,2065,2060,1196
1890,1716347339848742982,2059,2058,2051,2053,2040,2046,1193
1891,1716347339858784522,2057,2064,2056,2061,2056,2056,1196
1892,1716347339868743934,2050,2047,2033,2050,2050,2053,1196
1893,1716347339878785294,2057,2052,2059,2059,2056,2054,1195
1894,1716347339888817436,2053,2049,2040,2064,2064,2050,1196
1895,1716347339898787208,2061,2065,2046,2067,2062,2056,1196
1896,1716347339908742542,2056,2051,2050,2050,2049,2054,1198
1897,1716347339918790134,2053,2048,2057,2052,2056,2053,1196
1898,1716347339928743194,2053,2057,2051,2058,2076,2056,1195
1899,1716347339938788641,2058,2052,2056,2049,2050,2058,1199
1900,1716347339948742683,2061,2061,2040,2053,2043,2053,1198
1901,1716347339958783923,2054,2047,2046,2060,2056,2059,1197
1902,1716347339968742333,2065,2075,2086,2058,2056,2056,1198
1903,1716347339978784654,2053,2045,2054,2061,2052,2052,1194
1904,1716347339988743235,2056,2057,2047,2051,2062,2048,1195
1905,1716347339998784464,2053,2056,2052,2053,2052,2045,1193
1906,1716347340008743706,2060,2062,2070,2064,2050,2050,1194
1907,1716347340018786559,2056,2047,2052,2044,2043,2056,1198
1908,1716347340028742113,2056,2079,2058,2050,2050,2050,1197
1909,1716347340038805105,2056,2046,2052,2059,2067,2058,1193
1910,1716347340048743416,2057,2056,2045,2056,2064,2061,1197
1911,1716347340058792581,2052,2047,2037,2057,2052,2056,1194
1912,1716347340068799193,2060,2072,2098,2060,2057,2057,1194
1913,1716347340078805587,2056,2048,2034,2056,2053,2053,1194
1914,1716347340088805857,2062,2080,2075,2059,2076,2052,1196
1915,1716347340098789937,2051,2059,2050,2048,2061,2057,1197
1916,1716347340108743207,2056,2060,2053,2050,2044,2046,1192
1917,1716347340118791170,2050,2050,2051,2057,2054,2053,1196
1918,1716347340128803142,2056,2046,2037,2056,2056,2048,1197
1919,1716347340138800698,2056,2047,2054,2056,2053,2056,1198
1920,1716347340148744150,2058,2074,2054,2057,2054,2052,1196
1921,1716347340158790118,2052,2054,2080,2055,2056,2053,1196
1922,1716347340168809706,2059,2056,2056,2053,2045,2053,1196
1923,1716347340178806841,2053,2042,2038,2051,2046,2049,1193
1924,1716347340188801070,2056,2059,2047,2040,2044,2050,1194
1925,1716347340198793105,2050,2046,2043,2033,2047,2053,1197
1926,1716347340208746656,2058,2070,2068,2058,2058,2056,1195
1927,1716347340218796532,2054,2050,2053,2056,2048,2052,1193
1928,1716347340228801030,2056,2050,2041,2052,2048,2053,1196
1929,1716347340238797935,2056,2066,2053,2053,2052,2056,1195
1930,1716347340248808886,2064,2064,2045,2050,2054,2056,1196
1931,1716347340258778598,2052,2050,2061,2057,2053,2052,1195
1932,1716347340268804288,2060,2060,2056,2045,2037,2051,1195
1933,1716347340278851369,2056,2053,2069,2059,2052,2052,1196
1934,1716347340288808526,2056,2055,2036,2065,2061,2057,1197
1935,1716347340298854856,2054,2039,2072,2068,2065,2061,1196
1936,1716347340308806293,2051,2044,2048,2053,2043,2048,1196
1937,1716347340318786234,2051,2051,2084,2073,2054,2052,1195
1938,1716347340328741768,2056,2054,2052,2058,2048,2051,1196
1939,1716347340338791725,2056,2051,2080,2063,2060,2058,1198
1940,1716347340348743583,2056,2064,2044,2056,2052,2052,1195
1941,1716347340358784922,2058,2052,2068,2056,2044,2054,1196
1942,1716347340368743153,2059,2064,2047,2047,2053,2051,1198
1943,1716347340378789542,2053,2037,2035,2060,2057,2056,1193
1944,1716347340388742702,2057,2068,2047,2053,2048,2052,1196
1945,1716347340398784162,2055,2046,2047,2054,2050,2053,1195
1946,1716347340408744476,2056,2060,2049,2053,2047,2052,1196
1947,1716347340418787799,2055,2056,2067,2047,2038,2049,1194
1948,1716347340428741590,2058,2056,2047,2052,2059,2052,1194
1949,1716347340438785675,2057,2069,2082,2053,2044,2049,1196
1950,1716347340448797108,2058,2071,2070,2068,2050,2056,1196
1951,1716347340458786708,2052,2041,2048,2058,2053,2054,1197
1952,1716347340468748465,2059,2076,2064,2058,2052,2049,1196
1953,1716347340478788001,2051,2049,2056,2052,2057,2057,1196
1954,1716347340488744036,2060,2061,2044,2061,2068,2053,1196
1955,1716347340498790185,2050,2040,2034,2061,2052,2058,1196
1956,1716347340508742324,2060,2065,2052,2053,2058,2051,1195
1957,1716347340518788883,2059,2074,2060,2059,2057,2058,1197
1958,1716347340528799353,2063,2066,2052,2056,2068,2053,1195
1959,1716347340538782942,2050,2045,2048,2057,2061,2056,1197
1960,1716347340548743306,2064,2068,2044,2056,2063,2052,1197
1961,1716347340558787852,2050,2041,2069,2060,2055,2057,1195
1962,1716347340568846345,2060,2054,2030,2069,2070,2056,1195
1963,1716347340578785498,2048,2062,2050,2038,2041,2054,1195
1964,1716347340588743658,2058,2057,2052,2054,2053,2052,1195
1965,1716347340598788374,2054,2047,2082,2056,2047,2055,1198
1966,1716347340608746364,2056,2059,2046,2037,2056,2047,1194
1967,1716347340618790779,2054,2052,2072,2057,2049,2053,1196
1968,1716347340628806880,2053,2047,2045,2050,2049,2050,1194
1969,1716347340638791701,2058,2042,2058,2056,2049,2059,1196
1970,1716347340648744430,2066,2077,2061,2060,2062,2057,1194
1971,1716347340658785680,2058,2048,2056,2051,2045,2053,1196
1972,1716347340668844824,2060,2065,2089,2052,2052,2056,1196
1973,1716347340678788626,2051,2043,2047,2052,2054,2059,1195
1974,1716347340688746465,2056,2056,2036,2052,2050,2046,1194
1975,1716347340698792404,2055,2052,2050,2056,2052,2056,1197
1976,1716347340708742558,2054,2058,2060,2045,2046,2047,1194
1977,1716347340718790330,2052,2044,2069,2058,2052,2053,1195
1978,1716347340728835727,2064,2057,2040,2048,2041,2047,1192
1979,1716347340738788196,2057,2050,2082,2056,2048,2053,1198
1980,1716347340748740675,2064,2066,2050,2056,2056,2054,1195
1981,1716347340758790682,2051,2068,2062,2056,2057,2056,1196
1982,1716347340768837723,2058,2071,2058,2058,2056,2050,1196
1983,1716347340778836630,2052,2065,2080,2053,2045,2053,1194
1984,1716347340788837372,2053,2058,2048,2050,2053,2054,1196
1985,1716347340798835098,2053,2050,2072,2057,2051,2056,1195
1986,1716347340809756479,2057,2066,2046,2044,2043,2052,1197
1987,1716347340818790953,2057,2051,2057,2053,2051,2056,1197
1988,1716347340828797526,2057,2052,2035,2054,2045,2050,1197
1989,1716347340838790152,2062,2062,2071,2062,2065,2062,1196
1990,1716347340848798839,2058,2064,2056,2059,2051,2053,1193
1991,1716347340858829508,2058,2034,2044,2049,2053,2056,1196
1992,1716347340868830621,2056,2057,2060,2050,2061,2051,1196
1993,1716347340878821493,2053,2048,2065,2054,2045,2056,1197
1994,1716347340888837925,2061,2063,2052,2050,2049,2053,1197
1995,1716347340898787498,2053,2051,2064,2048,2044,2058,1197
1996,1716347340908827956,2055,2066,2049,2055,2053,2050,1197
1997,1716347340918787709,2053,2042,2048,2045,2054,2053,1196
1998,1716347340928826794,2061,2073,2053,2060,2050,2057,1197
1999,1716347340938785756,2053,2050,2066,2052,2045,2053,1197
2000,1716347340948828027,2065,2076,2056,2057,2050,2047,1193
2001,1716347340958825122,2057,2049,2066,2056,2053,2059,1198
2002,1716347340968826235,2056,2065,2045,2046,2053,2056,1197
2003,1716347340978824321,2051,2046,2044,2056,2050,2056,1194
2004,1716347340988830402,2053,2052,2026,2056,2048,2047,1193
2005,1716347340998824842,2058,2069,2092,2056,2058,2058,1196
2006,1716347341008825594,2060,2075,2056,2054,2052,2052,1196
2007,1716347341018824081,2057,2050,2062,2055,2049,2053,1195
2008,1716347341028825093,2052,2056,2050,2052,2047,2052,1196
2009,1716347341038822940,2048,2042,2049,2056,2056,2055,1196
2010,1716347341048827679,2058,2065,2049,2054,2045,2047,1192
2011,1716347341058821066,2054,2047,2064,2053,2054,2054,1193
2012,1716347341068825114,2056,2060,2063,2054,2050,2049,1198
2013,1716347341078824513,2056,2057,2059,2054,2056,2056,1197
2014,1716347341088828141,2055,2050,2041,2052,2047,2048,1197
2015,1716347341098818543,2053,2044,2052,2061,2046,2054,1195
2016,1716347341108833932,2056,2058,2070,2053,2075,2053,1196
2017,1716347341118820957,2054,2043,2055,2057,2049,2052,1195
2018,1716347341128821729,2053,2041,2022,2048,2044,2052,1197
2019,1716347341138821819,2053,2064,2064,2053,2051,2053,1195
2020,1716347341148824135,2058,2072,2049,2052,2052,2051,1197
2021,1716347341158823343,2056,2046,2038,2056,2064,2057,1196
2022,1716347341168829064,2056,2066,2052,2045,2041,2052,1193
2023,1716347341178823935,2052,2052,2055,2056,2050,2060,1194
2024,1716347341188835467,2054,2060,2060,2052,2060,2052,1195
2025,1716347341198825789,2054,2061,2044,2060,2070,2055,1197
2026,1716347341208826180,2057,2063,2044,2052,2051,2052,1195
2027,1716347341218826220,2056,2068,2068,2064,2060,2053,1197
2028,1716347341228827853,2058,2077,2072,2060,2053,2050,1197
2029,1716347341238827533,2052,2048,2048,2073,2065,2057,1194
2030,1716347341248825900,2057,2072,2047,2055,2056,2053,1196
2031,1716347341258828906,2053,2042,2044,2066,2071,2060,1195
2032,1716347341268830159,2059,2056,2072,2059,2058,2052,1198
2033,1716347341278816192,2057,2041,2058,2060,2050,2052,1198
2034,1716347341288817966,2056,2056,2046,2047,2033,2052,1196
2035,1716347341298815842,2052,2042,2063,2059,2049,2052,1197
2036,1716347341308811684,2058,2056,2047,2047,2049,2053,1194
2037,1716347341318811024,2057,2046,2054,2055,2051,2055,1197
2038,1716347341328815322,2057,2056,2053,2048,2046,2053,1197
2039,1716347341338813008,2057,2057,2053,2052,2050,2057,1196
2040,1716347341348818328,2051,2061,2072,2050,2049,2050,1198
2041,1716347341358811685,2056,2060,2074,2059,2057,2055,1197
2042,1716347341368810754,2058,2064,2062,2060,2053,2050,1197
2043,1716347341378810785,2056,2061,2061,2060,2058,2053,1196
2044,1716347341388812789,2056,2057,2042,2053,2051,2050,1197
2045,1716347341398811326,2053,2042,2050,2056,2051,2058,1196
2046,1716347341408813710,2063,2061,2042,2056,2058,2052,1196
2047,1716347341418811466,2055,2043,2075,2057,2041,2052,1197
2048,1716347341428812028,2058,2060,2049,2049,2053,2050,1197
2049,1716347341438809493,2056,2040,2049,2048,2045,2054,1196
2050,1716347341448810205,2059,2053,2031,2055,2056,2053,1197
2051,1716347341458811207,2052,2046,2049,2055,2053,2054,1195
2052,1716347341468824843,2050,2072,2056,2048,2053,2051,1196
2053,1716347341478810386,2054,2037,2049,2060,2055,2051,1196
2054,1716347341488810256,2062,2069,2062,2072,2077,2053,1196
2055,1716347341498809164,2056,2050,2076,2052,2056,2055,1197
2056,1716347341508810116,2057,2050,2047,2049,2052,2052,1196
2057,1716347341518808173,2054,2046,2056,2053,2065,2053,1194
2058,1716347341528810778,2059,2077,2063,2055,2052,2054,1194
2059,1716347341538807632,2047,2018,2042,2055,2054,2055,1194
2060,1716347341548811059,2056,2065,2104,2070,2061,2057,1196
2061,1716347341558808124,2056,2056,2060,2057,2056,2051,1196
2062,1716347341568835346,2054,2056,2037,2050,2053,2047,1195
2063,1716347341578807583,2052,2056,2054,2057,2044,2053,1195
2064,1716347341588820308,2056,2064,2072,2053,2055,2050,1196
2065,1716347341598803306,2050,2032,2049,2060,2055,2053,1195
2066,1716347341608807964,2054,2063,2056,2073,2062,2056,1196
2067,1716347341618804638,2057,2056,2066,2057,2053,2051,1196
2068,1716347341628816782,2060,2080,2077,2053,2054,2055,1196
2069,1716347341638805691,2051,2052,2051,2056,2052,2052,1194
2070,1716347341648814298,2058,2054,2043,2053,2049,2052,1196
2071,1716347341658802666,2064,2050,2054,2065,2061,2060,1199
2072,1716347341668824357,2057,2061,2058,2049,2048,2046,1194
2073,1716347341678803698,2048,2024,2043,2057,2050,2052,1196
2074,1716347341688806073,2055,2057,2048,2056,2053,2056,1197
2075,1716347341698805021,2052,2041,2059,2058,2042,2054,1197
2076,1716347341708806214,2056,2063,2052,2056,2056,2050,1196
2077,1716347341718801775,2048,2044,2047,2056,2049,2056,1196
2078,1716347341728807386,2058,2058,2043,2048,2051,2053,1196
2079,1716347341738802788,2058,2056,2084,2084,2100,2064,1200
2080,1716347341748805213,2052,2043,2044,2062,2064,2049,1196
2081,1716347341758799222,2056,2048,2089,2062,2050,2061,1196
2082,1716347341768808901,2055,2057,2037,2050,2061,2053,1194
2083,1716347341778802879,2054,2043,2050,2059,2054,2058,1195
2084,1716347341788807398,2052,2046,2046,2055,2052,2053,1196
2085,1716347341798800585,2060,2048,2045,2060,2043,2058,1196
2086,1716347341808803471,2054,2040,2040,2051,2052,2054,1195
2087,1716347341818799985,2060,2056,2092,2076,2069,2057,1198
2088,1716347341828806107,2059,2058,2045,2046,2053,2052,1195
2089,1716347341838799163,2054,2052,2056,2056,2063,2056,1196
2090,1716347341848807098,2054,2053,2042,2051,2046,2052,1197
2091,1716347341858797721,2060,2057,2069,2055,2041,2057,1198
2092,1716347341868803853,2053,2057,2040,2047,2035,2045,1194
2093,1716347341878799185,2061,2058,2047,2058,2053,2050,1199
2094,1716347341888817200,2058,2070,2069,2061,2057,2056,1198
2095,1716347341898801589,2057,2056,2089,2056,2060,2056,1199
2096,1716347341908803613,2057,2057,2046,2058,2056,2052,1196
2097,1716347341918799987,2052,2049,2059,2054,2051,2060,1195
2098,1716347341928803033,2057,2055,2044,2047,2046,2049,1196
2099,1716347341938796601,2056,2020,2055,2054,2059,2052,1197
2100,1716347341948805048,2061,2048,2038,2049,2036,2053,1198
2101,1716347341958796311,2056,2048,2061,2056,2056,2060,1198
2102,1716347341968804797,2058,2072,2054,2056,2052,2051,1197
2103,1716347341978798114,2055,2055,2078,2060,2059,2057,1194
2104,1716347341988820448,2061,2066,2053,2057,2058,2052,1196
2105,1716347341998796582,2052,2053,2058,2056,2053,2056,1196
2106,1716347342008801753,2060,2062,2057,2053,2055,2052,1197
2107,1716347342018795190,2054,2052,2034,2059,2056,2056,1195
2108,1716347342028804689,2053,2077,2065,2045,2050,2052,1197
2109,1716347342038805471,2056,2053,2063,2069,2105,2061,1195
2110,1716347342048802495,2056,2072,2068,2051,2050,2052,1197
2111,1716347342058797616,2053,2044,2054,2059,2049,2054,1196
2112,1716347342068811022,2057,2064,2068,2047,2042,2050,1196
2113,1716347342078798929,2048,2044,2074,2060,2046,2056,1196
2114,1716347342088826953,2059,2058,2073,2052,2054,2053,1197
2115,1716347342098801013,2056,2038,2056,2053,2050,2054,1196
2116,1716347342108806395,2057,2058,2047,2050,2053,2049,1195
2117,1716347342118804391,2057,2048,2053,2050,2042,2056,1196
2118,1716347342128805182,2057,2068,2040,2047,2038,2057,1198
2119,1716347342138806996,2056,2044,2048,2054,2049,2052,1197
2120,1716347342148807007,2060,2092,2052,2064,2069,2056,1195
2121,1716347342158803550,2058,2061,2058,2057,2053,2055,1194
2122,1716347342168807408,2054,2056,2047,2049,2051,2049,1195
2123,1716347342178812217,2052,2047,2054,2057,2060,2059,1195
2124,1716347342188824231,2058,2068,2075,2048,2046,2052,1197
2125,1716347342198805265,2052,2040,2053,2055,2064,2051,1197
2126,1716347342208820724,2056,2061,2049,2056,2066,2050,1194
2127,1716347342218806658,2059,2046,2053,2062,2052,2049,1194
2128,1716347342228818511,2053,2044,2040,2060,2072,2060,1196
2129,1716347342238808713,2051,2053,2056,2058,2056,2058,1196
2130,1716347342248811138,2056,2052,2049,2055,2053,2048,1196
2131,1716347342258765130,2056,2044,2048,2053,2053,2056,1197
2132,1716347342268801861,2060,2069,2070,2055,2048,2050,1195
2133,1716347342278796049,2052,2048,2048,2064,2058,2052,1195
2134,1716347342288803644,2056,2062,2054,2055,2052,2054,1195
2135,1716347342298796380,2054,2058,2056,2058,2055,2054,1193
2136,1716347342308803444,2056,2070,2046,2074,2060,2056,1193
2137,1716347342318794948,2056,2057,2063,2060,2060,2051,1198
2138,1716347342328802333,2052,2063,2050,2056,2071,2050,1196
2139,1716347342338798005,2054,2044,2064,2068,2065,2054,1196
2140,1716347342348800370,2059,2065,2037,2054,2056,2051,1196
2141,1716347342358794639,2055,2056,2053,2054,2055,2059,1197
2142,1716347342368798386,2056,2048,2036,2054,2054,2050,1196
2143,1716347342378795200,2052,2044,2047,2067,2061,2055,1198
2144,1716347342388806312,2061,2057,2061,2068,2072,2053,1197
2145,1716347342398794820,2054,2050,2062,2056,2054,2054,1196
2146,1716347342408812465,2057,2084,2073,2054,2056,2051,1196
2147,1716347342418795082,2049,2039,2047,2056,2057,2053,1196
2148,1716347342428796585,2061,2075,2072,2052,2058,2053,1198
2149,1716347342438799671,2052,2052,2070,2059,2056,2054,1196
2150,1716347342448846721,2053,2049,2038,2053,2049,2053,1196
2151,1716347342458795043,2053,2047,2042,2047,2048,2058,1195
2152,1716347342468803108,2056,2036,2033,2052,2056,2053,1194
2153,1716347342478794262,2056,2052,2050,2048,2042,2053,1195
2154,1716347342488819991,2057,2062,2052,2052,2042,2052,1196
2155,1716347342498793771,2053,2046,2046,2058,2051,2056,1195
2156,1716347342508796547,2060,2092,2097,2058,2057,2049,1196
2157,1716347342518782961,2056,2039,2056,2053,2047,2052,1195
2158,1716347342528798170,2061,2060,2062,2057,2061,2051,1195
2159,1716347342538804774,2049,2042,2056,2049,2049,2057,1195
2160,1716347342548809523,2054,2054,2042,2053,2050,2053,1199
2161,1716347342558822568,2052,2067,2064,2056,2057,2053,1196
2162,1716347342568804003,2060,2057,2031,2056,2053,2052,1197
2163,1716347342578794936,2053,2045,2035,2053,2052,2050,1194
2164,1716347342588804605,2056,2057,2053,2056,2058,2047,1194
2165,1716347342598814714,2056,2044,2040,2053,2066,2057,1193
2166,1716347342608800036,2058,2072,2042,2054,2057,2052,1195
2167,1716347342618797041,2060,2065,2089,2064,2067,2059,1195
2168,1716347342628800688,2060,2096,2059,2062,2057,2055,1196
2169,1716347342638795018,2052,2045,2050,2054,2048,2056,1196
2170,1716347342648801360,2053,2057,2046,2054,2051,2052,1195
2171,1716347342658767085,2056,2033,2044,2057,2051,2056,1196
2172,1716347342668801852,2061,2073,2041,2053,2050,2050,1197
2173,1716347342678795019,2053,2056,2066,2052,2048,2053,1195
2174,1716347342688796792,2058,2078,2058,2047,2052,2045,1195
2175,1716347342698793707,2056,2050,2060,2052,2052,2054,1196
2176,1716347342708795701,2060,2062,2060,2053,2054,2052,1194
2177,1716347342718798126,2056,2049,2054,2049,2052,2056,1194
2178,1716347342728800120,2055,2065,2061,2037,2053,2049,1195
2179,1716347342738795852,2057,2060,2066,2054,2052,2057,1197
2180,1716347342748810952,2054,2061,2076,2056,2062,2049,1194
2181,1716347342758795312,2056,2073,2052,2058,2054,2059,1196
2182,1716347342768800342,2056,2060,2050,2064,2058,2050,1196
2183,1716347342778794731,2053,2043,2062,2058,2051,2056,1192
2184,1716347342788800933,2056,2055,2034,2057,2077,2057,1196
2185,1716347342798795914,2055,2061,2059,2061,2068,2056,1197
2186,1716347342808797197,2060,2104,2077,2056,2050,2051,1198
2187,1716347342818794893,2057,2047,2049,2051,2053,2050,1196
2188,1716347342828814972,2057,2062,2054,2046,2047,2051,1196
2189,1716347342838841893,2056,2050,2061,2055,2051,2053,1193
2190,1716347342848804502,2056,2066,2034,2034,2050,2050,1195
2191,1716347342858844900,2050,2048,2050,2061,2066,2059,1197
2192,1716347342868802749,2056,2060,2069,2053,2045,2048,1194
2193,1716347342878796287,2052,2037,2040,2052,2038,2052,1195
2194,1716347342888804724,2056,2059,2052,2053,2061,2055,1195
2195,1716347342898795797,2045,2042,2053,2056,2056,2056,1197
2196,1716347342908804644,2051,2056,2050,2061,2055,2052,1196
2197,1716347342918801688,2062,2066,2057,2066,2059,2058,1196
2198,1716347342928798082,2054,2051,2035,2059,2056,2051,1196
2199,1716347342938795537,2056,2043,2054,2056,2053,2057,1197
2200,1716347342948798002,2060,2085,2064,2054,2060,2053,1197
2201,1716347342958796249,2050,2043,2066,2040,2045,2054,1198
2202,1716347342968812391,2057,2070,2054,2051,2050,2052,1195
2203,1716347342978797673,2060,2056,2048,2056,2051,2055,1196
2204,1716347342988832811,2056,2051,2032,2052,2052,2050,1192
2205,1716347342998796651,2053,2029,2046,2062,2049,2048,1193
2206,1716347343008808585,2060,2050,2033,2060,2055,2046,1192
2207,1716347343018797604,2054,2045,2089,2063,2052,2051,1196
2208,1716347343028796802,2056,2070,2072,2049,2047,2052,1196
2209,1716347343038793006,2052,2058,2058,2058,2056,2056,1196
2210,1716347343048796262,2063,2060,2069,2052,2047,2053,1197
2211,1716347343058795030,2054,2030,2058,2053,2052,2056,1198
2212,1716347343068804028,2050,2038,2037,2053,2052,2047,1193
