seq,time,data[0],data[1],data[2],data[3],data[4],data[5],data[6]
201,1716362237955988434,2088,2074,2076,2010,2098,2101,1195
202,1716362237965990912,2017,2046,2038,2121,2012,2013,1191
203,1716362237975989494,2088,2085,2076,2076,2124,2080,1193
204,1716362237985991873,2035,2052,2041,2048,2014,1991,1192
205,1716362237995993881,2101,2094,2084,2070,2148,2076,1195
206,1716362238005996010,2035,2059,2032,2040,2002,2003,1192
207,1716362238015991575,2076,2105,2072,2102,2088,2101,1197
208,1716362238025991650,2020,2053,2033,2045,1984,1967,1192
209,1716362238035989730,2082,2073,2098,2088,2104,2085,1197
210,1716362238045989745,2027,2028,2043,2060,2017,1988,1193
211,1716362238055990481,2074,2053,2073,2073,2139,2136,1196
212,1716362238065998500,2010,2034,2033,2052,2021,1998,1192
213,1716362238075991762,2080,2045,2044,2006,2132,2099,1194
214,1716362238085991876,2028,2052,2077,2015,1987,2006,1192
215,1716362238095992191,2072,2060,2058,2008,2154,2104,1195
216,1716362238105990222,2029,2024,2016,2058,2091,1989,1192
217,1716362238115990246,2080,2051,2034,2077,2121,2129,1196
218,1716362238125990791,2022,2029,2027,2012,1964,2000,1193
219,1716362238135991668,2094,2068,2086,2011,2076,2104,1195
220,1716362238145990629,2026,2015,2029,2017,1989,1993,1193
221,1716362238155988761,2093,2092,2134,2070,2072,2106,1196
222,1716362238165988474,2028,2054,2032,2170,2119,2002,1192
223,1716362238175989150,2077,2046,2030,2070,2129,2106,1195
224,1716362238185988072,2013,2011,1983,2068,2042,2011,1193
225,1716362238195989709,2084,2076,2089,2036,2098,2107,1197
226,1716362238205991177,2049,2076,2224,2046,2005,1995,1194
227,1716362238215991912,2085,2073,2099,2117,2116,2094,1197
228,1716362238225991716,2041,2039,2026,2088,2021,1992,1193
229,1716362238235989977,2088,2041,2025,1971,2084,2106,1196
230,1716362238245990673,2036,2046,2008,2056,2021,1999,1189
231,1716362238255991078,2088,2053,2043,2065,2092,2100,1196
232,1716362238265991212,2025,2037,2056,2048,2014,1993,1194
233,1716362238275988902,2088,2070,2036,2070,2109,2111,1197
234,1716362238285991562,2024,2032,2017,2032,2024,2000,1194
235,1716362238295990213,2092,2059,2074,2077,2096,2113,1196
236,1716362238305990749,2032,2041,2019,2107,2025,1983,1193
237,1716362238315991474,2081,2055,2056,2073,2092,2112,1196
238,1716362238325990687,2029,2023,2013,2052,2004,1969,1193
239,1716362238335991403,2078,2061,2054,1944,2080,2107,1196
240,1716362238345994252,2036,2044,2036,2008,1978,1958,1192
241,1716362238355989829,2100,2059,2058,2047,2093,2128,1196
242,1716362238365989632,2054,2038,2030,2050,2011,1988,1193
243,1716362238375989957,2091,2056,2057,2052,2086,2112,1195
244,1716362238385991084,2016,2034,2026,2043,2001,1981,1193
245,1716362238395991048,2068,2078,2080,2076,2103,2112,1196
246,1716362238405979871,2025,2043,2037,2026,2001,1988,1193
247,1716362238415993081,2070,2060,2072,2060,2098,2104,1197
248,1716362238425991361,2026,2032,2012,2049,2063,1981,1193
249,1716362238435989663,2072,2063,2021,2057,2098,2132,1197
250,1716362238445993203,2027,2040,2042,2024,1986,1981,1195
251,1716362238455994300,2074,2061,2068,2056,2095,2124,1197
252,1716362238465991819,2034,2040,2044,2024,2009,1990,1194
253,1716362238475991103,2080,2064,2073,2062,2097,2120,1196
254,1716362238485990326,2030,2040,2036,2017,2020,1989,1194
255,1716362238495997513,2073,2048,2085,2057,2101,2120,1198
256,1716362238505993210,2029,2072,2117,2052,2010,2007,1191
257,1716362238515992783,2082,2053,2072,2005,2094,2108,1195
258,1716362238525991074,2022,2036,2030,2053,2018,1993,1193
259,1716362238535995066,2078,2074,2077,2150,2225,2133,1196
260,1716362238545990131,2041,2044,2024,2033,1990,1995,1193
261,1716362238555992259,2082,2074,2121,2072,2097,2095,1195
262,1716362238565990070,2032,2060,2072,2043,2012,2000,1193
263,1716362238575990524,2076,2060,2060,2086,2081,2101,1195
264,1716362238585993284,2037,2050,2030,2008,2014,2001,1193
265,1716362238595993589,2075,2061,2112,2069,2089,2111,1195
266,1716362238605991650,2031,2033,2021,2026,1995,1985,1192
267,1716362238615994920,2077,2060,2066,2065,2087,2116,1196
268,1716362238625990225,2024,2029,1983,2008,2017,1984,1192
269,1716362238635990370,2088,2061,2052,2081,2108,2114,1198
270,1716362238645996967,2036,2044,2029,2052,2032,2006,1193
271,1716362238655993805,2077,2062,2086,2078,2100,2100,1198
272,1716362238665992147,2036,2050,2056,2058,2004,1993,1191
273,1716362238675990097,2080,2062,2090,2051,2082,2092,1193
274,1716362238685989590,2036,2058,2031,2041,2002,1992,1192
275,1716362238695993302,2071,2070,2073,2030,2073,2110,1196
276,1716362238705991001,2047,2066,2026,2054,2030,1992,1190
277,1716362238715990465,2084,2045,2064,2136,2114,2108,1194
278,1716362238725947427,2040,2051,2034,2061,2012,1998,1193
279,1716362238735987879,2075,2041,2040,2085,2117,2104,1196
280,1716362238745989937,2036,2040,2042,2052,2035,1994,1194
281,1716362238755989781,2074,2051,2040,2056,2080,2112,1196
282,1716362238765990938,2034,2041,2030,2040,2009,2006,1193
283,1716362238775992855,2073,2060,2080,2035,2073,2121,1197
284,1716362238785993150,2031,2054,2042,2060,2026,2007,1192
285,1716362238795990800,2073,2056,2069,2050,2065,2097,1196
286,1716362238805989121,2026,2045,2016,2044,2013,1994,1194
287,1716362238815994456,2078,2038,2043,2045,2092,2106,1200
288,1716362238825992075,2035,2039,2012,2057,2040,1992,1193
289,1716362238835995256,2073,2061,2080,2047,2085,2101,1195
290,1716362238845990872,2031,2047,2032,2041,2025,1996,1192
291,1716362238855991256,2089,2053,2073,2073,2100,2106,1196
292,1716362238865993966,2032,2041,2002,2049,2012,2001,1191
293,1716362238875994170,2072,2058,2061,2059,2092,2112,1196
294,1716362238885994456,2041,2066,2028,2012,2017,1994,1194
295,1716362238895992777,2080,2061,2074,2072,2064,2096,1195
296,1716362238905990787,2036,2056,2036,2057,2015,2001,1192
297,1716362238915997484,2076,2069,2171,2073,2089,2112,1194
298,1716362238925992729,2042,2046,2019,2028,2009,1993,1191
299,1716362238935991271,2074,2068,2093,2088,2103,2117,1195
300,1716362238945991757,2036,2036,2025,2037,2013,1996,1193
301,1716362238955994936,2080,2056,2080,2088,2087,2109,1195
302,1716362238965994621,2030,2044,2026,2016,2013,1994,1192
303,1716362238975990487,2075,2059,2064,2061,2088,2112,1197
304,1716362238985993086,2045,2043,2040,2038,2021,2001,1193
305,1716362238995996327,2067,2050,2067,2051,2086,2104,1196
306,1716362239005992573,2032,2043,2007,2046,1997,1988,1194
307,1716362239015991727,2072,2064,2092,2077,2097,2096,1197
308,1716362239025990058,2036,2048,2024,2051,2016,2004,1192
309,1716362239035992266,2061,2044,2064,2066,2089,2110,1196
310,1716362239045993653,2034,2049,2034,2055,2068,2010,1192
311,1716362239055991544,2081,2059,2087,2056,2084,2101,1197
312,1716362239065993161,2031,2063,2035,2077,2016,2004,1192
313,1716362239075994478,2074,2050,2072,2092,2088,2107,1198
314,1716362239085989723,2044,2065,2086,2037,2013,1992,1194
315,1716362239095997713,2071,2048,2077,2064,2080,2120,1197
316,1716362239105992788,2047,2054,2016,2041,2012,1993,1190
317,1716362239115990157,2068,2047,2063,2061,2092,2101,1196
318,1716362239125993317,2040,2051,2046,2056,2052,1997,1192
319,1716362239135991198,2072,2078,2140,2080,2093,2108,1195
320,1716362239145992735,2040,2064,2072,2072,2013,1997,1189
321,1716362239155995044,2063,2049,2072,2078,2076,2099,1195
322,1716362239165998604,2042,2069,2060,2050,2002,2000,1193
323,1716362239176010672,2068,2058,2072,2065,2076,2102,1196
324,1716362239185992532,2044,2063,2045,2049,2012,2004,1191
325,1716362239196011402,2077,2079,2104,2068,2085,2110,1193
326,1716362239205995296,2038,2046,2015,2046,2013,1996,1193
327,1716362239215988357,2082,2053,2060,2072,2091,2114,1196
328,1716362239225988972,2036,2054,2035,2060,1991,1994,1192
329,1716362239235991171,2074,2045,2076,2070,2091,2112,1196
330,1716362239245989663,2040,2053,2024,2041,2003,1994,1193
331,1716362239255986040,2074,2048,2065,2061,2073,2114,1197
332,1716362239265986656,2044,2074,2056,2026,1984,1985,1191
333,1716362239275989005,2069,2048,2072,2056,2088,2104,1196
334,1716362239285993026,2041,2064,2088,2064,2030,1992,1193
335,1716362239295991839,2068,2042,2062,2085,2104,2107,1196
336,1716362239305990390,2044,2042,2003,2075,2044,2001,1189
337,1716362239315991797,2057,2037,2034,2066,2093,2106,1196
338,1716362239325995769,2045,2053,2024,2039,2012,1994,1189
339,1716362239335989041,2078,2049,2076,2065,2075,2099,1196
340,1716362239345991169,2050,2063,2050,2045,2000,1999,1191
341,1716362239356038894,2072,2058,2085,2074,2085,2098,1193
342,1716362239365990917,2049,2053,2044,2050,1994,2004,1193
343,1716362239375988938,2068,2058,2076,2046,2090,2114,1197
344,1716362239385988972,2045,2056,2028,2058,2022,2000,1193
345,1716362239395994847,2067,2028,2070,2059,2089,2109,1196
346,1716362239405988179,2049,2069,2096,2057,2037,2000,1192
347,1716362239415987893,2062,2047,2092,2073,2089,2109,1195
348,1716362239425988408,2040,2056,2033,2048,2012,2009,1194
349,1716362239435989986,2067,2049,2067,2066,2082,2117,1196
350,1716362239445989238,2046,2074,2034,2041,2026,1997,1193
351,1716362239455989684,2065,2045,2081,2068,2084,2098,1196
352,1716362239465990250,2050,2063,2072,2061,2074,2004,1194
353,1716362239475989863,2069,2065,2116,2080,2082,2112,1197
354,1716362239485990398,2044,2060,2029,2045,2017,1997,1193
355,1716362239496030148,2068,2049,2084,2072,2095,2109,1196
356,1716362239506029842,2052,2053,2026,2020,2017,2007,1192
357,1716362239516030097,2064,2056,2073,2037,2076,2114,1195
358,1716362239526030512,2045,2047,2026,2042,1996,2000,1193
359,1716362239536030756,2064,2047,2078,2048,2065,2100,1196
360,1716362239546031472,2050,2049,2011,2042,1990,1991,1192
361,1716362239556031807,2064,2044,2052,2047,2057,2096,1196
362,1716362239566032503,1689,2056,2034,2084,2043,2009,1193
363,1716362239576032547,1928,2052,2060,2064,2084,2105,1196
364,1716362239586032802,2179,2059,2018,2041,2019,1997,1194
365,1716362239596033347,2112,2040,2054,2056,2085,2104,1198
366,1716362239606033813,2126,2059,2004,2044,2015,1998,1194
367,1716362239616033917,2130,2048,2068,2068,2086,2106,1197
368,1716362239626034142,2065,2056,2032,2039,2012,2001,1193
369,1716362239636034698,2100,2051,2063,2081,2080,2101,1196
370,1716362239646035503,2072,2054,2035,2031,1996,2008,1192
371,1716362239656019918,2084,2052,2074,2079,2088,2109,1198
372,1716362239666020033,2068,2061,2043,2065,2029,1981,1192
373,1716362239676020007,2066,2033,2044,2068,2081,2108,1195
374,1716362239686019010,2064,2059,1972,2067,2026,1997,1192
375,1716362239696018583,2080,2045,2047,2071,2088,2114,1198
376,1716362239706019258,2053,2068,2022,2044,2008,2000,1190
377,1716362239716017690,2067,2049,2068,2070,2116,2110,1197
378,1716362239726017343,2056,2060,2023,2041,2024,2004,1195
379,1716362239736017087,2062,2043,2092,2078,2072,2114,1196
380,1716362239746015209,2048,2048,2010,2041,2036,1992,1192
381,1716362239756014942,2064,2050,2084,2060,2123,2112,1196
382,1716362239766014175,2058,2057,2034,2033,2009,2008,1192
383,1716362239776015602,2073,2040,2063,2092,2092,2104,1197
384,1716362239786014194,2058,2056,2036,2060,2057,2000,1192
385,1716362239796011974,2068,2042,2044,2050,2081,2101,1195
386,1716362239806012780,2053,2062,2037,2046,2018,2000,1192
387,1716362239816012022,2065,2049,2092,2076,2064,2096,1197
388,1716362239826011586,2048,2063,2037,2036,2012,1999,1194
389,1716362239836010058,2060,2037,2085,2063,2096,2108,1195
390,1716362239846010052,2065,2068,2024,2037,2012,1995,1194
391,1716362239856009445,2058,2059,2069,2056,2117,2111,1198
392,1716362239866007626,2058,2070,2040,2047,2040,2002,1192
393,1716362239876010055,2058,2036,2061,2038,2062,2096,1194
394,1716362239886008707,2051,2069,2066,2013,2008,1998,1192
395,1716362239896006517,2063,2046,2067,2090,2095,2104,1197
396,1716362239906007573,2052,2063,2038,2054,2020,1989,1191
397,1716362239916005404,2058,2040,2068,2066,2124,2113,1195
398,1716362239926005097,2060,2068,2064,2049,2028,2001,1193
399,1716362239936005523,2064,2032,2056,2063,2081,2106,1196
400,1716362239946007551,2058,2070,2029,2003,1980,1990,1193
401,1716362239956003768,2072,2048,2129,2079,2128,2100,1195
402,1716362239966004694,2075,2080,2080,2058,2017,2000,1192
403,1716362239976002484,2072,2043,2061,2059,2076,2109,1196
404,1716362239986002839,2081,2065,2044,2000,2012,2005,1195
405,1716362239996000820,2069,2034,2069,2046,2081,2111,1195
406,1716362240006000684,2057,2066,2018,2056,2032,1988,1195
407,1716362240016007862,2064,2046,2065,2072,2081,2104,1199
408,1716362240026010812,2068,2049,2034,2069,2016,2001,1194
409,1716362240036002200,2084,2036,2064,2060,2084,2106,1196
410,1716362240046000200,2084,2083,2117,2059,2006,1989,1192
411,1716362240056000075,2061,2042,2052,2017,2073,2109,1196
412,1716362240066003405,2056,2066,2033,2049,2013,2004,1193
413,1716362240076000684,2047,2038,2073,2070,2085,2116,1195
414,1716362240085998705,2029,2068,2033,2049,2015,1990,1193
415,1716362240095999000,2069,2035,2035,2060,2077,2112,1197
416,1716362240106017189,2057,2050,2008,2051,2036,2001,1193
417,1716362240116005010,2038,2042,2064,2060,2088,2116,1194
418,1716362240125999965,2095,2085,2035,2043,2025,1992,1192
419,1716362240136000129,2033,2050,2068,2063,2079,2122,1197
420,1716362240145998070,2056,2067,2044,2047,2000,2002,1193
421,1716362240155999267,2057,2040,2059,2076,2060,2097,1195
422,1716362240165996906,2065,2062,2029,2056,2030,2004,1195
423,1716362240175999336,1968,2044,2066,2044,2087,2115,1196
424,1716362240185999922,1931,2065,2040,2053,2035,1996,1193
425,1716362240195999454,2031,2040,2067,2065,2085,2114,1195
426,1716362240205997936,2037,2068,2047,2056,2028,2002,1194
427,1716362240216000085,2040,2037,2052,2047,2071,2095,1198
428,1716362240225999468,2081,2108,2136,2068,2020,2006,1196
429,1716362240236003370,1899,2037,2057,2059,2081,2111,1196
430,1716362240246021409,2103,2078,2044,2036,2027,1997,1193
431,1716362240255998850,2092,2043,2072,2065,2094,2112,1196
432,1716362240265997191,2116,2066,2049,2050,2027,2010,1193
433,1716362240276002416,2066,2028,2027,2065,2108,2116,1194
434,1716362240286001909,2104,2076,2000,2072,2022,2001,1192
435,1716362240296000270,2106,2032,2060,2060,2085,2104,1195
436,1716362240305999173,2062,2076,2051,2049,2030,2002,1191
437,1716362240316005098,1976,2038,2057,2062,2081,2099,1197
438,1716362240326002638,2021,2085,2046,2046,2006,2001,1192
439,1716362240336001310,2021,2029,2032,2059,2086,2110,1195
440,1716362240346003538,2067,2069,2014,2049,2025,2007,1190
441,1716362240356005947,2028,2036,2058,2075,2084,2105,1194
442,1716362240366001133,2068,2068,2041,2066,2031,2005,1192
443,1716362240376007659,2027,2036,2058,2070,2145,2101,1196
444,1716362240385996562,2058,2069,2026,2038,2014,2008,1192
445,1716362240395999823,2032,2034,2054,2058,2077,2104,1197
446,1716362240405997844,2060,2078,2049,2052,2027,2019,1193
447,1716362240415997668,2033,2030,2064,2069,2090,2104,1197
448,1716362240426005036,2052,2062,2039,2064,2033,2004,1192
449,1716362240436003438,2064,2040,2047,2068,2074,2105,1196
450,1716362240446003722,2105,2084,2128,2053,2029,2004,1193
451,1716362240456001603,2008,2036,2044,2056,2100,2096,1196
452,1716362240466002128,2068,2069,2030,2059,2024,2001,1193
453,1716362240476004276,2050,2028,2082,2077,2076,2106,1196
454,1716362240486005674,2084,2076,2060,2049,2033,2011,1193
455,1716362240496000499,2034,2024,2061,2058,2082,2097,1195
456,1716362240505999991,2089,2092,2122,2069,2029,2019,1193
457,1716362240515998113,2036,2031,2064,2059,2077,2112,1196
458,1716362240525995932,2076,2076,2050,2100,2032,2006,1193
459,1716362240535996989,2044,2037,2044,2074,2080,2117,1196
460,1716362240545997214,2072,2074,2057,2054,2033,2012,1192
461,1716362240555997810,2040,2032,2073,2056,2080,2109,1196
462,1716362240565998114,2085,2077,2089,2052,2056,2008,1193
463,1716362240575996796,2024,2032,2036,2056,2066,2103,1196
464,1716362240585996330,2082,2068,2052,2072,2037,2005,1193
465,1716362240595967429,2034,2033,2065,2015,2070,2099,1195
466,1716362240605998232,2091,2090,2134,2049,2040,2017,1192
467,1716362240615998417,2027,2028,2041,2065,2079,2089,1197
468,1716362240625998752,2083,2072,2058,2047,2044,2012,1194
469,1716362240636009547,2029,2029,2070,2056,2066,2096,1197
470,1716362240645999102,2090,2076,2044,2054,2017,2013,1190
471,1716362240656001189,2038,2046,2080,2065,2056,2080,1196
472,1716362240666002156,2084,2066,2038,2060,2049,2013,1192
473,1716362240676001960,2036,2027,2036,2071,2071,2105,1193
474,1716362240686000081,2091,2072,2051,2054,2036,2028,1194
475,1716362240696000235,2038,2038,2068,2049,2062,2091,1196
476,1716362240706000541,2088,2083,2044,2050,2027,2020,1193
477,1716362240716001156,2029,2020,2055,2062,2076,2099,1196
478,1716362240726000699,2089,2081,2053,2072,2042,2016,1192
479,1716362240736037454,2034,2030,2041,2062,2077,2098,1196
480,1716362240746038219,2093,2088,2085,2084,2063,2021,1192
481,1716362240756045127,2050,2021,2040,2077,2072,2094,1194
482,1716362240766040062,2114,2073,2044,2060,2034,2016,1193
483,1716362240776000642,2057,2036,2044,2062,2069,2092,1196
484,1716362240786023148,2077,2071,2046,2049,2027,2018,1192
485,1716362240796023544,2012,2039,2031,2063,2085,2092,1196
486,1716362240806023608,2096,2085,2047,2054,2030,2020,1192
487,1716362240816023472,2015,2043,2028,2018,2081,2094,1197
488,1716362240826022064,2072,2072,2072,2064,2044,2019,1193
489,1716362240836022770,2027,2036,2065,2036,2071,2096,1195
490,1716362240846022864,2062,2070,2039,2059,2053,2027,1193
491,1716362240856023219,2016,2028,2057,2080,2085,2088,1196
492,1716362240866025588,2088,2081,2037,2056,2046,2025,1193
493,1716362240876023739,2028,2024,2044,2065,2072,2087,1197
494,1716362240886023864,2089,2087,2092,2077,2054,2038,1194
495,1716362240896024810,2012,2020,2045,2017,2051,2080,1199
496,1716362240906024744,2084,2075,2029,2064,2046,2036,1192
497,1716362240916080815,2022,2047,2062,2056,2056,2086,1198
498,1716362240926028290,2085,2078,2065,2056,2042,2032,1193
499,1716362240936028003,2028,2019,2066,2015,2045,2073,1195
500,1716362240946026475,2089,2072,2033,2035,2027,2025,1193
501,1716362240956026429,2005,2037,2052,2047,2054,2075,1197
502,1716362240966027175,2104,2075,2060,2061,2048,2037,1194
503,1716362240976014335,2023,2032,2079,2059,2059,2076,1196
504,1716362240986015722,2097,2081,2053,2054,2058,2034,1193
505,1716362240996016748,2022,2038,2066,2040,2049,2072,1195
506,1716362241006016492,2093,2076,2053,2051,2052,2040,1194
507,1716362241016012249,2020,2034,2045,2045,2057,2080,1198
508,1716362241026012874,2094,2082,2077,2060,2055,2036,1194
509,1716362241036020393,2026,2034,2077,2056,2045,2078,1196
510,1716362241046013765,2102,2094,2106,2035,2057,2047,1192
511,1716362241056011916,2024,2024,2026,2052,2051,2077,1196
512,1716362241066011078,2098,2091,2068,2059,2065,2036,1194
513,1716362241076008718,2026,2034,2086,2034,2047,2066,1196
514,1716362241086009745,2084,2090,2073,2057,2056,2046,1192
515,1716362241096008346,2021,2034,2099,2060,2052,2070,1194
516,1716362241106009062,2089,2078,2072,2062,2072,2050,1193
517,1716362241116007905,2014,2025,2031,2050,2041,2064,1194
518,1716362241126006827,2099,2080,2061,2065,2065,2056,1195
519,1716362241136007613,2015,2021,2033,2047,2052,2065,1193
520,1716362241146007667,2090,2076,2038,2071,2120,2052,1194
521,1716362241156005869,2016,2014,2021,2072,2044,2061,1193
522,1716362241166005562,2088,2077,2077,2068,2077,2061,1198
523,1716362241176003152,2015,2021,2050,2044,2061,2063,1195
524,1716362241186003778,2090,2076,2090,2064,2067,2064,1196
525,1716362241196003552,2000,2033,2054,2053,2051,2057,1194
526,1716362241206001422,2084,2072,2059,2054,2072,2052,1197
527,1716362241216002018,2028,2020,2042,2050,2044,2050,1197
528,1716362241226002664,2096,2083,2077,2065,2064,2054,1195
529,1716362241236001064,2023,2035,2093,2053,2033,2042,1196
530,1716362241246006600,2096,2076,2033,2057,2084,2060,1196
531,1716362241256038505,2017,2020,2027,2061,2044,2050,1196
532,1716362241265998934,2096,2075,2065,2026,2068,2066,1196
533,1716362241276000812,2013,2020,2029,2052,2046,2065,1195
534,1716362241285997350,2095,2069,2056,2064,2091,2070,1196
535,1716362241295997274,2017,2022,2020,2012,2036,2047,1195
536,1716362241305994393,2100,2100,2112,2074,2076,2061,1195
537,1716362241315998676,2013,2030,2029,2039,2034,2049,1195
538,1716362241325994603,2096,2091,2112,2069,2068,2061,1194
539,1716362241335992192,2015,2015,2016,2042,2019,2042,1195
540,1716362241345992858,2089,2078,2060,2079,2075,2067,1194
541,1716362241356039942,2026,2036,2057,2061,2046,2046,1194
542,1716362241365994169,2105,2095,2115,2074,2080,2069,1195
543,1716362241375994354,2017,2021,2031,2048,2041,2049,1194
544,1716362241385990551,2097,2087,2062,2074,2116,2077,1193
545,1716362241395992860,2020,2030,2069,2068,2031,2037,1193
546,1716362241405991001,2091,2084,2061,2052,2072,2081,1198
547,1716362241415989823,2012,2035,2028,2052,2036,2029,1194
548,1716362241425991371,2098,2089,2089,2023,2067,2085,1195
549,1716362241435989742,2022,2032,2064,2052,2036,2042,1194
550,1716362241445987922,2096,2080,2068,2056,2068,2074,1196
551,1716362241455988558,2013,2031,2020,2060,2052,2041,1193
552,1716362241465986820,2098,2082,2089,2076,2106,2092,1194
553,1716362241475988206,2011,2016,2015,2076,2060,2041,1193
554,1716362241485989393,2096,2082,2061,2076,2081,2068,1194
555,1716362241495989177,2016,2026,2034,2056,2036,2027,1195
556,1716362241505990153,2085,2080,2063,2066,2084,2088,1193
557,1716362241515987302,2018,2027,2058,2056,2056,2028,1193
558,1716362241526024337,2092,2077,2047,2052,2065,2084,1195
559,1716362241535992491,2008,2028,2028,2061,2026,2036,1193
560,1716362241545988628,2093,2081,2057,2040,2065,2089,1197
561,1716362241556023038,2015,2017,2021,2052,2026,2028,1192
562,1716362241566020428,2093,2078,2056,2066,2072,2076,1198
563,1716362241575987460,2016,2034,2025,2068,2024,2026,1194
564,1716362241585990299,2089,2080,2067,2075,2084,2073,1197
565,1716362241596020351,2008,2028,2060,2074,2029,2028,1193
566,1716362241605990379,2092,2078,2052,2060,2067,2088,1196
567,1716362241615988599,2013,2018,2026,2007,2009,2012,1195
568,1716362241626017969,2098,2084,2074,2064,2051,2072,1196
569,1716362241635993918,2014,2021,2018,2051,2029,2028,1195
570,1716362241645987049,2095,2076,2092,2059,2077,2088,1196
571,1716362241656017021,2010,2030,2021,2048,2045,2024,1193
572,1716362241665988291,2093,2100,2068,2068,2069,2088,1195
573,1716362241675999977,2020,2009,2017,2038,2026,2018,1193
574,1716362241685989532,2090,2086,2053,2092,2087,2078,1196
575,1716362241695989276,2014,2028,2035,2040,2024,2026,1192
576,1716362241706021041,2091,2074,2056,2060,2088,2081,1193
577,1716362241715990897,2018,2024,2046,2045,2004,2023,1192
578,1716362241725988347,2088,2084,2069,2068,2085,2082,1194
579,1716362241735988873,2018,2026,2048,2033,2016,2029,1194
580,1716362241745991221,2089,2076,2070,2068,2074,2086,1196
581,1716362241756012286,2026,2030,2028,2059,2017,2012,1192
582,1716362241765985770,2100,2082,2100,2059,2084,2095,1197
583,1716362241776007816,2009,2018,2012,2044,2032,2024,1194
584,1716362241786006789,2092,2085,2085,2084,2081,2090,1194
585,1716362241795989761,2020,2022,2020,2046,2025,2011,1194
586,1716362241806006487,2095,2081,2036,2074,2069,2077,1198
587,1716362241815993066,2017,2029,2050,2063,2021,2022,1194
588,1716362241825989143,2098,2091,2071,2096,2070,2084,1197
589,1716362241836007122,2008,2022,2024,2044,2028,2019,1193
590,1716362241846004812,2088,2086,2077,2057,2078,2088,1195
591,1716362241856004996,2016,2021,2030,2060,2033,2014,1194
592,1716362241865988409,2098,2077,2047,2056,2058,2089,1195
593,1716362241876018441,2015,2029,2048,2052,2012,2016,1194
594,1716362241885989921,2088,2071,2056,2082,2064,2084,1196
595,1716362241896001898,2017,2021,2001,2059,2028,2015,1192
596,1716362241906014286,2093,2063,2040,2080,2085,2088,1194
597,1716362241915993972,2013,2017,2029,2050,2022,2014,1193
598,1716362241925998986,2093,2088,2085,2041,2072,2085,1195
599,1716362241935999632,2012,2024,2040,2053,2024,2018,1192
600,1716362241945989407,2096,2075,2056,2064,2079,2081,1195
601,1716362241955996233,2014,2021,2017,2060,2024,2024,1193
602,1716362241965990798,2088,2083,2074,2058,2080,2096,1198
603,1716362241975988819,2012,2032,2043,2060,2014,2032,1194
604,1716362241985996998,2096,2082,2057,2066,2066,2088,1196
605,1716362241995997243,2017,2022,2049,2035,2009,2018,1193
606,1716362242005995805,2095,2085,2058,2062,2083,2090,1194
607,1716362242015990961,2010,2036,2061,2052,2008,2021,1196
608,1716362242025991366,2089,2065,2059,2056,2076,2090,1196
609,1716362242035990228,2012,2010,2017,2041,2012,2020,1195
610,1716362242045990673,2085,2077,2064,2063,2074,2078,1196
611,1716362242055988063,2023,2034,2017,2041,2024,2005,1194
612,1716362242065988117,2092,2072,2052,2050,2088,2088,1196
613,1716362242075988112,2020,2031,2039,2076,2025,2013,1193
614,1716362242085992785,2090,2087,2104,2080,2104,2093,1195
615,1716362242095991107,2011,2022,2033,2017,2025,2004,1191
616,1716362242105989297,2097,2076,2080,2077,2096,2091,1195
617,1716362242115989803,2020,2016,2015,2038,2012,2014,1193
618,1716362242125990769,2098,2094,2070,2052,2130,2100,1195
619,1716362242135988660,2014,2025,2034,2047,2045,2017,1193
620,1716362242145993423,2092,2079,2078,2066,2084,2082,1196
621,1716362242155988198,2007,2024,2042,2056,2016,2011,1194
622,1716362242165989545,2093,2073,2072,2062,2080,2077,1195
623,1716362242175990020,2008,2029,2033,2040,2031,2016,1194
624,1716362242185990195,2092,2072,2060,2061,2064,2075,1196
625,1716362242195987664,2017,2027,2024,2040,2025,2013,1193
626,1716362242205988180,2104,2083,2096,2031,2078,2088,1197
627,1716362242215994978,2012,2024,2031,2045,2025,2018,1193
628,1716362242225992136,2090,2074,2081,2060,2083,2092,1195
629,1716362242235991269,2013,2036,2072,2052,2029,2014,1193
630,1716362242245988388,2092,2077,2033,2061,2075,2080,1194
631,1716362242255993362,2011,2040,2024,2040,2021,2013,1192
632,1716362242265988377,2096,2078,2062,2057,2068,2084,1196
633,1716362242275993431,2007,2021,2035,2072,2065,2037,1191
634,1716362242285987725,2094,2080,2046,2064,2068,2093,1196
635,1716362242295989864,2014,2014,1996,2037,2022,2009,1194
636,1716362242305990579,2100,2088,2100,2085,2098,2085,1193
637,1716362242315988920,2007,2022,2015,2066,2029,2021,1195
638,1716362242325989146,2101,2100,2126,2070,2072,2082,1196
639,1716362242335987547,2016,2030,2015,2064,2044,2016,1193
640,1716362242345977612,2093,2072,2064,2069,2078,2085,1197
641,1716362242355990020,2022,2046,2084,2051,2025,2024,1193
642,1716362242366007268,2095,2068,2068,2071,2072,2090,1196
643,1716362242375992715,2012,2024,2041,2047,2031,2028,1192
644,1716362242385987238,2090,2088,2073,2058,2058,2072,1195
645,1716362242395988475,2009,2030,2042,2034,2024,2024,1193
646,1716362242405990895,2092,2083,2059,2094,2127,2081,1195
647,1716362242415991400,2006,2027,2053,2040,2007,2018,1194
648,1716362242425989561,2100,2104,2138,2084,2080,2092,1194
649,1716362242435999905,1999,2023,2014,2045,2033,2026,1192
650,1716362242445989861,2105,2080,2080,2065,2069,2075,1196
651,1716362242455987801,2010,2023,2027,2051,2008,2012,1195
652,1716362242465988476,2101,2081,2047,2069,2065,2090,1195
653,1716362242475994583,2011,2036,2066,2049,2011,2016,1194
654,1716362242485990700,2096,2074,2057,2066,2086,2084,1196
655,1716362242495990113,2004,2034,2009,2034,2021,2021,1192
656,1716362242505988635,2104,2082,2085,2068,2090,2088,1192
657,1716362242515998909,2006,2026,2022,2057,2025,2021,1190
658,1716362242525990998,2101,2083,2064,2096,2083,2081,1194
659,1716362242535991182,2008,2009,1999,2033,2021,2023,1193
660,1716362242545988662,2096,2080,2072,2069,2093,2079,1197
661,1716362242555989278,2014,2031,2080,2072,2016,2028,1191
662,1716362242565991117,2098,2076,2060,2069,2076,2092,1194
663,1716362242575987333,2020,2024,2032,2048,2024,2010,1192
664,1716362242585990644,2100,2076,2073,2068,2093,2079,1194
665,1716362242595991040,2011,2020,2020,2034,2035,2021,1192
666,1716362242605994902,2091,2074,2064,2058,2078,2084,1196
667,1716362242615986239,2016,2056,2059,2057,2031,2015,1194
668,1716362242625989500,2101,2090,2104,2064,2081,2081,1197
669,1716362242635987120,2010,2047,2060,2040,2029,2024,1194
670,1716362242645987405,2097,2068,2066,2075,2091,2082,1196
671,1716362242655987840,2009,2030,2015,2048,2020,2022,1194
672,1716362242665987885,2091,2072,2054,2068,2094,2082,1196
673,1716362242675993780,2013,2037,2069,2046,2023,2016,1193
674,1716362242685994195,2102,2076,2132,2079,2088,2077,1196
675,1716362242695986465,2012,2027,2014,2057,2020,2009,1192
676,1716362242705985959,2102,2084,2118,2060,2075,2084,1196
677,1716362242715994660,2000,2024,2022,1992,2008,2024,1192
678,1716362242725987591,2112,2091,2077,2085,2130,2096,1195
679,1716362242735988146,2001,2026,2036,2034,2015,2024,1192
680,1716362242745988491,2098,2077,2072,2077,2084,2089,1196
681,1716362242756002162,2003,2019,2026,2055,2013,2014,1191
682,1716362242765989151,2097,2081,2070,2065,2079,2084,1196
683,1716362242775989727,2019,2043,2014,2051,2043,2022,1194
684,1716362242785987387,2096,2070,2082,1986,2075,2086,1196
685,1716362242795987642,2009,2024,2018,2047,2009,2013,1192
686,1716362242805986404,2103,2074,2077,2064,2098,2104,1196
687,1716362242815988863,2008,2027,2056,2053,2011,2008,1193
688,1716362242825948972,2099,2064,2041,2069,2096,2095,1196
689,1716362242835989363,2003,2016,2024,2060,2027,2009,1192
690,1716362242845991021,2097,2084,2096,2062,2094,2108,1196
691,1716362242855990995,2005,2017,2005,2036,2014,2009,1193
692,1716362242865991090,2102,2080,2071,2072,2089,2092,1196
693,1716362242875990584,2013,2020,2022,2043,2024,2018,1193
694,1716362242885990688,2100,2083,2104,2068,2110,2100,1195
695,1716362242895990071,2008,2022,1974,2035,2021,2009,1194
696,1716362242905990076,2100,2072,2054,2042,2085,2097,1194
697,1716362242915990391,2014,2029,2006,2028,2002,2011,1194
698,1716362242925992309,2104,2088,2061,2064,2072,2091,1193
699,1716362242935992604,2013,2034,2072,2034,2010,2018,1192
700,1716362242945992889,2097,2083,2088,2082,2096,2100,1194
701,1716362242955993896,2013,2025,2017,2008,2006,2008,1193
702,1716362242965993709,2093,2072,2074,2065,2088,2098,1196
703,1716362242975993744,2014,2024,2005,2048,2010,2005,1192
704,1716362242985994320,2091,2068,2058,2047,2097,2105,1196
705,1716362242995994815,2008,2023,2009,2044,2017,2001,1193
706,1716362243005994799,2092,2077,2067,2064,2093,2096,1197
707,1716362243015995275,2009,2031,2038,2034,2002,2004,1194
708,1716362243025992594,2093,2067,2050,2062,2084,2100,1198
709,1716362243035996416,2014,2030,2052,2040,2026,2005,1191
710,1716362243045996821,2097,2094,2092,2045,2090,2098,1199
711,1716362243055996936,2017,2021,2000,2041,2008,1993,1193
712,1716362243065997622,2089,2071,2081,2056,2091,2100,1197
713,1716362243075997586,2011,2015,2013,2038,2012,2014,1192
714,1716362243085997911,2094,2075,2064,2074,2095,2112,1197
715,1716362243096004658,2014,2018,2025,2029,2037,2005,1193
716,1716362243105999082,2088,2078,2062,2052,2089,2110,1192
717,1716362243115999298,2009,2032,2012,2029,2004,1987,1192
718,1716362243125999984,2104,2077,2109,2070,2100,2104,1195
719,1716362243136001671,2012,2028,2030,2046,2007,1997,1190
720,1716362243146000383,2092,2069,2061,2060,2085,2108,1193
721,1716362243156001970,2012,2052,2041,2046,2015,2005,1192
722,1716362243165983420,2101,2073,2060,2063,2089,2112,1196
723,1716362243176001469,2019,2016,2008,2037,2004,2003,1191
724,1716362243186001693,2096,2086,2094,2067,2092,2092,1194
725,1716362243195983093,2009,2025,2033,2041,2019,2004,1193
726,1716362243205983909,2085,2070,2050,2056,2086,2101,1196
727,1716362243215985036,2012,2026,2036,2041,2017,2004,1194
728,1716362243225985791,2094,2073,2062,2069,2096,2100,1196
729,1716362243235985876,2016,2028,2043,2058,2027,2015,1193
730,1716362243245986542,2096,2081,2088,2067,2089,2104,1194
731,1716362243255986587,2007,2017,2060,2044,2033,1996,1192
732,1716362243265992262,2095,2081,2084,2079,2085,2100,1196
733,1716362243275988719,2008,2044,2041,2053,2020,1998,1192
734,1716362243285986129,2096,2071,2034,2061,2081,2099,1195
735,1716362243295985322,2008,2017,1990,2042,2026,1997,1194
736,1716362243305951392,2090,2076,2053,2072,2088,2108,1193
737,1716362243315980342,2012,2029,2020,2043,2012,1998,1192
738,1716362243325986838,2093,2082,2068,2065,2082,2103,1194
739,1716362243335987514,2011,2027,2022,2030,2003,1998,1192
740,1716362243345991907,2090,2083,2104,2068,2084,2093,1193
741,1716362243355995619,2008,2028,2020,2067,2017,2003,1192
742,1716362243365986546,2104,2085,2097,2089,2112,2104,1194
743,1716362243375986049,2010,2028,2026,2064,2014,1998,1193
744,1716362243385985743,2098,2088,2102,2072,2090,2094,1194
745,1716362243395986670,2009,2034,2035,2029,2014,1999,1192
746,1716362243405987736,2091,2077,2088,2064,2076,2112,1197
747,1716362243415987289,2018,2027,2024,2059,2012,2008,1194
748,1716362243425988456,2092,2079,2081,2065,2082,2104,1195
749,1716362243435987319,2014,2038,2031,2043,2010,2000,1193
750,1716362243445987103,2093,2069,2052,2058,2077,2106,1195
751,1716362243455986796,2013,2030,2012,2036,1999,2000,1193
752,1716362243465986981,2093,2074,2048,2058,2079,2097,1197
753,1716362243475990022,2013,2031,2029,2052,2024,2009,1192
754,1716362243485987492,2098,2080,2128,2088,2100,2098,1195
755,1716362243495988057,2018,2032,2046,2061,2013,2010,1192
756,1716362243505986498,2092,2071,2082,2072,2082,2093,1194
757,1716362243515986313,2006,2029,2029,2050,2023,2000,1193
758,1716362243525994002,2097,2082,2084,2082,2078,2081,1194
759,1716362243535986933,2017,2049,2088,2042,2010,2017,1192
760,1716362243545995013,2091,2074,2048,2041,2098,2089,1195
761,1716362243555986701,2011,2047,2032,2046,2015,2007,1192
762,1716362243565986265,2102,2072,2077,2061,2084,2096,1194
763,1716362243575986330,2012,2019,1992,2052,2050,2008,1193
764,1716362243585987476,2093,2076,2084,2011,2068,2092,1197
765,1716362243595986970,2015,2030,2020,2043,2024,2009,1191
766,1716362243605987495,2096,2080,2069,2062,2082,2088,1195
767,1716362243615987981,2012,2033,2047,2054,2020,2007,1194
768,1716362243625986864,2094,2072,2059,2030,2078,2080,1196
769,1716362243635996215,2020,2037,2058,2043,2020,2005,1193
770,1716362243645991801,2090,2076,2072,2065,2082,2101,1196
771,1716362243655988791,2003,2024,2018,2061,2001,2001,1192
772,1716362243665989947,2093,2068,2052,2066,2065,2102,1196
773,1716362243675989000,2022,2047,2048,2044,2019,2014,1193
774,1716362243685998933,2100,2074,2076,2064,2080,2101,1196
775,1716362243695955105,2008,2024,2018,2045,2022,2010,1193
776,1716362243705955250,2101,2094,2105,2068,2084,2100,1195
777,1716362243715989148,2006,2015,1994,2051,2016,2010,1193
778,1716362243725992639,2096,2073,2074,2060,2079,2093,1196
779,1716362243735990209,2014,2038,2019,2038,2020,2013,1192
780,1716362243745991156,2092,2076,2071,2067,2088,2088,1197
781,1716362243755988605,2019,2045,2096,2044,2025,2020,1193
782,1716362243765989160,2093,2077,2112,2074,2084,2095,1196
783,1716362243775991299,2016,2024,2022,2052,2014,2013,1190
784,1716362243785987196,2096,2078,2074,2082,2092,2083,1195
785,1716362243795991859,2008,2029,2021,2046,2024,2020,1193
786,1716362243805987616,2101,2092,2082,2026,2084,2088,1195
787,1716362243815990265,2009,2036,2078,2063,2020,2010,1192
788,1716362243825990550,2100,2074,2064,2076,2100,2086,1195
789,1716362243835990916,2015,2028,2015,2041,2020,2005,1192
790,1716362243845991622,2093,2080,2110,2062,2068,2090,1199
791,1716362243855987458,2010,2033,2042,2066,2026,2008,1192
792,1716362243865997191,2093,2077,2075,2069,2086,2092,1196
793,1716362243875992196,2012,2024,2020,2017,2013,2004,1192
794,1716362243885989335,2100,2073,2060,2072,2083,2085,1197
795,1716362243895991734,2010,2026,1986,2047,2012,2010,1195
796,1716362243905987520,2114,2085,2058,2053,2081,2099,1194
797,1716362243915989699,1999,2018,2026,2043,2015,2010,1194
798,1716362243925990175,2092,2075,2084,2060,2090,2096,1197
799,1716362243935989818,2004,2028,2027,2033,1994,2004,1192
800,1716362243945990023,2099,2075,2082,2063,2066,2092,1194
801,1716362243955989296,2012,2028,2009,2023,2022,2012,1194
802,1716362243965991635,2093,2080,2092,2073,2089,2096,1193
803,1716362243975988604,2009,2025,2014,2036,2010,2013,1193
804,1716362243985988188,2102,2084,2108,2071,2090,2087,1195
805,1716362243995992710,2012,2027,2025,2065,2015,2013,1192
806,1716362244005990481,2097,2073,2078,2046,2091,2105,1194
807,1716362244015990115,2017,2059,2068,2046,2016,2012,1194
808,1716362244025990601,2102,2084,2083,2064,2088,2098,1196
809,1716362244035992088,2001,2028,2028,2043,2019,2001,1193
810,1716362244045994647,2105,2083,2100,2063,2097,2102,1196
811,1716362244055980495,2009,2028,2024,2043,2005,2004,1193
812,1716362244065990348,2096,2070,2094,2069,2062,2096,1195
813,1716362244075991505,2012,2034,2016,2040,2003,2005,1192
814,1716362244085991359,2092,2069,2056,2065,2078,2094,1197
815,1716362244095991715,2009,2020,2024,2050,2012,1998,1192
816,1716362244105989645,2098,2078,2100,2072,2095,2101,1192
817,1716362244115992184,2008,2034,2027,2040,2011,2006,1191
818,1716362244125991197,2099,2088,2089,2091,2097,2107,1194
819,1716362244135991262,2010,2031,2068,2040,2016,2010,1193
820,1716362244145991146,2100,2104,2140,2080,2099,2101,1197
821,1716362244155994456,2012,2028,2029,2044,1992,1998,1192
822,1716362244165991676,2097,2072,2056,2065,2084,2090,1195
823,1716362244175995217,2009,2026,2004,2045,2033,2004,1192
824,1716362244185987948,2094,2064,2090,2065,2100,2103,1195
825,1716362244195994495,2009,2026,2053,2032,2006,2004,1193
826,1716362244205987947,2097,2088,2122,2060,2092,2089,1197
827,1716362244215991949,2016,2034,2032,2037,2010,2008,1193
828,1716362244225993176,2093,2083,2080,2084,2090,2088,1196
829,1716362244235997729,2019,2050,2107,2044,2010,2004,1192
830,1716362244245991512,2088,2066,2073,2048,2087,2114,1194
831,1716362244255994733,2016,2034,2021,2054,2041,2009,1193
832,1716362244265992943,2100,2084,2094,2088,2092,2101,1196
833,1716362244275997868,2017,2036,2028,2048,2024,1998,1192
834,1716362244285994215,2088,2066,2066,2070,2096,2094,1198
835,1716362244295991956,2013,2044,2074,2064,2041,1995,1192
836,1716362244305992371,2093,2074,2066,2024,2085,2097,1194
837,1716362244316000741,2005,2026,2020,2054,2013,2012,1192
838,1716362244325993111,2098,2078,2116,2060,2094,2103,1195
839,1716362244335994879,2014,2028,2006,2043,2033,2002,1193
840,1716362244345992810,2089,2084,2102,2076,2103,2100,1194
841,1716362244356001371,2010,2017,2016,2047,2025,2004,1192
842,1716362244365994151,2092,2075,2050,2058,2095,2112,1196
843,1716362244375993695,2012,2029,2010,2048,2022,1985,1193
844,1716362244385994441,2092,2076,2076,2080,2090,2102,1196
845,1716362244396006459,2008,2012,2008,2039,2003,2002,1192
846,1716362244405995963,2092,2077,2080,2090,2076,2097,1196
847,1716362244415995046,2014,2022,2013,2049,2010,1993,1193
848,1716362244425996423,2092,2074,2070,2072,2083,2108,1196
849,1716362244436004503,2012,2028,2027,2044,2012,2007,1193
850,1716362244445997264,2096,2074,2091,2066,2093,2104,1196
851,1716362244455997368,2017,2037,2015,2031,2032,1996,1194
852,1716362244465997363,2088,2068,2075,2041,2084,2112,1196
853,1716362244476010292,2017,2044,2035,1969,1994,1995,1194
854,1716362244485994216,2090,2070,2075,2066,2079,2101,1194
855,1716362244495995573,2010,2042,2012,2047,2018,1990,1192
856,1716362244505995618,2094,2072,2064,2065,2082,2098,1193
857,1716362244516007545,2015,2026,2010,2049,2003,1982,1192
858,1716362244525996128,2095,2085,2131,2064,2093,2104,1193
859,1716362244535996092,2020,2041,2077,2047,1996,1995,1190
860,1716362244545996848,2095,2075,2078,2075,2085,2106,1196
861,1716362244556009757,2012,2033,2034,2051,2009,1997,1193
862,1716362244565998030,2100,2072,2068,2067,2094,2112,1194
863,1716362244575998705,2009,2030,2005,2040,2004,1982,1192
864,1716362244585998780,2092,2096,2085,2100,2106,2116,1196
865,1716362244596039692,2012,2025,1997,2057,2001,1994,1194
866,1716362244606003087,2093,2083,2136,2084,2089,2105,1194
867,1716362244616003382,2013,2031,2017,2062,2014,1991,1193
868,1716362244626003447,2099,2071,2066,2071,2081,2106,1196
869,1716362244636013069,2011,2031,2015,2041,2001,1996,1192
870,1716362244646063159,2091,2066,2076,2061,2086,2097,1197
871,1716362244655991127,2016,2037,2010,2038,2017,2002,1194
872,1716362244665989359,2095,2076,2101,2064,2080,2098,1197
873,1716362244676012708,2010,2033,2008,2056,2012,1998,1192
874,1716362244685989929,2089,2062,2062,2064,2084,2101,1197
875,1716362244695993019,2012,2034,2019,2040,2008,2004,1191
876,1716362244705991210,2089,2077,2126,2078,2086,2107,1193
877,1716362244716015130,2016,2032,2018,2050,2016,1997,1192
878,1716362244726027568,2087,2072,2068,2056,2085,2096,1196
879,1716362244735994359,2022,2046,2077,2047,2004,1994,1192
880,1716362244745995807,2098,2073,2098,2033,2077,2100,1195
881,1716362244756002815,2014,2031,2022,2060,2000,1979,1191
882,1716362244765992430,2091,2082,2114,2083,2096,2107,1196
883,1716362244775988447,2020,2032,2024,2041,1996,2005,1194
884,1716362244785988671,2094,2070,2075,2045,2097,2092,1196
885,1716362244795991872,2021,2048,2050,2047,2010,2001,1193
886,1716362244805993840,2086,2070,2108,2064,2084,2101,1196
887,1716362244815990659,2020,2033,2030,2048,2004,1999,1194
888,1716362244825990513,2088,2073,2108,2081,2081,2093,1196
889,1716362244835990929,2009,2027,1998,2044,2010,1996,1192
890,1716362244845991524,2095,2072,2064,2053,2078,2104,1197
891,1716362244855993382,2007,2034,2021,2051,2003,1994,1194
892,1716362244865989069,2090,2087,2083,2088,2104,2101,1196
893,1716362244876052103,2021,2036,2024,2049,2008,1997,1192
894,1716362244885997264,2093,2068,2072,2065,2088,2096,1196
895,1716362244895992488,2017,2025,2033,2047,2008,1993,1193
896,1716362244905987984,2100,2066,2064,2030,2081,2089,1193
897,1716362244916027183,2018,2037,2015,2053,2010,1997,1190
898,1716362244925989948,2094,2078,2093,2069,2080,2104,1196
899,1716362244935989451,2013,2040,2035,2047,2012,1998,1192
900,1716362244945988804,2084,2072,2072,2052,2076,2110,1196
901,1716362244956030608,2017,2038,2024,2053,2018,1988,1192
902,1716362244965989425,2094,2071,2074,2076,2109,2105,1196
903,1716362244975988107,2013,2030,2016,2049,2024,1995,1192
904,1716362244985985667,2095,2076,2092,2064,2081,2090,1193
905,1716362244995984940,2011,2026,2003,2054,2014,1994,1192
906,1716362245005987629,2090,2076,2095,2088,2099,2092,1196
907,1716362245015986141,2019,2028,2024,2037,2016,2000,1193
908,1716362245025988410,2088,2060,2077,2065,2076,2091,1197
909,1716362245035984658,2015,2037,2024,2047,2020,2004,1193
910,1716362245045986616,2093,2074,2088,2064,2083,2094,1195
911,1716362245055986951,2009,2030,2018,2045,2013,2005,1192
912,1716362245065988088,2096,2088,2111,2061,2070,2088,1195
913,1716362245075996237,2018,2028,2010,2045,2017,2002,1191
914,1716362245085999869,2092,2088,2116,2068,2072,2098,1195
915,1716362245095992680,2004,2032,2017,2041,2024,2004,1194
916,1716362245105989158,2095,2068,2050,2052,2082,2097,1192
917,1716362245115995154,2020,2030,2012,2058,2016,2001,1193
918,1716362245125988846,2100,2069,2055,2046,2083,2099,1194
919,1716362245136002306,2014,2041,2000,2054,2015,2000,1192
920,1716362245145987323,2084,2068,2059,2064,2085,2104,1195
921,1716362245155987157,2017,2030,2003,2040,2004,1991,1192
922,1716362245165995007,2094,2066,2076,2072,2079,2093,1197
923,1716362245175990853,2013,2042,2053,2040,2012,2010,1192
924,1716362245185991599,2100,2088,2104,2057,2078,2101,1195
925,1716362245195991844,2014,2027,2006,2024,2001,2010,1192
926,1716362245205989664,2092,2073,2061,2047,2084,2088,1195
927,1716362245215997384,2012,2034,2008,2037,2009,2000,1193
928,1716362245225990405,2093,2068,2083,2068,2094,2093,1196
929,1716362245235988196,2009,2028,1997,2024,2012,1999,1192
930,1716362245245988291,2097,2080,2070,2072,2081,2094,1196
931,1716362245255988856,2012,2025,2017,2032,2008,2007,1193
932,1716362245265989913,2100,2076,2117,2076,2080,2091,1196
933,1716362245276001419,2013,2043,2052,2045,2016,2005,1191
934,1716362245285990633,2089,2066,2069,2065,2095,2101,1194
935,1716362245295993904,2012,2030,1998,2046,2015,2010,1192
936,1716362245305991244,2090,2065,2056,2070,2088,2096,1194
937,1716362245315999193,2012,2045,2051,2053,2021,2005,1193
938,1716362245325991232,2092,2080,2084,2058,2093,2090,1196
939,1716362245335988882,2014,2024,2026,2038,2030,2021,1193
940,1716362245345989939,2096,2069,2077,2072,2083,2088,1196
941,1716362245356001766,2016,2044,2032,2043,2018,2002,1194
942,1716362245365990570,2092,2069,2078,2065,2084,2089,1195
943,1716362245375986938,2012,2031,2056,2002,2006,2005,1192
944,1716362245385989537,2097,2084,2129,2088,2086,2096,1195
945,1716362245396001063,2015,2046,2001,2053,2028,2013,1192
946,1716362245405990608,2100,2068,2065,2054,2088,2092,1196
947,1716362245415991464,2013,2030,2015,2040,2017,2008,1194
948,1716362245425988914,2096,2064,2064,2043,2085,2093,1193
949,1716362245435988758,2018,2038,2014,2049,2006,1997,1192
950,1716362245445987550,2090,2076,2082,2073,2086,2093,1195
951,1716362245455990130,2019,2030,2031,2029,2015,2001,1193
952,1716362245465987790,2098,2066,2084,2070,2077,2092,1197
953,1716362245475999617,2010,2045,2060,2056,2007,2009,1192
954,1716362245485988370,2088,2070,2069,2064,2072,2092,1197
955,1716362245495991421,2012,2043,2008,2045,2023,1999,1192
956,1716362245505990434,2095,2066,2051,2083,2080,2099,1194
957,1716362245515994466,2013,2042,2021,2056,2020,2001,1192
958,1716362245525994360,2094,2071,2081,2021,2088,2096,1195
959,1716362245535988533,2008,2037,2027,2045,2008,2004,1193
960,1716362245545986314,2102,2080,2129,2079,2091,2091,1197
961,1716362245555999544,2014,2026,2007,2039,2013,2008,1193
962,1716362245565941889,2093,2082,2097,2059,2095,2089,1197
963,1716362245575986939,2009,2034,2005,2006,2006,1996,1193
964,1716362245585987534,2097,2074,2076,2069,2088,2096,1196
965,1716362245595990855,2013,2035,2033,2033,2009,2002,1194
966,1716362245605988335,2093,2068,2078,2074,2088,2092,1197
967,1716362245615988500,2008,2040,2018,2053,2008,1999,1196
968,1716362245625985860,2098,2068,2070,2071,2094,2088,1194
969,1716362245635990654,2017,2038,2021,2056,2017,2007,1193
970,1716362245645992682,2095,2081,2097,2051,2096,2096,1196
971,1716362245655991985,2014,2034,2038,2037,2008,2007,1192
972,1716362245665989525,2086,2077,2096,2047,2090,2090,1194
973,1716362245675989519,2015,2030,2017,2042,2014,2003,1192
974,1716362245685993642,2096,2076,2078,2069,2089,2090,1196
975,1716362245695995169,2016,2045,2056,2007,2005,1991,1192
976,1716362245705993270,2094,2065,2073,2072,2082,2092,1194
977,1716362245715993064,2022,2040,2030,2032,2019,2004,1192
978,1716362245725988741,2096,2077,2106,2053,2101,2096,1194
979,1716362245735991791,2009,2044,2018,2042,2002,1996,1195
980,1716362245745989451,2098,2068,2079,2062,2078,2094,1195
981,1716362245756002831,2018,2032,2021,2037,2012,1993,1190
982,1716362245765989521,2092,2074,2066,2064,2084,2090,1196
983,1716362245775987311,2012,2042,2056,2045,2020,2005,1193
984,1716362245785990411,2092,2064,2104,2080,2084,2105,1196
985,1716362245795999573,2015,2027,2005,2056,2004,2002,1192
986,1716362245805986513,2093,2086,2081,2071,2088,2093,1196
987,1716362245815989233,2013,2033,2027,2041,2000,1996,1194
988,1716362245825987535,2092,2069,2080,2078,2095,2098,1194
989,1716362245836003570,2013,2036,2046,2061,2010,2000,1193
990,1716362245845986982,2093,2062,2075,2065,2085,2093,1198
991,1716362245855986917,2015,2044,2021,2047,2011,1993,1195
992,1716362245865989256,2089,2069,2077,2081,2102,2104,1197
993,1716362245876001293,2020,2043,2042,2046,2010,2002,1191
994,1716362245885987863,2100,2073,2097,2068,2090,2104,1196
995,1716362245895990051,2013,2041,2016,2046,2019,2008,1191
996,1716362245905992560,2094,2058,2056,2077,2104,2097,1197
997,1716362245915988928,2008,2024,2027,2044,2001,1990,1191
998,1716362245925991878,2094,2056,2062,2072,2080,2101,1195
999,1716362245935989218,2013,2037,2026,2056,2016,1989,1194
1000,1716362245945989764,2094,2073,2089,2092,2093,2101,1196
1001,1716362245956005438,2017,2041,2028,2044,1992,1996,1194
1002,1716362245965986576,2094,2068,2069,2084,2108,2097,1195
1003,1716362245975991230,2025,2061,2106,2030,2019,1996,1193
1004,1716362245985990413,2096,2064,2077,2064,2096,2105,1196
1005,1716362245996068355,2014,2030,2011,2050,2018,1994,1192
1006,1716362246005992045,2096,2085,2106,2073,2112,2102,1196
1007,1716362246015995126,2015,2037,2017,2044,2016,1996,1194
1008,1716362246025990843,2101,2068,2088,2061,2089,2105,1196
1009,1716362246036001658,2012,2039,2004,2042,2007,1993,1193
1010,1716362246045989078,2099,2078,2114,2072,2095,2105,1195
1011,1716362246055991717,2014,2041,2016,2054,2017,1993,1192
1012,1716362246065990931,2098,2080,2105,2086,2084,2104,1196
1013,1716362246076007867,2010,2033,2015,2015,2012,1984,1193
1014,1716362246085990349,2096,2069,2097,2080,2091,2096,1195
1015,1716362246095995704,2010,2021,2002,2036,1995,1998,1193
1016,1716362246105990779,2090,2062,2046,2030,2077,2104,1193
1017,1716362246115988930,2014,2034,2014,2044,2007,1995,1194
1018,1716362246125989105,2096,2072,2075,2072,2124,2110,1196
1019,1716362246135990412,2011,2049,2021,2012,2002,1992,1192
1020,1716362246145989585,2101,2074,2069,2065,2087,2100,1195
1021,1716362246156001252,2010,2035,2008,2044,2012,1998,1195
1022,1716362246165992710,2092,2060,2024,2065,2091,2100,1195
1023,1716362246175988788,2015,2030,1991,2032,2008,1993,1193
1024,1716362246185989153,2097,2080,2094,2064,2090,2102,1196
1025,1716362246196000549,2012,2041,2044,2048,2024,1992,1192
1026,1716362246205990925,2093,2069,2074,2052,2074,2108,1194
1027,1716362246215989326,2014,2043,2044,2044,2010,2000,1194
1028,1716362246225989632,2091,2061,2071,2069,2091,2100,1196
1029,1716362246236001780,2008,2040,2016,2042,2005,1985,1193
1030,1716362246245993238,2092,2061,2076,2069,2096,2102,1196
1031,1716362246255991009,2018,2032,2014,2048,1998,1992,1193
1032,1716362246265991254,2093,2076,2109,2081,2096,2112,1196
1033,1716362246276001698,2017,2052,1996,2042,2015,1998,1195
1034,1716362246285992054,2094,2063,2069,2074,2098,2112,1196
1035,1716362246295992810,2012,2041,2017,2046,2010,1993,1195
1036,1716362246305992835,2096,2065,2080,2063,2089,2115,1194
1037,1716362246316011244,2009,2041,2027,2005,1997,1990,1192
1038,1716362246325994097,2107,2064,2074,2075,2080,2112,1196
1039,1716362246335994051,2008,2033,2015,2039,2005,1992,1192
1040,1716362246345994827,2098,2068,2081,2082,2104,2104,1195
1041,1716362246355995032,2007,2029,2030,2048,2003,1988,1191
1042,1716362246365995217,2085,2064,2092,2062,2091,2095,1197
1043,1716362246375995202,2014,2033,2017,2040,2006,1984,1190
1044,1716362246385995968,2102,2064,2087,2069,2096,2104,1194
1045,1716362246395996784,2018,2047,2017,2053,2011,1997,1192
1046,1716362246405996278,2094,2072,2105,2090,2087,2106,1197
1047,1716362246415996803,2011,2031,2020,2038,2015,1985,1194
1048,1716362246425997059,2098,2075,2088,2076,2093,2107,1198
1049,1716362246435997744,2005,2032,2017,2044,2001,1996,1193
1050,1716362246445998079,2104,2073,2098,2064,2097,2104,1195
1051,1716362246455997904,2013,2033,2000,2051,2012,1990,1194
1052,1716362246465998459,2096,2080,2098,2054,2088,2099,1197
1053,1716362246475996350,2014,2056,2058,2036,1992,2000,1195
1054,1716362246485999651,2109,2072,2057,2070,2102,2115,1198
1055,1716362246496000076,2003,2047,2041,2046,2008,1992,1193
1056,1716362246506000562,2095,2072,2145,2064,2100,2099,1196
1057,1716362246516000446,2012,2036,2020,2047,2008,1990,1193
1058,1716362246526000301,2096,2062,2101,2084,2090,2113,1194
1059,1716362246536001127,2019,2052,2050,2033,2000,1993,1193
1060,1716362246545999989,2101,2059,2056,2060,2096,2100,1196
1061,1716362246556000885,2015,2040,2014,2036,2008,1992,1193
1062,1716362246566000700,2092,2060,2075,2075,2092,2107,1196
1063,1716362246576000905,2001,2044,2014,2044,2009,2005,1193
1064,1716362246585985300,2091,2073,2114,2061,2082,2093,1197
1065,1716362246596027134,2012,2036,2015,2036,2000,1997,1193
1066,1716362246606003123,2096,2066,2064,2066,2095,2105,1199
1067,1716362246616004020,2017,2053,2027,2056,2017,1996,1195
1068,1716362246626009514,2102,2068,2074,2073,2088,2098,1196
1069,1716362246636021702,2008,2049,2028,1984,1998,1993,1192
1070,1716362246645987752,2105,2066,2066,2056,2084,2098,1196
1071,1716362246655988198,2006,2036,2016,2043,2010,2000,1192
1072,1716362246665988603,2105,2070,2104,2072,2089,2101,1195
1073,1716362246676015639,2014,2038,2043,2032,1985,1992,1192
1074,1716362246685990045,2098,2080,2088,2068,2061,2102,1195
1075,1716362246695990701,2007,2034,2008,2071,2011,1996,1192
1076,1716362246705989623,2098,2061,2074,2084,2094,2103,1193
1077,1716362246716017531,2017,2039,2013,2033,2000,2004,1193
1078,1716362246725991115,2096,2064,2082,2053,2092,2088,1195
1079,1716362246735990870,2016,2028,1996,2044,2009,1997,1192
1080,1716362246745988380,2091,2061,2058,2044,2082,2101,1196
1081,1716362246756019313,2013,2043,2019,2040,2006,1988,1195
1082,1716362246765992727,2106,2067,2062,2098,2108,2100,1195
1083,1716362246775988594,2006,2036,2001,2043,2005,1989,1192
1084,1716362246785989901,2100,2070,2088,2074,2105,2109,1197
1085,1716362246795985527,2008,2045,2056,2032,2028,2000,1193
1086,1716362246805988778,2099,2061,2072,2086,2096,2097,1198
1087,1716362246815991357,2005,2029,1981,2032,2004,1992,1193
1088,1716362246825988998,2089,2069,2078,2061,2095,2096,1196
1089,1716362246835993761,2007,2034,2000,2050,2033,1999,1193
1090,1716362246845995049,2102,2074,2072,2072,2092,2113,1197
1091,1716362246855992328,2008,2048,2016,2046,1996,2001,1192
1092,1716362246865988856,2100,2062,2061,2033,2140,2112,1197
1093,1716362246876031010,2006,2039,2011,2030,2000,1990,1193
1094,1716362246885993093,2105,2070,2088,2054,2091,2114,1195
1095,1716362246895990002,2008,2038,2031,2050,2005,1978,1195
1096,1716362246905992090,2103,2079,2069,2065,2092,2114,1195
1097,1716362246916023615,2014,2039,2024,2043,2006,2000,1193
1098,1716362246925989204,2105,2069,2100,2068,2104,2101,1194
1099,1716362246936000100,2012,2055,2021,2058,2047,1994,1191
1100,1716362246945991087,2107,2070,2114,2064,2099,2109,1196
1101,1716362246955980091,2008,2050,2044,2033,2001,1993,1192
1102,1716362246966017887,2093,2061,2085,2074,2104,2104,1197
1103,1716362246975991962,2010,2044,2028,2024,1996,2006,1192
1104,1716362246985990113,2101,2075,2104,2078,2106,2105,1196
1105,1716362246996029833,2005,2040,2008,2041,1999,1983,1193
1106,1716362247005986867,2100,2075,2081,2066,2104,2101,1197
1107,1716362247015990518,2005,2040,2018,2049,1999,1981,1194
1108,1716362247025987227,2097,2085,2109,2089,2108,2109,1197
1109,1716362247035989486,2004,2037,1994,2041,2000,1985,1193
1110,1716362247045996173,2095,2061,2071,2078,2112,2107,1195
1111,1716362247055986238,2008,2037,2042,2046,1999,1999,1193
1112,1716362247066001061,2101,2064,2077,2059,2099,2114,1194
1113,1716362247075985787,2010,2043,2027,2030,2001,1996,1193
1114,1716362247085991583,2098,2067,2080,2054,2093,2109,1197
1115,1716362247095988782,2013,2053,2062,2049,1999,1982,1192
1116,1716362247105990871,2105,2048,2080,2074,2102,2114,1195
1117,1716362247116030741,2011,2030,2004,2047,2001,1977,1193
1118,1716362247125989808,2108,2072,2064,2051,2105,2119,1195
1119,1716362247135987819,2008,2037,2015,2025,2000,1985,1194
1120,1716362247145985960,2101,2072,2088,2052,2080,2112,1197
1121,1716362247155986396,2009,2036,2008,2015,2004,1992,1193
1122,1716362247165986831,2100,2064,2104,2084,2108,2117,1196
1123,1716362247175987116,2007,2041,1993,2045,2015,1980,1192
1124,1716362247185989966,2104,2085,2089,2088,2104,2113,1196
1125,1716362247195988217,2012,2046,2017,2045,1994,1980,1194
1126,1716362247205988132,2091,2065,2081,2076,2102,2114,1195
1127,1716362247215986353,2012,2037,2012,2041,1986,1972,1193
1128,1716362247225986548,2094,2065,2089,2070,2110,2122,1197
1129,1716362247235986182,2008,2052,2071,2041,1996,1984,1193
1130,1716362247245986658,2109,2058,2077,2076,2118,2110,1195
1131,1716362247255989197,2013,2042,2014,2038,2000,1981,1192
1132,1716362247265987979,2094,2062,2077,2064,2091,2121,1196
1133,1716362247275957447,2014,2041,2015,2029,1986,1971,1191
1134,1716362247285992006,2096,2065,2083,2066,2096,2123,1196
1135,1716362247295990768,2015,2029,1986,2032,2003,1982,1193
1136,1716362247305989381,2096,2057,2066,2051,2112,2118,1196
1137,1716362247315990117,2009,2054,2026,2040,1988,1964,1192
1138,1716362247325987507,2103,2085,2162,2088,2127,2129,1196
1139,1716362247335987631,2016,2045,2015,2024,1992,1972,1192
1140,1716362247345986123,2100,2061,2105,2085,2119,2123,1195
1141,1716362247355993101,2020,2040,2018,2040,1990,1974,1190
1142,1716362247365989599,2099,2064,2105,2080,2107,2112,1198
1143,1716362247375986869,2012,2052,2018,2036,1992,1976,1192
1144,1716362247385987144,2096,2060,2061,2088,2094,2136,1196
1145,1716362247395991637,2020,2046,2024,2050,2002,1978,1193
1146,1716362247405989327,2096,2057,2077,2069,2104,2120,1195
1147,1716362247415989652,2009,2046,2011,2033,1986,1968,1193
1148,1716362247426004545,2089,2069,2100,2073,2113,2128,1196
1149,1716362247435994842,2015,2064,2015,2037,2003,1970,1195
1150,1716362247445991209,2092,2062,2093,2077,2112,2134,1196
1151,1716362247455991024,2017,2037,2029,2044,1977,1978,1192
1152,1716362247465986069,2088,2061,2079,2081,2106,2127,1196
1153,1716362247475987476,2016,2037,1975,1996,1977,1969,1194
1154,1716362247485986069,2090,2062,2089,2080,2116,2128,1197
1155,1716362247495991313,2017,2047,2043,2040,1987,1967,1192
1156,1716362247505986278,2098,2072,2108,2076,2099,2133,1194
1157,1716362247515993477,2009,2035,2010,2041,1978,1961,1193
1158,1716362247525990084,2092,2059,2068,2060,2111,2130,1196
1159,1716362247535995138,2024,2060,2053,2046,1978,1960,1192
1160,1716362247545994121,2090,2053,2067,2083,2136,2130,1197
1161,1716362247555991551,2019,2053,2057,2048,1996,1963,1191
1162,1716362247565995594,2096,2077,2101,2075,2126,2143,1196
1163,1716362247575987403,2016,2070,2049,2031,1983,1970,1194
1164,1716362247585989131,2095,2063,2069,2065,2114,2129,1195
1165,1716362247595997862,2015,2038,2010,2036,1980,1949,1193
1166,1716362247605992717,2104,2088,2124,2068,2118,2145,1196
1167,1716362247616012158,2025,2056,2044,2053,1981,1964,1192
1168,1716362247626004678,2094,2066,2084,2062,2106,2138,1195
1169,1716362247635996057,2021,2049,2028,2040,1986,1952,1192
1170,1716362247645994749,2082,2058,2093,2098,2098,2141,1196
1171,1716362247655990866,2030,2042,2024,2028,1986,1953,1194
1172,1716362247665991492,2096,2064,2108,2084,2129,2143,1197
1173,1716362247676004221,2021,2053,2018,1997,1980,1960,1194
1174,1716362247685998645,2088,2056,2066,2072,2112,2139,1194
1175,1716362247695993220,2025,2045,1984,2031,1992,1960,1192
1176,1716362247705996070,2086,2056,2061,2080,2124,2147,1196
1177,1716362247715993800,2021,2048,2029,2044,1984,1949,1192
1178,1716362247725993795,2088,2053,2079,2070,2108,2140,1196
1179,1716362247735994401,2020,2037,1996,2051,1984,1962,1192
1180,1716362247745994475,2072,2056,2072,2032,2120,2136,1195
1181,1716362247755994690,2029,2057,2006,2038,1995,1956,1191
1182,1716362247765995737,2093,2059,2090,2080,2115,2148,1196
1183,1716362247775997364,2032,2043,2001,2040,2001,1958,1193
1184,1716362247785996588,2080,2066,2097,2056,2122,2152,1195
1185,1716362247795998125,2027,2052,2022,2040,1981,1958,1193
1186,1716362247805992720,2069,2062,2094,2040,2096,2144,1196
1187,1716362247815992534,2034,2052,2046,2013,1969,1940,1194
1188,1716362247825992539,2085,2062,2081,2072,2113,2139,1196
1189,1716362247835994678,2032,2059,2091,2046,1992,1956,1192
1190,1716362247845995463,2088,2081,2086,2078,2120,2155,1196
1191,1716362247855994086,2028,2042,2028,2036,1993,1955,1192
1192,1716362247865994942,2079,2053,2088,2067,2120,2146,1196
1193,1716362247875993994,2028,2052,2019,2013,1974,1962,1195
1194,1716362247886029967,2078,2042,2086,2098,2122,2145,1197
1195,1716362247896000296,2024,2041,2026,2056,1992,1960,1192
1196,1716362247906002815,2086,2053,2070,2075,2114,2140,1196
1197,1716362247916000486,2033,2053,2055,2041,1985,1961,1194
1198,1716362247926001172,2086,2070,2098,2060,2115,2143,1197
1199,1716362247936001036,2032,2052,2006,2054,1986,1966,1193
1200,1716362247946011180,2080,2064,2088,2084,2106,2145,1196
1201,1716362247955999673,2028,2061,2068,2040,1990,1958,1192
1202,1716362247966002082,2084,2057,2077,2065,2109,2150,1197
1203,1716362247975995915,2033,2050,2027,2047,1988,1949,1192
1204,1716362247986002281,2078,2049,2060,2065,2097,2141,1197
1205,1716362247995989241,2035,2051,2110,2051,2005,1947,1192
1206,1716362248006004475,2068,2058,2114,2092,2100,2147,1198
1207,1716362248016009880,2033,2059,2036,2049,1993,1961,1192
1208,1716362248025989396,2081,2065,2098,2076,2111,2146,1197
1209,1716362248035991044,2032,2058,2021,2061,2008,1972,1192
1210,1716362248045990758,2080,2061,2069,2069,2107,2132,1197
1211,1716362248055989891,2032,2052,2045,2029,2005,1957,1193
1212,1716362248065991689,2072,2064,2068,2059,2104,2132,1195
1213,1716362248075989490,2038,2053,2040,2059,2003,1965,1192
1214,1716362248085989264,2080,2058,2064,2053,2097,2130,1195
1215,1716362248095990771,2038,2047,2020,2047,1997,1961,1194
1216,1716362248106007478,2077,2071,2090,2074,2092,2140,1195
1217,1716362248115992163,2040,2054,2056,2052,2027,1968,1191
1218,1716362248125992188,2081,2060,2078,2085,2101,2136,1194
1219,1716362248135991111,2034,2040,2006,2064,1998,1959,1193
1220,1716362248145989652,2072,2061,2073,2069,2101,2133,1194
1221,1716362248155987743,2034,2048,2010,2042,2014,1963,1192
1222,1716362248166019208,2093,2046,2052,2024,2112,2136,1196
1223,1716362248175990909,2032,2049,2049,2040,2003,1969,1193
1224,1716362248185990452,2075,2048,2064,2064,2098,2133,1197
1225,1716362248195993222,2033,2044,2026,2038,2013,1970,1193
1226,1716362248205989731,2081,2062,2097,2101,2101,2134,1196
1227,1716362248215988293,2032,2045,2042,2041,2008,1965,1194
1228,1716362248226015779,2072,2057,2068,2073,2138,2129,1195
1229,1716362248235992610,2034,2045,2032,2054,2010,1973,1194
1230,1716362248245993467,2074,2075,2106,2067,2088,2127,1196
1231,1716362248255987260,2036,2046,2025,2048,2000,1976,1193
1232,1716362248265989649,2073,2059,2058,2058,2094,2116,1198
1233,1716362248275987940,2039,2047,2009,2046,2006,1975,1192
1234,1716362248286001611,2072,2052,2052,2069,2089,2124,1197
1235,1716362248295988541,2036,2052,2030,2060,2048,1988,1193
1236,1716362248306018261,2082,2088,2083,2057,2076,2114,1193
1237,1716362248315990725,2036,2045,2024,2056,1999,1988,1192
1238,1716362248325992512,2078,2066,2070,2077,2094,2120,1195
1239,1716362248335999330,2033,2052,2014,2026,2017,1987,1193
1240,1716362248345987151,2072,2068,2112,2060,2097,2115,1198
1241,1716362248355988218,2034,2042,2034,2045,1996,1992,1191
1242,1716362248365988153,2077,2066,2072,2078,2081,2112,1196
1243,1716362248375988919,2033,2044,2033,2052,2006,1991,1193
1244,1716362248385994855,2078,2065,2060,2060,2082,2112,1196
1245,1716362248395991854,2032,2052,2041,2058,2027,1992,1194
1246,1716362248405987220,2075,2056,2076,2075,2092,2093,1195
1247,1716362248415987535,2033,2044,2047,2046,2014,1992,1196
1248,1716362248425998601,2077,2060,2072,2049,2091,2127,1194
1249,1716362248435991101,2038,2047,2022,2038,2021,1985,1192
1250,1716362248445989052,2080,2056,2052,2072,2085,2117,1196
1251,1716362248455991541,2033,2050,2015,2046,2011,2001,1193
1252,1716362248465986687,2078,2064,2056,2069,2092,2098,1196
1253,1716362248475989788,2041,2053,2032,2050,2016,1998,1192
1254,1716362248485990754,2073,2058,2073,2072,2078,2117,1197
1255,1716362248496013602,2032,2054,2029,2047,2063,2001,1193
1256,1716362248505996624,2076,2069,2093,2061,2081,2105,1194
1257,1716362248515992722,2036,2052,2049,2056,2022,2015,1194
1258,1716362248525989129,2074,2052,2048,2077,2069,2097,1195
1259,1716362248535993011,2041,2068,2069,2069,2050,2015,1194
1260,1716362248545992826,2091,2054,2061,2082,2099,2093,1197
1261,1716362248556013029,2032,2042,2026,2040,2005,2008,1193
1262,1716362248565987044,2072,2060,2064,2059,2073,2100,1197
1263,1716362248575994213,2033,2046,2028,2053,2017,1997,1193
1264,1716362248585989468,2080,2057,2052,2064,2081,2097,1196
1265,1716362248595990114,2041,2062,2056,2030,2056,2014,1193
1266,1716362248606000589,2077,2052,2039,2068,2092,2096,1198
1267,1716362248615986076,2030,2041,2033,2010,2021,2010,1193
1268,1716362248625988556,2074,2057,2067,2080,2081,2085,1196
1269,1716362248635993570,2028,2052,2067,2054,2037,2018,1194
1270,1716362248645992022,2079,2051,2059,2068,2090,2092,1197
1271,1716362248655987488,2039,2047,2029,2052,2026,2005,1193
1272,1716362248665991851,2075,2060,2063,2072,2076,2080,1195
1273,1716362248675987808,2033,2061,2043,2064,2021,2010,1194
1274,1716362248685992601,2077,2069,2058,2067,2078,2083,1196
1275,1716362248696012404,2037,2046,2040,2069,2035,2019,1193
1276,1716362248706003100,2065,2061,2097,2049,2093,2088,1195
1277,1716362248715997214,2037,2047,2029,2040,2032,2017,1190
1278,1716362248726022356,2077,2049,2064,2039,2078,2102,1196
1279,1716362248735994969,2033,2043,2028,2040,2031,2022,1192
1280,1716362248745991718,2076,2048,2056,2073,2092,2085,1196
1281,1716362248755985911,2032,2044,2028,2062,2033,2029,1193
1282,1716362248765993801,2074,2058,2052,2074,2070,2091,1194
1283,1716362248775990269,2037,2060,2058,2009,2038,2015,1190
1284,1716362248785993209,2076,2046,2040,2046,2076,2085,1195
1285,1716362248795999987,2035,2064,2019,2044,2034,2017,1192
1286,1716362248806005262,2075,2056,2069,2069,2084,2084,1195
1287,1716362248815986531,2029,2047,2035,2056,2025,2014,1195
1288,1716362248825982217,2080,2064,2068,2100,2086,2099,1196
1289,1716362248835993854,2045,2043,2016,2039,2020,2009,1192
1290,1716362248845993939,2081,2061,2068,2062,2095,2112,1196
1291,1716362248856006658,2035,2040,2020,2066,2036,2015,1192
1292,1716362248865995702,2080,2053,2034,2064,2079,2089,1196
1293,1716362248875990557,2034,2036,2027,2057,2064,2018,1191
1294,1716362248886012953,2076,2056,2056,2065,2066,2090,1198
1295,1716362248895994173,2038,2037,2028,2015,2016,2023,1192
1296,1716362248905989078,2072,2051,2053,2060,2086,2095,1193
1297,1716362248915991286,2038,2042,2056,2058,2016,2017,1192
1298,1716362248925987654,2078,2066,2091,2072,2081,2088,1197
1299,1716362248935989101,2044,2065,2083,2045,2020,2025,1193
1300,1716362248945989547,2081,2074,2097,2076,2080,2100,1197
1301,1716362248955989221,2036,2047,2042,2034,2019,2024,1193
1302,1716362248966000567,2078,2082,2080,2056,2085,2096,1196
1303,1716362248975993218,2045,2057,2094,2064,2037,2021,1195
1304,1716362248985990628,2075,2060,2070,2085,2077,2078,1194
1305,1716362248995989290,2033,2046,2023,2045,2024,2020,1194
1306,1716362249005994104,2078,2056,2059,2028,2080,2088,1198
1307,1716362249015990532,2028,2043,2018,2048,2028,2022,1194
1308,1716362249025989064,2073,2075,2088,2063,2085,2081,1195
1309,1716362249035994339,2039,2057,2057,2052,2035,2021,1192
1310,1716362249045988863,2088,2061,2089,2053,2072,2083,1197
1311,1716362249055989208,2041,2057,2043,2067,2034,2022,1193
1312,1716362249066026264,2078,2053,2088,2067,2080,2081,1196
1313,1716362249076039453,2043,2048,2053,2047,2015,2016,1193
1314,1716362249085987820,2078,2055,2080,2052,2082,2090,1195
1315,1716362249095990350,2034,2052,2057,2065,2040,2036,1191
1316,1716362249105990274,2081,2060,2061,2055,2083,2081,1194
1317,1716362249115994687,2040,2059,2024,2037,2014,2018,1191
1318,1716362249125993590,2081,2050,2060,2077,2100,2084,1196
1319,1716362249135993384,2036,2050,2035,2056,2030,2015,1193
1320,1716362249145988559,2081,2058,2061,2067,2080,2104,1195
1321,1716362249155991120,2039,2056,2010,2053,2032,2024,1192
1322,1716362249165987617,2076,2060,2052,2065,2088,2080,1195
1323,1716362249175988203,2045,2072,2102,2057,2036,2041,1194
1324,1716362249185985593,2083,2064,2098,2052,2068,2081,1195
1325,1716362249195986410,2043,2058,2062,2052,2018,2020,1192
1326,1716362249205986334,2085,2069,2108,2072,2078,2080,1198
1327,1716362249215988162,2036,2057,2060,2050,2036,2024,1196
1328,1716362249225992535,2076,2044,2061,2039,2077,2091,1196
1329,1716362249235992540,2040,2050,2030,2046,2027,2018,1196
1330,1716362249245991032,2079,2073,2112,2064,2078,2093,1198
1331,1716362249255992759,2037,2044,2024,2049,2033,2021,1195
1332,1716362249265997794,2078,2064,2097,2062,2080,2089,1197
1333,1716362249275986607,2036,2049,2068,2045,2027,2026,1193
1334,1716362249285994567,2076,2058,2066,2072,2132,2083,1194
1335,1716362249296001415,2032,2048,2035,2045,2029,2017,1192
1336,1716362249305992954,2081,2068,2086,2056,2081,2088,1194
1337,1716362249315997427,2040,2060,2063,2026,2020,2056,1193
1338,1716362249325995097,2072,2056,2070,2063,2069,2083,1193
1339,1716362249335995843,2040,2058,2069,2056,2050,2021,1192
1340,1716362249345997110,2073,2048,2072,2066,2072,2090,1195
1341,1716362249355995782,2046,2079,2079,2053,2028,2021,1192
1342,1716362249366007489,2081,2064,2082,2070,2080,2078,1196
1343,1716362249375992706,2034,2043,2046,2057,2026,2019,1191
1344,1716362249385991398,2084,2053,2083,2055,2074,2091,1196
1345,1716362249395991453,2049,2060,2049,2057,2028,2020,1192
1346,1716362249405989134,2076,2055,2054,2057,2081,2090,1197
1347,1716362249415993617,2038,2053,2025,2035,2030,2020,1195
1348,1716362249425991648,2083,2091,2114,2066,2084,2094,1196
1349,1716362249435991933,2042,2052,2066,2045,2016,2028,1193
1350,1716362249445989072,2069,2063,2053,2034,2082,2092,1196
1351,1716362249455992013,2045,2048,2024,2057,2032,2017,1193
1352,1716362249465991246,2074,2048,2057,2088,2084,2084,1197
1353,1716362249475990700,2036,2054,2009,2043,2018,2014,1194
1354,1716362249485990193,2073,2062,2061,2062,2086,2064,1198
1355,1716362249495991811,2040,2056,2052,2056,2049,2025,1195
1356,1716362249505988961,2085,2064,2095,2074,2073,2087,1195
1357,1716362249515991871,2044,2047,2030,2050,2036,2029,1192
1358,1716362249525995052,2066,2049,2065,2050,2072,2091,1194
1359,1716362249535992301,2043,2048,2050,2066,2028,2022,1193
1360,1716362249545994690,2074,2046,2066,2064,2088,2096,1196
1361,1716362249555990778,2038,2050,2053,2072,2022,2024,1192
1362,1716362249565988158,2072,2058,2076,2058,2084,2088,1194
1363,1716362249575988192,2037,2049,2068,2047,2025,2023,1195
1364,1716362249585989259,2072,2059,2076,2070,2096,2101,1194
1365,1716362249595988823,2040,2046,2040,2052,2025,2016,1192
1366,1716362249605989299,2081,2056,2058,2073,2094,2112,1198
1367,1716362249615989203,2042,2053,2025,2069,2033,2021,1194
1368,1716362249625990230,2074,2054,2045,2064,2088,2087,1194
1369,1716362249635987590,2034,2045,2017,2033,2016,2025,1191
1370,1716362249645991352,2080,2088,2124,2068,2084,2092,1195
1371,1716362249655994642,2036,2039,2022,2046,2029,2011,1192
1372,1716362249666010036,2077,2054,2076,2061,2077,2073,1195
1373,1716362249675995554,2036,2047,2041,2057,2049,2016,1195
1374,1716362249685994546,2077,2070,2074,2082,2104,2091,1195
1375,1716362249695993810,2038,2046,2010,2038,2012,2021,1192
1376,1716362249705994054,2080,2052,2050,2055,2082,2080,1195
1377,1716362249715995653,2038,2045,2024,2070,2012,2030,1193
1378,1716362249726013541,2077,2053,2056,2074,2089,2093,1196
1379,1716362249735995692,2033,2049,2026,2051,2046,2018,1190
1380,1716362249745994955,2081,2070,2071,2057,2080,2094,1196
1381,1716362249755994980,2043,2044,2015,2040,2029,2027,1192
1382,1716362249765995846,2072,2047,2054,2054,2090,2073,1197
1383,1716362249775996682,2043,2047,2020,2065,2050,2025,1193
1384,1716362249785996627,2073,2058,2076,2058,2091,2092,1195
1385,1716362249795996812,2043,2045,2041,2028,2033,2021,1193
1386,1716362249805997078,2081,2066,2071,2069,2100,2096,1196
1387,1716362249816013884,2036,2047,2052,2052,2020,2020,1192
1388,1716362249825994272,2085,2057,2112,2066,2077,2084,1196
1389,1716362249835997382,2041,2037,2037,2054,2035,2012,1192
1390,1716362249845997968,2076,2054,2060,2064,2084,2077,1196
1391,1716362249855999936,2038,2056,2074,2056,2029,2017,1195
1392,1716362249866000532,2080,2068,2077,2062,2088,2092,1196
1393,1716362249876000106,2036,2048,2026,2001,2025,2015,1193
1394,1716362249885999841,2074,2068,2088,2076,2076,2087,1196
1395,1716362249896000476,2036,2031,2018,2045,2017,2029,1192
1396,1716362249906000040,2076,2062,2104,2076,2085,2086,1195
1397,1716362249916004383,2038,2046,2034,2043,2033,2004,1192
1398,1716362249926001863,2075,2053,2067,2062,2072,2090,1196
1399,1716362249936001958,2033,2041,2029,2053,2030,2037,1191
1400,1716362249946002193,2080,2053,2064,2032,2080,2086,1197
1401,1716362249956002639,2040,2053,2039,2068,2036,2026,1192
1402,1716362249966013795,2087,2084,2172,2084,2092,2093,1195
1403,1716362249975986278,2036,2057,2030,2044,2032,2019,1193
1404,1716362249986003755,2078,2064,2082,2062,2087,2089,1197
1405,1716362249996004802,2044,2048,2036,2050,2034,2019,1192
1406,1716362250006004446,2080,2057,2069,2056,2084,2080,1197
1407,1716362250015989102,2040,2046,2023,2052,2046,2022,1194
1408,1716362250025990569,2075,2062,2112,2045,2101,2089,1196
1409,1716362250035989232,2035,2057,2045,2060,2030,2020,1193
1410,1716362250045991921,2072,2059,2096,2086,2088,2081,1194
1411,1716362250056014539,2038,2044,2024,2032,2070,2030,1191
1412,1716362250066008031,2070,2044,2058,2060,2075,2090,1197
1413,1716362250075990393,2036,2047,2025,2054,2032,2023,1193
1414,1716362250085990037,2075,2055,2072,2072,2086,2088,1197
1415,1716362250096008196,2040,2053,2083,2072,2043,2031,1192
1416,1716362250106009904,2081,2070,2066,2045,2074,2082,1193
1417,1716362250115992616,2039,2044,2017,2068,2030,2026,1193
1418,1716362250126010595,2077,2058,2063,2064,2074,2098,1197
1419,1716362250135992495,2040,2057,2036,2064,2044,2028,1191
1420,1716362250145991408,2078,2057,2073,2076,2076,2081,1196
1421,1716362250155995991,2040,2049,2035,2013,2030,2032,1192
1422,1716362250165988953,2073,2062,2045,2075,2085,2091,1196
1423,1716362250175993737,2043,2050,2054,2055,2034,2026,1193
1424,1716362250185989924,2077,2064,2066,2059,2068,2091,1196
1425,1716362250195990149,2042,2052,2050,2057,2041,2027,1194
1426,1716362250205993520,2073,2053,2082,2068,2088,2090,1196
1427,1716362250215992203,2040,2043,2024,2055,2032,2014,1194
1428,1716362250225992879,2075,2056,2068,2082,2090,2094,1197
1429,1716362250235993485,2040,2045,2037,2054,2023,2028,1192
1430,1716362250245961379,2080,2052,2050,2071,2086,2097,1198
1431,1716362250255999245,2048,2050,2055,2075,2050,2028,1191
1432,1716362250265989552,2076,2056,2096,2081,2104,2081,1198
1433,1716362250275993694,2040,2048,2070,2047,2036,2019,1192
1434,1716362250285996685,2073,2047,2056,2066,2073,2088,1196
1435,1716362250295994084,2042,2060,2032,2035,2029,2032,1192
1436,1716362250305991765,2080,2064,2065,2073,2089,2090,1193
1437,1716362250315992571,2039,2052,2013,2072,2025,2025,1192
1438,1716362250326022362,2084,2083,2104,2084,2102,2085,1195
1439,1716362250335993121,2043,2052,2026,2064,2024,2024,1192
1440,1716362250345991724,2076,2054,2074,2066,2084,2091,1196
1441,1716362250355993162,2050,2056,2030,2047,2039,2032,1193
1442,1716362250365993877,2077,2072,2101,2083,2089,2092,1196
1443,1716362250375993903,2043,2047,2030,2030,2022,2024,1194
1444,1716362250385990661,2080,2056,2100,2096,2094,2084,1196
1445,1716362250396002939,2030,2048,2070,2062,2040,2026,1193
1446,1716362250405991983,2078,2047,2066,2059,2076,2096,1195
1447,1716362250415988772,2040,2058,2043,2047,2029,2023,1193
1448,1716362250425989838,2077,2045,2052,2063,2081,2086,1198
1449,1716362250435991877,2038,2044,2026,2049,2021,2009,1194
1450,1716362250445992583,2075,2055,2058,2072,2081,2099,1196
1451,1716362250455995053,2039,2058,2069,2049,2040,2034,1192
1452,1716362250465988655,2074,2066,2074,2075,2089,2086,1195
1453,1716362250475993540,2044,2040,2051,2057,2033,2028,1194
1454,1716362250485996059,2076,2052,2050,2065,2093,2094,1196
1455,1716362250495997997,2041,2046,2024,2048,2020,2031,1193
1456,1716362250505991670,2075,2052,2056,2065,2067,2081,1197
1457,1716362250515999901,2041,2047,2048,2054,2038,2032,1192
1458,1716362250525991600,2076,2060,2096,2062,2070,2089,1198
1459,1716362250535992636,2042,2053,2029,2049,2038,2019,1192
1460,1716362250545990427,2076,2053,2078,2042,2093,2085,1196
1461,1716362250555992846,2045,2055,2089,2056,2044,2018,1194
1462,1716362250565990918,2074,2066,2081,2066,2084,2082,1196
1463,1716362250575993968,2036,2044,2034,2056,2028,2022,1194
1464,1716362250585987801,2072,2053,2082,2060,2086,2101,1196
1465,1716362250595989329,2045,2057,2044,2047,2024,2029,1192
1466,1716362250605992840,2077,2061,2085,2072,2087,2104,1194
1467,1716362250615990270,2045,2052,2040,2040,2039,2038,1193
1468,1716362250625991207,2073,2052,2093,2066,2094,2090,1197
1469,1716362250635987504,2045,2049,2020,2054,2024,2020,1193
1470,1716362250645986497,2077,2059,2089,2069,2088,2093,1196
1471,1716362250655987353,2043,2050,2049,2056,2045,2032,1193
1472,1716362250665981567,2074,2047,2065,2081,2084,2081,1195
1473,1716362250675991952,2042,2051,2036,2043,2032,2018,1193
1474,1716362250685987117,2076,2044,2052,2053,2083,2094,1198
1475,1716362250696016337,2045,2051,2032,2015,2010,2026,1192
1476,1716362250705990203,2074,2052,2068,2072,2082,2088,1196
1477,1716362250715991850,2037,2058,2046,2057,2029,2036,1192
1478,1716362250725988850,2076,2064,2090,2078,2088,2093,1196
1479,1716362250735990147,2038,2049,2018,2043,2040,2032,1192
1480,1716362250746011302,2072,2052,2054,2061,2101,2088,1196
1481,1716362250755988383,2046,2048,2059,2050,2021,2027,1192
1482,1716362250765989299,2073,2047,2064,2049,2092,2080,1196
1483,1716362250775988603,2045,2056,2051,2062,2044,2036,1193
1484,1716362250785987696,2075,2064,2092,2082,2080,2093,1196
1485,1716362250795990456,2042,2057,2031,2068,2042,2031,1192
1486,1716362250805988407,2076,2067,2132,2072,2101,2098,1197
1487,1716362250815990566,2040,2054,2030,2050,2037,2021,1192
1488,1716362250825990991,2072,2049,2062,2058,2078,2090,1196
1489,1716362250835989323,2035,2047,2048,2060,2019,2024,1192
1490,1716362250845993395,2071,2052,2080,2085,2096,2090,1196
1491,1716362250855986877,2042,2042,2036,2030,2029,2030,1193
1492,1716362250865988105,2074,2052,2064,2019,2074,2100,1198
1493,1716362250875990334,2043,2057,2060,2051,2030,2036,1192
1494,1716362250885990919,2067,2052,2028,2060,2080,2105,1195
1495,1716362250895992667,2040,2043,2009,2038,2052,2012,1194
1496,1716362250905952877,2068,2050,2066,2061,2087,2083,1195
1497,1716362250915991254,2040,2062,2040,2052,2036,2040,1191
1498,1716362250925989276,2072,2051,2065,2079,2084,2074,1195
1499,1716362250936007344,2035,2056,2031,2068,2036,2032,1193
1500,1716362250945987903,2071,2054,2067,2066,2086,2094,1194
1501,1716362250955990542,2040,2048,2044,2056,2031,2020,1192
1502,1716362250965994675,2072,2056,2051,2068,2080,2094,1195
1503,1716362250975990121,2042,2040,2011,2049,2032,2030,1194
1504,1716362250986014332,2070,2051,2066,2071,2081,2092,1197
1505,1716362250995991262,2035,2058,2052,2046,2030,2022,1193
1506,1716362251005993482,2074,2042,2059,2073,2080,2083,1197
1507,1716362251016005439,2039,2043,2012,2051,2033,2026,1193
1508,1716362251026000605,2073,2054,2067,2074,2098,2082,1197
1509,1716362251035995640,2040,2052,2026,2056,2036,2033,1194
1510,1716362251045994402,2076,2044,2072,2068,2069,2093,1197
1511,1716362251055998065,2047,2064,2075,2054,2039,2025,1192
1512,1716362251066000443,2068,2052,2101,2074,2079,2090,1197
1513,1716362251075998515,2039,2048,2026,2050,2034,2025,1192
1514,1716362251085996927,2073,2054,2092,2068,2088,2097,1198
1515,1716362251095998013,2042,2054,2068,2058,2046,2030,1194
1516,1716362251105993299,2073,2052,2054,2076,2072,2083,1194
1517,1716362251115995889,2041,2059,2034,2056,2034,2033,1192
1518,1716362251126034036,2076,2061,2064,2065,2088,2089,1195
1519,1716362251135998373,2045,2043,2035,2040,2038,2027,1192
1520,1716362251145992988,2078,2059,2064,2068,2081,2085,1194
1521,1716362251155997872,2040,2053,2048,2045,2036,2032,1194
1522,1716362251165996664,2074,2057,2073,2078,2098,2101,1196
1523,1716362251176032928,2045,2049,2032,2051,2006,2024,1191
1524,1716362251185993177,2073,2060,2072,2064,2075,2088,1195
1525,1716362251195998292,2042,2048,2021,2033,2039,2029,1193
1526,1716362251205999569,2072,2056,2060,2073,2081,2097,1196
1527,1716362251215997590,2035,2054,2033,2050,2032,2024,1194
1528,1716362251225998767,2089,2080,2116,2078,2092,2093,1198
1529,1716362251235999544,2035,2053,2048,2036,2026,2033,1192
1530,1716362251245999107,2072,2056,2054,2050,2091,2094,1194
1531,1716362251255999734,2048,2056,2047,2024,2028,2027,1192
1532,1716362251265999858,2076,2060,2096,2056,2112,2100,1198
1533,1716362251276000865,2036,2037,2021,2053,2022,2034,1193
1534,1716362251286001451,2076,2050,2074,2073,2083,2090,1196
1535,1716362251296000865,2034,2044,2009,2059,2022,2033,1191
1536,1716362251306001170,2064,2046,2044,2053,2080,2104,1193
1537,1716362251316000163,2037,2050,2022,2060,2029,2028,1194
1538,1716362251326000188,2076,2057,2074,2057,2077,2093,1195
1539,1716362251336000684,2045,2057,2058,2058,2032,2035,1193
1540,1716362251345999456,2072,2054,2066,1979,2077,2102,1196
1541,1716362251356002627,2043,2039,2035,2029,2026,2024,1193
1542,1716362251366000347,2079,2049,2068,2064,2084,2092,1197
1543,1716362251376000873,2040,2075,2044,2051,2022,2029,1192
1544,1716362251385994416,2074,2058,2075,2048,2080,2088,1195
1545,1716362251396005922,2041,2064,2059,2055,2052,2031,1194
1546,1716362251405992532,2067,2053,2067,2053,2094,2094,1196
1547,1716362251415990292,2042,2052,2049,2037,2036,2032,1195
1548,1716362251425989325,2072,2048,2041,2003,2069,2093,1198
1549,1716362251436028183,2042,2058,2033,2057,2044,2025,1193
1550,1716362251445988834,2072,2055,2061,2072,2099,2091,1198
1551,1716362251455991815,2042,2057,2051,2049,2035,2023,1193
1552,1716362251465992821,2076,2053,2056,2062,2076,2096,1194
1553,1716362251475996964,2036,2053,2029,2033,2040,2024,1192
1554,1716362251486004442,2072,2060,2065,2054,2081,2092,1196
1555,1716362251495990972,2040,2050,2042,2064,2022,2025,1193
1556,1716362251505992911,2076,2057,2047,2072,2078,2093,1193
1557,1716362251515999438,2038,2047,2016,2046,2031,2030,1192
1558,1716362251525994113,2072,2056,2063,2076,2093,2094,1195
1559,1716362251536033793,2034,2034,2029,2068,2040,2027,1192
1560,1716362251545994934,2072,2049,2066,2082,2103,2093,1196
1561,1716362251555993776,2040,2050,2039,2053,2040,2030,1195
1562,1716362251565993540,2077,2058,2077,2068,2088,2097,1197
1563,1716362251575993565,2038,2051,2073,2067,2038,2029,1192
1564,1716362251586038806,2074,2067,2097,2061,2083,2095,1198
1565,1716362251595993725,2038,2060,2042,2045,2025,2024,1193
1566,1716362251605993529,2072,2051,2052,2044,2077,2089,1197
1567,1716362251615988174,2035,2040,2035,2043,2019,2030,1193
1568,1716362251625989311,2072,2059,2058,2067,2088,2094,1196
1569,1716362251636023080,2035,2049,2024,2043,2032,2024,1194
1570,1716362251645989992,2069,2053,2055,2075,2088,2090,1197
1571,1716362251655992572,2042,2057,2030,2059,2026,2028,1192
1572,1716362251665994380,2072,2052,2062,2062,2104,2090,1196
1573,1716362251675996078,2040,2053,2077,2048,2025,2017,1194
1574,1716362251686020419,2073,2054,2065,2064,2096,2088,1197
1575,1716362251695992902,2037,2063,2043,2045,2032,2028,1194
1576,1716362251705994019,2067,2056,2074,2066,2093,2093,1195
1577,1716362251715996378,2040,2048,2037,2061,2038,2025,1191
1578,1716362251725994499,2079,2060,2089,2061,2086,2094,1195
1579,1716362251735996538,2037,2051,2050,2026,2039,2024,1193
1580,1716362251745988698,2077,2063,2107,2075,2092,2088,1196
1581,1716362251755990546,2038,2051,2034,2042,2024,2027,1192
1582,1716362251765990451,2069,2052,2069,2067,2088,2092,1195
1583,1716362251775989243,2037,2047,2032,2046,2017,2028,1194
1584,1716362251785994177,2069,2050,2075,2070,2072,2092,1197
1585,1716362251795987239,2038,2064,2032,2056,2030,2031,1193
1586,1716362251805989818,2074,2052,2060,2074,2088,2086,1195
1587,1716362251815989453,2040,2058,2067,2048,2020,2029,1194
1588,1716362251825987143,2070,2071,2117,2068,2105,2088,1196
1589,1716362251835990344,2039,2048,2029,2045,2033,2014,1192
1590,1716362251845987002,2074,2064,2072,2070,2082,2088,1197
1591,1716362251855991185,2037,2053,2060,2047,2027,2021,1193
1592,1716362251865988505,2067,2052,2058,2067,2084,2086,1196
1593,1716362251876006454,2041,2051,2039,2069,2051,2026,1192
1594,1716362251885989186,2074,2050,2068,2051,2086,2097,1196
1595,1716362251895987387,2045,2056,2067,2063,2030,2020,1191
1596,1716362251905988764,2072,2053,2074,2055,2082,2092,1193
1597,1716362251915989471,2037,2046,2008,2043,2012,2018,1191
1598,1716362251925990828,2077,2052,2066,2062,2076,2096,1196
1599,1716362251935988649,2038,2047,2029,2048,2021,2024,1192
1600,1716362251945993373,2072,2058,2068,2058,2073,2101,1196
1601,1716362251955990662,2035,2053,2030,2041,2015,2012,1192
1602,1716362251965992160,2072,2052,2063,2074,2085,2091,1197
1603,1716362251975989179,2038,2052,2047,2046,2018,2026,1193
1604,1716362251986000525,2069,2049,2070,2056,2070,2083,1195
1605,1716362251995991152,2043,2052,2022,2040,2015,2025,1194
1606,1716362252005999924,2074,2061,2099,2072,2084,2093,1196
1607,1716362252015991252,2043,2050,2060,2050,2018,2013,1196
1608,1716362252025989454,2077,2052,2095,2049,2068,2088,1196
1609,1716362252035989819,2039,2053,2029,2015,2004,2013,1192
1610,1716362252045990215,2076,2056,2100,2082,2086,2092,1194
1611,1716362252055990170,2040,2057,2027,2045,2031,2024,1192
1612,1716362252065994232,2073,2060,2082,2081,2083,2090,1196
1613,1716362252075989598,2041,2064,2048,2038,2020,2018,1194
1614,1716362252085991256,2069,2043,2072,2061,2088,2093,1195
1615,1716362252095992513,2039,2040,2022,2039,2024,2018,1192
1616,1716362252105961249,2077,2058,2094,2077,2090,2098,1194
1617,1716362252115998985,2045,2070,2060,2057,2029,2014,1194
1618,1716362252125993269,2073,2052,2100,2062,2085,2090,1197
1619,1716362252136042056,2040,2048,2022,2060,2025,2014,1192
1620,1716362252145990363,2067,2045,2058,2058,2085,2091,1194
1621,1716362252155990969,2040,2062,2052,2034,2008,2014,1193
1622,1716362252165994851,2070,2045,2071,2056,2080,2091,1196
1623,1716362252175990889,2040,2051,2023,2006,2017,2011,1194
1624,1716362252185996955,2074,2056,2101,2077,2082,2091,1196
1625,1716362252195991931,2036,2038,2001,2061,2028,2008,1193
1626,1716362252206014018,2070,2056,2101,2069,2092,2100,1196
1627,1716362252215942146,2043,2074,2031,2047,2014,2012,1196
1628,1716362252225990032,2075,2058,2070,2067,2080,2106,1195
1629,1716362252235996949,2040,2041,2020,2045,2017,2011,1194
1630,1716362252245992897,2076,2062,2086,2061,2072,2102,1198
1631,1716362252256000045,2040,2049,2022,2010,2016,2020,1193
1632,1716362252265983949,2072,2056,2066,2070,2082,2094,1197
1633,1716362252275979165,2042,2066,2064,2053,2078,2022,1193
1634,1716362252285994860,2069,2068,2144,2059,2086,2096,1196
1635,1716362252296000455,2043,2062,2093,2050,2033,2014,1193
1636,1716362252306030126,2072,2054,2068,2071,2097,2085,1197
1637,1716362252315985276,2045,2066,2043,2051,2015,2024,1193
1638,1716362252325992314,2066,2050,2056,2078,2086,2090,1196
1639,1716362252335991147,2034,2059,2013,2058,2015,2012,1193
1640,1716362252345990320,2078,2054,2058,2096,2089,2092,1196
1641,1716362252356010493,2036,2056,2014,2050,2026,2014,1194
1642,1716362252365985400,2076,2056,2069,2066,2086,2093,1196
1643,1716362252376011104,2038,2056,2024,2048,2024,2013,1192
1644,1716362252385991632,2072,2052,2085,2064,2082,2093,1197
1645,1716362252395991296,2045,2064,2088,2044,2016,2012,1192
1646,1716362252405995739,2074,2060,2100,2076,2077,2098,1196
1647,1716362252415986636,2036,2040,2016,2040,2015,2017,1192
1648,1716362252425990148,2065,2030,2052,2054,2084,2096,1198
1649,1716362252436012606,2041,2064,2059,2046,2034,2009,1193
1650,1716362252445988425,2068,2057,2108,2068,2092,2093,1193
1651,1716362252456022134,2042,2047,2024,2046,2026,2018,1192
1652,1716362252465993554,2072,2061,2072,2074,2094,2100,1197
1653,1716362252476006343,2038,2043,2006,2047,2020,2017,1195
1654,1716362252485997151,2068,2053,2053,2056,2083,2092,1195
1655,1716362252495989771,2042,2064,2096,2052,2025,2028,1193
1656,1716362252506012369,2074,2058,2089,2028,2080,2100,1195
1657,1716362252515994300,2036,2070,2041,2044,2013,2013,1193
1658,1716362252525990137,2064,2050,2075,2066,2077,2093,1196
1659,1716362252535989640,2043,2064,2065,2047,2029,2007,1193
1660,1716362252545988423,2075,2046,2043,2053,2089,2088,1196
1661,1716362252555998357,2043,2059,2033,2050,2012,2013,1192
1662,1716362252565990206,2072,2051,2066,2059,2095,2098,1199
1663,1716362252575990382,2037,2052,2024,2051,2023,2018,1192
1664,1716362252585986800,2069,2049,2062,2065,2092,2093,1197
1665,1716362252595990171,2037,2057,2033,2046,2015,2013,1195
1666,1716362252605993652,2074,2041,2074,2074,2081,2097,1197
1667,1716362252615992755,2047,2056,2047,2056,2033,2017,1194
1668,1716362252625989935,2071,2051,2059,2062,2085,2092,1196
1669,1716362252635997965,2038,2048,2015,2040,2024,2016,1192
1670,1716362252645989113,2070,2056,2044,2074,2093,2096,1197
1671,1716362252655989538,2038,2056,2028,2049,2022,2013,1193
1672,1716362252665991256,2071,2064,2070,2064,2089,2098,1196
1673,1716362252675987465,2041,2055,2058,2053,2024,2012,1193
1674,1716362252685990364,2072,2052,2073,2064,2078,2097,1195
1675,1716362252695990460,2041,2056,2045,2048,2021,2020,1191
1676,1716362252705997238,2072,2053,2063,2065,2088,2098,1196
1677,1716362252715990940,2034,2050,2040,2048,2021,2014,1192
1678,1716362252725995424,2068,2056,2076,2068,2080,2100,1196
1679,1716362252735999296,2037,2057,2029,2044,2019,2011,1194
1680,1716362252745986306,2065,2050,2105,2079,2097,2091,1196
1681,1716362252755988144,2040,2047,2011,2036,2015,2012,1194
1682,1716362252765992658,2069,2044,2065,2069,2090,2098,1197
1683,1716362252775989306,2040,2058,2036,2052,2013,2008,1193
1684,1716362252785990573,2069,2056,2064,2077,2088,2088,1197
1685,1716362252795988685,2042,2053,2033,2043,2018,2014,1192
1686,1716362252805989290,2069,2061,2079,2072,2093,2101,1196
1687,1716362252815987272,2043,2073,2036,2052,2020,2016,1196
1688,1716362252825989491,2068,2048,2031,2056,2077,2104,1197
1689,1716362252836020655,2049,2056,2016,2061,2059,2021,1194
1690,1716362252845987487,2064,2056,2064,2055,2085,2104,1195
1691,1716362252855986740,2037,2056,2026,2063,2054,2019,1192
1692,1716362252865988618,2074,2062,2120,2064,2080,2094,1196
1693,1716362252875985848,2045,2050,2038,2053,2036,2020,1192
1694,1716362252885985592,2072,2058,2071,2086,2084,2109,1196
1695,1716362252895986549,2044,2056,2037,2053,2022,2021,1192
1696,1716362252906035517,2066,2052,2066,2070,2093,2093,1195
1697,1716362252915996748,2045,2073,2081,2051,1992,2007,1192
1698,1716362252925987184,2076,2053,2070,2070,2083,2087,1195
1699,1716362252936002108,2046,2064,2015,2024,2016,2010,1193
1700,1716362252945988006,2067,2050,2076,2072,2092,2094,1196
1701,1716362252955988231,2040,2058,2029,2064,2049,2021,1192
1702,1716362252965988206,2067,2076,2079,2055,2069,2093,1197
1703,1716362252975988962,2044,2058,2033,2046,2012,2016,1193
1704,1716362252985992824,2066,2053,2085,2067,2081,2094,1196
1705,1716362252995989473,2041,2051,2019,2012,2015,2021,1194
1706,1716362253006032339,2075,2066,2090,2069,2092,2101,1196
1707,1716362253015990514,2044,2057,2032,2040,2020,2004,1193
1708,1716362253025990730,2076,2049,2057,2028,2080,2100,1197
1709,1716362253035991076,2037,2076,2034,2046,2017,2008,1192
1710,1716362253045991572,2070,2050,2072,2066,2088,2099,1196
1711,1716362253056001355,2039,2056,2030,2047,2014,2005,1192
1712,1716362253065995869,2075,2054,2068,2061,2083,2090,1196
1713,1716362253075992147,2046,2062,2041,2036,2026,2012,1194
1714,1716362253085991971,2067,2060,2074,2073,2095,2092,1195
1715,1716362253095993589,2040,2072,2046,2058,2028,2014,1194
1716,1716362253106004635,2076,2052,2067,2065,2082,2096,1194
1717,1716362253115994361,2045,2046,2014,2050,2017,2016,1193
1718,1716362253125994505,2068,2050,2098,2053,2085,2095,1197
1719,1716362253135994671,2040,2056,2029,2026,2016,2009,1192
1720,1716362253145996540,2072,2048,2066,2075,2088,2092,1198
1721,1716362253155998358,2050,2056,2034,2050,2016,2015,1193
1722,1716362253165998573,2074,2072,2082,2047,2085,2088,1196
1723,1716362253176009558,2038,2051,2022,2054,2027,2006,1191
1724,1716362253185997491,2067,2047,2044,2075,2083,2096,1196
1725,1716362253195998517,2045,2055,2009,2042,2020,2013,1193
1726,1716362253205999013,2064,2046,2066,2079,2082,2097,1197
1727,1716362253215999770,2042,2050,2017,2042,2022,2010,1195
1728,1716362253225998713,2067,2052,2074,2078,2090,2092,1196
1729,1716362253235999298,2045,2080,2038,2050,2018,2012,1193
1730,1716362253246000686,2066,2047,2058,2055,2084,2096,1199
1731,1716362253256004438,2034,2037,1981,2044,2013,2008,1190
1732,1716362253266003330,2072,2061,2085,2072,2089,2101,1197
1733,1716362253276002403,2046,2057,2050,2052,2019,2006,1192
1734,1716362253286003150,2057,2037,2073,2067,2081,2096,1197
1735,1716362253296002995,2047,2072,2060,2056,2022,2014,1192
1736,1716362253306027786,2048,2073,2126,2062,2077,2096,1194
1737,1716362253316002373,2030,2056,2026,2049,2019,2008,1192
1738,1716362253326002719,2066,2062,2065,2067,2084,2093,1197
1739,1716362253335986172,2036,2052,2024,2046,2020,2020,1192
1740,1716362253345987029,2056,2060,2112,2062,2088,2092,1196
1741,1716362253356006350,2040,2050,2017,2046,2039,2005,1193
1742,1716362253365986347,2064,2042,2077,2080,2104,2097,1199
1743,1716362253375986543,2045,2061,2028,2058,2014,2011,1192
1744,1716362253385986898,2068,2041,2068,2058,2082,2094,1197
1745,1716362253395987234,2043,2056,2020,2053,2014,2010,1194
1746,1716362253406046261,2066,2057,2068,2069,2085,2096,1195
1747,1716362253416005999,2044,2050,2012,2024,2014,2006,1195
1748,1716362253425988260,2069,2046,2068,2064,2084,2102,1197
1749,1716362253435989908,2035,2060,2041,2044,2015,2007,1193
1750,1716362253445990314,2074,2042,2069,2072,2101,2102,1197
1751,1716362253456011789,2050,2067,2032,2056,2016,2011,1192
1752,1716362253466009009,2064,2063,2070,2080,2084,2104,1198
1753,1716362253475990880,2046,2059,2026,2045,2016,2004,1193
1754,1716362253485991726,2063,2053,2065,2040,2084,2100,1196
1755,1716362253495989236,2042,2062,2026,2046,2015,2009,1193
1756,1716362253506049455,2066,2060,2069,2046,2093,2097,1194
1757,1716362253516009715,2049,2056,2035,2057,2020,2008,1193
1758,1716362253525990393,2062,2058,2076,2006,2082,2097,1196
1759,1716362253535989846,2049,2052,2033,2035,2012,2001,1193
1760,1716362253545987577,2056,2032,2067,2064,2091,2090,1197
1761,1716362253556013512,2042,2062,2029,2037,2021,2012,1192
1762,1716362253565994440,2068,2066,2069,2074,2093,2100,1195
1763,1716362253575987332,2045,2060,2010,2053,2026,2012,1193
1764,1716362253585989320,2069,2050,2068,2063,2088,2098,1198
1765,1716362253595987652,2044,2017,2030,2046,2021,2000,1192
1766,1716362253606044645,2072,2043,2103,2080,2092,2096,1195
1767,1716362253615990607,2043,2052,2039,2047,2016,2004,1195
1768,1716362253625988228,2064,2045,2075,2050,2088,2100,1195
1769,1716362253635989074,2045,2049,2030,2043,2013,2000,1192
1770,1716362253645994769,2059,2036,2041,2061,2111,2097,1196
1771,1716362253656002840,2043,2052,2021,2037,2021,2011,1193
1772,1716362253665997625,2068,2038,2074,2069,2088,2100,1195
1773,1716362253675992791,2052,2084,2050,2056,2027,2011,1192
1774,1716362253685994559,2059,2052,2061,2058,2085,2100,1196
1775,1716362253695993361,2041,2058,2033,2052,2014,2011,1192
1776,1716362253706056696,2064,2055,2076,2070,2082,2096,1194
1777,1716362253715989594,2046,2058,2032,2065,2026,2002,1193
1778,1716362253725992324,2060,2048,2069,2057,2092,2094,1196
1779,1716362253735988231,2043,2052,2023,2046,2014,2015,1193
1780,1716362253746005730,2066,2044,2051,2068,2090,2098,1194
1781,1716362253756000224,2045,2064,2021,2054,2024,2009,1190
1782,1716362253765987775,2061,2041,2069,2050,2085,2099,1196
1783,1716362253775984373,2044,2056,2026,2056,2019,2008,1192
1784,1716362253785993966,2065,2040,2077,2064,2088,2096,1197
1785,1716362253795992578,2047,2057,2040,2050,2019,2010,1191
1786,1716362253806008213,2064,2045,2086,2076,2092,2095,1197
1787,1716362253815983111,2047,2066,2056,2027,2022,2004,1194
1788,1716362253825987083,2064,2050,2084,2066,2081,2100,1198
1789,1716362253835985846,2039,2052,2035,2052,2017,2010,1193
1790,1716362253845988556,2059,2049,2071,2077,2099,2102,1195
1791,1716362253856030610,2047,2051,2022,2058,2021,2008,1193
1792,1716362253865997963,2066,2044,2048,2073,2088,2098,1196
1793,1716362253875985945,2048,2041,2009,2038,2015,2005,1194
1794,1716362253885980860,2070,2049,2082,2067,2084,2104,1196
1795,1716362253895985433,2036,2056,2019,2044,2013,2009,1191
1796,1716362253906010055,2068,2062,2065,2064,2090,2096,1195
1797,1716362253915986656,2047,2058,2030,2057,2024,1998,1193
1798,1716362253925986511,2064,2050,2065,2076,2084,2098,1195
1799,1716362253935986846,2048,2084,2064,2028,2016,2016,1191
1800,1716362253945984957,2058,2040,2049,2072,2085,2105,1195
1801,1716362253956002195,2046,2057,2043,2049,2019,2020,1191
1802,1716362253965988924,2066,2057,2078,2038,2077,2086,1197
1803,1716362253975992817,2052,2069,2086,2047,2024,2008,1193
1804,1716362253986001718,2068,2060,2072,2003,2077,2096,1196
1805,1716362253995988609,2062,2072,2056,2071,2028,2001,1197
1806,1716362254006022678,2069,2050,2080,1970,2081,2102,1197
1807,1716362254015990722,2050,2056,2030,2052,2029,2009,1195
1808,1716362254025988754,2067,2064,2072,2030,2070,2092,1200
1809,1716362254035988708,2047,2056,2026,2018,2038,2011,1193
1810,1716362254045987160,2062,2042,2059,2012,2076,2098,1196
1811,1716362254055999148,2047,2066,2043,2071,2022,2016,1193
1812,1716362254065985898,2066,2050,2077,1880,2089,2099,1196
1813,1716362254075988157,2047,2056,2036,2119,2046,2017,1192
1814,1716362254085987962,2064,2053,2074,2120,2073,2092,1196
1815,1716362254095989770,2048,2047,2020,2059,2031,2014,1194
1816,1716362254106028137,2068,2044,2058,2096,2072,2091,1193
1817,1716362254115994919,2059,2068,2094,2057,2006,2008,1193
1818,1716362254125991418,2066,2045,2045,2017,2068,2090,1196
1819,1716362254135990060,2051,2066,2033,2048,2024,2000,1192
1820,1716362254145986959,2057,2050,2064,2074,2083,2101,1196
1821,1716362254155995971,2043,2060,2056,2057,2017,2010,1193
1822,1716362254166055308,2058,2044,2072,2062,2082,2090,1196
1823,1716362254175987144,2056,2070,2082,2056,2008,2003,1192
1824,1716362254185993301,2058,2038,2053,2048,2094,2089,1194
1825,1716362254195989409,2047,2064,2037,2037,2012,2011,1192
1826,1716362254206048295,2059,2045,2061,2066,2085,2099,1198
1827,1716362254215993025,2050,2060,2049,2059,2027,2003,1194
1828,1716362254225991297,2068,2051,2060,2064,2077,2105,1195
1829,1716362254235992003,2040,2060,2061,2056,2034,2011,1194
1830,1716362254245991196,2058,2041,2066,2059,2071,2093,1196
1831,1716362254256007432,2051,2055,2030,2069,2018,2010,1194
1832,1716362254265985255,2071,2052,2105,2060,2077,2089,1198
1833,1716362254275987334,2037,2059,2028,2044,2008,1995,1192
1834,1716362254285991146,1722,2049,2097,2068,2080,2098,1197
1835,1716362254295987484,2317,2065,2045,2042,2013,2016,1194
1836,1716362254305999071,2204,2056,2077,2064,2076,2093,1196
1837,1716362254315994186,2101,2062,2074,2040,2008,2010,1194
1838,1716362254325990544,2074,2050,2073,2072,2070,2113,1196
1839,1716362254335992794,2048,2059,2038,2051,2020,1999,1192
1840,1716362254345990915,2051,2044,2064,2052,2085,2096,1197
1841,1716362254355986622,2044,2060,2040,2045,2024,2008,1193
1842,1716362254365987779,2059,2052,2075,2056,2084,2098,1196
1843,1716362254375987723,2049,2062,2040,2040,2010,2011,1193
1844,1716362254385987729,2054,2030,2053,2069,2076,2097,1196
1845,1716362254395990007,2044,2056,2055,2053,2024,2010,1196
1846,1716362254406010391,2057,2040,2055,2046,2084,2094,1196
1847,1716362254415996239,2054,2066,2030,2044,2021,2004,1192
1848,1716362254425993770,2057,2047,2061,2058,2076,2094,1196
1849,1716362254435992582,2045,2062,2040,2057,2025,2010,1193
1850,1716362254445992928,2058,2052,2073,2053,2057,2086,1198
1851,1716362254455994976,2052,2063,2065,2064,2025,2004,1193
1852,1716362254465994250,2064,2044,2077,2062,2082,2094,1196
1853,1716362254475994065,2046,2056,2033,2049,2026,2009,1192
1854,1716362254485993559,2061,2049,2081,2070,2068,2088,1197
1855,1716362254495995337,2041,2044,2022,2052,2014,2010,1192
1856,1716362254506019999,2065,2047,2062,2060,2070,2080,1194
1857,1716362254515995627,2049,2053,2026,2049,2024,2017,1193
1858,1716362254525996925,2057,2037,2064,2068,2076,2106,1196
1859,1716362254535996990,2056,2066,2040,2002,2024,2005,1193
1860,1716362254545996634,2062,2047,2068,2053,2078,2092,1196
1861,1716362254556007850,2048,2058,2036,2059,2033,2017,1193
1862,1716362254565997315,2061,2046,2066,2061,2080,2101,1196
1863,1716362254575997991,2050,2081,2043,2061,2020,2006,1192
1864,1716362254585996123,2064,2047,2070,2059,2076,2090,1197
1865,1716362254595998983,2046,2057,2035,2041,2037,2019,1191
1866,1716362254606004188,2060,2040,2058,2047,2077,2092,1196
1867,1716362254615998382,2048,2069,2056,2072,2055,2008,1195
1868,1716362254625999178,2068,2062,2120,2082,2082,2089,1196
1869,1716362254635999574,2050,2067,2054,2052,2093,2013,1194
1870,1716362254646000570,2062,2054,2076,2062,2072,2092,1195
1871,1716362254656016205,2045,2058,2036,2049,2018,2004,1194
1872,1716362254666000690,2063,2067,2068,2066,2079,2090,1198
1873,1716362254676001487,2052,2059,2032,2021,2020,2009,1192
1874,1716362254686005680,2067,2058,2112,2098,2106,2104,1196
1875,1716362254696001908,2027,2061,2040,2049,2026,2008,1194
1876,1716362254706005670,1829,2049,2042,2046,2063,2098,1196
1877,1716362254716011315,1892,2045,2001,2004,2005,2000,1194
1878,1716362254726001983,2016,2050,2062,2061,2084,2112,1196
1879,1716362254735988712,2080,2058,2039,2050,2021,2005,1192
1880,1716362254746005429,2107,2061,2072,2069,2102,2104,1195
1881,1716362254756005484,2092,2050,2031,2046,2029,2011,1193
1882,1716362254765991502,2088,2039,2064,2073,2085,2096,1197
1883,1716362254775991126,2074,2058,2056,2047,2015,2012,1191
1884,1716362254785991352,2082,2044,2064,2048,2089,2094,1197
1885,1716362254795989964,2065,2057,2039,2046,2024,2020,1194
1886,1716362254805996652,2074,2046,2066,2065,2079,2096,1196
1887,1716362254815990215,2062,2057,2045,2068,2023,2005,1194
1888,1716362254825990831,2128,2051,2086,2056,2080,2094,1196
1889,1716362254835993400,2149,2045,2035,2045,2043,2019,1193
1890,1716362254845988756,2118,2059,2096,2077,2081,2096,1196
1891,1716362254856014650,2066,2060,2037,2050,2028,2018,1195
1892,1716362254865995108,2062,2050,2065,2059,2057,2091,1198
1893,1716362254875990956,2053,2061,2037,2058,2017,2005,1194
1894,1716362254885989156,2064,2049,2065,2061,2068,2088,1196
1895,1716362254895988671,2045,2064,2049,2052,2021,2016,1194
1896,1716362254906016198,2058,2046,2064,2072,2076,2082,1194
1897,1716362254915993660,2056,2088,2083,2062,2026,2028,1195
1898,1716362254925992112,2057,2042,2037,2037,2064,2081,1197
1899,1716362254935990053,2054,2059,2031,2045,2030,2014,1193
1900,1716362254945992823,2054,2050,2066,2068,2077,2092,1197
1901,1716362254956007616,2047,2064,2052,2039,2014,2009,1194
1902,1716362254965991190,2056,2044,2062,2064,2070,2084,1193
1903,1716362254975988860,2056,2058,2038,2047,2026,2014,1193
1904,1716362254985989306,2058,2049,2069,2060,2080,2088,1197
1905,1716362254995989261,2045,2058,2029,2052,2040,2037,1194
1906,1716362255006032648,2062,2056,2064,2084,2090,2090,1196
1907,1716362255015988089,2051,2057,2036,2060,2043,2014,1197
1908,1716362255025981010,2058,2032,2056,2048,2096,2084,1196
1909,1716362255035988630,2047,2056,2046,2064,2092,2038,1193
1910,1716362255045990919,2058,2046,2054,2057,2069,2080,1196
1911,1716362255056001534,2048,2060,2056,2033,2024,2022,1194
1912,1716362255065999615,2062,2061,2088,2060,2077,2085,1196
1913,1716362255075987097,2055,2059,2047,2058,2070,2025,1193
1914,1716362255085993073,2058,2048,2080,2064,2068,2081,1196
1915,1716362255095988028,2058,2066,2044,2015,2033,2030,1195
1916,1716362255106006478,2057,2043,2055,2067,2072,2088,1193
1917,1716362255115986435,2056,2056,2043,2050,2014,2020,1193
1918,1716362255125980198,2056,2065,2096,2071,2059,2078,1197
1919,1716362255135990473,2052,2053,2040,2029,2018,2022,1192
1920,1716362255145987702,2054,2041,2061,2066,2068,2076,1195
1921,1716362255155999920,2053,2057,2032,2049,2036,2022,1194
1922,1716362255165998593,2058,2052,2064,2074,2070,2082,1196
1923,1716362255175985092,2053,2059,2041,2058,2037,2032,1192
1924,1716362255186005596,2056,2048,2061,2054,2033,2077,1195
1925,1716362255195989510,2056,2073,2058,2067,2032,2032,1193
1926,1716362255206021175,2065,2052,2057,2032,2088,2077,1197
1927,1716362255215993628,2060,2058,2034,2074,2079,2033,1195
1928,1716362255225991048,2050,2047,2052,2067,2078,2083,1198
1929,1716362255235991725,1481,2072,2053,2047,2032,2035,1194
1930,1716362255245991219,2284,2053,2092,2069,2075,2076,1198
1931,1716362255256000080,2277,2061,2037,2053,2023,2032,1194
1932,1716362255265994474,2216,2041,2030,2066,2058,2060,1196
1933,1716362255275977146,2134,2056,2037,2056,2043,2034,1194
1934,1716362255285989234,2093,2044,2048,2056,2136,2071,1196
1935,1716362255295986655,2074,2056,2047,2057,2032,2021,1193
1936,1716362255305965209,2063,2053,2061,2062,2056,2073,1194
1937,1716362255315998006,2058,2072,2105,2068,2044,2045,1193
1938,1716362255325990126,2060,2047,2053,2044,2061,2072,1195
1939,1716362255335987195,2057,2056,2042,2049,2044,2033,1194
1940,1716362255345989544,2051,2033,2057,2056,2065,2069,1196
1941,1716362255356005260,2046,2057,2058,2056,2040,2027,1193
1942,1716362255365988793,2053,2051,2060,2066,2074,2061,1196
1943,1716362255376005570,2050,2060,2038,2052,2056,2035,1192
1944,1716362255385992049,2056,2047,2068,2061,2044,2076,1198
1945,1716362255395989580,2049,2052,2036,2046,2030,2030,1193
1946,1716362255406010764,2046,2044,2053,2053,2066,2074,1195
1947,1716362255415993306,2050,2056,2061,2065,2052,2039,1195
1948,1716362255425990105,2060,2056,2059,2076,2061,2069,1196
1949,1716362255435990952,2056,2073,2061,2049,2041,2027,1193
1950,1716362255445989244,2057,2053,2056,2074,2066,2070,1198
1951,1716362255456007704,2056,2064,2056,2051,2043,2043,1194
1952,1716362255465992650,2055,2046,2052,2055,2065,2075,1197
1953,1716362255475992495,2056,2056,2047,2056,2048,2032,1195
1954,1716362255485990135,2058,2047,2074,2089,2160,2080,1198
1955,1716362255495991272,2056,2058,2048,2045,2032,2038,1194
1956,1716362255505991568,2057,2043,2056,2052,2048,2074,1196
1957,1716362255515991733,2053,2059,2052,1996,2031,2037,1192
1958,1716362255525995115,2052,2046,2049,2058,2072,2076,1196
1959,1716362255535990831,2053,2062,2030,2056,2037,2026,1192
1960,1716362255546041562,2053,2045,2040,2041,2032,2058,1197
1961,1716362255555991111,2050,2056,2040,2046,2037,2036,1194
1962,1716362255565990205,2061,2061,2084,2060,2061,2084,1195
1963,1716362255575990130,2059,2062,2040,2065,2044,2029,1195
1964,1716362255585989994,2061,2051,2057,2069,2053,2071,1196
1965,1716362255595990871,2058,2074,2028,2058,2037,2038,1194
1966,1716362255606010663,2066,2048,2042,2082,2080,2074,1196
1967,1716362255615993316,2054,2050,2032,2048,2037,2026,1196
1968,1716362255625993520,2059,2047,2056,2080,2088,2075,1197
1969,1716362255635991833,2053,2060,2037,2016,2026,2030,1195
1970,1716362255645993992,2056,2046,2054,2052,2056,2076,1196
1971,1716362255655990369,2053,2062,2057,2060,2042,2028,1195
1972,1716362255665995695,2052,2034,2040,2064,2062,2066,1196
1973,1716362255675988186,2054,2049,2037,2050,2052,2040,1193
1974,1716362255685988722,2056,2045,2045,2049,2047,2078,1197
1975,1716362255695989177,2052,2046,2041,2054,2036,2027,1195
1976,1716362255706027775,2060,2054,2056,2069,2045,2074,1195
1977,1716362255715997673,2056,2051,2040,2026,2024,2027,1194
1978,1716362255725992759,2055,2049,2064,2049,2057,2070,1196
1979,1716362255735990500,2056,2068,2056,2052,2034,2026,1192
1980,1716362255745990845,2055,2053,2066,2056,2065,2081,1195
1981,1716362255755989017,2063,2056,2048,2053,2017,2020,1191
1982,1716362255765992949,2053,2056,2061,2047,2065,2066,1197
1983,1716362255775990048,2052,2077,2059,2052,2060,2033,1193
1984,1716362255785994892,2053,2056,2074,2044,2068,2082,1197
1985,1716362255795992152,2058,2064,2061,2064,2051,2040,1193
1986,1716362255806014991,2056,2045,2056,2052,2057,2070,1196
1987,1716362255816001760,2058,2057,2048,2059,2041,2027,1194
1988,1716362255825991907,2052,2035,2056,2072,2084,2069,1197
1989,1716362255835989226,2060,2059,2052,2042,2036,2036,1193
1990,1716362255845991235,2056,2045,2061,2044,2064,2074,1196
1991,1716362255855988936,2061,2065,2083,2054,2038,2040,1194
1992,1716362255865987719,2048,2045,2056,2061,2064,2072,1196
1993,1716362255875987834,2058,2053,2052,2053,2040,2032,1193
1994,1716362255885995633,2052,2046,2090,2056,2061,2066,1197
1995,1716362255895994136,2058,2047,2029,2044,2012,2024,1192
1996,1716362255906096114,2053,2045,2060,2068,2056,2075,1195
1997,1716362255916007561,2057,2055,2047,2036,2036,2032,1192
1998,1716362255925990574,2049,2052,2088,2068,2074,2076,1194
1999,1716362255935990388,2056,2053,2054,2058,2042,2032,1194
2000,1716362255945990463,2056,2058,2064,2048,2032,2075,1195
2001,1716362255956001219,2061,2058,2047,2016,2028,2036,1196
2002,1716362255966000292,2050,2050,2056,2059,2068,2083,1195
2003,1716362255975982483,2056,2051,2061,2042,2046,2029,1191
2004,1716362255985991836,2038,2039,2040,2044,2048,2069,1195
2005,1716362255995989937,2050,2058,2052,2057,2043,2038,1194
2006,1716362256006104329,2049,2047,2049,2056,2070,2065,1198
2007,1716362256016003643,2060,2073,2097,2061,2041,2032,1194
2008,1716362256025993008,2056,2056,2041,2052,2056,2074,1195
2009,1716362256035991119,2066,2061,2050,2056,2041,2036,1192
2010,1716362256045994671,2059,2050,2058,2045,2043,2073,1197
2011,1716362256055994366,2061,2065,2047,2067,2053,2025,1193
2012,1716362256065992357,2056,2049,2061,2073,2072,2064,1197
2013,1716362256075992732,2053,2058,2047,2047,2030,2037,1194
2014,1716362256085993980,2053,2044,2064,2049,2068,2063,1196
2015,1716362256095992892,2058,2062,2044,2047,2043,2036,1194
2016,1716362256106085503,2051,2047,2060,2049,2060,2062,1194
2017,1716362256115989476,2058,2063,2052,2045,2051,2044,1194
2018,1716362256125990403,2049,2045,2042,2051,2051,2068,1194
2019,1716362256135994615,2063,2059,2052,2051,2037,2038,1193
2020,1716362256145989821,2056,2062,2054,2053,2060,2075,1196
2021,1716362256155990248,2065,2058,2047,2046,2043,2026,1195
2022,1716362256165990804,2054,2047,2062,2044,2091,2072,1196
2023,1716362256175989125,2056,2045,2038,2036,2036,2038,1194
2024,1716362256185988198,2058,2056,2089,2056,2059,2066,1195
2025,1716362256195987482,2053,2044,2026,2059,2017,2032,1193
2026,1716362256206000201,2050,2050,2058,2058,2069,2072,1194
2027,1716362256215989005,2061,2062,2037,2050,2025,2038,1194
2028,1716362256225987898,2049,2034,2050,2065,2053,2064,1195
2029,1716362256235995817,2058,2052,2060,2047,2045,2045,1193
2030,1716362256245989420,2053,2049,2072,2071,2060,2071,1195
2031,1716362256256010706,2060,2054,2027,2043,2043,2035,1192
2032,1716362256265990733,2050,2049,2070,2049,2065,2061,1195
2033,1716362256275989606,2062,2062,2044,2050,2034,2028,1194
2034,1716362256285989210,2056,2036,2058,2050,2097,2062,1196
2035,1716362256295991810,2061,2054,2056,2047,2040,2033,1192
2036,1716362256305991164,2052,2045,2058,2052,2057,2061,1195
2037,1716362256315992101,2054,2060,2057,2058,2049,2040,1194
2038,1716362256325989701,2056,2056,2080,2096,2058,2067,1196
2039,1716362256335990909,2061,2053,2032,2054,2054,2035,1194
2040,1716362256345990603,2056,2047,2037,2065,2073,2075,1195
2041,1716362256356009133,2060,2053,2032,2053,2040,2036,1192
2042,1716362256365996985,2048,2029,2024,2058,2080,2070,1195
2043,1716362256375988032,2054,2056,2042,2041,2047,2036,1193
2044,1716362256385987967,2053,2052,2058,2068,2068,2066,1197
2045,1716362256395990768,2066,2072,2056,2074,2057,2021,1195
2046,1716362256406066096,2052,2040,2043,2078,2067,2076,1196
2047,1716362256415988644,2060,2054,2040,2048,2033,2037,1194
2048,1716362256425991885,2056,2072,2058,2063,2037,2060,1194
2049,1716362256435992812,2065,2056,2045,2045,2048,2041,1194
2050,1716362256445992777,2054,2057,2091,2062,2074,2060,1197
2051,1716362256455998973,2064,2057,2043,2062,2051,2034,1194
2052,1716362256465994270,2051,2041,2036,2068,2084,2067,1195
2053,1716362256475991249,2061,2054,2043,2052,2041,2031,1193
2054,1716362256485991525,2048,2041,2040,2049,2064,2073,1197
2055,1716362256495996809,2060,2044,2049,2053,2039,2047,1193
2056,1716362256506059874,2048,2036,2066,2060,2061,2069,1193
2057,1716362256515992611,2059,2047,2044,2038,2046,2038,1194
2058,1716362256525995612,2054,2092,2049,2058,2056,2065,1195
2059,1716362256535995517,2056,2076,2058,2044,2049,2042,1193
2060,1716362256545996794,2049,2052,2056,2052,2070,2064,1197
2061,1716362256556002780,2060,2060,2059,2056,2061,2035,1194
2062,1716362256565997505,2043,2044,2063,2052,2050,2064,1197
2063,1716362256575995046,2052,2055,2052,2048,2039,2037,1193
2064,1716362256585997977,2052,2043,2059,2050,2071,2061,1196
2065,1716362256595998432,2069,2064,2052,2056,2037,2040,1193
2066,1716362256605976085,2052,2047,2056,2065,2052,2056,1195
2067,1716362256616035914,2065,2056,2050,2064,2043,2045,1194
2068,1716362256626039024,2052,2054,2064,2057,2056,2063,1196
2069,1716362256636039099,2059,2060,2060,2052,2045,2037,1193
2070,1716362256646040016,2045,2043,2052,2051,2061,2069,1196
2071,1716362256656044820,2056,2047,2045,2057,2044,2037,1193
2072,1716362256665982917,2049,2045,2057,2048,2056,2056,1196
2073,1716362256676040732,2064,2050,2050,2046,2060,2038,1193
2074,1716362256686041178,2048,2049,2061,2064,2064,2064,1195
2075,1716362256696042155,2060,2061,2045,2057,2031,2031,1192
2076,1716362256706044404,2052,2044,2043,2050,2062,2064,1194
2077,1716362256715983704,2068,2061,2062,2049,2041,2042,1192
2078,1716362256726042280,2058,2048,2056,2056,2062,2072,1195
2079,1716362256736043447,2070,2044,2022,2053,2048,2031,1192
2080,1716362256746042891,2054,2049,2046,2056,2064,2072,1194
2081,1716362256756051303,2057,2031,2030,2045,2037,2037,1194
2082,1716362256766044805,2047,2038,2044,2049,2056,2075,1197
2083,1716362256775988293,2062,2053,2047,2026,2036,2048,1196
2084,1716362256785989761,1859,2058,2072,2067,2064,2073,1194
2085,1716362256795989655,2159,2057,2044,2043,2057,2048,1196
2086,1716362256806048752,2165,2052,2064,2047,2049,2069,1195
2087,1716362256816027006,2233,2066,2052,2038,2026,2031,1194
2088,1716362256826026831,2134,2041,2052,2053,2055,2064,1197
2089,1716362256836025313,2098,2052,2048,2052,2053,2056,1197
2090,1716362256846026360,2068,2052,2056,2057,2052,2059,1197
2091,1716362256856028679,2061,2054,2043,2044,2044,2033,1193
2092,1716362256866022693,2052,2053,2060,2052,2060,2066,1195
2093,1716362256876024461,2067,2058,2047,2058,2043,2019,1195
2094,1716362256886023785,2046,2054,2056,2074,2074,2067,1197
2095,1716362256896023760,2055,2050,2038,2057,2040,2032,1195
2096,1716362256906013916,2040,2046,2058,2063,2045,2064,1195
2097,1716362256916022878,2055,2059,2051,2050,2030,2024,1192
2098,1716362256926021300,2046,2045,2056,2061,2064,2072,1196
2099,1716362256936020734,2058,2076,2049,2048,2047,2043,1192
2100,1716362256946020779,2053,2051,2060,2057,2054,2057,1195
2101,1716362256956023048,2058,2059,2060,2060,2044,2043,1192
2102,1716362256966019467,2052,2040,2064,2065,2056,2078,1195
2103,1716362256976020313,2059,2050,2036,2041,2037,2045,1192
2104,1716362256986018024,2053,2076,2124,2072,2022,2051,1195
2105,1716362256996017999,2057,2053,2031,2047,2038,2052,1193
2106,1716362257006019196,2046,2029,2047,2058,2063,2072,1198
2107,1716362257016016346,2063,2058,2064,2058,2043,2052,1197
2108,1716362257026016671,2049,2047,2052,2047,2060,2084,1194
2109,1716362257036017308,2068,2066,2072,2036,2037,2032,1195
2110,1716362257046013455,2048,2046,2065,2073,2133,2088,1196
2111,1716362257056014763,2058,2056,2049,2056,2065,2036,1193
2112,1716362257066017222,2047,2049,2056,2055,2053,2073,1197
2113,1716362257076010164,2063,2061,2049,2044,2040,2014,1193
2114,1716362257086012043,2050,2047,2062,2054,2064,2086,1198
2115,1716362257096011476,2053,2053,2047,2056,2041,2036,1192
2116,1716362257106014648,2053,2048,2060,2060,2072,2084,1194
2117,1716362257116011858,2065,2069,2048,2056,2042,2042,1192
2118,1716362257126012113,2056,2051,2072,2033,2092,2079,1196
2119,1716362257136011336,2058,2052,2030,2047,2038,2037,1192
2120,1716362257146009728,2056,2051,2056,2068,2080,2091,1195
2121,1716362257156011277,2061,2060,2040,2048,2034,2038,1191
2122,1716362257165968811,2052,2048,2056,2062,2074,2092,1194
2123,1716362257176009984,2043,2075,2057,2047,1998,2039,1194
2124,1716362257186008767,1899,2039,2057,2053,2064,2059,1197
2125,1716362257196012830,2154,2048,2045,2060,2031,2052,1194
2126,1716362257206008987,2134,2047,2059,2060,2060,2065,1196
2127,1716362257216007780,2116,2061,2050,2057,2047,2026,1194
2128,1716362257226008106,2086,2046,2057,2050,2044,2058,1197
2129,1716362257236004935,2086,2065,2056,2056,2028,2026,1194
2130,1716362257246004579,2058,2048,2056,2052,2074,2078,1198
2131,1716362257256005445,2069,2056,2025,2045,2038,2040,1193
2132,1716362257266005270,2072,2082,2138,2076,2072,2069,1195
2133,1716362257275966402,2143,2048,2038,2047,2074,2081,1195
2134,1716362257286002806,2085,2050,2059,2060,2067,2075,1197
2135,1716362257296001769,2113,2060,2047,2051,2058,2060,1195
2136,1716362257306003216,2070,2051,2058,2061,2067,2088,1193
2137,1716362257316004464,2069,2062,2052,2048,2027,2025,1192
2138,1716362257326011973,1968,2048,2055,2054,2065,2062,1197
2139,1716362257336002490,2146,2060,2055,2054,2050,2057,1194
2140,1716362257346000922,2091,2046,2047,2040,2054,2077,1196
2141,1716362257356003392,2074,2052,2024,2056,2064,2052,1195
2142,1716362257366009308,2049,2033,2029,2044,2052,2051,1195
2143,1716362257375997601,2076,2104,2142,2067,2056,2048,1195
2144,1716362257386004770,2042,2036,2045,2047,2060,2068,1195
2145,1716362257395997060,2055,2059,2075,2056,2046,2034,1194
2146,1716362257405999981,2052,2043,2057,2062,2108,2076,1197
2147,1716362257416000927,2058,2053,2051,2030,1997,2044,1192
2148,1716362257425999750,2052,2070,2062,2042,2006,2027,1193
2149,1716362257436000647,2064,2075,2054,2058,2047,2037,1194
2150,1716362257446000632,2047,2047,2042,2060,2062,2071,1194
2151,1716362257456006979,2057,2041,2020,2050,2033,2031,1193
2152,1716362257466001313,2043,2040,2056,2059,2062,2064,1196
2153,1716362257476001960,2052,2046,2041,2052,2050,2030,1193
2154,1716362257486004480,2046,2046,2054,2054,2073,2082,1196
2155,1716362257496002591,2061,2056,2052,2056,2044,2045,1193
2156,1716362257506003337,2048,2045,2057,2060,2064,2040,1191
2157,1716362257516001760,2065,2069,2058,2061,2052,2030,1193
2158,1716362257526001935,2046,2046,2057,2054,2057,2051,1195
2159,1716362257536001569,2060,2043,2024,2039,2036,2027,1192
2160,1716362257546002195,2061,2085,2136,2058,2078,2083,1197
2161,1716362257556001249,2056,2055,2034,2051,2041,2029,1195
2162,1716362257566003528,2048,2041,2058,2058,2128,2104,1197
2163,1716362257576000828,2063,2057,2056,2056,2053,2036,1194
2164,1716362257586001965,2052,2041,2053,2052,2066,2095,1194
2165,1716362257596002211,2064,2060,2053,2060,2052,2041,1192
2166,1716362257606002636,2033,2039,2047,2056,2040,2052,1195
2167,1716362257615994275,2058,2056,2046,2050,2052,2058,1194
2168,1716362257626002115,2050,2051,2056,2058,2042,2072,1197
2169,1716362257636000377,2055,2054,2045,2033,2006,2018,1193
2170,1716362257646001043,2044,2064,2045,2081,2120,2050,1196
2171,1716362257656001519,2067,2070,2057,2066,2058,2032,1192
2172,1716362257666001184,2043,2046,2054,2064,2061,2085,1195
2173,1716362257676000057,2057,2057,2044,2050,2041,2050,1194
2174,1716362257686000873,2057,2057,2064,2061,2054,2072,1195
2175,1716362257695999716,2064,2072,2057,2048,2025,2057,1195
2176,1716362257706001053,2052,2044,2056,2060,2060,2078,1193
2177,1716362257716010066,2068,2070,2068,2060,2092,2109,1193
2178,1716362257726001645,2034,2041,2046,2047,2034,2090,1194
2179,1716362257736002221,2068,2072,2054,2050,2069,2068,1193
2180,1716362257745982047,2044,2065,2053,2041,2081,2093,1196
2181,1716362257756005026,2046,2064,2064,2051,2084,2084,1194
2182,1716362257766002777,2048,2022,2057,2068,2061,2039,1192
2183,1716362257775999896,2041,2041,2047,2056,2032,2060,1195
2184,1716362257785999951,2069,2047,2066,2064,2053,2010,1193
2185,1716362257796004895,2043,2097,2048,2057,2077,2061,1196
2186,1716362257806002225,2033,2077,2051,2061,2052,1998,1194
2187,1716362257816001038,2061,2082,2050,2065,2081,2097,1197
2188,1716362257826001795,2025,2083,2070,2066,2081,2092,1194
2189,1716362257836000497,2068,2080,2048,2053,2042,1988,1192
2190,1716362257846004860,2064,2072,2060,2057,2041,2006,1193
2191,1716362257856001219,2032,2078,2050,2056,2055,2038,1194
2192,1716362257866001194,2033,2051,2056,2046,2057,2064,1194
2193,1716362257876001399,2050,2033,2047,2057,2056,2084,1194
2194,1716362257886002135,2029,2049,2060,2057,2068,2118,1197
2195,1716362257896002281,1975,2061,2052,2046,2040,2105,1193
2196,1716362257906003328,2020,2028,2052,2049,2077,2242,1195
2197,1716362257916002912,2021,2046,2064,2098,2144,2332,1193
2198,1716362257926004720,2066,2053,2065,2061,2060,2059,1194
2199,1716362257936029032,2062,2080,2053,2049,2060,2064,1194
2200,1716362257946039406,2060,2049,2062,2041,2063,2065,1196
2201,1716362257956030474,2080,2037,2050,2059,2042,2024,1194
2202,1716362257966005632,2066,2025,2066,2060,2058,2060,1195
2203,1716362257976033150,2083,2041,2032,2072,2077,2053,1194
2204,1716362257986054495,2046,2016,1996,2042,2061,2063,1196
2205,1716362257996053267,2073,2039,2025,2045,2042,2036,1193
2206,1716362258006032553,2061,2027,1988,2060,2077,2052,1197
2207,1716362258016034292,2065,2046,2047,2050,2047,2052,1197
2208,1716362258026034287,2198,2042,1974,2056,2053,2059,1197
2209,1716362258036034773,1801,2064,2050,2040,2036,2043,1193
2210,1716362258046057802,2165,2036,2026,2065,2100,2072,1195
2211,1716362258056035925,2208,2076,2117,2057,2029,2041,1193
2212,1716362258066035660,2168,2019,2012,2041,2046,2073,1195
