seq,time,data[0],data[1],data[2],data[3],data[4],data[5],data[6]
201,1716347432526797297,2055,2052,2054,2061,2047,1981,1191
202,1716347432536803393,2064,2072,2071,2076,2076,2018,1194
203,1716347432546800601,2052,2050,2068,2054,2036,2058,1197
204,1716347432556808440,2053,2052,2042,2068,2052,2064,1195
205,1716347432566802021,2050,2042,2056,2017,2056,2047,1193
206,1716347432576805813,2056,2062,2046,2056,2052,2056,1196
207,1716347432586804253,2052,2058,2097,2052,2056,1978,1195
208,1716347432596804538,2058,2056,2046,2055,2054,2063,1196
209,1716347432606804481,2064,2074,2110,2074,2059,2060,1197
210,1716347432616807150,2064,2064,2036,2064,2066,2051,1196
211,1716347432626806252,2047,2024,2006,2050,2048,2054,1197
212,1716347432636808060,2058,2077,2117,2053,2056,2050,1197
213,1716347432646806470,2062,2075,2093,2061,2057,2060,1198
214,1716347432656807987,2056,2052,2001,2043,2051,2052,1196
215,1716347432666808061,2050,2038,1993,2056,2054,2055,1197
216,1716347432676813916,2058,2058,2033,2052,2056,2048,1197
217,1716347432686793661,2053,2045,2052,2060,2053,2057,1194
218,1716347432696796791,2057,2058,2050,2051,2049,2044,1193
219,1716347432706792306,2049,2049,2060,2058,2054,2050,1197
220,1716347432716795886,2056,2065,2050,2045,2048,2051,1196
221,1716347432726793837,2052,2048,2053,2032,2047,2056,1196
222,1716347432736795654,2054,2054,2043,2064,2036,2047,1193
223,1716347432746792792,2057,2059,2064,2056,2058,2057,1195
224,1716347432756800901,2056,2057,2044,2050,2050,2047,1194
225,1716347432766792870,2056,2050,2087,2061,2065,2056,1193
226,1716347432776800678,2060,2056,2042,2053,2052,2056,1193
227,1716347432786794200,2052,2042,2047,2058,2056,2051,1196
228,1716347432796804925,2066,2096,2109,2056,2047,2052,1193
229,1716347432806793917,2049,2045,2045,2048,2043,2052,1194
230,1716347432816796426,2058,2057,2048,2073,2083,2056,1196
231,1716347432826793624,2052,2044,2049,2081,2052,2053,1195
232,1716347432836752059,2056,2060,2046,2057,2057,2054,1196
233,1716347432846792550,2056,2048,2058,2072,2066,2059,1195
234,1716347432856795610,2062,2073,2052,2058,2058,2056,1195
235,1716347432866792888,2055,2042,2052,2047,2056,2050,1194
236,1716347432876800727,2056,2061,2050,2058,2077,2049,1195
237,1716347432886797234,2056,2044,2053,2039,2060,2052,1197
238,1716347432896806295,2062,2066,2064,2060,2052,2051,1196
239,1716347432906793214,2053,2044,2052,2047,2048,2051,1196
240,1716347432916797296,2057,2062,2053,2046,2050,2056,1195
241,1716347432926793693,2058,2061,2089,2060,2059,2059,1196
242,1716347432936751856,2053,2053,2024,2046,2053,2048,1195
243,1716347432946797317,2056,2054,2058,2042,2056,2053,1194
244,1716347432956799996,2056,2061,2052,2057,2063,2052,1195
245,1716347432966793007,2057,2049,2056,2074,2061,2058,1196
246,1716347432976800194,2055,2061,2054,2057,2050,2052,1195
247,1716347432986794257,2054,2047,2059,2061,2053,2062,1196
248,1716347432996805452,2053,2057,2050,2057,2052,2061,1193
249,1716347433006792621,2054,2047,2052,2047,2036,2052,1193
250,1716347433016794698,2058,2057,2034,2028,2043,2046,1193
251,1716347433026796837,2059,2059,2065,2058,2048,2056,1194
252,1716347433036795037,2056,2061,2078,2055,2052,2050,1195
253,1716347433046795061,2056,2051,2067,2034,2053,2058,1196
254,1716347433056800205,2059,2068,2045,2051,2069,2060,1193
255,1716347433066793385,2058,2047,2049,2056,2047,2052,1195
256,1716347433076800493,2052,2057,2052,2048,2047,2052,1196
257,1716347433086792541,2052,2046,2054,2074,2057,2055,1197
258,1716347433096797966,2057,2064,2052,2050,2056,2050,1197
259,1716347433106799562,2056,2052,2062,2056,2057,2056,1196
260,1716347433116795890,2056,2053,2056,2048,2054,2047,1192
261,1716347433126801835,2058,2058,2063,2063,2045,2058,1196
262,1716347433136801247,2059,2068,2052,2057,2040,2049,1197
263,1716347433146794018,2053,2044,2052,2064,2080,2058,1196
264,1716347433156795594,2056,2069,2063,2055,2058,2055,1197
265,1716347433166793254,2057,2062,2088,2060,2050,2056,1194
266,1716347433176794870,2053,2057,2048,2051,2046,2052,1195
267,1716347433186794935,2051,2043,2035,2059,2054,2052,1195
268,1716347433196796060,2056,2059,2041,2044,2049,2052,1193
269,1716347433206793069,2056,2049,2058,2060,2052,2055,1195
270,1716347433216796049,2058,2058,2043,2056,2056,2050,1193
271,1716347433226806672,2061,2064,2098,2037,2034,2054,1194
272,1716347433236802509,2056,2054,2040,2060,2032,2051,1194
273,1716347433246793825,2056,2048,2074,2053,2045,2052,1195
274,1716347433256797827,2053,2051,2033,2056,2045,2052,1194
275,1716347433266794374,2058,2049,2041,2035,2057,2049,1195
276,1716347433276801151,2053,2060,2054,2064,2050,2054,1196
277,1716347433286792809,2056,2050,2053,2011,2039,2054,1198
278,1716347433296799726,2056,2058,2048,2040,2047,2050,1197
279,1716347433306793729,2057,2060,2076,2078,2058,2056,1195
280,1716347433316797309,2059,2060,2078,2034,2052,2048,1196
281,1716347433326792995,2052,2047,2043,2060,2050,2053,1195
282,1716347433336801404,2055,2055,2044,2053,2057,2051,1197
283,1716347433346794566,2057,2061,2079,2069,2058,2056,1197
284,1716347433356794690,2054,2056,2041,2056,2052,2050,1196
285,1716347433366794443,2053,2044,2035,2060,2067,2054,1195
286,1716347433376796551,2058,2057,2051,2054,2049,2048,1196
287,1716347433386794621,2056,2048,2042,2060,2056,2052,1196
288,1716347433396797020,2058,2065,2078,2058,2055,2051,1193
289,1716347433406793396,2053,2040,2038,2046,2047,2053,1196
290,1716347433416798650,2056,2061,2047,2073,2045,2056,1195
291,1716347433426792993,2052,2047,2051,2049,2040,2057,1195
292,1716347433436796464,2053,2057,2047,2056,2071,2052,1195
293,1716347433446796839,2053,2048,2051,2044,2060,2050,1196
294,1716347433456795720,2056,2064,2044,2054,2056,2050,1197
295,1716347433466792017,2056,2050,2047,2057,2056,2054,1194
296,1716347433476800587,2053,2054,2036,2052,2059,2056,1196
297,1716347433486793357,2060,2064,2128,2081,2057,2055,1197
298,1716347433496803319,2056,2061,2048,2064,2053,2059,1196
299,1716347433506792363,2053,2046,2036,2052,2054,2051,1197
300,1716347433516796455,2056,2058,2042,2058,2050,2052,1198
301,1716347433526793723,2056,2053,2053,2050,2040,2056,1196
302,1716347433536795721,2060,2060,2050,2060,2049,2053,1197
303,1716347433546792127,2051,2047,2046,2070,2072,2058,1196
304,1716347433556796701,2057,2064,2050,2053,2052,2051,1200
305,1716347433566796364,2053,2042,2038,2052,2050,2049,1195
306,1716347433576800966,2057,2064,2072,2061,2048,2051,1197
307,1716347433586793376,2054,2050,2053,2056,2048,2060,1196
308,1716347433596800773,2053,2052,2046,2045,2066,2047,1192
309,1716347433606793544,2053,2049,2061,2076,2062,2057,1198
310,1716347433616795631,2052,2054,2030,2072,2056,2050,1194
311,1716347433626794363,2056,2052,2046,2061,2077,2056,1195
312,1716347433636795979,2059,2065,2056,2059,2050,2050,1196
313,1716347433646796134,2056,2047,2036,2056,2053,2056,1195
314,1716347433656800286,2056,2060,2050,2036,2034,2042,1193
315,1716347433666796803,2053,2046,2049,2052,2053,2052,1195
316,1716347433676801506,2052,2056,2036,2063,2054,2054,1196
317,1716347433686798273,2057,2058,2089,2069,2056,2060,1197
318,1716347433696801804,2058,2066,2038,2008,2058,2052,1196
319,1716347433706799633,2056,2054,2057,2049,2054,2057,1192
320,1716347433716802273,2056,2056,2047,2040,2053,2053,1194
321,1716347433726801044,2053,2052,2061,2074,2045,2048,1195
322,1716347433736803763,2054,2054,2052,2066,2052,2052,1197
323,1716347433746802245,2061,2076,2090,2063,2065,2060,1196
324,1716347433756805103,2052,2064,2045,2030,2062,2053,1196
325,1716347433766803314,2059,2050,2052,2064,2055,2055,1197
326,1716347433776807255,2059,2064,2053,2021,2045,2049,1198
327,1716347433786804825,2053,2044,2056,2060,2040,2056,1195
328,1716347433796809046,2052,2059,2051,2048,2052,2052,1192
329,1716347433806810884,2049,2047,2053,2061,2061,2052,1196
330,1716347433816796591,2059,2057,2051,2056,2060,2050,1194
331,1716347433826790622,2054,2056,2052,2045,2041,2056,1195
332,1716347433836796448,2053,2052,2042,2054,2045,2054,1194
333,1716347433846791051,2059,2062,2064,2062,2054,2060,1194
334,1716347433856796295,2056,2058,2044,2061,2048,2050,1195
335,1716347433866791379,2054,2047,2036,2053,2061,2056,1197
336,1716347433876792145,2058,2065,2069,2061,2050,2053,1196
337,1716347433886791528,2056,2044,2040,2060,2045,2056,1195
338,1716347433896795258,2060,2052,2031,2057,2065,2056,1197
339,1716347433906790073,2053,2051,2065,2064,2056,2052,1196
340,1716347433916795206,2056,2057,2046,2050,2057,2049,1197
341,1716347433926797184,2052,2044,2048,2056,2045,2057,1196
342,1716347433936798570,2059,2064,2042,2058,2053,2052,1196
343,1716347433946798835,2058,2060,2074,2062,2052,2058,1197
344,1716347433956806043,2057,2062,2082,2052,2041,2052,1198
345,1716347433966800175,2057,2054,2050,2032,2053,2053,1196
346,1716347433976812483,2056,2061,2051,2064,2063,2053,1196
347,1716347433986804390,2056,2048,2052,2047,2049,2056,1197
348,1716347433996812200,2058,2064,2070,2026,2036,2051,1195
349,1716347434006796322,2053,2043,2047,2053,2072,2056,1197
350,1716347434016802198,2058,2059,2069,2024,2036,2052,1195
351,1716347434026802583,2056,2046,2064,2047,2051,2056,1196
352,1716347434036808017,2054,2056,2037,2047,2056,2056,1196
353,1716347434046799755,2052,2044,2049,2052,2056,2053,1196
354,1716347434056805600,2064,2070,2066,2057,2047,2053,1195
355,1716347434066798661,2054,2047,2047,2033,2052,2060,1194
356,1716347434076816750,2058,2058,2045,2056,2048,2052,1197
357,1716347434086798117,2056,2044,2032,2061,2054,2053,1196
358,1716347434096804634,2052,2060,2033,2024,2047,2051,1195
359,1716347434106800449,2056,2050,2037,2053,2046,2054,1196
360,1716347434116804361,2053,2060,2041,2052,2048,2047,1193
361,1716347434126797241,2052,2052,2080,2056,2053,2056,1194
362,1716347434136803186,2057,2061,2053,2057,2076,2047,1193
363,1716347434146798261,2052,2043,2034,2060,2056,2056,1196
364,1716347434156804777,2054,2060,2054,2053,2054,2048,1197
365,1716347434166796966,2050,2048,2053,2062,2052,2054,1198
366,1716347434176804695,2053,2054,2052,2041,2034,2048,1195
367,1716347434186798126,2064,2074,2096,2060,2032,2055,1197
368,1716347434196804042,2053,2050,2037,2057,2038,2045,1192
369,1716347434206804005,2056,2047,2051,2064,2057,2057,1195
370,1716347434216805542,2055,2061,2049,2054,2050,2047,1193
371,1716347434226799695,2054,2046,2053,2053,2049,2053,1194
372,1716347434236806532,2056,2071,2082,2085,2071,2052,1196
373,1716347434246797589,2052,2049,2072,2071,2048,2056,1196
374,1716347434256805928,2056,2060,2053,2069,2054,2050,1196
375,1716347434266799229,2056,2043,2047,2057,2053,2053,1195
376,1716347434276803462,2056,2056,2022,2065,2057,2057,1195
377,1716347434286797584,2056,2047,2050,2042,2053,2060,1195
378,1716347434296801686,2053,2060,2052,2056,2050,2052,1195
379,1716347434306796850,2054,2053,2058,2060,2053,2053,1198
380,1716347434316809088,2058,2061,2061,2056,2036,2052,1196
381,1716347434326797690,2057,2046,2045,2077,2070,2056,1196
382,1716347434336803124,2061,2060,2053,2050,2050,2049,1195
383,1716347434346811925,2054,2045,2056,2057,2054,2052,1194
384,1716347434356805887,2056,2054,2057,2049,2053,2049,1197
385,1716347434366797505,2053,2045,2062,2052,2056,2061,1197
386,1716347434376805154,2052,2054,2041,2009,2041,2045,1193
387,1716347434386800949,2052,2050,2061,2054,2053,2056,1196
388,1716347434396802927,2060,2061,2068,2056,2052,2052,1194
389,1716347434406801027,2053,2046,2052,2058,2053,2052,1194
390,1716347434416802955,2056,2064,2067,2060,2053,2052,1196
391,1716347434426802177,2053,2046,2056,2040,2036,2053,1196
392,1716347434436802882,2053,2065,2042,2051,2049,2049,1193
393,1716347434446799911,2057,2068,2096,2064,2058,2058,1196
394,1716347434456803180,2050,2052,2025,2051,2052,2051,1198
395,1716347434466804197,2061,2056,2063,2054,2065,2059,1195
396,1716347434476810022,2053,2056,2051,2049,2050,2052,1194
397,1716347434486803102,2052,2045,2037,2045,2062,2058,1197
398,1716347434496806573,2055,2056,2048,2049,2057,2050,1196
399,1716347434506804442,2056,2052,2064,2057,2050,2056,1196
400,1716347434516814386,2058,2060,2051,2043,2042,2053,1195
401,1716347434526805222,2058,2051,2056,2064,2050,2061,1196
402,1716347434536810796,2056,2062,2058,2063,2045,2051,1195
403,1716347434546806152,2053,2049,2054,2043,2052,2053,1196
404,1716347434556811104,2061,2067,2104,2058,2044,2053,1196
405,1716347434566809566,2054,2049,2051,2056,2053,2056,1196
406,1716347434576814219,2056,2059,2057,2064,2050,2049,1197
407,1716347434586811237,2053,2041,2047,2056,2052,2056,1196
408,1716347434596814197,2053,2052,2047,2050,2045,2047,1190
409,1716347434606796496,2053,2049,2060,2056,2057,2058,1196
410,1716347434616826528,2056,2056,2044,2045,2040,2052,1195
411,1716347434626801914,2054,2046,2049,2043,2043,2052,1195
412,1716347434636815715,2055,2062,2049,2045,2056,2053,1195
413,1716347434646802874,2057,2064,2094,2068,2058,2060,1193
414,1716347434656802898,2052,2056,2052,2040,2030,2048,1198
415,1716347434666798213,2053,2046,2048,2031,2041,2053,1196
416,1716347434676812453,2060,2067,2052,2068,2074,2053,1194
417,1716347434686848567,2056,2049,2052,2064,2060,2055,1194
418,1716347434696803204,2056,2061,2067,2054,2097,2047,1193
419,1716347434706799050,2056,2052,2064,2068,2050,2053,1196
420,1716347434716810085,2057,2053,2046,2049,2053,2052,1195
421,1716347434726801783,2056,2056,2088,2056,2056,2053,1196
422,1716347434736802959,2054,2054,2041,2056,2061,2052,1196
423,1716347434746798996,2052,2052,2050,2051,2050,2057,1196
424,1716347434756805541,2057,2056,2042,2063,2071,2049,1198
425,1716347434766802570,2053,2053,2079,2067,2066,2053,1196
426,1716347434776804838,2059,2069,2064,2052,2029,2051,1196
427,1716347434786799742,2050,2047,2056,2034,2042,2050,1196
428,1716347434796802271,2052,2061,2069,2017,2051,2052,1196
429,1716347434806796313,2054,2054,2069,2037,2048,2056,1197
430,1716347434816816075,2054,2062,2058,2050,2051,2052,1196
431,1716347434826801020,2056,2046,2049,2049,2078,2053,1197
432,1716347434836801896,2052,2056,2054,2061,2072,2053,1196
433,1716347434846766412,2059,2052,2061,2063,2044,2049,1196
434,1716347434856801953,2052,2056,2040,2056,2050,2050,1196
435,1716347434866798491,2055,2052,2052,2065,2056,2056,1197
436,1716347434876804065,2052,2052,2041,2062,2053,2052,1194
437,1716347434886799430,2057,2047,2050,2058,2047,2056,1196
438,1716347434896803453,2056,2061,2058,2050,2044,2054,1198
439,1716347434906799318,2051,2046,2057,2065,2064,2056,1196
440,1716347434916802118,2062,2060,2064,2053,2047,2051,1197
441,1716347434926814515,2052,2046,2042,2045,2049,2056,1196
442,1716347434936800532,2051,2060,2057,2061,2052,2047,1194
443,1716347434946802670,2061,2057,2062,2065,2059,2060,1196
444,1716347434956802834,2057,2057,2052,2056,2053,2049,1196
445,1716347434966799652,2057,2049,2057,2051,2040,2053,1196
446,1716347434976804485,2055,2058,2050,2041,2053,2052,1195
447,1716347434986805311,2057,2050,2054,2040,2032,2056,1197
448,1716347434996817568,2052,2056,2050,2057,2065,2053,1194
449,1716347435006800038,2057,2048,2058,2065,2061,2052,1193
450,1716347435016807126,2058,2058,2051,2053,2066,2049,1194
451,1716347435026798483,2054,2048,2056,2064,2048,2057,1196
452,1716347435036803817,2060,2065,2060,2065,2069,2056,1196
453,1716347435046801597,2063,2064,2108,2056,2060,2056,1196
454,1716347435056805308,2056,2052,2046,2044,2047,2053,1196
455,1716347435066801745,2057,2052,2043,2066,2060,2056,1195
456,1716347435076805186,2056,2060,2064,2049,2057,2054,1194
457,1716347435086800570,2059,2052,2062,2051,2040,2058,1197
458,1716347435096802017,2056,2052,2036,2065,2072,2052,1197
459,1716347435106797813,2057,2059,2076,2074,2043,2057,1197
460,1716347435116806243,2051,2056,2052,2053,2058,2051,1196
461,1716347435126798984,2054,2043,2048,2060,2057,2061,1196
462,1716347435136808395,2057,2057,2049,2070,2048,2059,1197
463,1716347435146797007,2051,2046,2046,2066,2049,2047,1197
464,1716347435156805087,2054,2050,2045,2050,2048,2050,1197
465,1716347435166798117,2055,2051,2046,2066,2067,2058,1196
466,1716347435176803311,2055,2066,2053,2040,2052,2045,1194
467,1716347435186799138,2056,2050,2050,2060,2072,2057,1196
468,1716347435196804691,2058,2061,2053,2058,2046,2057,1194
469,1716347435206799416,2054,2055,2056,2066,2053,2056,1196
470,1716347435216802154,2056,2057,2051,2054,2053,2052,1197
471,1716347435226797770,2059,2054,2076,2056,2057,2055,1195
472,1716347435236802173,2056,2054,2036,2056,2050,2047,1194
473,1716347435246796345,2052,2047,2051,2028,2049,2052,1195
474,1716347435256803553,2057,2061,2059,2048,2060,2048,1196
475,1716347435266797516,2052,2046,2048,2069,2067,2060,1197
476,1716347435276797659,2050,2064,2050,2047,2028,2044,1194
477,1716347435286796050,2051,2048,2052,2053,2050,2048,1196
478,1716347435296802647,2058,2046,2031,2059,2057,2053,1196
479,1716347435306797581,2049,2044,2056,2056,2053,2056,1196
480,1716347435316801984,2056,2069,2089,2064,2053,2048,1196
481,1716347435326798761,2056,2048,2052,2070,2053,2052,1196
482,1716347435336842319,2053,2066,2036,2064,2052,2054,1195
483,1716347435346794050,2054,2055,2067,2079,2102,2057,1196
484,1716347435356797099,2054,2064,2060,2053,2058,2052,1195
485,1716347435366790641,2056,2057,2068,2058,2050,2055,1196
486,1716347435376742413,2064,2062,2059,2074,2096,2060,1195
487,1716347435386787513,2058,2052,2081,2061,2064,2056,1193
488,1716347435396742871,2054,2053,2040,2038,2050,2049,1194
489,1716347435406789495,2050,2052,2052,2062,2037,2048,1196
490,1716347435416797093,2055,2061,2052,2052,2044,2047,1193
491,1716347435426789834,2050,2045,2046,2048,2054,2052,1194
492,1716347435436742696,2053,2061,2056,2047,2048,2054,1193
493,1716347435446788649,2054,2047,2053,2060,2058,2056,1194
494,1716347435456795897,2058,2061,2060,2044,2052,2053,1195
495,1716347435466786633,2052,2045,2052,2057,2056,2053,1196
496,1716347435476752090,2056,2066,2089,2040,2037,2043,1194
497,1716347435486788043,2053,2049,2060,2069,2076,2056,1196
498,1716347435496741387,2056,2056,2046,2051,2048,2045,1192
499,1716347435506789394,2052,2030,2040,2060,2059,2057,1196
500,1716347435516742207,2052,2044,2037,2044,2045,2050,1197
501,1716347435526788680,2051,2052,2057,2056,2052,2054,1193
502,1716347435536742556,2052,2058,2052,2065,2076,2052,1195
503,1716347435546799849,2053,2050,2067,2057,2053,2057,1196
504,1716347435556742984,2056,2058,2065,2072,2069,2052,1198
505,1716347435566789898,2056,2044,2036,2047,2056,2057,1196
506,1716347435576742140,2056,2053,2033,2058,2049,2046,1194
507,1716347435586829032,2050,2041,2040,2069,2064,2053,1195
508,1716347435596745103,2056,2063,2052,2055,2054,2050,1195
509,1716347435606794262,2056,2052,2062,2053,2052,2057,1196
510,1716347435616803534,2056,2056,2051,2050,2042,2047,1193
511,1716347435626795662,2056,2049,2047,2047,2034,2052,1193
512,1716347435636799113,2057,2056,2057,2066,2053,2049,1195
513,1716347435646796132,2052,2050,2056,2066,2044,2057,1197
514,1716347435656796646,2057,2068,2082,2066,2050,2048,1195
515,1716347435666796480,2058,2050,2043,2059,2062,2056,1196
516,1716347435676801122,2057,2058,2040,2053,2047,2049,1196
517,1716347435686798692,2057,2054,2044,2075,2066,2057,1195
518,1716347435696803426,2056,2057,2072,2046,2069,2047,1194
519,1716347435706799491,2051,2047,2044,2054,2048,2059,1196
520,1716347435716805066,2059,2056,2028,2057,2043,2050,1194
521,1716347435726802035,2057,2059,2094,2060,2056,2056,1195
522,1716347435736805014,2060,2056,2051,2056,2058,2053,1197
523,1716347435746802163,2058,2049,2056,2029,2052,2054,1197
524,1716347435756811344,2053,2056,2053,2045,2050,2044,1194
525,1716347435766802701,2053,2045,2050,2057,2038,2051,1196
526,1716347435776743011,2053,2058,2048,2047,2048,2046,1192
527,1716347435786753875,2058,2056,2085,2064,2064,2056,1197
528,1716347435796814676,2057,2060,2036,2061,2049,2054,1195
529,1716347435806789702,2053,2043,2035,2068,2066,2056,1196
530,1716347435816817399,2050,2060,2056,2042,2053,2050,1196
531,1716347435826784760,2057,2052,2072,2058,2063,2056,1195
532,1716347435836743014,2053,2055,2046,2053,2052,2051,1194
533,1716347435846786952,2058,2052,2068,2061,2045,2052,1196
534,1716347435856743212,2058,2059,2082,2058,2049,2051,1197
535,1716347435866795747,2056,2052,2060,2050,2053,2054,1196
536,1716347435876743641,2057,2060,2044,2054,2044,2052,1197
537,1716347435886783031,2058,2064,2092,2046,2043,2056,1197
538,1716347435896796931,2056,2065,2067,2056,2053,2051,1196
539,1716347435906788709,2056,2056,2042,2059,2047,2058,1197
540,1716347435916822899,2056,2056,2037,2052,2052,2051,1196
541,1716347435926783777,2057,2047,2053,2068,2054,2056,1197
542,1716347435936741881,2052,2055,2047,2048,2045,2051,1195
543,1716347435946790919,2052,2057,2050,2061,2053,2054,1196
544,1716347435956742911,2053,2060,2069,2054,2052,2052,1198
545,1716347435966820143,2054,2049,2057,2062,2056,2054,1198
546,1716347435976743469,2056,2060,2075,2056,2049,2052,1197
547,1716347435986786867,2057,2049,2057,2061,2076,2062,1198
548,1716347435996746784,2060,2067,2040,2052,2084,2052,1192
549,1716347436006788648,2056,2057,2068,2089,2086,2060,1197
550,1716347436016745509,2056,2058,2050,2052,2051,2052,1196
551,1716347436026792955,2059,2053,2069,2056,2056,2056,1196
552,1716347436036744575,2052,2062,2058,2038,2047,2051,1196
553,1716347436046790878,2056,2046,2042,2060,2053,2056,1196
554,1716347436056743301,2056,2056,2050,2066,2056,2051,1196
555,1716347436066834209,2052,2041,2053,2058,2055,2057,1196
556,1716347436076798184,2056,2057,2056,2050,2044,2052,1196
557,1716347436086794081,2056,2051,2076,2028,2047,2049,1196
558,1716347436096795687,2060,2070,2112,2082,2050,2048,1195
559,1716347436106791433,2056,2048,2035,2065,2068,2056,1196
560,1716347436116807228,2053,2064,2077,2063,2069,2054,1196
561,1716347436126789657,2058,2061,2064,2063,2053,2056,1197
562,1716347436136751308,2057,2068,2093,2061,2062,2052,1197
563,1716347436146798082,2052,2046,2050,2056,2053,2052,1196
564,1716347436156796983,2061,2064,2052,2056,2049,2050,1198
565,1716347436166805644,2052,2044,2043,2056,2056,2052,1197
566,1716347436176744732,2053,2053,2049,2043,2052,2056,1195
567,1716347436186796454,2051,2045,2046,2070,2050,2052,1197
568,1716347436196807981,2056,2049,2029,2072,2070,2048,1193
569,1716347436206794929,2054,2045,2049,2056,2055,2054,1195
570,1716347436216797518,2062,2062,2056,2055,2056,2053,1196
571,1716347436226791812,2054,2058,2056,2064,2060,2058,1196
572,1716347436236743413,2051,2052,2038,2050,2056,2052,1196
573,1716347436246794935,2057,2051,2052,2061,2049,2053,1196
574,1716347436256744502,2056,2060,2040,2042,2049,2051,1196
575,1716347436266790815,2052,2052,2071,2052,2041,2048,1195
576,1716347436276743648,2059,2066,2042,2058,2056,2053,1194
577,1716347436286813297,2052,2048,2052,2051,2048,2053,1195
578,1716347436296801277,2054,2073,2061,2046,2048,2049,1195
579,1716347436306790631,2059,2060,2072,2038,2036,2051,1197
580,1716347436316743564,2053,2052,2042,2041,2046,2050,1195
581,1716347436326796270,2056,2052,2056,2076,2104,2058,1196
582,1716347436336741598,2056,2052,2039,2037,2056,2051,1194
583,1716347436346791298,2062,2052,2056,2028,2047,2057,1194
584,1716347436356743339,2057,2060,2053,2065,2070,2052,1194
585,1716347436366806775,2056,2056,2070,2062,2052,2058,1197
586,1716347436376754369,2052,2052,2040,2052,2049,2051,1196
587,1716347436386791183,2054,2046,2053,2056,2053,2052,1196
588,1716347436396744127,2054,2054,2051,2059,2056,2055,1194
589,1716347436406788516,2058,2056,2050,2053,2069,2065,1197
590,1716347436416744595,2057,2059,2043,2067,2054,2049,1194
591,1716347436426791440,2054,2054,2066,2062,2045,2050,1197
592,1716347436436742480,2058,2050,2041,2056,2052,2047,1193
593,1716347436446795956,2058,2059,2062,2064,2058,2059,1197
594,1716347436456798906,2060,2088,2100,2056,2053,2051,1195
595,1716347436466806375,2058,2052,2052,2057,2053,2056,1194
596,1716347436476802460,2054,2056,2056,2053,2044,2052,1196
597,1716347436486793417,2060,2072,2101,2069,2053,2054,1194
598,1716347436496797660,2056,2052,2044,2041,2080,2052,1196
599,1716347436506794437,2056,2049,2058,2069,2049,2054,1196
600,1716347436516796685,2061,2076,2077,2052,2052,2047,1194
601,1716347436526796008,2049,2046,2048,2072,2106,2061,1196
602,1716347436536801783,2051,2052,2045,2052,2054,2052,1195
603,1716347436546799693,2054,2044,2055,2065,2051,2050,1193
604,1716347436556802503,2051,2058,2054,2051,2042,2049,1195
605,1716347436566814018,2056,2051,2056,2057,2053,2056,1197
606,1716347436576805296,2051,2057,2057,2066,2058,2053,1197
607,1716347436586799990,2057,2064,2077,2056,2044,2054,1197
608,1716347436596813188,2051,2053,2046,2056,2046,2050,1194
609,1716347436606787563,2053,2055,2076,2044,2048,2056,1195
610,1716347436616743333,2054,2056,2056,2061,2048,2050,1195
611,1716347436626788843,2060,2053,2062,2068,2064,2066,1196
612,1716347436636742519,2056,2056,2050,2056,2061,2056,1196
613,1716347436646790295,2056,2046,2048,2040,2053,2056,1196
614,1716347436656742536,2057,2071,2056,2066,2076,2057,1197
615,1716347436666806814,2050,2050,2076,2048,2060,2054,1195
616,1716347436676743577,2056,2061,2050,2046,2072,2058,1195
617,1716347436686788717,2050,2047,2056,2069,2064,2056,1196
618,1716347436696743695,2057,2059,2042,2061,2056,2056,1195
619,1716347436706805207,2052,2044,2051,2052,2056,2056,1195
620,1716347436716744654,2056,2060,2076,2051,2073,2048,1195
621,1716347436726788623,2056,2052,2022,2059,2049,2057,1195
622,1716347436736743511,2054,2052,2039,2054,2040,2050,1197
623,1716347436746791947,2060,2086,2112,2070,2062,2055,1196
624,1716347436756744129,2057,2059,2064,2072,2074,2054,1196
625,1716347436766801193,2054,2047,2056,2062,2052,2055,1196
626,1716347436776743826,2052,2058,2042,2059,2050,2049,1196
627,1716347436786786944,2053,2050,2057,2051,2050,2054,1197
628,1716347436796744045,2052,2057,2068,2065,2052,2050,1195
629,1716347436806785899,2054,2042,2061,2056,2051,2055,1194
630,1716347436816741308,2050,2054,2031,2044,2044,2049,1197
631,1716347436826789865,2056,2047,2057,2059,2057,2056,1195
632,1716347436836744121,2055,2052,2044,2052,2049,2050,1196
633,1716347436846790384,2053,2048,2052,2065,2080,2060,1194
634,1716347436856742636,2053,2062,2044,2064,2047,2049,1193
635,1716347436866798547,2058,2047,2038,2062,2056,2061,1195
636,1716347436876741592,2054,2066,2057,2052,2084,2051,1195
637,1716347436886788777,2056,2044,2030,2046,2056,2058,1195
638,1716347436896744044,2056,2054,2024,2056,2052,2049,1197
639,1716347436906790077,2053,2050,2061,2056,2049,2053,1195
640,1716347436916741358,2056,2065,2083,2050,2040,2052,1196
641,1716347436926789504,2058,2052,2074,2054,2036,2050,1196
642,1716347436936744040,2059,2056,2045,2045,2046,2051,1195
643,1716347436946787307,2055,2050,2064,2057,2056,2054,1196
644,1716347436956741393,2053,2075,2061,2046,2038,2046,1195
645,1716347436966797956,2060,2063,2059,2053,2034,2054,1197
646,1716347436976742033,2054,2050,2043,2041,2045,2043,1194
647,1716347436986791000,2056,2047,2054,2026,2049,2053,1196
648,1716347436996812606,2053,2053,2048,2045,2050,2054,1194
649,1716347437006795928,2050,2050,2046,2054,2053,2054,1196
650,1716347437016743932,2053,2054,2040,2056,2050,2057,1196
651,1716347437026789824,2049,2046,2050,2049,2064,2054,1196
652,1716347437036742788,2056,2058,2050,2068,2089,2056,1196
653,1716347437046788579,2054,2056,2065,2060,2048,2056,1196
654,1716347437056795828,2056,2064,2050,2056,2044,2047,1193
655,1716347437066800210,2053,2046,2056,2043,2051,2052,1194
656,1716347437076743224,2056,2049,2042,2074,2056,2051,1197
657,1716347437086788175,2056,2053,2069,2066,2080,2056,1195
658,1716347437096743473,2056,2056,2048,2051,2056,2050,1195
659,1716347437106787802,2052,2049,2067,2056,2060,2056,1196
660,1716347437116742729,2052,2058,2055,2056,2047,2050,1197
661,1716347437126787249,2054,2057,2049,2063,2054,2056,1194
662,1716347437136743008,2058,2064,2061,2029,2056,2049,1195
663,1716347437146787497,2052,2047,2049,2041,2064,2053,1195
664,1716347437156742876,2060,2059,2072,2054,2052,2051,1197
665,1716347437166789289,2054,2048,2050,2065,2056,2055,1195
666,1716347437176742513,2053,2054,2052,2061,2051,2058,1196
667,1716347437186787834,2057,2061,2083,2080,2096,2057,1196
668,1716347437196743182,2053,2054,2047,2064,2051,2050,1194
669,1716347437206786800,2052,2036,2050,2061,2057,2055,1196
670,1716347437216742429,2056,2056,2075,2053,2044,2056,1195
671,1716347437226790756,2056,2047,2053,2057,2059,2058,1195
672,1716347437236743208,2059,2068,2087,2063,2060,2054,1196
673,1716347437246786816,2056,2043,2038,2059,2054,2059,1195
674,1716347437256742836,2057,2061,2054,2058,2053,2052,1196
675,1716347437266811302,2056,2047,2044,2053,2052,2057,1194
676,1716347437276742392,2060,2084,2082,2077,2064,2052,1198
677,1716347437286786541,2060,2056,2056,2059,2055,2053,1196
678,1716347437296742732,2056,2066,2083,2056,2049,2050,1196
679,1716347437306786359,2055,2050,2058,2052,2053,2056,1198
680,1716347437316741727,2054,2061,2084,2060,2064,2054,1198
681,1716347437326799342,2052,2046,2049,2043,2044,2056,1196
682,1716347437336746965,2053,2049,2046,2072,2050,2050,1197
683,1716347437346787948,2054,2053,2081,2061,2056,2056,1195
684,1716347437356744058,2053,2054,2042,2057,2074,2052,1197
685,1716347437366796272,2057,2064,2025,2056,2058,2056,1196
686,1716347437376742883,2063,2075,2068,2066,2071,2052,1196
687,1716347437386752636,2051,2048,2058,2045,2053,2053,1195
688,1716347437396743112,2058,2048,2039,2052,2050,2051,1196
689,1716347437406789164,2056,2053,2059,2062,2054,2060,1197
690,1716347437416742509,2056,2052,2025,2051,2060,2050,1195
691,1716347437426786648,2055,2046,2052,2052,2054,2053,1197
692,1716347437436752405,2052,2062,2052,2056,2051,2048,1197
693,1716347437446788840,2054,2050,2058,2060,2056,2054,1196
694,1716347437456742515,2052,2061,2095,2050,2045,2046,1193
695,1716347437466785782,2055,2062,2081,2067,2056,2056,1196
696,1716347437476742192,2056,2062,2050,2056,2046,2050,1194
697,1716347437486786892,2056,2047,2053,2054,2050,2052,1195
698,1716347437496743483,2056,2056,2038,2047,2047,2050,1195
699,1716347437506788282,2061,2049,2040,2057,2049,2056,1196
700,1716347437516741417,2054,2050,2053,2064,2074,2054,1195
701,1716347437526789934,2052,2045,2048,2064,2052,2056,1197
702,1716347437536742556,2057,2056,2049,2057,2049,2051,1196
703,1716347437546790543,2052,2057,2073,2068,2040,2052,1197
704,1716347437556742936,2056,2054,2043,2061,2056,2052,1194
705,1716347437566791522,2055,2047,2053,2061,2053,2056,1195
706,1716347437576741781,2056,2052,2040,2053,2048,2056,1194
707,1716347437586793585,2054,2052,2072,2052,2044,2051,1196
708,1716347437596796664,2053,2054,2050,2042,2052,2046,1189
709,1716347437606794364,2052,2049,2058,2048,2031,2053,1194
710,1716347437616797013,2053,2050,2051,2040,2039,2052,1195
711,1716347437626795775,2058,2057,2081,2054,2052,2054,1195
712,1716347437636807621,2056,2050,2036,2054,2052,2056,1196
713,1716347437646797346,2054,2050,2044,2053,2047,2054,1194
714,1716347437656806698,2057,2064,2037,2053,2054,2056,1197
715,1716347437666798506,2054,2045,2045,2056,2054,2056,1197
716,1716347437676809341,2057,2049,2056,2056,2056,2049,1195
717,1716347437686812331,2052,2049,2046,2060,2062,2056,1196
718,1716347437696818045,2050,2046,2031,1993,2040,2048,1197
719,1716347437706785958,2054,2042,2035,2053,2044,2052,1196
720,1716347437716795951,2052,2047,2033,2063,2049,2052,1197
721,1716347437726787038,2058,2058,2060,2068,2074,2059,1195
722,1716347437736797512,2052,2053,2056,2056,2051,2057,1194
723,1716347437746787477,2056,2050,2059,2047,2049,2056,1196
724,1716347437756742294,2053,2029,2048,2051,2048,2051,1197
725,1716347437766785921,2056,2044,2049,2066,2056,2054,1196
726,1716347437776742773,2052,2052,2054,2047,2044,2053,1196
727,1716347437786788265,2054,2050,2046,2060,2056,2058,1195
728,1716347437796743362,2056,2057,2054,2052,2053,2052,1192
729,1716347437806789044,2057,2055,2056,2050,2054,2057,1196
730,1716347437816742549,2050,2053,2047,2052,2047,2049,1199
731,1716347437826789803,2056,2053,2045,2052,2052,2060,1196
732,1716347437836741504,2054,2056,2053,2052,2056,2050,1197
733,1716347437846785734,2058,2050,2068,2058,2056,2056,1196
734,1716347437856742665,2058,2056,2056,2052,2048,2048,1196
735,1716347437866785771,2064,2068,2049,2055,2056,2056,1196
736,1716347437876742091,2061,2057,2052,2051,2049,2054,1197
737,1716347437886785509,2054,2049,2056,2066,2081,2060,1195
738,1716347437896741578,2057,2054,2044,2056,2045,2047,1193
739,1716347437906787000,2053,2047,2045,2056,2050,2054,1198
740,1716347437916742088,2056,2066,2098,2052,2056,2052,1196
741,1716347437926785164,2056,2060,2087,2063,2061,2056,1196
742,1716347437936742175,2053,2058,2056,2054,2045,2049,1197
743,1716347437946787126,2058,2071,2056,2072,2067,2057,1195
744,1716347437956742734,2059,2065,2056,2053,2059,2053,1198
745,1716347437966787735,2052,2044,2044,2056,2052,2057,1198
746,1716347437976822145,2056,2055,2050,2045,2059,2051,1196
747,1716347437986786861,2053,2052,2064,2047,2056,2060,1195
748,1716347437996742430,2059,2056,2046,2061,2044,2049,1192
749,1716347438006785016,2057,2049,2054,2056,2051,2056,1197
750,1716347438016742368,2052,2051,2047,2046,2036,2052,1195
751,1716347438026786146,2056,2044,2056,2052,2050,2052,1196
752,1716347438036742095,2052,2052,2050,2037,2049,2051,1194
753,1716347438046785062,2057,2050,2071,2061,2053,2053,1195
754,1716347438056742605,2053,2051,2040,2049,2036,2044,1192
755,1716347438066786502,2052,2052,2066,2056,2049,2058,1198
756,1716347438076741801,2056,2057,2041,2038,2048,2049,1196
757,1716347438086786561,2054,2046,2045,2045,2049,2054,1197
758,1716347438096742480,2053,2058,2063,2057,2044,2050,1196
759,1716347438106786328,2056,2048,2056,2052,2050,2057,1195
760,1716347438116741947,2057,2074,2053,2047,2052,2056,1198
761,1716347438126796687,2061,2056,2062,2056,2053,2056,1197
762,1716347438136802782,2057,2056,2052,2053,2050,2047,1195
763,1716347438146791384,2053,2052,2064,2052,2053,2053,1196
764,1716347438156796989,2056,2058,2048,2047,2042,2048,1197
765,1716347438166792755,2056,2053,2062,2041,2047,2055,1198
766,1716347438176742683,2052,2054,2049,2059,2043,2049,1197
767,1716347438186787603,2053,2050,2064,2065,2054,2056,1197
768,1716347438196743964,2055,2059,2061,2056,2050,2051,1196
769,1716347438206786760,2057,2049,2053,2056,2046,2057,1196
770,1716347438216741927,2055,2050,2042,2050,2041,2045,1192
771,1716347438226785055,2059,2058,2103,2065,2065,2060,1197
772,1716347438236741435,2053,2053,2026,2044,2036,2049,1196
773,1716347438246785984,2056,2048,2041,2060,2073,2059,1196
774,1716347438256742705,2056,2059,2049,2056,2054,2052,1196
775,1716347438266785151,2053,2045,2049,2057,2045,2053,1194
776,1716347438276742503,2057,2070,2079,2065,2053,2056,1197
777,1716347438286787112,2052,2033,2026,2053,2052,2055,1197
778,1716347438296742731,2052,2045,2048,2049,2050,2056,1197
779,1716347438306786319,2054,2048,2061,2058,2048,2059,1196
780,1716347438316742548,2054,2054,2054,2049,2056,2052,1197
781,1716347438326789643,2050,2050,2050,2058,2068,2057,1195
782,1716347438336744531,2053,2049,2056,2056,2049,2047,1192
783,1716347438346789291,2056,2048,2054,2059,2054,2054,1194
784,1716347438356744689,2057,2056,2030,2041,2040,2057,1196
785,1716347438366792485,2052,2052,2078,2063,2052,2054,1195
786,1716347438376744076,2052,2055,2060,2062,2050,2050,1196
787,1716347438386790780,2056,2053,2050,2056,2050,2058,1195
788,1716347438396743072,2058,2055,2053,2046,2050,2054,1194
789,1716347438406794655,2060,2080,2066,2025,2059,2065,1197
790,1716347438416803437,2056,2053,2056,2054,2042,2051,1198
791,1716347438426796016,2058,2049,2053,2059,2050,2058,1196
792,1716347438436808093,2058,2056,2035,2052,2054,2052,1197
793,1716347438446797196,2062,2074,2116,2064,2062,2058,1196
794,1716347438456823371,2053,2052,2056,2053,2052,2047,1192
795,1716347438466798847,2052,2050,2044,2052,2043,2053,1195
796,1716347438476805043,2056,2056,2050,2057,2069,2057,1197
797,1716347438486799617,2056,2049,2041,2052,2045,2054,1196
798,1716347438496804701,2060,2053,2028,2044,2048,2054,1196
799,1716347438506805737,2056,2070,2068,2058,2057,2055,1196
800,1716347438516813235,2058,2061,2079,2049,2042,2051,1194
801,1716347438526803281,2052,2046,2044,2056,2054,2059,1198
802,1716347438536805678,2052,2048,2026,2055,2049,2052,1194
803,1716347438546803959,2051,2056,2047,2066,2067,2056,1196
804,1716347438556822439,2053,2056,2041,2055,2052,2055,1198
805,1716347438566789731,2049,2027,2054,2064,2063,2054,1196
806,1716347438576744126,2052,2048,2050,2052,2047,2050,1196
807,1716347438586791181,2054,2049,2050,2049,2050,2056,1196
808,1716347438596743584,2049,2050,2041,2046,2061,2052,1195
809,1716347438606792171,2059,2067,2057,2063,2047,2056,1196
810,1716347438616744603,2053,2046,2028,2062,2041,2048,1194
811,1716347438626791127,2051,2046,2044,2058,2053,2054,1198
812,1716347438636743710,2055,2056,2054,2057,2056,2050,1196
813,1716347438646792618,2056,2048,2060,2054,2084,2060,1196
814,1716347438656809725,2053,2051,2054,2056,2053,2053,1196
815,1716347438666797816,2051,2047,2053,2060,2052,2057,1197
816,1716347438676742685,2054,2050,2042,2053,2052,2052,1198
817,1716347438686789237,2053,2048,2047,2058,2042,2056,1197
818,1716347438696744085,2054,2049,2036,2041,2041,2048,1197
819,1716347438706787603,2056,2052,2051,2042,2032,2059,1197
820,1716347438716743571,2051,2053,2045,2047,2042,2053,1196
821,1716347438726788843,2058,2057,2062,2052,2048,2056,1195
822,1716347438736744271,2054,2052,2058,2050,2049,2052,1195
823,1716347438746782750,2057,2049,2049,2053,2053,2053,1197
824,1716347438756810075,2056,2048,2063,2064,2041,2046,1195
825,1716347438766789961,2053,2052,2054,2056,2051,2056,1194
826,1716347438776744388,2054,2056,2064,2065,2065,2052,1196
827,1716347438786787766,2050,2051,2055,2038,2049,2052,1196
828,1716347438796743313,2049,2045,2034,2052,2045,2052,1194
829,1716347438806789216,2056,2049,2058,2058,2065,2056,1196
830,1716347438816743222,2053,2053,2073,2056,2058,2051,1195
831,1716347438826788372,2051,2025,2036,2056,2046,2056,1196
832,1716347438836744191,2053,2047,2048,2069,2074,2056,1196
833,1716347438846789843,2052,2049,2052,2064,2051,2053,1197
834,1716347438856843300,2053,2064,2076,2064,2075,2056,1195
835,1716347438866789460,2054,2047,2040,2056,2053,2056,1195
836,1716347438876744708,2055,2056,2040,2047,2052,2056,1197
837,1716347438886792885,2058,2052,2041,2065,2047,2056,1195
838,1716347438896743605,2056,2054,2045,2058,2056,2050,1196
839,1716347438906793133,2056,2048,2051,2053,2056,2054,1194
840,1716347438916743873,2056,2056,2049,2056,2060,2052,1197
841,1716347438926755961,2059,2072,2062,2054,2049,2056,1198
842,1716347438936743249,2062,2056,2056,2054,2054,2047,1193
843,1716347438946778732,2053,2048,2060,2056,2050,2060,1196
844,1716347438956745663,2053,2052,2043,2061,2054,2050,1196
845,1716347438966787207,2058,2057,2048,2064,2045,2056,1196
846,1716347438976743135,2055,2062,2046,2056,2052,2051,1194
847,1716347438986786583,2053,2051,2065,2050,2042,2053,1197
848,1716347438996819401,2053,2053,2033,2056,2049,2050,1193
849,1716347439006786531,2052,2049,2058,2054,2045,2053,1194
850,1716347439016743112,2057,2061,2042,2056,2056,2052,1195
851,1716347439026785598,2062,2073,2043,2059,2070,2054,1195
852,1716347439036823735,2056,2057,2044,2047,2062,2053,1198
853,1716347439046788141,2057,2058,2083,2057,2060,2061,1195
854,1716347439056813092,2060,2052,2050,2056,2053,2051,1196
855,1716347439066796064,2053,2052,2055,2064,2068,2056,1195
856,1716347439076743006,2051,2052,2051,2056,2052,2052,1196
857,1716347439086787857,2056,2052,2044,2045,2066,2060,1197
858,1716347439096747573,2056,2058,2058,2058,2075,2052,1196
859,1716347439106797603,2056,2052,2051,2060,2065,2058,1198
860,1716347439116799361,2057,2053,2045,2044,2047,2051,1195
861,1716347439126793714,2054,2056,2080,2058,2052,2056,1196
862,1716347439136744653,2054,2050,2044,2045,2047,2052,1196
863,1716347439146790496,2057,2063,2063,2064,2054,2057,1194
864,1716347439156817422,2053,2053,2060,2061,2052,2052,1196
865,1716347439166789562,2056,2049,2057,2059,2056,2051,1195
866,1716347439176745431,2056,2052,2052,2057,2057,2052,1197
867,1716347439186790281,2053,2057,2059,2056,2061,2056,1197
868,1716347439196744999,2058,2047,2053,2037,2053,2052,1195
869,1716347439206788607,2053,2053,2056,2059,2053,2056,1196
870,1716347439216744034,2053,2053,2046,2052,2047,2053,1195
871,1716347439226786801,2056,2046,2044,2059,2060,2056,1196
872,1716347439236744835,2054,2052,2038,2049,2040,2050,1194
873,1716347439246787601,2053,2050,2052,2041,2053,2056,1195
874,1716347439256811310,2058,2056,2050,2061,2056,2052,1196
875,1716347439266788540,2056,2053,2061,2072,2050,2057,1197
876,1716347439276742867,2056,2053,2059,2057,2050,2050,1195
877,1716347439286786676,2054,2050,2047,2056,2052,2056,1195
878,1716347439296743726,2054,2057,2064,2058,2048,2047,1195
879,1716347439306788296,2057,2048,2046,2056,2052,2053,1197
880,1716347439316747793,2056,2061,2066,2056,2050,2049,1195
881,1716347439326790830,2057,2050,2051,2056,2060,2054,1194
882,1716347439336744295,2053,2056,2047,2051,2056,2050,1194
883,1716347439346789154,2056,2054,2057,2057,2048,2059,1195
884,1716347439356744182,2053,2049,2047,2044,2040,2049,1197
885,1716347439366787860,2053,2049,2072,2044,2049,2056,1195
886,1716347439376744341,2051,2052,2040,2032,2043,2045,1193
887,1716347439386793138,2057,2052,2051,2051,2058,2057,1197
888,1716347439396812640,2056,2054,2058,2055,2062,2053,1195
889,1716347439406804218,2050,2044,2052,2056,2045,2049,1194
890,1716347439416744688,2050,2054,2048,2056,2047,2053,1197
891,1716347439426791451,2059,2055,2047,2050,2054,2056,1199
892,1716347439436807165,2054,2057,2051,2056,2050,2052,1194
893,1716347439446787632,2056,2065,2093,2067,2056,2052,1195
894,1716347439456744023,2058,2050,2056,2045,2047,2050,1195
895,1716347439466789203,2054,2057,2078,2072,2053,2052,1195
896,1716347439476744421,2056,2069,2081,2056,2040,2050,1195
897,1716347439486808038,2056,2048,2060,2050,2053,2054,1196
898,1716347439496743718,2055,2052,2052,2053,2054,2052,1194
899,1716347439506792255,2056,2054,2052,2050,2030,2052,1198
900,1716347439516747052,2055,2054,2029,2058,2047,2051,1198
901,1716347439526792815,2053,2041,2042,2059,2049,2050,1196
902,1716347439536797227,2052,2045,2056,2050,2048,2048,1198
903,1716347439546794345,2050,2050,2057,2053,2054,2054,1195
904,1716347439556796944,2052,2048,2054,2045,2061,2048,1197
905,1716347439566795135,2056,2057,2066,2061,2072,2054,1195
906,1716347439576806461,2058,2047,2051,2058,2048,2052,1197
907,1716347439586796025,2054,2060,2053,2060,2052,2055,1194
908,1716347439596807822,2056,2058,2054,2047,2043,2052,1192
909,1716347439606797917,2057,2057,2042,2046,2062,2058,1194
910,1716347439616804203,2054,2047,2026,2052,2053,2050,1195
911,1716347439626804117,2057,2058,2056,2053,2044,2052,1193
912,1716347439636804632,2056,2052,2041,2056,2074,2051,1196
913,1716347439646884099,2053,2052,2057,2051,2047,2054,1193
914,1716347439656795503,2053,2052,2045,2047,2053,2051,1196
915,1716347439666801037,2058,2058,2087,2066,2056,2058,1196
916,1716347439676797995,2051,2043,2050,2053,2052,2046,1193
917,1716347439686785405,2051,2042,2041,2050,2061,2053,1196
918,1716347439696827631,2053,2047,2032,2045,2064,2054,1196
919,1716347439706789001,2055,2051,2034,2057,2050,2056,1196
920,1716347439716823009,2054,2055,2068,2056,2050,2051,1195
921,1716347439726789189,2053,2047,2052,2053,2045,2057,1195
922,1716347439736744176,2053,2055,2057,2052,2045,2048,1198
923,1716347439746793566,2050,2051,2049,2056,2054,2053,1194
924,1716347439756744605,2058,2060,2051,2053,2042,2056,1198
925,1716347439766786550,2056,2054,2057,2054,2058,2057,1196
926,1716347439776743992,2050,2047,2042,2061,2059,2050,1193
927,1716347439786786809,2061,2069,2049,2033,2057,2056,1197
928,1716347439796744411,2061,2056,2060,2053,2053,2056,1193
929,1716347439806790403,2056,2052,2065,2056,2050,2056,1196
930,1716347439816743948,2053,2052,2048,2056,2050,2050,1195
931,1716347439826791023,2060,2056,2066,2057,2044,2061,1195
932,1716347439836805104,2053,2056,2061,2058,2051,2050,1196
933,1716347439846791973,2054,2056,2073,2064,2050,2053,1196
934,1716347439856744145,2054,2056,2052,2049,2044,2052,1195
935,1716347439866787302,2056,2056,2054,2056,2076,2059,1195
936,1716347439876744153,2052,2054,2064,2059,2047,2048,1195
937,1716347439886788963,2053,2053,2060,2057,2052,2053,1196
938,1716347439896746115,2052,2048,2052,2044,2053,2054,1197
939,1716347439906792499,2057,2052,2056,2058,2052,2056,1194
940,1716347439916744830,2057,2057,2067,2056,2050,2052,1196
941,1716347439926789370,2054,2050,2053,2050,2048,2050,1196
942,1716347439936742985,2052,2047,2043,2075,2084,2053,1196
943,1716347439946865044,2057,2050,2060,2056,2047,2056,1193
944,1716347439956741670,2059,2061,2076,2059,2040,2052,1196
945,1716347439966795829,2056,2070,2056,2053,2056,2052,1194
946,1716347439976743032,2058,2062,2070,2058,2046,2053,1197
947,1716347439986799755,2056,2053,2044,2054,2053,2056,1197
948,1716347439996742890,2053,2048,2054,2046,2052,2053,1196
949,1716347440006790154,2056,2048,2038,2057,2054,2053,1197
950,1716347440016744801,2052,2053,2064,2057,2056,2053,1201
951,1716347440026791415,2053,2048,2047,2054,2047,2053,1196
952,1716347440036743778,2049,2030,2037,2064,2100,2064,1197
953,1716347440046864393,2058,2058,2085,2052,2052,2055,1197
954,1716347440056741230,2050,2050,2054,2052,2052,2047,1194
955,1716347440066793696,2057,2054,2051,2063,2055,2056,1197
956,1716347440076745427,2056,2052,2051,2023,2048,2051,1197
957,1716347440086799816,2054,2055,2042,2056,2047,2056,1195
958,1716347440096743461,2052,2050,2032,2068,2068,2053,1195
959,1716347440106784053,2059,2056,2056,2057,2052,2058,1196
960,1716347440116741756,2054,2071,2055,2051,2054,2055,1195
961,1716347440126790013,2059,2052,2061,2053,2057,2053,1194
962,1716347440136741505,2055,2057,2055,2064,2064,2056,1197
963,1716347440146840528,2056,2052,2078,2049,2043,2051,1196
964,1716347440156744648,2052,2056,2052,2052,2051,2053,1195
965,1716347440166798596,2056,2059,2076,2046,2056,2056,1197
966,1716347440176796837,2049,2056,2072,2060,2052,2054,1196
967,1716347440186797172,2056,2058,2074,2058,2056,2056,1196
968,1716347440196745877,2055,2059,2054,2043,2051,2051,1194
969,1716347440206787361,2057,2056,2052,2062,2061,2054,1196
970,1716347440216742128,2052,2053,2049,2060,2052,2050,1194
971,1716347440226787219,2056,2048,2037,2044,2046,2057,1196
972,1716347440236744620,2056,2072,2135,2072,2074,2053,1196
973,1716347440246840539,2051,2051,2033,2050,2062,2053,1197
974,1716347440256745641,2058,2056,2072,2050,2049,2053,1195
975,1716347440266794179,2056,2031,2049,2056,2057,2056,1195
976,1716347440276748425,2054,2047,2054,2056,2053,2053,1196
977,1716347440286788065,2056,2058,2054,2056,2056,2054,1195
978,1716347440296742952,2060,2053,2052,2056,2055,2053,1196
979,1716347440306834753,2056,2053,2054,2041,2049,2056,1195
980,1716347440316745155,2054,2064,2097,2057,2052,2052,1196
981,1716347440326789384,2056,2064,2084,2058,2037,2056,1200
982,1716347440336743800,2052,2045,2030,2038,2042,2053,1197
983,1716347440346790434,2059,2052,2042,2051,2040,2058,1197
984,1716347440356839733,2056,2057,2053,2053,2048,2052,1198
985,1716347440366830600,2066,2056,2052,2052,2051,2055,1195
986,1716347440376743175,2056,2056,2057,2056,2056,2048,1192
987,1716347440386834485,2058,2068,2048,2055,2050,2051,1196
988,1716347440396830471,2056,2053,2043,2051,2052,2051,1194
989,1716347440406832570,2051,2047,2031,2062,2053,2052,1193
990,1716347440416829588,2054,2054,2076,2058,2042,2050,1196
991,1716347440426828439,2060,2060,2064,2041,2053,2058,1197
992,1716347440436830568,2053,2052,2049,2044,2050,2053,1194
993,1716347440446829510,2054,2052,2058,2058,2047,2054,1194
994,1716347440456838883,2057,2058,2098,2058,2053,2058,1196
995,1716347440466829008,2059,2048,2047,2060,2060,2053,1194
996,1716347440476831105,2048,2048,2066,2069,2049,2054,1195
997,1716347440486829346,2053,2051,2056,2061,2062,2051,1196
998,1716347440496745349,2052,2052,2052,2060,2070,2050,1196
999,1716347440506828473,2055,2055,2055,2058,2056,2056,1194
1000,1716347440516797398,2053,2056,2053,2056,2054,2054,1197
1001,1716347440526786360,2055,2047,2040,2056,2057,2054,1194
1002,1716347440536795231,2051,2053,2065,2060,2056,2051,1196
1003,1716347440546787240,2059,2046,2044,2084,2104,2062,1197
1004,1716347440556832401,2053,2042,2040,2046,2047,2052,1197
1005,1716347440566827225,2055,2048,2050,2047,2056,2055,1198
1006,1716347440576797151,2051,2056,2063,2056,2057,2053,1195
1007,1716347440586826933,2054,2053,2050,2056,2056,2052,1197
1008,1716347440596828149,2053,2052,2072,2084,2096,2059,1195
1009,1716347440606827522,2058,2061,2052,2072,2060,2056,1194
1010,1716347440616827365,2056,2052,2049,2052,2052,2052,1195
1011,1716347440626845935,2059,2056,2054,2058,2053,2053,1196
1012,1716347440636826132,2054,2065,2056,2059,2053,2049,1194
1013,1716347440646825314,2059,2052,2043,2042,2051,2053,1193
1014,1716347440656827312,2051,2050,2054,2053,2072,2055,1197
1015,1716347440666824029,2054,2061,2066,2054,2054,2056,1195
1016,1716347440676824354,2053,2047,2049,2048,2055,2055,1196
1017,1716347440686752591,2057,2060,2073,2060,2047,2051,1198
1018,1716347440696823531,2052,2046,2056,2050,2041,2047,1193
1019,1716347440706823946,2056,2064,2090,2047,2056,2056,1194
1020,1716347440716823579,2052,2051,2057,2054,2067,2056,1195
1021,1716347440726822912,2052,2049,2058,2064,2048,2052,1197
1022,1716347440736823548,2054,2052,2050,2052,2059,2048,1196
1023,1716347440746821809,2054,2052,2054,2053,2053,2053,1196
1024,1716347440756832182,2052,2046,2034,2051,2054,2053,1198
1025,1716347440766819762,2055,2057,2048,2052,2051,2050,1196
1026,1716347440776820979,2054,2050,2069,2068,2063,2052,1196
1027,1716347440786820132,2056,2051,2038,2052,2047,2053,1196
1028,1716347440796820076,2056,2064,2095,2057,2054,2056,1193
1029,1716347440806821181,2056,2050,2045,2045,2049,2053,1194
1030,1716347440816819743,2051,2037,2032,2056,2084,2056,1196
1031,1716347440826818825,2056,2057,2057,2054,2055,2050,1194
1032,1716347440836836634,2049,2052,2070,2053,2054,2049,1194
1033,1716347440846818012,2058,2056,2050,2056,2057,2054,1196
1034,1716347440856826762,2052,2056,2061,2072,2040,2049,1195
1035,1716347440866816377,2056,2050,2036,2068,2058,2054,1195
1036,1716347440876818315,2056,2058,2041,2065,2064,2051,1194
1037,1716347440886819391,2056,2053,2044,2049,2057,2056,1196
1038,1716347440896817231,2056,2053,2061,2060,2051,2054,1196
1039,1716347440906819489,2050,2040,2053,2056,2053,2053,1196
1040,1716347440916820105,2051,2043,2043,2058,2060,2054,1197
1041,1716347440926816151,2056,2048,2043,2057,2050,2053,1195
1042,1716347440936818270,2056,2053,2070,2057,2044,2053,1196
1043,1716347440946815849,2060,2058,2082,2068,2045,2056,1197
1044,1716347440956817385,2051,2046,2040,2040,2049,2054,1194
1045,1716347440966814835,2061,2058,2072,2062,2068,2057,1194
1046,1716347440976816202,2052,2057,2062,2059,2062,2056,1197
1047,1716347440986815325,2050,2054,2053,2054,2054,2053,1197
1048,1716347440996823003,2058,2067,2069,2058,2053,2056,1194
1049,1716347441006814070,2056,2056,2053,2053,2050,2053,1196
1050,1716347441016814946,2053,2047,2058,2054,2047,2056,1195
1051,1716347441026811674,2058,2056,2054,2054,2050,2052,1196
1052,1716347441036826336,2051,2048,2045,2049,2042,2056,1195
1053,1716347441046811021,2058,2062,2056,2066,2055,2054,1196
1054,1716347441056813579,2053,2050,2048,2057,2049,2055,1195
1055,1716347441066812842,2056,2076,2048,2046,2049,2053,1195
1056,1716347441076811985,2060,2054,2044,2054,2069,2056,1196
1057,1716347441086811138,2055,2049,2048,2052,2046,2053,1195
1058,1716347441096822854,2056,2049,2053,2056,2053,2053,1194
1059,1716347441106809702,2058,2050,2055,2058,2068,2056,1196
1060,1716347441116813915,2056,2044,2041,2056,2046,2052,1197
1061,1716347441126812697,2057,2057,2040,2052,2046,2052,1197
1062,1716347441136816308,2052,2034,2054,2059,2052,2052,1196
1063,1716347441146811633,2056,2051,2056,2056,2037,2056,1195
1064,1716347441156817188,2051,2047,2053,2046,2049,2048,1197
1065,1716347441166820318,2053,2049,2054,2057,2054,2053,1199
1066,1716347441176813369,2050,2049,2060,2059,2049,2052,1197
1067,1716347441186813263,2060,2061,2057,2060,2067,2057,1197
1068,1716347441196814079,2057,2053,2048,2054,2061,2057,1193
1069,1716347441206815275,2054,2057,2047,2056,2046,2056,1196
1070,1716347441216814287,2059,2040,2053,2053,2049,2052,1196
1071,1716347441226814882,2053,2056,2056,2056,2053,2054,1197
1072,1716347441236817612,2051,2048,2056,2060,2049,2050,1194
1073,1716347441246817676,2058,2057,2066,2053,2056,2053,1196
1074,1716347441256829453,2056,2050,2064,2074,2057,2054,1197
1075,1716347441266818786,2057,2062,2074,2059,2050,2057,1196
1076,1716347441276817838,2057,2059,2052,2053,2052,2054,1196
1077,1716347441286806160,2054,2057,2050,2052,2046,2055,1196
1078,1716347441296808830,2052,2047,2053,2053,2052,2053,1196
1079,1716347441306808213,2060,2078,2063,2050,2062,2053,1198
1080,1716347441316809429,2056,2050,2052,2058,2060,2050,1196
1081,1716347441326804724,2052,2051,2042,2052,2049,2053,1195
1082,1716347441336812012,2052,2056,2058,2052,2052,2055,1196
1083,1716347441346805313,2053,2055,2052,2052,2056,2056,1195
1084,1716347441356809536,2052,2045,2061,2057,2053,2052,1195
1085,1716347441366806364,2060,2061,2067,2069,2056,2054,1198
1086,1716347441376808763,2052,2051,2051,2047,2047,2052,1196
1087,1716347441386804528,2056,2056,2053,2053,2057,2057,1197
1088,1716347441396806757,2054,2052,2060,2058,2053,2048,1195
1089,1716347441406804036,2056,2052,2039,2046,2050,2052,1195
1090,1716347441416808128,2055,2057,2072,2052,2046,2052,1195
1091,1716347441426802982,2056,2028,2045,2064,2080,2057,1195
1092,1716347441436814468,2054,2045,2052,2052,2047,2048,1195
1093,1716347441446798531,2056,2056,2062,2053,2049,2053,1197
1094,1716347441456805179,2059,2051,2047,2065,2100,2056,1197
1095,1716347441466802137,2053,2054,2050,2042,2049,2052,1195
1096,1716347441476805638,2053,2049,2070,2049,2050,2051,1196
1097,1716347441486802426,2058,2056,2064,2053,2043,2054,1197
1098,1716347441496801858,2056,2052,2066,2042,2049,2052,1197
1099,1716347441506799939,2059,2066,2055,2054,2045,2052,1195
1100,1716347441516803220,2051,2050,2057,2052,2053,2053,1195
1101,1716347441526799928,2055,2053,2049,2053,2058,2055,1196
1102,1716347441536806234,2056,2050,2056,2052,2056,2053,1196
1103,1716347441546798964,2058,2057,2061,2060,2057,2051,1196
1104,1716347441556806362,2053,2044,2037,2052,2065,2056,1200
1105,1716347441566802339,2052,2051,2030,2057,2056,2054,1197
1106,1716347441576806170,2052,2049,2047,2066,2059,2057,1196
1107,1716347441586803700,2056,2052,2058,2054,2052,2054,1199
1108,1716347441596809175,2053,2046,2057,2054,2054,2052,1194
1109,1716347441606805100,2057,2049,2056,2050,2056,2056,1197
1110,1716347441616814452,2050,2051,2058,2049,2059,2052,1196
1111,1716347441626803025,2053,2049,2033,2050,2056,2056,1197
1112,1716347441636807708,2056,2056,2051,2056,2065,2058,1197
1113,1716347441646808684,2058,2056,2042,2053,2053,2052,1197
1114,1716347441656810863,2052,2052,2084,2062,2048,2053,1194
1115,1716347441666805586,2056,2052,2049,2056,2056,2054,1195
1116,1716347441676814577,2057,2053,2058,2061,2065,2054,1196
1117,1716347441686814291,2052,2056,2052,2061,2060,2058,1196
1118,1716347441696813484,2054,2053,2072,2032,2046,2056,1196
1119,1716347441706799211,2061,2055,2052,2046,2047,2052,1196
1120,1716347441716823872,2054,2052,2057,2060,2050,2053,1195
1121,1716347441726799960,2058,2053,2028,2044,2049,2050,1196
1122,1716347441736804202,2056,2057,2057,2053,2057,2053,1196
1123,1716347441746799518,2058,2049,2040,2053,2059,2057,1198
1124,1716347441756805954,2052,2051,2056,2057,2056,2053,1198
1125,1716347441766800879,2057,2054,2054,2049,2046,2056,1197
1126,1716347441776804229,2053,2042,2076,2065,2049,2049,1195
1127,1716347441786799203,2056,2044,2057,2058,2051,2054,1196
1128,1716347441796806191,2054,2044,2056,2055,2054,2050,1195
1129,1716347441806800294,2065,2057,2069,2054,2053,2055,1196
1130,1716347441816802753,2054,2044,2048,2049,2041,2050,1197
1131,1716347441826798739,2059,2054,2047,2052,2049,2049,1193
1132,1716347441836803913,2053,2045,2054,2042,2050,2052,1196
1133,1716347441846800350,2056,2060,2045,2056,2057,2052,1195
1134,1716347441856803481,2053,2051,2056,2046,2049,2054,1197
1135,1716347441866800249,2054,2056,2053,2056,2045,2050,1197
1136,1716347441876803259,2055,2051,2049,2058,2044,2053,1195
1137,1716347441886798373,2056,2054,2047,2066,2081,2056,1194
1138,1716347441896804018,2053,2048,2037,2054,2053,2052,1195
1139,1716347441906798702,2052,2035,2043,2064,2064,2056,1196
1140,1716347441916802754,2060,2053,2056,2058,2057,2056,1196
1141,1716347441926797799,2051,2044,2047,2060,2050,2055,1196
1142,1716347441936803544,2056,2052,2040,2065,2074,2061,1194
1143,1716347441946798979,2056,2060,2057,2045,2055,2052,1196
1144,1716347441956803442,2056,2055,2046,2056,2053,2056,1198
1145,1716347441966797825,2056,2061,2058,2058,2050,2052,1198
1146,1716347441976802849,2056,2052,2059,2058,2058,2052,1197
1147,1716347441986799126,2058,2061,2077,2057,2056,2056,1198
1148,1716347441996802526,2060,2045,2048,2060,2052,2052,1196
1149,1716347442006797912,2057,2062,2059,2066,2056,2056,1198
1150,1716347442016803567,2053,2053,2088,2072,2068,2050,1197
1151,1716347442026797720,2056,2057,2068,2057,2048,2052,1197
1152,1716347442036804267,2056,2048,2057,2052,2037,2051,1197
1153,1716347442046798350,2056,2056,2047,2046,2048,2056,1199
1154,1716347442056807311,2053,2049,2053,2054,2051,2057,1195
1155,1716347442066797766,2056,2059,2056,2056,2054,2056,1196
1156,1716347442076802239,2053,2049,2051,2056,2053,2050,1196
1157,1716347442086797494,2053,2050,2041,2052,2048,2056,1194
1158,1716347442096804783,2058,2056,2081,2061,2050,2053,1195
1159,1716347442106808184,2059,2058,2046,2061,2057,2052,1197
1160,1716347442116810102,2057,2049,2052,2040,2048,2050,1195
1161,1716347442126800116,2059,2061,2054,2069,2074,2065,1199
1162,1716347442136803436,2057,2049,2057,2053,2049,2057,1199
1163,1716347442146797098,2058,2055,2046,2054,2049,2051,1196
1164,1716347442156805870,2053,2052,2059,2056,2056,2052,1198
1165,1716347442166807297,2056,2056,2045,2053,2042,2051,1197
1166,1716347442176803374,2056,2047,2041,2052,2042,2051,1197
1167,1716347442186797527,2048,2025,2019,2049,2048,2054,1196
1168,1716347442196803171,2059,2053,2068,2061,2069,2056,1196
1169,1716347442206799217,2053,2050,2041,2056,2058,2057,1197
1170,1716347442216804392,2055,2056,2088,2058,2056,2053,1193
1171,1716347442226797693,2053,2052,2048,2068,2085,2054,1196
1172,1716347442236802657,2054,2069,2131,2064,2059,2060,1195
1173,1716347442246798423,2057,2058,2046,2054,2050,2056,1196
1174,1716347442256803447,2052,2052,2056,2041,2049,2058,1196
1175,1716347442266799813,2060,2060,2050,2042,2042,2050,1196
1176,1716347442276804807,2053,2045,2050,2058,2052,2050,1197
1177,1716347442286800814,2056,2054,2050,2065,2075,2059,1195
1178,1716347442296804696,2055,2071,2064,2053,2060,2053,1197
1179,1716347442306802225,2060,2059,2050,2056,2056,2057,1197
1180,1716347442316805055,2048,2043,2026,2056,2052,2051,1195
1181,1716347442326803076,2057,2064,2065,2061,2054,2052,1195
1182,1716347442336806556,2053,2047,2061,2057,2051,2053,1195
1183,1716347442346804486,2056,2056,2050,2064,2057,2056,1196
1184,1716347442356811885,2053,2047,2047,2045,2044,2052,1196
1185,1716347442366806068,2059,2064,2057,2053,2053,2055,1197
1186,1716347442376813536,2053,2045,2047,2056,2056,2053,1197
1187,1716347442386807419,2053,2048,2032,2061,2052,2055,1195
1188,1716347442396813634,2052,2046,2045,2073,2077,2056,1194
1189,1716347442406810983,2057,2056,2047,2054,2048,2054,1195
1190,1716347442416808593,2055,2047,2061,2051,2045,2052,1195
1191,1716347442426809619,2057,2061,2059,2050,2050,2053,1197
1192,1716347442436813151,2052,2049,2053,2053,2057,2056,1195
1193,1716347442446811792,2056,2056,2053,2045,2052,2054,1196
1194,1716347442456814762,2054,2050,2059,2056,2058,2052,1194
1195,1716347442466798023,2061,2056,2055,2056,2052,2052,1195
1196,1716347442476800382,2053,2030,2053,2053,2051,2049,1195
1197,1716347442486799675,2056,2052,2047,2057,2041,2056,1194
1198,1716347442496804028,2052,2045,2048,2054,2053,2058,1196
1199,1716347442506800586,2057,2061,2058,2050,2046,2053,1198
1200,1716347442516812403,2058,2059,2087,2056,2054,2056,1194
1201,1716347442526790475,2057,2050,2044,2056,2047,2056,1197
1202,1716347442536805126,2054,2052,2067,2058,2037,2054,1195
1203,1716347442546814228,2056,2065,2085,2059,2053,2054,1196
1204,1716347442556805756,2055,2048,2054,2058,2060,2056,1197
1205,1716347442566804067,2056,2055,2045,2055,2051,2053,1196
1206,1716347442576798731,2050,2025,2036,2050,2057,2053,1197
1207,1716347442586800128,2057,2059,2060,2053,2061,2055,1195
1208,1716347442596808990,2051,2048,2050,2058,2053,2053,1196
1209,1716347442606800436,2061,2058,2052,2055,2049,2052,1196
1210,1716347442616804969,2055,2051,2050,2058,2050,2053,1198
1211,1716347442626797459,2057,2067,2080,2052,2053,2052,1196
1212,1716347442636803986,2055,2050,2046,2058,2055,2057,1194
1213,1716347442646797769,2058,2062,2066,2059,2052,2052,1195
1214,1716347442656801460,2053,2054,2061,2057,2052,2053,1197
1215,1716347442666802406,2056,2045,2048,2052,2068,2058,1197
1216,1716347442676804644,2052,2041,2052,2051,2056,2056,1198
1217,1716347442686798436,2054,2055,2067,2056,2044,2050,1196
1218,1716347442696808790,2052,2052,2056,2049,2053,2052,1197
1219,1716347442706800268,2056,2056,2047,2078,2069,2052,1194
1220,1716347442716805693,2056,2051,2044,2058,2053,2056,1196
1221,1716347442726800507,2054,2060,2046,2054,2056,2054,1196
1222,1716347442736815309,2059,2047,2053,2053,2046,2049,1197
1223,1716347442746798501,2056,2061,2053,2052,2052,2057,1196
1224,1716347442756804687,2056,2047,2049,2058,2060,2052,1197
1225,1716347442766800303,2056,2053,2060,2065,2053,2057,1195
1226,1716347442776803754,2058,2049,2054,2054,2050,2053,1197
1227,1716347442786833165,2056,2056,2057,2064,2052,2049,1197
1228,1716347442796804825,2056,2053,2048,2065,2062,2055,1195
1229,1716347442806802544,2057,2058,2046,2049,2040,2053,1197
1230,1716347442816804782,2050,2047,2058,2056,2053,2054,1198
1231,1716347442826799637,2058,2056,2046,2060,2059,2058,1196
1232,1716347442836802306,2050,2045,2049,2045,2048,2054,1196
1233,1716347442846796900,2052,2052,2043,2052,2047,2052,1195
1234,1716347442856744514,2054,2052,2068,2054,2053,2056,1198
1235,1716347442866830463,2061,2064,2096,2056,2056,2058,1196
1236,1716347442876804927,2056,2053,2069,2061,2060,2052,1196
1237,1716347442886827956,2053,2060,2080,2064,2058,2055,1197
1238,1716347442896803022,2051,2049,2050,2053,2048,2054,1196
1239,1716347442906827424,2055,2048,2045,2072,2086,2062,1195
1240,1716347442916815505,2052,2042,2049,2054,2088,2057,1194
1241,1716347442926824667,2056,2064,2056,2064,2053,2050,1195
1242,1716347442936818800,2053,2052,2053,2042,2042,2050,1196
1243,1716347442946826358,2058,2053,2053,2052,2050,2053,1196
1244,1716347442956803909,2053,2043,2056,2050,2053,2050,1197
1245,1716347442966825625,2056,2062,2049,2053,2054,2053,1195
1246,1716347442976816833,2054,2042,2036,2052,2042,2052,1195
1247,1716347442986828529,2058,2056,2043,2047,2041,2055,1194
1248,1716347442996817472,2053,2052,2056,2053,2049,2052,1194
1249,1716347443006833717,2052,2038,2044,2056,2048,2050,1196
1250,1716347443016819093,2055,2041,2042,2057,2054,2051,1196
1251,1716347443026819208,2057,2056,2039,2059,2058,2054,1196
1252,1716347443036814733,2053,2053,2064,2061,2070,2054,1195
1253,1716347443046822372,2056,2056,2060,2059,2049,2053,1194
1254,1716347443056816435,2052,2044,2040,2056,2051,2050,1196
1255,1716347443066818123,2058,2061,2052,2049,2052,2053,1195
1256,1716347443076816153,2054,2047,2050,2056,2051,2053,1195
1257,1716347443086822320,2057,2058,2070,2049,2053,2052,1197
1258,1716347443096817103,2053,2043,2059,2056,2054,2055,1195
1259,1716347443106821365,2058,2052,2049,2050,2054,2056,1196
1260,1716347443116818264,2052,2049,2056,2069,2054,2054,1198
1261,1716347443126818559,2066,2073,2112,2051,2058,2052,1196
1262,1716347443136813944,2053,2050,2056,2052,2052,2052,1196
1263,1716347443146820852,2056,2060,2054,2071,2066,2053,1195
1264,1716347443156813963,2057,2042,2052,2081,2072,2060,1197
1265,1716347443166819027,2051,2054,2044,2056,2052,2050,1196
1266,1716347443176816316,2052,2044,2044,2046,2049,2050,1195
1267,1716347443186833983,2061,2074,2051,2058,2046,2054,1197
1268,1716347443196816293,2053,2053,2053,2056,2040,2052,1195
1269,1716347443206816308,2060,2065,2051,2047,2051,2053,1196
1270,1716347443216813847,2051,2041,2037,2059,2045,2055,1196
1271,1716347443226815565,2056,2061,2054,2056,2048,2057,1196
1272,1716347443236815399,2054,2045,2053,2064,2052,2053,1195
1273,1716347443246818680,2057,2067,2085,2061,2049,2055,1196
1274,1716347443256824966,2053,2046,2056,2057,2060,2052,1195
1275,1716347443266815952,2058,2046,2044,2052,2055,2049,1197
1276,1716347443276813151,2049,2041,2054,2060,2060,2054,1197
1277,1716347443286815941,2058,2057,2056,2060,2050,2053,1197
1278,1716347443296814983,2052,2053,2056,2056,2050,2054,1195
1279,1716347443306818304,2058,2056,2056,2046,2048,2056,1197
1280,1716347443316815012,2052,2041,2025,2059,2050,2055,1195
1281,1716347443326827640,2049,2056,2051,2052,2045,2050,1196
1282,1716347443336812906,2059,2048,2052,2056,2052,2055,1198
1283,1716347443346815085,2060,2061,2065,2030,2054,2050,1197
1284,1716347443356812163,2053,2031,2032,2062,2052,2052,1197
1285,1716347443366816525,2056,2057,2076,2062,2047,2052,1196
1286,1716347443376814335,2052,2045,2043,2056,2056,2053,1196
1287,1716347443386813328,2059,2060,2075,2045,2047,2053,1196
1288,1716347443396809855,2052,2050,2072,2061,2043,2053,1193
1289,1716347443406813597,2058,2065,2072,2040,2046,2050,1196
1290,1716347443416817669,2055,2046,2075,2060,2056,2055,1196
1291,1716347443426812764,2055,2057,2054,2060,2055,2049,1196
1292,1716347443436812807,2056,2050,2053,2053,2052,2056,1197
1293,1716347443446813994,2056,2059,2068,2052,2039,2049,1195
1294,1716347443456819519,2054,2061,2075,2056,2052,2052,1196
1295,1716347443466813602,2058,2058,2051,2062,2051,2056,1196
1296,1716347443476820630,2056,2052,2066,2064,2053,2054,1196
1297,1716347443486811166,2056,2057,2036,2049,2045,2052,1195
1298,1716347443496809808,2057,2047,2051,2056,2052,2053,1194
1299,1716347443506814812,2058,2057,2053,2051,2045,2048,1197
1300,1716347443516813824,2052,2056,2056,2056,2051,2051,1197
1301,1716347443526809569,2054,2053,2032,2044,2039,2050,1195
1302,1716347443536810625,2056,2048,2054,2060,2051,2056,1194
1303,1716347443546807784,2057,2056,2052,2053,2058,2052,1194
1304,1716347443556811355,2050,2041,2042,2062,2059,2056,1197
1305,1716347443566811330,2061,2074,2072,2050,2050,2054,1194
1306,1716347443576810252,2061,2049,2047,2051,2042,2050,1195
1307,1716347443586810467,2058,2081,2092,2058,2056,2050,1194
1308,1716347443596824308,2057,2052,2072,2050,2041,2047,1194
1309,1716347443606775728,2055,2057,2049,2057,2065,2058,1193
1310,1716347443616813144,2055,2053,2052,2057,2047,2050,1194
1311,1716347443626809371,2054,2060,2064,2059,2053,2053,1195
1312,1716347443636812221,2056,2049,2053,2057,2056,2049,1197
1313,1716347443646807255,2052,2053,2037,2056,2055,2050,1194
1314,1716347443656815596,2054,2056,2080,2064,2052,2056,1197
1315,1716347443666809959,2056,2059,2056,2049,2058,2050,1196
1316,1716347443676813390,2057,2053,2057,2052,2047,2051,1196
1317,1716347443686808816,2056,2058,2052,2057,2051,2053,1196
1318,1716347443696811474,2052,2054,2040,2048,2066,2056,1196
1319,1716347443706809986,2053,2056,2048,2064,2084,2054,1198
1320,1716347443716812875,2052,2047,2052,2063,2065,2056,1196
1321,1716347443726820304,2056,2054,2027,2041,2040,2053,1196
1322,1716347443736813716,2052,2043,2049,2047,2045,2057,1198
1323,1716347443746810344,2056,2060,2053,2053,2072,2054,1195
1324,1716347443756814496,2062,2061,2072,2056,2053,2056,1196
1325,1716347443766814200,2055,2052,2046,2053,2051,2050,1199
1326,1716347443776803874,2056,2044,2038,2057,2051,2053,1197
1327,1716347443786815670,2056,2060,2052,2050,2054,2049,1197
1328,1716347443796819412,2052,2044,2042,2054,2042,2051,1194
1329,1716347443806818103,2059,2058,2052,2065,2074,2056,1197
1330,1716347443816810914,2057,2058,2097,2057,2057,2058,1197
1331,1716347443826848190,2057,2068,2062,2072,2079,2056,1196
1332,1716347443836818457,2051,2043,2044,2088,2072,2052,1196
1333,1716347443846799966,2058,2068,2045,2067,2057,2057,1196
1334,1716347443856804819,2060,2052,2047,2058,2053,2056,1197
1335,1716347443866803480,2056,2055,2042,2052,2062,2049,1196
1336,1716347443876823984,2057,2056,2064,2059,2045,2053,1197
1337,1716347443886803549,2054,2060,2057,2047,2056,2048,1196
1338,1716347443896831196,2053,2051,2057,2056,2051,2058,1197
1339,1716347443906804600,2060,2066,2091,2058,2048,2052,1195
1340,1716347443916806658,2053,2047,2049,2052,2049,2053,1196
1341,1716347443926806442,2053,2044,2046,2052,2060,2056,1197
1342,1716347443936806496,2049,2040,2056,2070,2061,2058,1195
1343,1716347443946807142,2055,2059,2052,2056,2052,2052,1193
1344,1716347443956798799,2056,2056,2057,2067,2051,2059,1197
1345,1716347443966797932,2056,2056,2045,2067,2055,2054,1196
1346,1716347443976800992,2053,2044,2047,2060,2056,2056,1195
1347,1716347443986821666,2056,2062,2050,2056,2053,2050,1196
1348,1716347443996816771,2052,2048,2040,2051,2044,2056,1194
1349,1716347444006793791,2059,2057,2056,2054,2060,2056,1197
1350,1716347444016812331,2052,2052,2073,2051,2047,2053,1197
1351,1716347444026797787,2052,2056,2056,2053,2037,2048,1196
1352,1716347444036798944,2050,2049,2052,2034,2049,2051,1197
1353,1716347444046802364,2056,2067,2047,2064,2051,2050,1198
1354,1716347444056745168,2050,2041,2043,2060,2056,2051,1196
1355,1716347444066797293,2053,2056,2042,2053,2045,2052,1195
1356,1716347444076802808,2053,2045,2048,2058,2044,2052,1196
1357,1716347444086793173,2057,2060,2042,2062,2065,2052,1197
1358,1716347444096808387,2050,2040,2038,2051,2056,2055,1197
1359,1716347444106787421,2059,2068,2056,2053,2058,2056,1197
1360,1716347444116799028,2056,2054,2060,2059,2052,2054,1196
1361,1716347444126793251,2058,2052,2045,2048,2050,2050,1195
1362,1716347444136792043,2055,2053,2066,2055,2054,2056,1197
1363,1716347444146838867,2058,2077,2041,2053,2052,2053,1196
1364,1716347444156791971,2053,2042,2029,2057,2052,2056,1196
1365,1716347444166791073,2056,2056,2044,2046,2066,2049,1196
1366,1716347444176744698,2058,2048,2063,2044,2048,2056,1197
1367,1716347444186790981,2056,2056,2054,2050,2053,2053,1196
1368,1716347444196814731,2053,2050,2043,2052,2052,2055,1195
1369,1716347444206795078,2058,2058,2032,2060,2056,2056,1197
1370,1716347444216743253,2054,2042,2043,2047,2048,2059,1196
1371,1716347444226792171,2061,2083,2082,2056,2053,2052,1197
1372,1716347444236744103,2058,2050,2060,2056,2049,2054,1198
1373,1716347444246827317,2056,2058,2047,2041,2025,2045,1194
1374,1716347444256799779,2049,2044,2058,2062,2046,2052,1197
1375,1716347444266794393,2059,2062,2062,2050,2053,2050,1195
1376,1716347444276798896,2052,2046,2060,2066,2052,2055,1198
1377,1716347444286794661,2059,2061,2051,2059,2048,2053,1195
1378,1716347444296800075,2053,2044,2024,2056,2049,2053,1196
1379,1716347444306829306,2058,2064,2052,2053,2052,2052,1197
1380,1716347444316804452,2051,2044,2045,2062,2056,2054,1197
1381,1716347444326797994,2058,2064,2049,2054,2051,2050,1195
1382,1716347444336802848,2049,2027,2042,2053,2049,2054,1194
1383,1716347444346828061,2050,2060,2064,2050,2048,2052,1196
1384,1716347444356820190,2052,2050,2058,2058,2052,2052,1198
1385,1716347444366791609,2058,2061,2040,2056,2055,2052,1195
1386,1716347444376806763,2056,2052,2067,2068,2057,2056,1196
1387,1716347444386802329,2056,2058,2047,2050,2047,2049,1196
1388,1716347444396836358,2050,2052,2070,2056,2053,2056,1194
1389,1716347444406803458,2060,2062,2052,2058,2053,2052,1196
1390,1716347444416837568,2050,2042,2044,2072,2047,2049,1197
1391,1716347444426822854,2060,2068,2053,2060,2054,2053,1195
1392,1716347444436741973,2054,2044,2053,2054,2050,2056,1197
1393,1716347444446790050,2062,2071,2066,2050,2046,2053,1194
1394,1716347444456741721,2056,2068,2052,2070,2079,2056,1197
1395,1716347444466797563,2064,2066,2057,2052,2054,2047,1193
1396,1716347444476742862,2050,2055,2056,2061,2056,2056,1195
1397,1716347444486789396,2059,2060,2052,2056,2047,2053,1196
1398,1716347444496741598,2050,2048,2051,2057,2046,2057,1197
1399,1716347444506786900,2059,2069,2088,2056,2058,2052,1197
1400,1716347444516741717,2056,2051,2056,2056,2060,2056,1197
1401,1716347444526818729,2057,2061,2045,2058,2056,2050,1197
1402,1716347444536741945,2048,2026,2048,2061,2061,2058,1195
1403,1716347444546786305,2057,2054,2053,2041,2051,2052,1198
1404,1716347444556807560,2053,2044,2053,2069,2060,2056,1195
1405,1716347444566786454,2054,2060,2064,2057,2068,2051,1197
1406,1716347444576805505,2056,2050,2053,2058,2061,2058,1197
1407,1716347444586788797,2059,2065,2062,2050,2039,2054,1196
1408,1716347444596815853,2052,2043,2051,2056,2043,2054,1194
1409,1716347444606814495,2053,2056,2044,2052,2053,2052,1197
1410,1716347444616814580,2053,2044,2057,2062,2049,2059,1194
1411,1716347444626816518,2059,2057,2040,2051,2048,2053,1197
1412,1716347444636815038,2057,2063,2068,2056,2036,2052,1196
1413,1716347444646784053,2058,2064,2048,2052,2043,2047,1193
1414,1716347444656815848,2056,2047,2064,2060,2053,2052,1195
1415,1716347444666795033,2059,2059,2045,2053,2059,2052,1197
1416,1716347444676741574,2053,2045,2058,2057,2053,2057,1197
1417,1716347444686790322,2056,2064,2053,2056,2056,2052,1196
1418,1716347444696742585,2057,2047,2058,2057,2052,2053,1195
1419,1716347444706793818,2053,2056,2048,2067,2090,2059,1196
1420,1716347444716742664,2054,2049,2062,2051,2047,2051,1194
1421,1716347444726786893,2055,2062,2050,2051,2036,2043,1192
1422,1716347444736816735,2051,2045,2056,2049,2036,2056,1195
1423,1716347444746813843,2059,2087,2072,2059,2048,2050,1195
1424,1716347444756805801,2060,2054,2060,2057,2056,2052,1197
1425,1716347444766808090,2056,2055,2054,2057,2049,2049,1197
1426,1716347444776819767,2057,2056,2061,2059,2064,2057,1194
1427,1716347444786789443,2059,2057,2033,2056,2045,2049,1195
1428,1716347444796743489,2052,2052,2078,2050,2045,2059,1194
1429,1716347444806839367,2058,2058,2045,2050,2054,2053,1197
1430,1716347444816808112,2052,2045,2044,2069,2064,2055,1196
1431,1716347444826785693,2058,2059,2069,2051,2049,2049,1195
1432,1716347444836795686,2052,2040,2042,2058,2052,2052,1196
1433,1716347444846788467,2057,2056,2046,2050,2062,2049,1197
1434,1716347444856741741,2052,2046,2055,2056,2050,2054,1195
1435,1716347444866795188,2058,2061,2048,2062,2044,2053,1197
1436,1716347444876810020,2053,2044,2052,2047,2045,2053,1197
1437,1716347444886796629,2059,2061,2060,2057,2050,2050,1196
1438,1716347444896743160,2055,2047,2053,2054,2052,2056,1199
1439,1716347444906791087,2057,2058,2047,2050,2054,2052,1196
1440,1716347444916744171,2053,2052,2062,2068,2054,2054,1197
1441,1716347444926791166,2055,2064,2056,2056,2056,2052,1196
1442,1716347444936745081,2053,2045,2040,2056,2056,2056,1195
1443,1716347444946788289,2056,2056,2048,2044,2056,2048,1195
1444,1716347444956744479,2054,2056,2075,2056,2068,2056,1195
1445,1716347444966799779,2056,2058,2049,2056,2058,2053,1196
1446,1716347444976744137,2053,2052,2053,2056,2050,2050,1193
1447,1716347444986793746,2060,2066,2061,2068,2076,2053,1195
1448,1716347444996743874,2059,2056,2093,2064,2049,2056,1195
1449,1716347445006808903,2052,2044,2060,2047,2045,2051,1196
1450,1716347445016744123,2053,2049,2076,2048,2049,2056,1197
1451,1716347445026805335,2054,2056,2046,2047,2058,2053,1197
1452,1716347445036744252,2053,2051,2056,2064,2054,2053,1196
1453,1716347445046806847,2056,2062,2044,2048,2053,2049,1197
1454,1716347445056743679,2056,2047,2056,2061,2065,2057,1195
1455,1716347445066795413,2058,2058,2045,2047,2037,2048,1196
1456,1716347445076809164,2053,2049,2056,2082,2066,2056,1196
1457,1716347445086791494,2059,2072,2081,2061,2058,2054,1192
1458,1716347445096744609,2057,2061,2061,2052,2056,2058,1197
1459,1716347445106806612,2057,2064,2057,2060,2054,2050,1196
1460,1716347445116806476,2053,2045,2053,2050,2052,2053,1197
1461,1716347445126789999,2057,2062,2049,2052,2047,2052,1197
1462,1716347445136807056,2054,2048,2061,2064,2061,2057,1194
1463,1716347445146793835,2058,2058,2045,2049,2055,2049,1197
1464,1716347445156744174,2054,2050,2052,2056,2060,2059,1196
1465,1716347445166789544,2052,2054,2013,2060,2052,2050,1198
1466,1716347445176743410,2053,2048,2056,2058,2054,2056,1199
1467,1716347445186795354,2055,2046,2047,2056,2066,2054,1197
1468,1716347445196809916,2051,2050,2074,2062,2050,2051,1195
1469,1716347445206792878,2061,2060,2045,2054,2048,2053,1195
1470,1716347445216810977,2056,2062,2076,2054,2052,2056,1196
1471,1716347445226808256,2057,2062,2052,2056,2053,2050,1195
1472,1716347445236742524,2057,2045,2060,2074,2079,2057,1198
1473,1716347445246789899,2057,2060,2040,2051,2050,2056,1197
1474,1716347445256744056,2052,2045,2056,2055,2054,2053,1195
1475,1716347445266788736,2054,2057,2041,2057,2045,2049,1197
1476,1716347445276742131,2058,2047,2073,2080,2076,2059,1195
1477,1716347445286795427,2056,2056,2047,2058,2058,2059,1197
1478,1716347445296804128,2053,2045,2054,2068,2056,2056,1197
1479,1716347445306798712,2058,2060,2052,2050,2047,2047,1193
1480,1716347445316803135,2057,2058,2064,2058,2054,2058,1196
1481,1716347445326805284,2057,2057,2048,2053,2050,2049,1195
1482,1716347445336797152,2056,2052,2052,2052,2052,2052,1196
1483,1716347445346796105,2056,2056,2045,2056,2047,2047,1195
1484,1716347445356801378,2052,2026,2045,2060,2052,2054,1196
1485,1716347445366792085,2059,2056,2052,2054,2060,2051,1196
1486,1716347445376796838,2056,2049,2061,2060,2049,2057,1197
1487,1716347445386796251,2056,2056,2037,2049,2048,2053,1197
1488,1716347445396752241,2057,2056,2080,2057,2052,2056,1194
1489,1716347445406794597,2060,2068,2092,2065,2060,2053,1194
1490,1716347445416797016,2053,2046,2048,2060,2054,2054,1197
1491,1716347445426796369,2056,2060,2052,2053,2052,2052,1197
1492,1716347445436810831,2056,2046,2054,2064,2058,2052,1196
1493,1716347445446797139,2056,2061,2089,2050,2057,2053,1196
1494,1716347445456803145,2053,2050,2062,2056,2056,2058,1196
1495,1716347445466798440,2054,2052,2035,2052,2054,2053,1197
1496,1716347445476806620,2060,2053,2040,2068,2047,2056,1197
1497,1716347445486800232,2057,2058,2032,2068,2070,2053,1197
1498,1716347445496805617,2054,2050,2051,2058,2052,2057,1198
1499,1716347445506801133,2060,2062,2053,2049,2054,2047,1193
1500,1716347445516806668,2061,2048,2097,2069,2068,2056,1195
1501,1716347445526802083,2056,2058,2064,2048,2060,2052,1196
1502,1716347445536805162,2054,2047,2052,2060,2058,2053,1196
1503,1716347445546784958,2058,2068,2082,2041,2053,2049,1197
1504,1716347445556808778,2054,2048,2046,2050,2049,2052,1198
1505,1716347445566786589,2056,2061,2050,2052,2050,2056,1198
1506,1716347445576825939,2056,2049,2053,2062,2065,2052,1200
1507,1716347445586805194,2058,2062,2049,2052,2050,2049,1197
1508,1716347445596799417,2052,2029,2041,2072,2077,2060,1193
1509,1716347445606789893,2056,2052,2042,2052,2060,2052,1197
1510,1716347445616744180,2055,2058,2090,2054,2057,2054,1198
1511,1716347445626788008,2056,2057,2049,2049,2056,2048,1195
1512,1716347445636745320,2054,2048,2052,2056,2052,2052,1197
1513,1716347445646787506,2056,2061,2045,2057,2035,2047,1194
1514,1716347445656744788,2056,2053,2051,2069,2051,2052,1196
1515,1716347445666793005,2054,2060,2054,2058,2047,2052,1195
1516,1716347445676821264,2049,2031,2054,2068,2054,2056,1194
1517,1716347445686790589,2056,2051,2050,2056,2047,2052,1198
1518,1716347445696744044,2053,2045,2053,2057,2056,2056,1194
1519,1716347445706789546,2056,2071,2105,2057,2054,2052,1197
1520,1716347445716744263,2055,2049,2050,2054,2056,2056,1196
1521,1716347445726786918,2052,2056,2053,2048,2059,2056,1199
1522,1716347445736743870,2058,2046,2052,2056,2058,2057,1197
1523,1716347445746788290,2059,2066,2063,2056,2050,2052,1197
1524,1716347445756745021,2062,2078,2062,2060,2058,2058,1197
1525,1716347445766786976,2061,2068,2073,2056,2045,2053,1196
1526,1716347445776744368,2055,2047,2044,2056,2045,2050,1199
1527,1716347445786790371,2060,2062,2045,2052,2042,2049,1198
1528,1716347445796812949,2052,2046,2052,2040,2038,2054,1196
1529,1716347445806789187,2059,2058,2052,2047,2044,2049,1195
1530,1716347445816744426,2061,2054,2063,2046,2050,2056,1197
1531,1716347445826787523,2056,2060,2088,2064,2079,2058,1196
1532,1716347445836744354,2057,2085,2060,2058,2056,2056,1197
1533,1716347445846786620,2059,2058,2040,2050,2053,2054,1197
1534,1716347445856797745,2050,2048,2040,2059,2056,2057,1197
1535,1716347445866788081,2057,2060,2042,2051,2048,2052,1196
1536,1716347445876746395,2051,2050,2041,2065,2072,2060,1197
1537,1716347445886788631,2061,2060,2040,2054,2052,2052,1195
1538,1716347445896799837,2054,2056,2056,2052,2054,2057,1198
1539,1716347445906788990,2052,2058,2038,2047,2034,2045,1195
1540,1716347445916823019,2052,2052,2067,2075,2050,2056,1197
1541,1716347445926790360,2053,2056,2047,2052,2054,2052,1197
1542,1716347445936744957,2055,2052,2049,2060,2057,2057,1197
1543,1716347445946788205,2058,2066,2084,2052,2047,2049,1198
1544,1716347445956744966,2054,2041,2045,2061,2054,2056,1197
1545,1716347445966787162,2057,2057,2038,2045,2054,2049,1197
1546,1716347445976743652,2054,2051,2080,2052,2049,2053,1196
1547,1716347445986787521,2057,2076,2054,2056,2053,2047,1194
1548,1716347445996816020,2055,2050,2035,2057,2047,2056,1196
1549,1716347446006787389,2056,2059,2045,2061,2040,2050,1197
1550,1716347446016812913,2058,2053,2062,2058,2052,2057,1197
1551,1716347446026793309,2056,2057,2058,2060,2056,2050,1196
1552,1716347446036744189,2056,2045,2053,2050,2051,2056,1196
1553,1716347446046786565,2058,2065,2068,2058,2062,2056,1197
1554,1716347446056742795,2057,2052,2080,2044,2054,2055,1195
1555,1716347446066790461,2056,2058,2058,2038,2048,2047,1194
1556,1716347446076743095,2049,2032,2047,2053,2052,2053,1195
1557,1716347446086788757,2052,2049,2044,2054,2053,2050,1196
1558,1716347446096799822,2057,2056,2052,2054,2045,2056,1198
1559,1716347446106788224,2057,2059,2051,2049,2043,2052,1197
1560,1716347446116807816,2057,2054,2080,2063,2069,2056,1196
1561,1716347446126787251,2053,2061,2049,2057,2048,2051,1196
1562,1716347446136817954,2056,2056,2061,2069,2078,2057,1197
1563,1716347446146785597,2058,2053,2047,2045,2051,2052,1196
1564,1716347446156742017,2050,2033,2054,2056,2056,2056,1199
1565,1716347446166785956,2061,2064,2050,2056,2053,2051,1196
1566,1716347446176742857,2058,2047,2050,2055,2050,2056,1196
1567,1716347446186802346,2056,2058,2050,2047,2041,2053,1196
1568,1716347446196814584,2056,2049,2061,2057,2050,2052,1195
1569,1716347446206790302,2057,2066,2080,2074,2072,2056,1200
1570,1716347446216742252,2054,2046,2053,2046,2053,2055,1196
1571,1716347446226791051,2052,2048,2038,2052,2056,2050,1196
1572,1716347446236816654,2048,2032,2046,2049,2056,2056,1198
1573,1716347446246795718,2055,2056,2045,2070,2044,2047,1194
1574,1716347446256798708,2056,2057,2052,2060,2049,2053,1198
1575,1716347446266795516,2054,2058,2041,2049,2042,2056,1195
1576,1716347446276798557,2057,2054,2041,2053,2043,2052,1199
1577,1716347446286798280,2055,2053,2037,2053,2046,2056,1196
1578,1716347446296803435,2056,2050,2052,2061,2050,2053,1198
1579,1716347446306797297,2051,2032,2040,2058,2053,2052,1196
1580,1716347446316803373,2053,2042,2057,2053,2046,2053,1196
1581,1716347446326800562,2056,2061,2044,2053,2056,2057,1196
1582,1716347446336802490,2052,2049,2052,2056,2052,2053,1197
1583,1716347446346798156,2054,2064,2050,2057,2046,2049,1196
1584,1716347446356806667,2053,2056,2075,2064,2057,2056,1198
1585,1716347446366779058,2059,2072,2102,2056,2045,2052,1197
1586,1716347446376809361,2055,2048,2052,2048,2054,2053,1196
1587,1716347446386788265,2051,2058,2041,2046,2043,2050,1196
1588,1716347446396827785,2053,2045,2058,2053,2048,2057,1196
1589,1716347446406790588,2058,2064,2054,2045,2057,2046,1192
1590,1716347446416744163,2056,2048,2061,2053,2055,2050,1196
1591,1716347446426787801,2059,2060,2058,2052,2052,2050,1194
1592,1716347446436744081,2052,2054,2051,2064,2054,2053,1197
1593,1716347446446789112,2063,2066,2042,2056,2056,2052,1198
1594,1716347446456743699,2052,2050,2048,2036,2059,2056,1197
1595,1716347446466816013,2056,2072,2053,2056,2042,2046,1194
1596,1716347446476745161,2058,2053,2069,2058,2034,2053,1196
1597,1716347446486792396,2052,2063,2057,2057,2049,2055,1196
1598,1716347446496744418,2052,2047,2043,2048,2047,2053,1197
1599,1716347446506789439,2056,2060,2044,2052,2050,2049,1197
1600,1716347446516742994,2059,2057,2056,2065,2066,2058,1195
1601,1716347446526788005,2056,2052,2033,2052,2053,2047,1193
1602,1716347446536744345,2050,2026,2053,2060,2056,2056,1198
1603,1716347446546789506,2054,2049,2045,2064,2056,2052,1195
1604,1716347446556803818,2053,2046,2046,2064,2061,2048,1196
1605,1716347446566791158,2058,2067,2051,2064,2049,2047,1194
1606,1716347446576743681,2052,2056,2092,2060,2048,2053,1196
1607,1716347446586789574,2056,2058,2047,2057,2056,2051,1197
1608,1716347446596743750,2057,2051,2053,2054,2034,2059,1195
1609,1716347446606789432,2053,2057,2042,2054,2037,2050,1195
1610,1716347446616744300,2054,2053,2082,2062,2049,2056,1197
1611,1716347446626797787,2063,2084,2049,2057,2049,2056,1197
1612,1716347446636744419,2062,2052,2044,2044,2035,2056,1197
1613,1716347446646788818,2058,2059,2020,2047,2052,2050,1196
1614,1716347446656827016,2049,2048,2051,2056,2052,2054,1196
1615,1716347446666791601,2059,2064,2047,2049,2052,2052,1195
1616,1716347446676744405,2056,2054,2043,2062,2056,2058,1196
1617,1716347446686790808,2058,2056,2053,2052,2048,2050,1196
1618,1716347446696744644,2056,2064,2054,2037,2050,2053,1196
1619,1716347446706791939,2062,2062,2044,2052,2041,2048,1197
1620,1716347446716744372,2048,2047,2050,2056,2045,2052,1196
1621,1716347446726788832,2058,2064,2077,2060,2058,2049,1196
1622,1716347446736743840,2050,2044,2043,2070,2065,2053,1196
1623,1716347446746790163,2056,2057,2048,2056,2050,2050,1195
1624,1716347446756808072,2053,2050,2060,2056,2051,2054,1195
1625,1716347446766788729,2058,2073,2058,2056,2056,2050,1197
1626,1716347446776798101,2058,2045,2053,2045,2049,2054,1196
1627,1716347446786790240,2056,2060,2047,2053,2047,2046,1192
1628,1716347446796797288,2053,2052,2051,2053,2049,2051,1194
1629,1716347446806794618,2055,2053,2040,2051,2046,2048,1194
1630,1716347446816744175,2053,2047,2058,2056,2052,2053,1196
1631,1716347446826789957,2055,2058,2047,2053,2054,2052,1196
1632,1716347446836792607,2056,2048,2056,2059,2056,2056,1196
1633,1716347446846791679,2058,2056,2054,2081,2088,2058,1195
1634,1716347446856800170,2060,2052,2050,2064,2059,2060,1196
1635,1716347446866792109,2049,2055,2045,2040,2038,2050,1196
1636,1716347446876744992,2054,2054,2085,2058,2057,2057,1196
1637,1716347446886795544,2057,2063,2053,2057,2057,2050,1196
1638,1716347446896824223,2058,2060,2082,2057,2054,2056,1196
1639,1716347446906795022,2057,2056,2044,2057,2050,2046,1193
1640,1716347446916741673,2054,2048,2047,2053,2051,2053,1197
1641,1716347446926793988,2052,2061,2054,2056,2053,2052,1196
1642,1716347446936742714,2057,2040,2054,2056,2054,2057,1195
1643,1716347446946795029,2054,2053,2056,2050,2044,2049,1198
1644,1716347446956745188,2052,2048,2051,2040,2049,2058,1196
1645,1716347446966793585,2057,2068,2047,2056,2073,2056,1197
1646,1716347446976742872,2051,2044,2045,2062,2056,2052,1197
1647,1716347446986791630,2057,2053,2041,2049,2052,2052,1195
1648,1716347446996824197,2056,2053,2061,2057,2058,2059,1194
1649,1716347447006787421,2053,2057,2056,2040,2047,2054,1197
1650,1716347447016742790,2052,2026,2051,2058,2056,2056,1196
1651,1716347447026791107,2051,2053,2062,2054,2042,2050,1193
1652,1716347447036742548,2056,2054,2060,2066,2053,2059,1197
1653,1716347447046795845,2056,2062,2044,2052,2053,2056,1197
1654,1716347447056796601,2056,2061,2105,2061,2053,2057,1197
1655,1716347447066798238,2058,2057,2041,2057,2050,2048,1196
1656,1716347447076753326,2056,2065,2061,2065,2046,2052,1197
1657,1716347447086789179,2060,2060,2054,2046,2036,2062,1196
1658,1716347447096810996,2053,2049,2056,2054,2047,2056,1197
1659,1716347447106787826,2061,2059,2057,2053,2055,2052,1197
1660,1716347447116743134,2052,2045,2052,2054,2053,2054,1195
1661,1716347447126784588,2057,2060,2079,2057,2044,2049,1196
1662,1716347447136745367,2051,2051,2051,2056,2067,2056,1197
1663,1716347447146787602,2057,2052,2034,2056,2048,2052,1195
1664,1716347447156746287,2049,2042,2046,2045,2045,2051,1200
1665,1716347447166796067,2058,2060,2053,2053,2056,2052,1197
1666,1716347447176743140,2056,2049,2046,2058,2058,2058,1197
1667,1716347447186788632,2056,2060,2065,2046,2058,2055,1196
1668,1716347447196742968,2060,2049,2054,2049,2052,2056,1195
1669,1716347447206789342,2055,2060,2052,2059,2060,2050,1196
1670,1716347447216745792,2054,2060,2079,2056,2047,2058,1197
1671,1716347447226793488,2056,2078,2060,2050,2048,2054,1196
1672,1716347447236797841,2053,2046,2040,2047,2046,2052,1197
1673,1716347447246792074,2057,2056,2057,2066,2064,2054,1197
1674,1716347447256815153,2053,2049,2060,2059,2058,2055,1198
1675,1716347447266793355,2060,2064,2046,2061,2057,2047,1193
1676,1716347447276746800,2056,2044,2050,2071,2077,2052,1196
1677,1716347447286789497,2057,2064,2065,2053,2054,2048,1195
1678,1716347447296743913,2054,2069,2062,2060,2056,2054,1197
1679,1716347447306815085,2058,2056,2042,2053,2056,2047,1194
1680,1716347447316800280,2058,2065,2045,2068,2077,2058,1194
1681,1716347447326792269,2054,2057,2054,2057,2056,2054,1197
1682,1716347447336744362,2054,2053,2057,2064,2048,2058,1198
1683,1716347447346793130,2055,2053,2037,2048,2050,2050,1198
1684,1716347447356797022,2053,2045,2049,2054,2052,2052,1197
1685,1716347447366811353,2057,2055,2042,2052,2051,2052,1198
1686,1716347447376792041,2054,2042,2058,2052,2056,2060,1196
1687,1716347447386795041,2058,2052,2046,2056,2056,2047,1194
1688,1716347447396803762,2065,2065,2093,2058,2052,2053,1194
1689,1716347447406798817,2057,2061,2047,2061,2061,2049,1197
1690,1716347447416802077,2056,2053,2057,2047,2052,2056,1195
1691,1716347447426799507,2058,2054,2047,2052,2044,2050,1195
1692,1716347447436805783,2054,2047,2046,2056,2047,2056,1196
1693,1716347447446800627,2054,2043,2038,2056,2049,2051,1196
1694,1716347447456801453,2053,2038,2049,2047,2043,2050,1196
1695,1716347447466800045,2056,2056,2048,2045,2049,2051,1198
1696,1716347447476808886,2056,2048,2061,2056,2053,2053,1196
1697,1716347447486804622,2053,2058,2052,2035,2049,2047,1194
1698,1716347447496797724,2052,2047,2052,2058,2057,2056,1197
1699,1716347447506803920,2054,2061,2076,2033,2044,2051,1198
1700,1716347447516797872,2057,2049,2047,2051,2045,2054,1196
1701,1716347447526788038,2052,2056,2049,2053,2051,2049,1196
1702,1716347447536800306,2053,2040,2054,2056,2041,2052,1196
1703,1716347447546789610,2054,2051,2042,2056,2064,2053,1198
1704,1716347447556744537,2056,2046,2049,2063,2043,2053,1197
1705,1716347447566790630,2057,2057,2047,2042,2046,2053,1197
1706,1716347447576745137,2056,2052,2061,2060,2052,2053,1197
1707,1716347447586791831,2058,2064,2058,2052,2053,2053,1197
1708,1716347447596742931,2055,2056,2076,2058,2048,2056,1195
1709,1716347447606792792,2056,2058,2046,2052,2053,2050,1197
1710,1716347447616743982,2052,2046,2051,2041,2053,2060,1196
1711,1716347447626792450,2054,2054,2052,2056,2037,2046,1193
1712,1716347447636742969,2054,2048,2059,2047,2035,2052,1198
1713,1716347447646792899,2057,2062,2054,2060,2056,2051,1197
1714,1716347447656744851,2048,2047,2043,2053,2041,2052,1196
1715,1716347447666791195,2056,2059,2046,2056,2050,2049,1194
1716,1716347447676815005,2057,2048,2053,2056,2048,2059,1197
1717,1716347447686791253,2052,2059,2049,2070,2065,2053,1196
1718,1716347447696744007,2056,2065,2052,2068,2064,2058,1196
1719,1716347447706794478,2058,2060,2056,2046,2052,2056,1198
1720,1716347447716742833,2052,2045,2052,2057,2070,2056,1196
1721,1716347447726791241,2052,2056,2051,2056,2048,2050,1197
1722,1716347447736797397,2050,2048,2053,2056,2055,2056,1196
1723,1716347447746790708,2056,2057,2036,2051,2052,2047,1192
1724,1716347447756744854,2056,2056,2069,2059,2067,2057,1198
1725,1716347447766793062,2053,2053,2038,2052,2051,2051,1198
1726,1716347447776831159,2056,2052,2093,2060,2051,2052,1196
1727,1716347447786796326,2056,2078,2054,2058,2051,2048,1195
1728,1716347447796745042,2060,2058,2076,2062,2050,2056,1196
1729,1716347447806792067,2056,2053,2036,2046,2040,2046,1193
1730,1716347447816745031,2064,2077,2117,2048,2065,2056,1197
1731,1716347447826792987,2054,2053,2040,2052,2056,2051,1196
1732,1716347447836747234,2056,2056,2052,2056,2057,2060,1198
1733,1716347447846791012,2053,2058,2049,2054,2048,2053,1196
1734,1716347447856745679,2053,2050,2060,2069,2084,2060,1197
1735,1716347447866800279,2060,2062,2059,2046,2041,2050,1195
1736,1716347447876820462,2058,2056,2080,2055,2052,2056,1197
1737,1716347447886787894,2051,2057,2075,2049,2051,2053,1196
1738,1716347447896745196,2059,2052,2069,2057,2072,2059,1197
1739,1716347447906792192,2052,2053,2017,2054,2056,2052,1196
1740,1716347447916798568,2056,2050,2053,2082,2056,2057,1196
1741,1716347447926790126,2056,2059,2052,2054,2048,2048,1196
1742,1716347447936745014,2049,2034,2058,2051,2048,2052,1196
1743,1716347447946790536,2054,2056,2043,2056,2052,2050,1197
1744,1716347447956744502,2052,2044,2024,2056,2058,2057,1196
1745,1716347447966791246,2058,2064,2057,2044,2047,2047,1193
1746,1716347447976813753,2052,2046,2052,2060,2060,2056,1197
1747,1716347447986787327,2051,2056,2041,2053,2040,2046,1193
1748,1716347447996744509,2053,2047,2052,2048,2059,2057,1195
1749,1716347448006789750,2057,2061,2047,2053,2051,2052,1196
1750,1716347448016749317,2052,2052,2057,2050,2053,2050,1197
1751,1716347448026789899,2053,2038,2052,2034,2044,2052,1198
1752,1716347448036744687,2056,2044,2050,2057,2047,2060,1196
1753,1716347448046785740,2056,2054,2061,2057,2054,2052,1196
1754,1716347448056744445,2054,2047,2048,2055,2054,2052,1195
1755,1716347448066789927,2056,2057,2048,2046,2053,2048,1196
1756,1716347448076814328,2054,2054,2066,2056,2054,2056,1197
1757,1716347448086787831,2056,2060,2043,2054,2044,2049,1197
1758,1716347448096744542,2056,2047,2036,2059,2052,2056,1196
1759,1716347448106792860,2059,2078,2052,2058,2055,2053,1196
1760,1716347448116744130,2059,2052,2047,2058,2054,2063,1196
1761,1716347448126790303,2056,2056,2040,2037,2032,2049,1195
1762,1716347448136744610,2056,2048,2040,2057,2044,2056,1195
1763,1716347448146789661,2060,2063,2047,2042,2051,2052,1195
1764,1716347448156800887,2057,2050,2044,2050,2051,2050,1197
1765,1716347448166795731,2062,2065,2040,2057,2052,2053,1196
1766,1716347448176829801,2052,2042,2041,2056,2042,2050,1195
1767,1716347448186792894,2063,2076,2055,2057,2056,2052,1197
1768,1716347448196804310,2057,2049,2064,2064,2057,2054,1194
1769,1716347448206800147,2055,2054,2056,2053,2053,2050,1195
1770,1716347448216801183,2054,2052,2052,2056,2048,2057,1196
1771,1716347448226795186,2059,2057,2044,2048,2045,2050,1195
1772,1716347448236803537,2056,2059,2061,2066,2048,2059,1195
1773,1716347448246792891,2056,2058,2054,2061,2056,2054,1194
1774,1716347448256805470,2056,2056,2043,2056,2048,2056,1196
1775,1716347448266799623,2054,2064,2094,2054,2045,2052,1196
1776,1716347448276825467,2053,2049,2051,2062,2049,2054,1197
1777,1716347448286796516,2060,2058,2059,2052,2051,2055,1196
1778,1716347448296799446,2056,2044,2045,2057,2054,2054,1198
1779,1716347448306801644,2060,2072,2069,2057,2056,2057,1196
1780,1716347448316803542,2053,2049,2056,2062,2052,2057,1197
1781,1716347448326802995,2058,2064,2069,2046,2042,2051,1196
1782,1716347448336809993,2051,2029,2059,2056,2048,2054,1195
1783,1716347448346804607,2051,2047,2049,2051,2057,2047,1193
1784,1716347448356806796,2054,2042,2050,2049,2050,2054,1197
1785,1716347448366805928,2052,2057,2049,2054,2040,2053,1197
1786,1716347448376744635,2056,2046,2057,2053,2044,2053,1197
1787,1716347448386789576,2051,2059,2050,2049,2046,2045,1194
1788,1716347448396744924,2053,2058,2064,2062,2056,2056,1195
1789,1716347448406794884,2058,2052,2044,2055,2053,2054,1195
1790,1716347448416743801,2057,2048,2040,2058,2047,2054,1195
1791,1716347448426791386,2052,2056,2032,2049,2044,2046,1193
1792,1716347448436798555,2056,2057,2079,2064,2057,2054,1194
1793,1716347448446786125,2057,2052,2052,2053,2056,2051,1196
1794,1716347448456796619,2055,2050,2056,2056,2051,2053,1196
1795,1716347448466793438,2056,2057,2033,2065,2062,2056,1197
1796,1716347448476742925,2057,2052,2055,2055,2052,2052,1196
1797,1716347448486788658,2058,2062,2074,2051,2047,2047,1193
1798,1716347448496803441,2056,2069,2082,2056,2033,2056,1197
1799,1716347448506790030,2058,2055,2046,2027,2026,2046,1193
1800,1716347448516806395,2057,2061,2083,2063,2056,2056,1194
1801,1716347448526789828,2055,2058,2040,2056,2052,2048,1197
1802,1716347448536809350,2056,2052,2056,2060,2054,2053,1197
1803,1716347448546789776,2059,2058,2040,2045,2050,2050,1196
1804,1716347448556742239,2055,2060,2088,2056,2056,2056,1199
1805,1716347448566790917,2056,2058,2052,2058,2056,2054,1197
1806,1716347448576745965,2056,2068,2057,2068,2054,2058,1198
1807,1716347448586788712,2056,2057,2047,2044,2049,2049,1197
1808,1716347448596743399,2054,2054,2052,2056,2049,2058,1193
1809,1716347448606794421,2052,2053,2038,2044,2031,2049,1195
1810,1716347448616744119,2052,2047,2052,2054,2044,2057,1194
1811,1716347448626780243,2058,2065,2047,2055,2059,2053,1195
1812,1716347448636743857,2056,2064,2080,2049,2054,2055,1193
1813,1716347448646786694,2056,2064,2060,2051,2040,2047,1192
1814,1716347448656744176,2056,2074,2058,2053,2052,2052,1197
1815,1716347448666787564,2056,2057,2030,2057,2056,2056,1196
1816,1716347448676744686,2054,2047,2072,2052,2056,2057,1196
1817,1716347448686789687,2057,2056,2033,2049,2051,2056,1195
1818,1716347448696742260,2054,2048,2052,2052,2051,2057,1197
1819,1716347448706792080,2061,2065,2056,2056,2051,2057,1198
1820,1716347448716746978,2056,2043,2044,2056,2045,2056,1196
1821,1716347448726786969,2059,2066,2043,2056,2054,2052,1194
1822,1716347448736744613,2056,2052,2052,2050,2045,2056,1196
1823,1716347448746788492,2056,2065,2080,2056,2046,2050,1198
1824,1716347448756744622,2053,2050,2040,2051,2044,2052,1196
1825,1716347448766787559,2052,2040,2053,2042,2048,2050,1195
1826,1716347448776809956,2051,2040,2051,2052,2056,2056,1198
1827,1716347448786786595,2053,2052,2052,2042,2042,2050,1198
1828,1716347448796803813,2059,2054,2046,2075,2078,2056,1195
1829,1716347448806786253,2056,2057,2048,2060,2055,2052,1194
1830,1716347448816741943,2056,2049,2064,2053,2056,2056,1195
1831,1716347448826789128,2058,2060,2048,2048,2053,2052,1195
1832,1716347448836811755,2058,2050,2059,2034,2043,2057,1196
1833,1716347448846790930,2060,2060,2057,2051,2041,2052,1196
1834,1716347448856743954,2053,2038,2044,2057,2063,2055,1193
1835,1716347448866792672,2056,2052,2053,2052,2045,2050,1196
1836,1716347448876800812,2057,2056,2035,2061,2049,2056,1195
1837,1716347448886791238,2056,2053,2036,2047,2052,2050,1196
1838,1716347448896741516,2059,2054,2088,2047,2053,2057,1197
1839,1716347448906804251,2056,2057,2053,2059,2057,2051,1196
1840,1716347448916796390,2056,2051,2061,2056,2056,2056,1193
1841,1716347448926792277,2058,2057,2056,2061,2053,2051,1196
1842,1716347448936750972,2056,2052,2052,2060,2045,2052,1197
1843,1716347448946790642,2052,2054,2041,2044,2058,2049,1196
1844,1716347448956798231,2061,2057,2058,2056,2076,2057,1196
1845,1716347448966794979,2056,2056,2041,2046,2052,2051,1196
1846,1716347448976744376,2057,2050,2073,2069,2074,2056,1198
1847,1716347448986792033,2058,2057,2056,2053,2050,2050,1195
1848,1716347448996744326,2060,2052,2062,2068,2057,2058,1193
1849,1716347449006789678,2056,2058,2053,2044,2047,2050,1197
1850,1716347449016744385,2056,2052,2055,2056,2056,2058,1197
1851,1716347449026790288,2053,2053,2036,2049,2054,2045,1196
1852,1716347449036742260,2056,2054,2050,2062,2068,2060,1198
1853,1716347449046792480,2052,2056,2042,2058,2061,2047,1193
1854,1716347449056742739,2051,2051,2055,2053,2056,2056,1197
1855,1716347449066793681,2054,2065,2052,2052,2049,2052,1195
1856,1716347449076797072,2056,2052,2065,2066,2060,2059,1197
1857,1716347449086790083,2058,2058,2080,2042,2060,2055,1195
1858,1716347449096796660,2053,2044,2049,2056,2045,2053,1196
1859,1716347449106790162,2052,2050,2055,2051,2050,2049,1197
1860,1716347449116797500,2056,2049,2048,2056,2065,2062,1197
1861,1716347449126789199,2053,2060,2054,2056,2057,2050,1196
1862,1716347449136791748,2054,2049,2058,2045,2052,2057,1196
1863,1716347449146788367,2057,2061,2095,2049,2047,2053,1196
1864,1716347449156744256,2054,2048,2046,2059,2061,2056,1197
1865,1716347449166790299,2056,2053,2041,2059,2075,2054,1196
1866,1716347449176795975,2055,2050,2056,2053,2048,2056,1196
1867,1716347449186790929,2054,2069,2102,2054,2045,2053,1196
1868,1716347449196744033,2057,2048,2050,2055,2064,2051,1195
1869,1716347449206789846,2056,2065,2056,2056,2056,2056,1196
1870,1716347449216743932,2052,2043,2040,2056,2052,2054,1196
1871,1716347449226790926,2052,2053,2045,2050,2053,2053,1197
1872,1716347449236744522,2053,2045,2047,2056,2053,2053,1195
1873,1716347449246788631,2057,2058,2047,2059,2052,2050,1198
1874,1716347449256797121,2056,2056,2089,2061,2054,2056,1196
1875,1716347449266792387,2056,2058,2054,2052,2057,2052,1195
1876,1716347449276744138,2049,2049,2050,2060,2072,2053,1195
1877,1716347449286791364,2053,2061,2046,2061,2050,2056,1196
1878,1716347449296743787,2052,2051,2078,2060,2052,2053,1198
1879,1716347449306793718,2056,2059,2057,2053,2052,2052,1197
1880,1716347449316797860,2053,2048,2056,2060,2054,2055,1197
1881,1716347449326794528,2055,2056,2050,2054,2056,2054,1196
1882,1716347449336812256,2056,2050,2054,2058,2049,2053,1197
1883,1716347449346795629,2060,2058,2064,2050,2051,2050,1194
1884,1716347449356808067,2054,2050,2039,2055,2055,2055,1198
1885,1716347449366797200,2059,2056,2044,2051,2056,2052,1196
1886,1716347449376804689,2062,2080,2098,2057,2053,2056,1200
1887,1716347449386797530,2056,2064,2055,2047,2052,2046,1194
1888,1716347449396803656,2056,2050,2056,2068,2063,2058,1196
1889,1716347449406797889,2054,2057,2053,2052,2043,2047,1193
1890,1716347449416803264,2056,2052,2062,2040,2058,2056,1194
1891,1716347449426800394,2053,2061,2056,2064,2070,2052,1196
1892,1716347449436802021,2056,2045,2055,2044,2052,2053,1194
1893,1716347449446801254,2054,2057,2063,2056,2056,2052,1197
1894,1716347449456807550,2049,2063,2047,2049,2047,2052,1195
1895,1716347449466803727,2058,2056,2043,2050,2056,2057,1198
1896,1716347449476814262,2053,2048,2050,2055,2052,2058,1196
1897,1716347449486787745,2056,2057,2054,2056,2046,2052,1196
1898,1716347449496810774,2057,2058,2078,2061,2047,2053,1197
1899,1716347449506816148,2053,2060,2045,2060,2064,2052,1197
1900,1716347449516798158,2052,2053,2080,2056,2058,2056,1197
1901,1716347449526787913,2059,2056,2041,2057,2074,2056,1195
1902,1716347449536744243,2053,2048,2044,2059,2054,2055,1197
1903,1716347449546788433,2057,2064,2072,2057,2058,2055,1196
1904,1716347449556744623,2053,2057,2088,2070,2057,2055,1200
1905,1716347449566791228,2054,2054,2041,2049,2054,2051,1196
1906,1716347449576797985,2053,2049,2056,2053,2048,2056,1196
1907,1716347449586785295,2057,2059,2051,2045,2072,2056,1197
1908,1716347449596744892,2059,2057,2067,2064,2053,2057,1193
1909,1716347449606796535,2057,2066,2066,2052,2057,2050,1194
1910,1716347449616797041,2056,2056,2071,2064,2069,2057,1196
1911,1716347449626791865,2056,2060,2047,2052,2057,2051,1195
1912,1716347449636799564,2058,2055,2050,2056,2055,2054,1198
1913,1716347449646787906,2052,2053,2056,2051,2052,2051,1196
1914,1716347449656820222,2060,2052,2059,2054,2053,2052,1195
1915,1716347449666788135,2057,2057,2048,2064,2058,2051,1194
1916,1716347449676742562,2057,2046,2044,2053,2048,2054,1195
1917,1716347449686787252,2052,2056,2047,2046,2038,2051,1194
1918,1716347449696744184,2052,2049,2056,2049,2039,2057,1195
1919,1716347449706786170,2056,2060,2071,2058,2040,2046,1192
1920,1716347449716797235,2052,2045,2045,2056,2056,2059,1195
1921,1716347449726789505,2056,2060,2067,2057,2055,2054,1195
1922,1716347449736742709,2054,2048,2037,2053,2047,2056,1196
1923,1716347449746787139,2062,2068,2046,2058,2064,2054,1196
1924,1716347449756806330,2058,2066,2043,2056,2050,2052,1196
1925,1716347449766790103,2062,2060,2045,2059,2053,2052,1194
1926,1716347449776793013,2057,2057,2088,2058,2060,2056,1194
1927,1716347449786788769,2056,2058,2051,2059,2057,2050,1196
1928,1716347449796743958,2057,2053,2060,2056,2053,2055,1194
1929,1716347449806787215,2054,2056,2045,2049,2040,2053,1194
1930,1716347449816795375,2055,2055,2080,2060,2057,2056,1195
1931,1716347449826791793,2057,2063,2025,2050,2052,2054,1194
1932,1716347449836742492,2056,2068,2049,2057,2065,2058,1195
1933,1716347449846789267,2060,2062,2058,2060,2066,2054,1194
1934,1716347449856798229,2057,2061,2060,2064,2054,2060,1196
1935,1716347449866790819,2052,2053,2044,2036,2041,2047,1193
1936,1716347449876742721,2056,2050,2065,2059,2060,2056,1194
1937,1716347449886805286,2056,2052,2043,2053,2050,2052,1194
1938,1716347449896743732,2054,2046,2047,2056,2055,2056,1197
1939,1716347449906789073,2056,2059,2072,2050,2053,2054,1196
1940,1716347449916797153,2056,2045,2038,2056,2051,2059,1195
1941,1716347449926789162,2049,2032,2038,2052,2051,2050,1196
1942,1716347449936791982,2051,2042,2053,2059,2072,2056,1195
1943,1716347449946791595,2057,2056,2056,2052,2049,2049,1195
1944,1716347449956797721,2056,2052,2052,2040,2050,2050,1198
1945,1716347449966791093,2056,2060,2075,2060,2086,2060,1196
1946,1716347449976744408,2056,2047,2045,2060,2048,2057,1197
1947,1716347449986787175,2053,2053,2045,2045,2050,2050,1196
1948,1716347449996743926,2052,2049,2045,2058,2051,2056,1194
1949,1716347450006787514,2059,2059,2066,2051,2050,2049,1194
1950,1716347450016749686,2059,2050,2047,2056,2044,2054,1197
1951,1716347450026790659,2054,2052,2044,2063,2049,2052,1194
1952,1716347450036796865,2056,2054,2050,2061,2059,2056,1196
1953,1716347450046788704,2057,2050,2026,2057,2053,2051,1197
1954,1716347450056749182,2058,2036,2050,2059,2052,2057,1197
1955,1716347450066789554,2056,2047,2057,2036,2051,2050,1195
1956,1716347450076742669,2056,2048,2060,2056,2054,2053,1197
1957,1716347450086786788,2057,2060,2064,2055,2048,2052,1196
1958,1716347450096744802,2054,2049,2062,2052,2044,2056,1197
1959,1716347450106788952,2056,2061,2082,2052,2053,2057,1196
1960,1716347450116750652,2055,2046,2045,2054,2053,2056,1194
1961,1716347450126791806,2056,2061,2058,2070,2073,2053,1198
1962,1716347450136797000,2049,2047,2050,2059,2052,2053,1196
1963,1716347450146791414,2054,2032,2031,2059,2058,2050,1197
1964,1716347450156798281,2052,2038,2049,2059,2053,2056,1196
1965,1716347450166795751,2052,2060,2047,2056,2052,2053,1196
1966,1716347450176796617,2054,2050,2054,2057,2054,2056,1198
1967,1716347450186796602,2054,2056,2048,2065,2069,2056,1197
1968,1716347450196803299,2055,2049,2061,2057,2040,2052,1195
1969,1716347450206798224,2055,2054,2047,2050,2053,2048,1197
1970,1716347450216802086,2052,2049,2052,2061,2067,2058,1197
1971,1716347450226799655,2053,2056,2058,2052,2064,2049,1196
1972,1716347450236801754,2053,2050,2080,2044,2056,2056,1196
1973,1716347450246800736,2056,2037,2044,2052,2051,2053,1197
1974,1716347450256803085,2056,2045,2043,2054,2056,2056,1196
1975,1716347450266804863,2052,2056,2036,2046,2056,2050,1196
1976,1716347450276805208,2056,2049,2067,2054,2051,2053,1194
1977,1716347450286803960,2055,2052,2052,2056,2051,2050,1195
1978,1716347450296806320,2054,2051,2054,2056,2058,2056,1196
1979,1716347450306804380,2055,2060,2091,2049,2064,2052,1196
1980,1716347450316744489,2057,2052,2060,2044,2053,2056,1196
1981,1716347450326789681,2056,2058,2050,2056,2053,2048,1195
1982,1716347450336743887,2058,2051,2046,2058,2064,2059,1196
1983,1716347450346790992,2056,2040,2061,2050,2052,2049,1196
1984,1716347450356744076,2052,2038,2048,2064,2055,2056,1196
1985,1716347450366792573,2052,2051,2052,2052,2051,2047,1192
1986,1716347450376752310,2055,2056,2036,2065,2056,2053,1194
1987,1716347450386787654,2056,2056,2048,2054,2049,2049,1195
1988,1716347450396743513,2054,2048,2042,2053,2050,2056,1197
1989,1716347450406792542,2058,2056,2053,2045,2052,2050,1195
1990,1716347450416743552,2056,2053,2075,2060,2064,2057,1196
1991,1716347450426788342,2058,2059,2051,2051,2040,2052,1196
1992,1716347450436801933,2052,2045,2048,2057,2058,2056,1194
1993,1716347450446784063,2054,2077,2085,2069,2051,2057,1195
1994,1716347450456744171,2059,2060,2072,2056,2049,2054,1196
1995,1716347450466788640,2053,2052,2057,2054,2052,2049,1194
1996,1716347450476743959,2060,2064,2084,2064,2056,2056,1197
1997,1716347450486784652,2053,2062,2056,2044,2047,2050,1196
1998,1716347450496744069,2056,2051,2051,2061,2046,2059,1196
1999,1716347450506790182,2051,2051,2050,2047,2047,2053,1196
2000,1716347450516744178,2058,2050,2059,2056,2051,2055,1197
2001,1716347450526787475,2056,2054,2053,2057,2056,2052,1197
2002,1716347450536744337,2057,2052,2056,2052,2045,2058,1196
2003,1716347450546783466,2053,2050,2046,2052,2070,2050,1196
2004,1716347450556744095,2052,2048,2054,2055,2045,2050,1197
2005,1716347450566786942,2049,2056,2042,2052,2042,2053,1194
2006,1716347450576807986,2052,2047,2051,2051,2048,2054,1197
2007,1716347450586788885,2058,2061,2051,2058,2050,2050,1196
2008,1716347450596743923,2053,2050,2055,2055,2052,2057,1194
2009,1716347450606789765,2056,2056,2058,2052,2057,2052,1195
2010,1716347450616744102,2056,2047,2054,2056,2057,2056,1195
2011,1716347450626790786,2053,2056,2053,2056,2045,2046,1193
2012,1716347450636797323,2056,2054,2073,2058,2060,2053,1197
2013,1716347450646782930,2053,2056,2058,2050,2052,2051,1194
2014,1716347450656825486,2058,2056,2071,2064,2061,2057,1197
2015,1716347450666798969,2054,2056,2044,2053,2058,2049,1196
2016,1716347450676804314,2056,2057,2105,2055,2055,2056,1196
2017,1716347450686784762,2052,2054,2045,2048,2052,2052,1197
2018,1716347450696741142,2053,2035,2056,2058,2064,2055,1197
2019,1716347450706789770,2055,2050,2051,2047,2056,2053,1198
2020,1716347450716741912,2053,2059,2095,2062,2057,2060,1195
2021,1716347450726791642,2053,2052,2043,2052,2052,2048,1197
2022,1716347450736797428,2054,2052,2052,2064,2054,2048,1197
2023,1716347450746793835,2055,2052,2041,2052,2045,2050,1197
2024,1716347450756797486,2058,2058,2065,2052,2058,2056,1196
2025,1716347450766802079,2058,2064,2102,2051,2044,2049,1195
2026,1716347450776744474,2057,2072,2069,2053,2044,2057,1198
2027,1716347450786789435,2056,2057,2055,2060,2053,2053,1196
2028,1716347450796742870,2053,2046,2050,2044,2056,2055,1195
2029,1716347450806788402,2054,2054,2047,2053,2055,2050,1196
2030,1716347450816743590,2052,2046,2052,2055,2049,2056,1196
2031,1716347450826789392,2057,2050,2030,2051,2051,2053,1195
2032,1716347450836744160,2056,2058,2050,2058,2057,2056,1197
2033,1716347450846788008,2052,2040,2071,2060,2057,2054,1195
2034,1716347450856745511,2054,2040,2051,2056,2058,2057,1194
2035,1716347450866792506,2055,2056,2090,2060,2064,2052,1196
2036,1716347450876742455,2056,2048,2054,2040,2047,2053,1196
2037,1716347450886798066,2056,2053,2047,2050,2057,2045,1193
2038,1716347450896745129,2056,2054,2053,2056,2049,2052,1193
2039,1716347450906790941,2051,2056,2044,2052,2052,2050,1197
2040,1716347450916743234,2056,2045,2042,2050,2050,2054,1195
2041,1716347450926794416,2056,2057,2051,2049,2048,2054,1196
2042,1716347450936743443,2057,2049,2067,2057,2056,2056,1196
2043,1716347450946788413,2053,2059,2062,2053,2051,2046,1195
2044,1716347450956743912,2053,2052,2052,2060,2054,2058,1196
2045,1716347450966791999,2058,2052,2042,2061,2054,2049,1196
2046,1716347450976744503,2053,2047,2059,2047,2049,2056,1195
2047,1716347450986788372,2056,2061,2072,2055,2034,2050,1196
2048,1716347450996744702,2055,2050,2059,2055,2050,2056,1193
2049,1716347451006789943,2055,2055,2047,2043,2044,2048,1197
2050,1716347451016748318,2052,2033,2047,2053,2050,2051,1196
2051,1716347451026792657,2055,2041,2042,2056,2050,2048,1196
2052,1716347451036743838,2055,2056,2056,2059,2048,2058,1196
2053,1716347451046788738,2052,2052,2050,2056,2053,2049,1194
2054,1716347451056742695,2054,2050,2049,2051,2045,2056,1195
2055,1716347451066792005,2060,2061,2072,2056,2048,2052,1197
2056,1716347451076798662,2057,2051,2068,2061,2051,2056,1195
2057,1716347451086796582,2056,2054,2050,2060,2057,2052,1195
2058,1716347451096742292,2056,2056,2096,2061,2053,2058,1197
2059,1716347451106789748,2056,2050,2052,2052,2054,2051,1197
2060,1716347451116863824,2052,2051,2064,2075,2061,2057,1196
2061,1716347451126787812,2059,2054,2043,2056,2045,2053,1197
2062,1716347451136797917,2059,2053,2049,2059,2051,2053,1199
2063,1716347451146803683,2054,2058,2061,2052,2051,2050,1197
2064,1716347451156744834,2054,2046,2037,2066,2058,2056,1200
2065,1716347451166797600,2052,2059,2067,2061,2053,2049,1196
2066,1716347451176802403,2060,2060,2052,2062,2053,2061,1196
2067,1716347451186784764,2057,2053,2056,2053,2045,2054,1197
2068,1716347451196750342,2056,2052,2047,2063,2061,2056,1194
2069,1716347451206796996,2056,2064,2054,2050,2045,2049,1197
2070,1716347451216810267,2058,2055,2089,2056,2058,2056,1194
2071,1716347451226795833,2056,2062,2084,2042,2050,2052,1197
2072,1716347451236750451,2053,2053,2055,2065,2062,2057,1196
2073,1716347451246796353,2056,2053,2041,2056,2056,2052,1197
2074,1716347451256742604,2057,2068,2064,2060,2042,2049,1194
2075,1716347451266772877,2062,2061,2054,2046,2052,2054,1196
2076,1716347451276798450,2056,2045,2034,2056,2052,2060,1198
2077,1716347451286790981,2052,2049,2021,2050,2052,2048,1196
2078,1716347451296794613,2059,2060,2072,2057,2055,2058,1197
2079,1716347451306796110,2053,2057,2043,2052,2066,2055,1196
2080,1716347451316803027,2052,2067,2052,2058,2043,2057,1196
2081,1716347451326800296,2062,2062,2065,2056,2069,2051,1198
2082,1716347451336800521,2056,2052,2056,2064,2064,2056,1197
2083,1716347451346797390,2056,2053,2042,2053,2049,2046,1192
2084,1716347451356803977,2056,2056,2057,2058,2067,2057,1196
2085,1716347451366802940,2062,2064,2048,2048,2054,2056,1196
2086,1716347451376805780,2054,2050,2064,2054,2053,2057,1196
2087,1716347451386807337,2058,2050,2054,2056,2050,2050,1195
2088,1716347451396812421,2048,2036,2036,2051,2053,2054,1193
2089,1716347451406802687,2053,2056,2027,2056,2057,2055,1197
2090,1716347451416807270,2056,2050,2072,2042,2053,2056,1195
2091,1716347451426802856,2055,2060,2096,2056,2055,2051,1196
2092,1716347451436809013,2068,2080,2075,2074,2068,2059,1196
2093,1716347451446784290,2052,2056,2047,2051,2047,2052,1196
2094,1716347451456799373,2051,2053,2053,2060,2058,2056,1195
2095,1716347451466812894,2056,2049,2048,2044,2047,2045,1193
2096,1716347451476811866,2052,2044,2050,2048,2041,2053,1197
2097,1716347451486806209,2052,2056,2054,2049,2042,2052,1196
2098,1716347451496796335,2057,2051,2044,2041,2046,2053,1197
2099,1716347451506793043,2050,2047,2031,2051,2048,2052,1196
2100,1716347451516744184,2056,2050,2052,2052,2048,2060,1197
2101,1716347451526785939,2053,2056,2047,2053,2053,2053,1198
2102,1716347451536745756,2055,2043,2056,2053,2053,2056,1197
2103,1716347451546795656,2056,2052,2050,2042,2052,2053,1198
2104,1716347451556797514,2056,2060,2091,2064,2055,2059,1197
2105,1716347451566794773,2058,2083,2036,2052,2056,2052,1197
2106,1716347451576798625,2058,2052,2062,2055,2051,2054,1198
2107,1716347451586782870,2053,2047,2040,2051,2054,2049,1198
2108,1716347451596742116,2051,2044,2034,2080,2076,2059,1195
2109,1716347451606808528,2055,2065,2073,2050,2042,2044,1193
2110,1716347451616744579,2057,2053,2036,2064,2056,2054,1196
2111,1716347451626789540,2053,2049,2043,2052,2050,2053,1196
2112,1716347451636798582,2060,2052,2048,2064,2073,2056,1196
2113,1716347451646791232,2056,2048,2042,2047,2056,2052,1196
2114,1716347451656747011,2057,2066,2060,2056,2032,2050,1196
2115,1716347451666797574,2060,2067,2061,2053,2063,2053,1196
2116,1716347451676755808,2052,2041,2051,2055,2047,2058,1198
2117,1716347451686792092,2056,2060,2047,2059,2047,2046,1194
2118,1716347451696742852,2052,2047,2039,2060,2060,2057,1198
2119,1716347451706791369,2056,2064,2072,2064,2056,2051,1198
2120,1716347451716744724,2052,2045,2050,2061,2060,2058,1195
2121,1716347451726792721,2053,2047,2035,2052,2053,2047,1195
2122,1716347451736803948,2050,2057,2046,2057,2060,2054,1197
2123,1716347451746785727,2055,2048,2032,2052,2056,2055,1197
2124,1716347451756743991,2053,2041,2040,2042,2041,2052,1197
2125,1716347451766794182,2052,2053,2045,2078,2066,2053,1197
2126,1716347451776799607,2057,2052,2047,2053,2056,2053,1195
2127,1716347451786787017,2058,2058,2051,2060,2058,2051,1198
2128,1716347451796742636,2054,2049,2080,2072,2088,2060,1194
2129,1716347451806780854,2056,2060,2050,2053,2057,2051,1196
2130,1716347451816803893,2050,2032,2049,2056,2059,2056,1194
2131,1716347451826794800,2052,2050,2058,2061,2051,2056,1197
2132,1716347451836798532,2052,2050,2050,2054,2052,2052,1197
2133,1716347451846792344,2058,2056,2048,2050,2054,2052,1197
2134,1716347451856797218,2053,2045,2044,2065,2055,2054,1196
2135,1716347451866798555,2053,2056,2064,2055,2051,2052,1196
2136,1716347451876803859,2052,2047,2034,2056,2047,2053,1196
2137,1716347451886793214,2056,2048,2042,2065,2045,2048,1198
2138,1716347451896804861,2054,2060,2060,2059,2049,2054,1197
2139,1716347451906792792,2054,2060,2052,2058,2053,2053,1198
2140,1716347451916801333,2056,2045,2041,2056,2058,2061,1196
2141,1716347451926793432,2062,2064,2056,2066,2057,2054,1194
2142,1716347451936798847,2056,2042,2046,2060,2054,2053,1198
2143,1716347451946793220,2052,2053,2053,2056,2051,2056,1197
2144,1716347451956801631,2059,2054,2061,2065,2058,2057,1197
2145,1716347451966797017,2057,2049,2030,2065,2056,2051,1196
2146,1716347451976796531,2053,2046,2038,2066,2060,2056,1197
2147,1716347451986792928,2057,2053,2027,2052,2053,2056,1195
2148,1716347451996741383,2054,2038,2032,2066,2077,2058,1195
2149,1716347452006793758,2053,2052,2044,2058,2056,2052,1196
2150,1716347452016796718,2055,2047,2034,2062,2055,2058,1195
2151,1716347452026795310,2056,2053,2064,2060,2051,2050,1195
2152,1716347452036813621,2056,2049,2064,2056,2041,2056,1196
2153,1716347452046785922,2053,2053,2044,2050,2044,2052,1199
2154,1716347452056798130,2055,2054,2032,2066,2053,2055,1198
2155,1716347452066800108,2060,2063,2060,2053,2060,2054,1195
2156,1716347452076803549,2056,2045,2053,2055,2053,2056,1196
2157,1716347452086817590,2050,2050,2037,2052,2052,2052,1195
2158,1716347452096752009,2060,2070,2123,2069,2057,2060,1195
2159,1716347452106798754,2056,2052,2051,2048,2049,2053,1196
2160,1716347452116805621,2054,2054,2044,2061,2065,2058,1195
2161,1716347452126822488,2054,2056,2055,2053,2051,2051,1197
2162,1716347452136816431,2060,2050,2044,2064,2049,2053,1198
2163,1716347452146795084,2052,2056,2048,2045,2037,2045,1193
2164,1716347452156803465,2057,2058,2081,2060,2052,2053,1197
2165,1716347452166803740,2056,2053,2030,2057,2049,2051,1198
2166,1716347452176810518,2053,2049,2053,2060,2056,2052,1196
2167,1716347452186796856,2052,2050,2040,2050,2048,2049,1197
2168,1716347452196798153,2056,2053,2080,2059,2054,2057,1195
2169,1716347452206804269,2055,2064,2114,2051,2045,2054,1196
2170,1716347452216810907,2049,2046,2041,2051,2041,2056,1196
2171,1716347452226805150,2056,2072,2043,2056,2052,2049,1195
2172,1716347452236824542,2056,2051,2052,2068,2094,2062,1194
2173,1716347452246799768,2056,2056,2040,2056,2046,2050,1195
2174,1716347452256808650,2052,2043,2054,2054,2053,2054,1195
2175,1716347452266810498,2051,2035,2037,2073,2056,2058,1195
2176,1716347452276817437,2060,2037,2029,2059,2062,2056,1194
2177,1716347452286808814,2056,2062,2066,2053,2045,2054,1197
2178,1716347452296801474,2058,2052,2057,2069,2063,2060,1197
2179,1716347452306794766,2056,2053,2047,2056,2052,2051,1196
2180,1716347452316750856,2061,2056,2050,2063,2055,2058,1195
2181,1716347452326797209,2058,2053,2078,2054,2053,2052,1196
2182,1716347452336816181,2054,2046,2036,2057,2058,2057,1195
2183,1716347452346785787,2053,2046,2056,2056,2052,2049,1198
2184,1716347452356743029,2052,2054,2045,2056,2052,2056,1197
2185,1716347452366798360,2051,2048,2038,2055,2056,2052,1196
2186,1716347452376807231,2064,2056,2053,2052,2061,2055,1195
2187,1716347452386797246,2053,2052,2072,2050,2061,2053,1199
2188,1716347452396751714,2057,2048,2045,2056,2052,2056,1195
2189,1716347452406792808,2066,2080,2093,2076,2072,2056,1197
2190,1716347452416742706,2055,2045,2043,2050,2041,2058,1195
2191,1716347452426791434,2054,2062,2088,2058,2052,2049,1195
2192,1716347452436796217,2053,2049,2046,2056,2052,2056,1194
2193,1716347452446793496,2057,2065,2065,2072,2056,2056,1198
2194,1716347452456751320,2052,2036,2057,2058,2051,2053,1195
2195,1716347452466794117,2058,2062,2051,2062,2053,2051,1195
2196,1716347452476806616,2056,2044,2037,2041,2050,2053,1196
2197,1716347452486801991,2047,2044,2037,2048,2072,2053,1196
2198,1716347452496741519,2054,2053,2060,2057,2056,2056,1198
2199,1716347452506791780,2052,2057,2050,2054,2061,2057,1197
2200,1716347452516745596,2053,2050,2053,2056,2056,2056,1195
2201,1716347452526793814,2056,2053,2036,2054,2051,2057,1195
2202,1716347452536807364,2056,2058,2054,2067,2056,2056,1196
2203,1716347452546785316,2061,2064,2066,2062,2065,2052,1198
2204,1716347452556803676,2056,2052,2072,2048,2056,2052,1199
2205,1716347452566795615,2054,2053,2050,2056,2046,2054,1195
2206,1716347452576743699,2056,2052,2056,2056,2056,2057,1197
2207,1716347452586795013,2054,2049,2052,2052,2053,2051,1197
2208,1716347452596743669,2060,2056,2056,2066,2055,2056,1194
2209,1716347452606795623,2052,2070,2070,2056,2052,2051,1196
2210,1716347452616798212,2056,2046,2053,2053,2052,2056,1195
2211,1716347452626792686,2059,2061,2058,2057,2053,2052,1195
2212,1716347452636744338,2051,2048,2052,2056,2057,2056,1197
