seq,time,data[0],data[1],data[2],data[3],data[4],data[5],data[6]
201,1713854459307321680,2051,2032,2036,2002,2059,2050,1196
202,1713854459317316647,2058,2060,2052,2028,2041,2052,1198
203,1713854459327313107,2056,2064,2065,2056,2060,2051,1197
204,1713854459337315217,2051,2032,2051,2057,2042,2054,1196
205,1713854459347318770,2062,2076,2090,2061,2056,2049,1196
206,1713854459357315701,2038,2001,2021,2052,2040,2052,1197
207,1713854459367320667,2053,2041,2044,2068,2063,2050,1196
208,1713854459377316806,2054,2045,2067,2094,2041,2054,1197
209,1713854459387314227,2053,2037,2037,2081,2072,2053,1197
210,1713854459397314003,2054,2037,2059,2047,2035,2054,1197
211,1713854459407314041,2060,2033,2037,2065,2061,2048,1195
212,1713854459417313516,2058,2038,2036,2058,2046,2053,1196
213,1713854459427312580,2061,2080,2056,2057,2064,2054,1196
214,1713854459437314730,2049,2029,2034,2064,2029,2056,1197
215,1713854459447316220,2058,2052,2018,2036,2052,2046,1194
216,1713854459457315265,2057,2058,2085,2062,2043,2058,1196
217,1713854459467313488,2050,2059,2059,2052,2058,2046,1194
218,1713854459477314125,2049,2044,2043,2023,2045,2053,1197
219,1713854459487313901,2056,2051,2052,2045,2062,2048,1194
220,1713854459497316142,2053,2083,2030,2062,2056,2058,1196
221,1713854459507312542,2050,2057,2058,2033,2043,2045,1194
222,1713854459517312548,2048,2034,2031,2058,2042,2056,1195
223,1713854459527312414,2052,2056,2042,2057,2062,2053,1196
224,1713854459537312441,2052,2046,2019,2053,2040,2056,1196
225,1713854459547316034,2060,2084,2042,2045,2061,2048,1196
226,1713854459557314578,2057,2058,2062,2102,2045,2056,1197
227,1713854459567316948,2056,2057,2053,2081,2066,2050,1195
228,1713854459577315423,2056,2050,2054,2060,2040,2056,1196
229,1713854459587313626,2053,2044,2049,2049,2061,2051,1197
230,1713854459597317259,2056,2049,2081,2056,2036,2056,1197
231,1713854459607320010,2058,2084,2133,2120,2071,2050,1197
232,1713854459617314526,2048,2033,2031,2105,2039,2056,1197
233,1713854459627316737,2054,2054,2051,2048,2064,2051,1197
234,1713854459637316062,2052,2049,2057,2059,2043,2056,1197
235,1713854459647324815,2050,2038,2029,2049,2064,2050,1198
236,1713854459657318810,2046,2041,2042,2062,2045,2052,1198
237,1713854459667313056,2038,1994,2001,2082,2085,2047,1195
238,1713854459677310357,2057,2060,2086,2116,2046,2059,1195
239,1713854459687315563,2053,2046,2042,2062,2055,2047,1193
240,1713854459697313065,2060,2047,2050,2065,2044,2056,1195
241,1713854459707314615,2054,2076,2083,2055,2054,2050,1195
242,1713854459717315262,2051,2056,2060,2053,2038,2060,1196
243,1713854459727315469,2056,2056,2046,2066,2063,2052,1198
244,1713854459737313391,2051,2053,2061,2058,2043,2052,1194
245,1713854459747314290,2056,2080,2025,2037,2064,2048,1195
246,1713854459757312132,2046,2034,2068,1998,2034,2048,1195
247,1713854459767313171,2060,2040,2045,2064,2062,2052,1197
248,1713854459777312195,2053,2061,2074,2068,2040,2056,1196
249,1713854459787313604,2053,2043,2043,2025,2061,2050,1199
250,1713854459797313170,2060,2064,2101,2104,2051,2055,1196
251,1713854459807350918,2052,2059,2049,2041,2057,2051,1197
252,1713854459817350343,2057,2067,2103,2075,2030,2054,1195
253,1713854459827311436,2052,2057,2053,2040,2046,2047,1195
254,1713854459837357179,2052,2041,2042,2062,2047,2057,1197
255,1713854459847351294,2057,2053,2072,2104,2073,2056,1195
256,1713854459857305945,2052,2044,2051,2045,2044,2053,1197
257,1713854459867352960,2048,2036,2033,2073,2061,2050,1197
258,1713854459877334402,2058,2058,2040,2081,2050,2056,1195
259,1713854459887354496,2050,2040,2044,2068,2062,2051,1196
260,1713854459897333383,2052,2052,2047,2089,2045,2050,1196
261,1713854459907334801,2056,2057,2082,2068,2072,2054,1199
262,1713854459917335719,2049,2035,2045,2071,2041,2057,1194
263,1713854459927336608,2052,2063,2061,2071,2062,2052,1195
264,1713854459937335272,2053,2052,2059,2018,2025,2050,1195
265,1713854459947355947,2052,2049,2045,2064,2063,2054,1196
266,1713854459957359570,2056,2054,2057,2056,2040,2059,1195
267,1713854459967336825,2051,2059,2041,2040,2060,2044,1193
268,1713854459977336380,2050,2044,2076,2045,2061,2056,1197
269,1713854459987345123,2049,2045,2033,2052,2064,2049,1198
270,1713854459997338787,2069,2057,2039,2056,2045,2058,1198
271,1713854460007372186,2060,2060,2065,2054,2064,2051,1198
272,1713854460017342195,2049,2040,2045,2053,2044,2056,1196
273,1713854460027364293,2061,2058,2064,2040,2060,2051,1197
274,1713854460037329864,2056,2048,2048,2031,2024,2052,1196
275,1713854460047344157,2061,2076,2049,2064,2076,2054,1196
276,1713854460057329716,2047,2040,2036,2088,2040,2057,1195
277,1713854460067327057,2059,2047,2044,2053,2070,2052,1197
278,1713854460077328586,2045,2015,2024,2077,2040,2053,1195
279,1713854460087326388,2056,2056,2072,2054,2060,2052,1197
280,1713854460097335131,2045,2005,2022,1999,2041,2058,1195
281,1713854460107326771,2069,2064,2043,2059,2069,2054,1194
282,1713854460117327398,2050,2042,2045,2086,2057,2056,1196
283,1713854460127326282,2052,2038,2040,2067,2059,2052,1195
284,1713854460137322370,2056,2040,2059,2062,2049,2052,1196
285,1713854460147321805,2052,2048,2030,2051,2064,2050,1194
286,1713854460157326621,2056,2060,2047,2044,2040,2056,1198
287,1713854460167323120,2050,2047,2035,2041,2062,2050,1197
288,1713854460177319910,2054,2058,2059,2056,2043,2055,1196
289,1713854460187325417,2056,2064,2043,2047,2062,2047,1193
290,1713854460197319261,2056,2044,2040,2064,2044,2056,1195
291,1713854460207320260,2056,2048,2058,2060,2068,2049,1197
292,1713854460217316589,2054,2039,2033,2061,2052,2059,1198
293,1713854460227321194,2057,2040,2042,2036,2059,2053,1197
294,1713854460237318064,2052,2049,2048,2018,2032,2053,1197
295,1713854460247317698,2057,2060,2068,2040,2049,2044,1198
296,1713854460257315360,2052,2037,2041,2106,2049,2060,1196
297,1713854460267315987,2056,2051,2041,2045,2058,2052,1198
298,1713854460277313709,2053,2052,2052,2060,2045,2057,1197
299,1713854460287313545,2054,2048,2050,2045,2060,2050,1194
300,1713854460297311487,2057,2089,2065,2063,2043,2054,1195
301,1713854460307314459,2054,2054,2060,2052,2065,2053,1196
302,1713854460317348891,2056,2047,2050,2039,2068,2058,1197
303,1713854460327314782,2055,2064,2066,2081,2055,2048,1197
304,1713854460337309839,2055,2062,2064,2050,2041,2052,1197
305,1713854460347316338,2056,2062,2061,2065,2061,2049,1196
306,1713854460357308138,2062,2094,2051,2087,2047,2049,1196
307,1713854460367311139,2058,2060,2059,2050,2065,2050,1195
308,1713854460377305274,2057,2055,2057,2064,2044,2056,1197
309,1713854460387308256,2056,2056,2044,2034,2056,2048,1199
310,1713854460397303453,2052,2045,2045,2056,2042,2056,1197
311,1713854460407306585,2051,2037,2045,2051,2060,2050,1197
312,1713854460417304457,2042,2021,2056,2060,2043,2053,1194
313,1713854460427305756,2049,2042,2045,2035,2047,2050,1196
314,1713854460437303949,2056,2046,2040,2051,2024,2054,1196
315,1713854460447305468,2049,2041,2044,2008,2056,2050,1196
316,1713854460457300254,2058,2036,2044,2053,2037,2056,1195
317,1713854460467301883,2065,2072,2048,2024,2060,2046,1193
318,1713854460477300386,2051,2058,2047,2051,2046,2057,1193
319,1713854460487302346,2053,2049,2046,2064,2041,2042,1193
320,1713854460497304055,2054,2048,2056,2060,2051,2056,1194
321,1713854460507309802,2049,2045,2053,1972,2056,2047,1193
322,1713854460517299449,2047,2043,2049,2063,2041,2052,1194
323,1713854460527301729,2059,2068,2053,2061,2056,2049,1196
324,1713854460537300533,2045,2042,2044,2059,2037,2053,1195
325,1713854460547314886,2053,2053,2049,2054,2069,2050,1195
326,1713854460557300145,2054,2043,2036,2060,2043,2053,1196
327,1713854460567300902,2053,2059,2056,2063,2049,2048,1198
328,1713854460577306900,2065,2090,2072,2070,2056,2057,1196
329,1713854460587308950,2056,2063,2038,2027,2053,2050,1195
330,1713854460597308444,2059,2057,2047,2082,2045,2056,1196
331,1713854460607305545,2056,2046,2056,2066,2060,2048,1198
332,1713854460617300331,2066,2077,2073,2061,2043,2053,1194
333,1713854460627334832,2053,2055,2063,2065,2061,2050,1196
334,1713854460637302017,2053,2061,2054,2059,2044,2055,1196
335,1713854460647305129,2053,2032,2042,2041,2064,2046,1193
336,1713854460657331114,2053,2049,2051,2072,2045,2055,1196
337,1713854460667302797,2058,2066,2076,2067,2072,2051,1194
338,1713854460677315737,2060,2057,2096,2067,2046,2057,1194
339,1713854460687309542,2056,2047,2057,2044,2069,2053,1195
340,1713854460697312063,2057,2024,2038,2070,2034,2056,1196
341,1713854460707304294,2053,2047,2058,2037,2070,2058,1197
342,1713854460717301243,2054,2046,2036,2050,2047,2056,1196
343,1713854460727319444,2060,2056,2053,2066,2052,2047,1192
344,1713854460737324199,2057,2048,2060,2053,2038,2053,1196
345,1713854460747307033,2053,2047,2036,2042,2060,2047,1195
346,1713854460757300918,2053,2045,2033,2052,2036,2056,1198
347,1713854460767303318,2075,2073,2051,2070,2059,2052,1197
348,1713854460777313684,2060,2063,2066,2060,2047,2054,1196
349,1713854460787298301,2056,2057,2054,2048,2064,2054,1200
350,1713854460797314518,2057,2056,2050,2064,2066,2061,1196
351,1713854460807322199,2056,2062,2040,2033,2057,2050,1196
352,1713854460817301917,2044,2036,2047,2048,2030,2052,1196
353,1713854460827314486,2056,2054,2062,2057,2065,2049,1197
354,1713854460837298702,2058,2092,2047,2064,2056,2059,1194
355,1713854460847301393,2052,2060,2076,2064,2064,2052,1197
356,1713854460857303433,2061,2091,2079,2070,2043,2058,1196
357,1713854460867302147,2049,2041,2031,2054,2065,2049,1196
358,1713854460877316059,2056,2055,2061,2067,2037,2056,1194
359,1713854460887300596,2057,2052,2051,2054,2061,2052,1194
360,1713854460897309519,2052,2044,2054,2056,2044,2058,1195
361,1713854460907301400,2060,2059,2051,2006,2058,2052,1197
362,1713854460917319170,2050,2048,2044,2054,2042,2056,1195
363,1713854460927299669,2065,2078,2076,2001,2098,2056,1195
364,1713854460937302661,2052,2054,2057,2068,2042,2053,1196
365,1713854460947312154,2054,2048,2060,2061,2074,2050,1197
366,1713854460957301731,2054,2049,2029,2049,2041,2054,1196
367,1713854460967303099,2054,2053,2044,2098,2069,2052,1196
368,1713854460977310069,2061,2056,2053,2058,2045,2056,1193
369,1713854460987319763,2056,2054,2050,2035,2046,2048,1197
370,1713854460997308508,2051,2041,2044,2050,2044,2054,1196
371,1713854461007300870,2061,2075,2074,2058,2076,2053,1196
372,1713854461017303670,2050,2040,2049,2045,2042,2051,1194
373,1713854461027301242,2051,2047,2058,2036,2062,2051,1197
374,1713854461037321937,2049,2031,2038,2065,2054,2052,1195
375,1713854461047303347,2049,2049,2063,2053,2062,2052,1197
376,1713854461057301911,2052,2053,2061,2013,2032,2056,1196
377,1713854461067305784,2060,2070,2072,2059,2075,2054,1195
378,1713854461077301120,2046,2049,2064,2054,2029,2054,1195
379,1713854461087300926,2058,2050,2053,2062,2057,2052,1195
380,1713854461097306692,2056,2054,2067,2047,2035,2060,1195
381,1713854461107304915,2052,2028,2049,2054,2057,2049,1197
382,1713854461117313807,2057,2044,2034,2072,2041,2053,1194
383,1713854461127305858,2065,2107,2090,2061,2064,2053,1196
384,1713854461137303700,2043,2020,2026,2058,2040,2052,1197
385,1713854461147303936,2055,2040,2048,2070,2049,2051,1193
386,1713854461157301297,2060,2043,2049,2073,2069,2056,1196
387,1713854461167302315,2052,2053,2033,2053,2064,2052,1195
388,1713854461177304685,2058,2056,2056,2065,2051,2060,1198
389,1713854461187310792,2065,2064,2072,2064,2081,2050,1198
390,1713854461197304796,2060,2040,2044,2057,2047,2057,1196
391,1713854461207301215,2056,2064,2091,2035,2077,2051,1197
392,1713854461217321820,2054,2046,2046,2069,2059,2056,1196
393,1713854461227302970,2059,2058,2065,2056,2057,2049,1197
394,1713854461237299950,2048,2049,2045,2044,2037,2053,1195
395,1713854461247325945,2056,2060,2052,2037,2080,2052,1196
396,1713854461257307897,2052,2050,2049,2075,2056,2057,1200
397,1713854461267305367,2051,2044,2050,2042,2057,2050,1196
398,1713854461277310333,2039,1993,2032,2045,2045,2051,1194
399,1713854461287310439,2056,2061,2091,2041,2069,2056,1196
400,1713854461297303281,2052,2072,2063,2062,2063,2057,1194
401,1713854461307315891,2050,2043,2049,2043,2056,2050,1195
402,1713854461317324151,2054,2031,2043,2054,2047,2055,1196
403,1713854461327305943,2061,2056,2072,2088,2074,2054,1197
404,1713854461337302262,2049,2024,2058,2056,2041,2055,1196
405,1713854461347303239,2057,2058,2064,2080,2064,2050,1197
406,1713854461357302784,2052,2065,2043,2056,2040,2050,1195
407,1713854461367304974,2060,2074,2070,2058,2043,2049,1197
408,1713854461377316361,2051,2043,2036,2056,2028,2054,1197
409,1713854461387309143,2057,2060,2068,2040,2037,2047,1195
410,1713854461397303528,2052,2056,2075,2089,2041,2058,1196
411,1713854461407302823,2055,2057,2040,2056,2058,2051,1195
412,1713854461417325662,2047,2009,2024,2048,2069,2057,1195
413,1713854461427305760,2058,2061,2064,2066,2069,2056,1197
414,1713854461437302159,2052,2048,2074,2064,2045,2051,1196
415,1713854461447303227,2053,2051,2076,2052,2054,2053,1197
416,1713854461457302982,2061,2065,2058,2074,2046,2060,1198
417,1713854461467301715,2069,2108,2076,2048,2061,2049,1198
418,1713854461477303535,2056,2049,2069,2055,2036,2055,1195
419,1713854461487305734,2052,2056,2054,2060,2064,2049,1196
420,1713854461497302394,2049,2036,2035,2022,2034,2051,1197
421,1713854461507302119,2053,2069,2047,2048,2073,2047,1192
422,1713854461517352299,2054,2046,2070,2049,2041,2051,1196
423,1713854461527303503,2058,2056,2040,2047,2060,2056,1197
424,1713854461537300674,2050,2038,2049,2010,2045,2053,1195
425,1713854461547301651,2072,2068,2091,2046,2056,2052,1197
426,1713854461557300986,2058,2060,2058,2056,2056,2058,1198
427,1713854461567302354,2053,2048,2056,2043,2058,2054,1196
428,1713854461577305255,2047,2047,2050,2053,2044,2056,1196
429,1713854461587308297,2050,2044,2080,2045,2061,2050,1196
430,1713854461597308843,2057,2057,2075,2070,2041,2052,1196
431,1713854461607308248,2056,2055,2051,2064,2060,2051,1196
432,1713854461617339703,2050,2034,2039,2067,2037,2048,1196
433,1713854461627306476,2056,2053,2049,2051,2052,2050,1195
434,1713854461637302043,2048,2030,2046,2009,2045,2054,1195
435,1713854461647306117,2059,2054,2043,2049,2059,2052,1199
436,1713854461657306904,2054,2056,2034,2061,2036,2053,1197
437,1713854461667315897,2060,2068,2033,2056,2060,2050,1195
438,1713854461677305673,2046,2034,2036,2088,2024,2048,1193
439,1713854461687303475,2060,2080,2071,2043,2058,2051,1195
440,1713854461697303230,2055,2046,2049,2064,2049,2058,1195
441,1713854461707310700,2052,2060,2043,2072,2056,2050,1195
442,1713854461717333468,2056,2062,2078,2062,2041,2056,1196
443,1713854461727305872,2052,2050,2075,2054,2070,2052,1196
444,1713854461737305066,2063,2050,2052,2055,2051,2056,1194
445,1713854461747305253,2053,2043,2065,2052,2063,2053,1196
446,1713854461757307363,2052,2045,2046,2072,2032,2050,1195
447,1713854461767303240,2063,2068,2041,2064,2060,2053,1195
448,1713854461777312834,2053,2050,2076,2064,2049,2058,1197
449,1713854461787301748,2062,2076,2056,2047,2055,2049,1199
450,1713854461797308527,2046,2039,2047,2053,2044,2050,1197
451,1713854461807303574,2060,2056,2056,2054,2056,2053,1196
452,1713854461817334648,2047,2017,2030,2073,2052,2056,1195
453,1713854461827305649,2049,2045,2053,2053,2059,2049,1196
454,1713854461837302899,2058,2062,2074,2077,2057,2050,1195
455,1713854461847313996,2051,2049,2047,2054,2060,2051,1196
456,1713854461857299796,2049,2028,2028,2068,2044,2052,1197
457,1713854461867303498,2071,2094,2074,2026,2085,2054,1195
458,1713854461877312180,2050,2064,2070,2051,2037,2055,1193
459,1713854461887301826,2056,2055,2048,2052,2060,2048,1194
460,1713854461897307914,2066,2075,2053,2089,2060,2058,1195
461,1713854461907303351,2051,2032,2026,2034,2050,2048,1196
462,1713854461917324837,2072,2064,2049,2058,2033,2053,1195
463,1713854461927304445,2056,2062,2047,2052,2060,2051,1195
464,1713854461937307546,2053,2038,2045,2062,2045,2056,1197
465,1713854461947307792,2053,2062,2066,2069,2059,2049,1195
466,1713854461957304182,2058,2052,2053,2066,2049,2056,1195
467,1713854461967305098,2060,2060,2071,2057,2062,2052,1196
468,1713854461977307128,2048,2044,2056,2060,2037,2057,1197
469,1713854461987313966,2052,2032,2037,2049,2064,2050,1196
470,1713854461997303062,2055,2058,2051,2040,2046,2056,1195
471,1713854462007306464,2058,2074,2080,2050,2060,2052,1196
472,1713854462017326528,2052,2052,2080,2049,2050,2056,1196
473,1713854462027299912,2054,2074,2047,2049,2065,2054,1197
474,1713854462037304386,2056,2052,2064,2053,2043,2053,1194
475,1713854462047303460,2051,2029,2038,2037,2064,2046,1195
476,1713854462057307443,2056,2054,2088,2060,2046,2058,1195
477,1713854462067303250,2058,2054,2039,2065,2039,2050,1197
478,1713854462077309337,2048,2043,2053,2072,2037,2059,1195
479,1713854462087298903,2061,2049,2036,2083,2075,2056,1194
480,1713854462097304108,2060,2061,2066,2046,2046,2054,1194
481,1713854462107302109,2061,2072,2090,2047,2073,2056,1196
482,1713854462117327113,2051,2045,2058,2076,2069,2056,1197
483,1713854462127301409,2052,2054,2053,2029,2046,2046,1194
484,1713854462137300472,2051,2043,2038,2069,2045,2058,1197
485,1713854462147303223,2051,2052,2056,2066,2075,2050,1196
486,1713854462157300474,2049,2033,2068,2032,2045,2054,1196
487,1713854462167303715,2060,2060,2075,2065,2069,2054,1195
488,1713854462177312296,2059,2060,2056,2025,2037,2054,1196
489,1713854462187311180,2058,2042,2045,2061,2052,2052,1199
490,1713854462197303160,2053,2037,2048,2057,2037,2057,1195
491,1713854462207301141,2054,2052,2060,2053,2057,2050,1194
492,1713854462217317207,2053,2053,2059,2052,2028,2048,1197
493,1713854462227310961,2053,2036,2053,2042,2062,2047,1194
494,1713854462237304384,2060,2063,2048,2060,2044,2054,1196
495,1713854462247304870,2046,2036,2046,2073,2063,2051,1196
496,1713854462257305075,2050,2043,2053,2080,2040,2057,1196
497,1713854462267308528,2056,2046,2048,2079,2088,2054,1197
498,1713854462277304856,2052,2044,2042,2050,2044,2054,1193
499,1713854462287305402,2056,2081,2042,2044,2072,2049,1196
500,1713854462297305228,2045,2040,2033,2062,2040,2054,1195
501,1713854462307305424,2054,2054,2053,2000,2052,2048,1194
502,1713854462317320407,2046,2033,2046,2062,2033,2054,1198
503,1713854462327309292,2059,2043,2042,2061,2065,2053,1198
504,1713854462337306572,2049,2038,2041,2060,2044,2056,1196
505,1713854462347305124,2056,2054,2063,2062,2067,2051,1195
506,1713854462357305220,2053,2043,2052,2038,2033,2051,1196
507,1713854462367306588,2056,2047,2045,2040,2065,2050,1196
508,1713854462377307886,2054,2038,2050,2064,2070,2056,1197
509,1713854462387285058,2046,2034,2053,2045,2059,2048,1198
510,1713854462397307465,2072,2052,2068,2028,2037,2056,1195
511,1713854462407308413,2060,2094,2064,2054,2066,2056,1198
512,1713854462417320862,2048,2052,2054,2056,2053,2054,1197
513,1713854462427309475,2062,2077,2079,2073,2108,2060,1196
514,1713854462437308699,2050,2036,2038,2060,2045,2052,1197
515,1713854462447308335,2050,2030,2043,2040,2060,2049,1195
516,1713854462457309321,2061,2028,2053,2086,2047,2056,1194
517,1713854462467310379,2056,2051,2069,2076,2077,2053,1196
518,1713854462477310104,2052,2052,2068,2036,2047,2053,1194
519,1713854462487310219,2062,2064,2072,2086,2069,2064,1195
520,1713854462497310766,2056,2054,2058,2064,2054,2058,1197
521,1713854462507311403,2055,2047,2038,2009,2069,2049,1195
522,1713854462517320615,2061,2040,2046,2062,2049,2056,1195
523,1713854462527312645,2053,2046,2065,2049,2064,2052,1197
524,1713854462537311779,2054,2078,2048,2064,2040,2056,1196
525,1713854462547312506,2061,2101,2084,2059,2057,2056,1198
526,1713854462557313684,2047,2025,2032,2056,2040,2052,1196
527,1713854462567313579,2053,2048,2048,2038,2060,2052,1195
528,1713854462577313604,2052,2069,2056,2062,2040,2054,1195
529,1713854462587314341,2056,2052,2050,2076,2052,2052,1197
530,1713854462597314407,2065,2046,2039,2067,2044,2056,1195
531,1713854462607314672,2060,2063,2072,2079,2068,2052,1196
532,1713854462617334054,2056,2066,2073,2058,2038,2057,1194
533,1713854462627315154,2056,2037,2085,2077,2077,2054,1197
534,1713854462637315219,2054,2037,2032,2088,2028,2054,1196
535,1713854462647325153,2060,2057,2075,2047,2057,2052,1197
536,1713854462657315401,2054,2061,2052,2060,2046,2057,1195
537,1713854462667316288,2053,2046,2076,2052,2061,2048,1197
538,1713854462677316313,2052,2046,2056,2073,2032,2057,1193
539,1713854462687317060,2065,2053,2062,2049,2076,2053,1196
540,1713854462697317246,2058,2058,2079,2061,2040,2059,1196
541,1713854462707317471,2056,2060,2061,2050,2064,2049,1195
542,1713854462717317657,2047,2038,2030,2061,2045,2054,1195
543,1713854462727317653,2061,2078,2066,2036,2084,2052,1196
544,1713854462737320674,2050,2036,2032,2079,2045,2056,1195
545,1713854462747320048,2057,2061,2064,2081,2058,2049,1196
546,1713854462757318971,2057,2065,2047,2069,2039,2053,1195
547,1713854462767302105,2056,2058,2053,2049,2058,2051,1195
548,1713854462777302240,2044,2007,2022,2043,2048,2054,1196
549,1713854462787304299,2064,2064,2050,2076,2082,2054,1195
550,1713854462797302682,2052,2056,2050,2072,2041,2053,1197
551,1713854462807302868,2054,2056,2046,2054,2068,2049,1196
552,1713854462817303364,2058,2094,2052,2062,2054,2058,1195
553,1713854462827303640,2056,2054,2072,2056,2058,2048,1193
554,1713854462837269130,2052,2052,2045,2061,2055,2055,1195
555,1713854462847319972,2054,2051,2076,2072,2077,2053,1194
556,1713854462857305860,2051,2040,2057,2058,2049,2053,1197
557,1713854462867306287,2057,2050,2042,2056,2068,2051,1198
558,1713854462877324366,2052,2043,2046,2056,2048,2056,1193
559,1713854462887269498,2044,2034,2049,2041,2061,2048,1193
560,1713854462897306152,2057,2058,2066,2077,2043,2053,1195
561,1713854462907307791,2054,2060,2050,2064,2084,2052,1195
562,1713854462917325380,2049,2042,2047,2048,2044,2056,1194
563,1713854462927305567,2056,2056,2048,2073,2066,2050,1196
564,1713854462937304881,2052,2028,2030,2061,2033,2051,1194
565,1713854462947306130,2066,2060,2043,2037,2046,2050,1196
566,1713854462957304181,2053,2057,2052,2075,2053,2056,1195
567,1713854462967305198,2057,2061,2039,2052,2061,2052,1194
568,1713854462977310474,2064,2041,2072,2045,2040,2057,1196
569,1713854462987308576,2052,2042,2041,2034,2041,2049,1200
570,1713854462997309362,2045,2038,2064,2059,2038,2059,1196
571,1713854463007307845,2066,2074,2063,2021,2064,2049,1195
572,1713854463017310214,2048,2052,2078,2060,2043,2055,1195
573,1713854463027311040,2048,2040,2045,2073,2072,2053,1197
574,1713854463037308781,2053,2045,2066,2073,2048,2059,1197
575,1713854463047308125,2058,2067,2053,2054,2064,2054,1197
576,1713854463057307098,2056,2042,2060,2060,2041,2058,1196
577,1713854463067306422,2047,2047,2046,2040,2046,2048,1200
578,1713854463077307459,2044,2036,2042,2062,2048,2057,1197
579,1713854463087308867,2056,2061,2037,2038,2058,2049,1196
580,1713854463097311266,2055,2070,2088,2065,2027,2051,1196
581,1713854463107310039,2056,2047,2043,2042,2056,2047,1193
582,1713854463117310184,2054,2082,2078,2056,2034,2052,1196
583,1713854463127307885,2059,2070,2052,2030,2049,2048,1196
584,1713854463137347004,2047,2040,2064,2049,2021,2053,1195
585,1713854463147307895,2069,2058,2068,2069,2058,2051,1198
586,1713854463157333599,2053,2041,2055,2041,2040,2056,1197
587,1713854463167306403,2061,2069,2080,2058,2066,2052,1197
588,1713854463177285268,2058,2058,2060,2047,2046,2057,1196
589,1713854463187309107,2060,2064,2079,2050,2055,2050,1195
590,1713854463197308452,2050,2043,2045,2057,2040,2053,1197
591,1713854463207309599,2062,2084,2081,2084,2067,2051,1199
592,1713854463217308923,2053,2036,2049,2066,2057,2056,1195
593,1713854463227306162,2056,2057,2071,2049,2050,2052,1195
594,1713854463237324892,2055,2032,2037,2056,2037,2056,1196
595,1713854463247308717,2053,2052,2046,2042,2061,2049,1196
596,1713854463257308020,2055,2047,2068,2056,2058,2057,1197
597,1713854463267313196,2056,2056,2049,2057,2065,2049,1197
598,1713854463277308221,2048,2040,2043,2048,2056,2057,1194
599,1713854463287306963,2065,2143,2076,2043,2060,2052,1197
600,1713854463297311637,2043,2028,2023,2056,2041,2052,1195
601,1713854463307308256,2056,2056,2051,2055,2053,2045,1193
602,1713854463317312690,2050,2043,2048,2077,2068,2060,1196
603,1713854463327309048,2065,2069,2066,2054,2104,2056,1199
604,1713854463337316597,2053,2060,2049,2060,2036,2056,1197
605,1713854463347311963,2051,2062,2045,2074,2072,2050,1195
606,1713854463357307400,2047,2048,2050,2064,2041,2054,1196
607,1713854463367308427,2057,2060,2061,2065,2066,2050,1195
608,1713854463377309314,2058,2057,2073,2068,2043,2060,1195
609,1713854463387315340,2068,2059,2052,2081,2066,2050,1198
610,1713854463397310105,2051,2041,2043,2065,2040,2052,1197
611,1713854463407308086,2070,2075,2045,2080,2061,2053,1196
612,1713854463417307971,2050,2056,2056,2087,2052,2060,1195
613,1713854463427308217,2050,2052,2047,2056,2087,2052,1197
614,1713854463437317860,2057,2046,2047,2056,2036,2052,1198
615,1713854463447310030,2058,2064,2066,2050,2070,2050,1198
616,1713854463457306028,2053,2077,2053,2075,2045,2059,1196
617,1713854463467307726,2057,2060,2043,2068,2068,2055,1198
618,1713854463477307160,2050,2031,2042,2044,2040,2056,1196
619,1713854463487309629,2072,2102,2088,2062,2060,2051,1196
620,1713854463497308903,2052,2039,2034,2064,2057,2057,1195
621,1713854463507308197,2057,2057,2042,2061,2057,2048,1196
622,1713854463517310315,2053,2050,2085,2068,2040,2057,1194
623,1713854463527309209,2054,2064,2040,2064,2080,2052,1196
624,1713854463537337006,2048,2043,2046,2064,2044,2057,1197
625,1713854463547312294,2065,2053,2058,2000,2064,2047,1194
626,1713854463557307581,2057,2040,2041,2077,2041,2056,1198
627,1713854463567308527,2045,2008,2005,2036,2064,2049,1197
628,1713854463577305447,2064,2032,2005,2064,2045,2055,1200
629,1713854463587308137,2058,2045,1989,2054,2070,2056,1197
630,1713854463597315496,2050,2054,2057,2060,2062,2055,1196
631,1713854463607311383,2056,2079,2076,2048,2056,2047,1195
632,1713854463617308002,2048,2047,2060,2074,2052,2058,1196
633,1713854463627310201,2056,2043,2040,2022,2046,2045,1193
634,1713854463637406137,2059,2054,2037,2049,2041,2056,1196
635,1713854463647314760,2048,2047,2044,2002,2047,2045,1195
636,1713854463657308262,2067,2068,2059,2053,2036,2060,1197
637,1713854463667308969,2061,2077,2117,2071,2063,2050,1197
638,1713854463677309445,2054,2064,2045,2068,2042,2054,1194
639,1713854463687307075,2057,2056,2062,2088,2076,2054,1197
640,1713854463697315717,2051,2048,2057,2067,2046,2054,1196
641,1713854463707308247,2053,2070,2055,2040,2059,2048,1197
642,1713854463717307862,2056,2068,2035,2060,2033,2054,1197
643,1713854463727309159,2044,2024,2009,2080,2067,2049,1195
644,1713854463737342959,2067,2055,2033,2106,2041,2057,1197
645,1713854463747308548,2059,2071,2089,2050,2060,2049,1194
646,1713854463757308603,2051,2021,2037,2040,2034,2058,1197
647,1713854463767307356,2060,2046,2068,2050,2072,2052,1196
648,1713854463777307330,2052,2044,2040,2050,2041,2052,1197
649,1713854463787268813,2057,2053,2062,2032,2061,2047,1194
650,1713854463797312581,2046,2021,2020,2059,2041,2055,1198
651,1713854463807309130,2068,2085,2095,2059,2069,2052,1194
652,1713854463817308082,2052,2051,2052,2066,2056,2056,1198
653,1713854463827306364,2050,2044,2042,2064,2066,2048,1197
654,1713854463837331366,2056,2061,2052,2049,2039,2060,1198
655,1713854463847308969,2059,2077,2066,2060,2067,2052,1197
656,1713854463857312070,2047,2047,2029,2080,2039,2056,1195
657,1713854463867310803,2063,2058,2080,2059,2067,2052,1198
658,1713854463877304736,2050,2034,2049,2069,2084,2058,1196
659,1713854463887307597,2062,2059,2053,2045,2061,2047,1193
660,1713854463897309575,2052,2045,2077,2073,2040,2059,1196
661,1713854463907309250,2054,2079,2064,2088,2070,2050,1197
662,1713854463917308514,2047,2042,2053,2073,2044,2057,1196
663,1713854463927307737,2055,2077,2094,2072,2068,2050,1197
664,1713854463937336507,2050,2047,2068,2036,2047,2060,1196
665,1713854463947302798,2057,2051,2040,2003,2076,2053,1194
666,1713854463957307652,2048,2022,2046,2056,2052,2057,1194
667,1713854463967307697,2067,2058,2072,2044,2064,2050,1196
668,1713854463977307322,2054,2043,2065,2056,2029,2056,1195
669,1713854463987292849,2065,2076,2081,2068,2064,2047,1192
670,1713854463997296431,2048,2036,2040,2072,2035,2049,1197
671,1713854464007309751,2068,2090,2080,2020,2064,2051,1195
672,1713854464017309655,2050,2041,2041,2042,2040,2053,1195
673,1713854464027309951,2056,2061,2066,2058,2068,2050,1197
674,1713854464037336114,2060,2052,2044,2053,2033,2056,1197
675,1713854464047305872,2058,2076,2105,2042,2060,2049,1197
676,1713854464057310175,2048,2054,2049,2027,2036,2052,1196
677,1713854464067313296,2061,2068,2076,2032,2072,2048,1196
678,1713854464077309583,2048,2011,2035,2069,2041,2055,1194
679,1713854464087311011,2057,2043,2057,2047,2052,2047,1195
680,1713854464097315253,2049,2041,2036,2051,2027,2054,1196
681,1713854464107312543,2056,2058,2053,2053,2065,2048,1196
682,1713854464117311266,2056,2047,2036,2022,2044,2057,1194
683,1713854464127309717,2058,2092,2060,2044,2062,2047,1194
684,1713854464137311585,2049,2036,2032,2060,2034,2054,1195
685,1713854464147311840,2060,2058,2039,2052,2056,2048,1195
686,1713854464157309110,2056,2043,2058,2072,2049,2057,1194
687,1713854464167310938,2055,2057,2052,2062,2065,2046,1193
688,1713854464177310972,2053,2052,2060,2072,2052,2057,1194
689,1713854464187312089,2055,2052,2049,2044,2069,2049,1197
690,1713854464197312846,2052,2058,2060,2071,2047,2058,1197
691,1713854464207312710,2067,2058,2049,2036,2072,2046,1193
692,1713854464217322573,2054,2053,2073,2068,2056,2060,1196
693,1713854464227313972,2056,2069,2082,2041,2059,2049,1194
694,1713854464237315519,2056,2065,2054,2024,2040,2056,1197
695,1713854464247357523,2056,2057,2036,2062,2068,2051,1194
696,1713854464257314958,2059,2074,2114,2064,2047,2054,1197
697,1713854464267315323,2056,2043,2032,2040,2060,2047,1194
698,1713854464277315899,2048,2022,2025,2037,2024,2052,1194
699,1713854464287315312,2061,2066,2037,2060,2078,2052,1194
700,1713854464297315117,2050,2031,2044,2040,2022,2050,1197
701,1713854464307316564,2068,2050,2061,2047,2064,2053,1197
702,1713854464317315868,2056,2062,2052,2084,2042,2054,1196
703,1713854464327316613,2055,2049,2038,2036,2073,2047,1194
704,1713854464337326928,2056,2067,2056,2105,2049,2058,1197
705,1713854464347301234,2059,2089,2044,2053,2076,2052,1197
706,1713854464357312680,2056,2054,2042,2047,2040,2060,1197
707,1713854464367303808,2057,2069,2061,2044,2062,2049,1197
708,1713854464377302440,2053,2045,2040,2063,2046,2053,1196
709,1713854464387322232,2050,2049,2055,2047,2053,2052,1198
710,1713854464397329541,2056,2059,2055,2064,2042,2057,1197
711,1713854464407300922,2065,2057,2060,2041,2068,2052,1196
712,1713854464417303291,2047,2024,2049,2075,2040,2058,1197
713,1713854464427302413,2070,2080,2075,2078,2060,2053,1198
714,1713854464437334268,2053,2061,2072,2058,2026,2051,1196
715,1713854464447300149,2051,2052,2048,2054,2056,2047,1194
716,1713854464457297218,2057,2065,2086,2090,2046,2057,1195
717,1713854464467303544,2053,2064,2052,2078,2061,2052,1195
718,1713854464477301074,2050,2036,2047,2072,2045,2056,1196
719,1713854464487301660,2055,2048,2029,2069,2062,2050,1193
720,1713854464497306544,2062,2064,2076,2064,2042,2056,1194
721,1713854464507316317,2062,2056,2073,2073,2060,2048,1197
722,1713854464517304549,2056,2053,2048,2056,2048,2056,1194
723,1713854464527305085,2054,2061,2069,2069,2062,2050,1194
724,1713854464537305972,2057,2054,2057,2040,2041,2057,1195
725,1713854464547304864,2053,2035,2033,2068,2062,2047,1193
726,1713854464557298978,2056,2045,2052,2048,2039,2060,1197
727,1713854464567301707,2052,2037,2046,2049,2061,2046,1194
728,1713854464577303335,2053,2045,2042,2066,2045,2057,1195
729,1713854464587307899,2056,2059,2068,2061,2088,2050,1198
730,1713854464597306491,2054,2044,2053,2060,2040,2056,1198
731,1713854464607304432,2053,2052,2059,2049,2060,2046,1198
732,1713854464617305238,2054,2044,2055,2058,2045,2056,1197
733,1713854464627305513,2067,2063,2056,2068,2056,2044,1194
734,1713854464637308243,2044,2033,2048,2011,2039,2053,1196
735,1713854464647308718,2055,2041,2041,2058,2036,2051,1195
736,1713854464657307019,2056,2048,2049,2057,2033,2058,1196
737,1713854464667302075,2059,2070,2019,2053,2066,2048,1196
738,1713854464677301329,2047,2042,2036,2039,2035,2053,1194
739,1713854464687301263,2057,2051,2060,2047,2057,2048,1195
740,1713854464697305455,2047,2027,2067,2062,2046,2057,1194
741,1713854464707303647,2071,2085,2084,2045,2073,2052,1196
742,1713854464717305795,2054,2072,2041,2061,2035,2056,1193
743,1713854464727304708,2056,2068,2025,1964,2054,2048,1196
744,1713854464737324571,2059,2045,2049,2065,2052,2058,1196
745,1713854464747307984,2053,2050,2041,2069,2063,2050,1195
746,1713854464757308119,2056,2061,2065,2058,2073,2057,1195
747,1713854464767305719,2056,2056,2066,2043,2061,2049,1197
748,1713854464777302637,2051,2045,2069,2054,2047,2056,1196
749,1713854464787301691,2056,2035,2072,2037,2059,2048,1196
750,1713854464797303639,2065,2052,2056,2015,2037,2058,1195
751,1713854464807302211,2050,2053,2054,2058,2060,2048,1195
752,1713854464817304660,2052,2045,2047,2056,2046,2056,1196
753,1713854464827302811,2059,2099,2076,2034,2066,2048,1197
754,1713854464837350977,2052,2046,2044,2077,2033,2053,1197
755,1713854464847305876,2056,2054,2063,2002,2052,2047,1194
756,1713854464857302965,2045,2020,2073,2068,2041,2052,1195
757,1713854464867309052,2049,2062,2064,2050,2061,2054,1196
758,1713854464877305119,2053,2054,2056,2056,2039,2056,1195
759,1713854464887303671,2056,2058,2066,2056,2060,2053,1196
760,1713854464897309567,2054,2075,2060,2068,2037,2057,1195
761,1713854464907304612,2045,2036,2050,2047,2056,2046,1196
762,1713854464917305117,2056,2056,2053,2072,2050,2060,1195
763,1713854464927307777,2050,2047,2037,2046,2061,2049,1195
764,1713854464937325095,2051,2052,2056,2059,2055,2064,1194
765,1713854464947306093,2061,2076,2101,2003,2058,2050,1194
766,1713854464957306559,2055,2035,2064,2072,2060,2056,1195
767,1713854464967304891,2050,2036,2029,2042,2041,2049,1199
768,1713854464977303292,2062,2060,2066,2028,2024,2052,1194
769,1713854464987307345,2052,2068,2066,2059,2064,2050,1195
770,1713854464997304984,2053,2044,2039,2032,2042,2058,1196
771,1713854465007304589,2065,2093,2064,2056,2088,2055,1196
772,1713854465017303220,2047,2041,2034,2049,2046,2052,1195
773,1713854465027304106,2057,2059,2053,2050,2064,2048,1196
774,1713854465037295374,2061,2058,2084,2043,2042,2055,1195
775,1713854465047305087,2053,2044,2021,2043,2053,2050,1196
776,1713854465057305192,2056,2043,2044,2064,2038,2061,1197
777,1713854465067305366,2057,2056,2054,2038,2050,2045,1194
778,1713854465077304779,2056,2040,2040,2058,2046,2058,1195
779,1713854465087308260,2058,2053,2060,2052,2057,2048,1196
780,1713854465097317702,2057,2071,2069,2063,2036,2056,1193
781,1713854465107306586,2062,2074,2074,2045,2056,2049,1196
782,1713854465117306079,2049,2040,2033,2016,2039,2054,1193
783,1713854465127304430,2060,2085,2064,2035,2060,2048,1195
784,1713854465137326135,2053,2068,2092,2065,2049,2054,1196
785,1713854465147328494,2061,2078,2076,2058,2078,2049,1196
786,1713854465157305565,2049,2045,2048,2074,2064,2056,1194
787,1713854465167308886,2050,2043,2053,2063,2068,2046,1193
788,1713854465177305504,2066,2121,2097,2024,2044,2057,1196
789,1713854465187317781,2048,2051,2049,2051,2059,2047,1195
790,1713854465197313187,2059,2048,2064,2041,2027,2054,1196
791,1713854465207304916,2053,2050,2064,2044,2045,2048,1195
792,1713854465217306884,2052,2029,2056,2057,2041,2054,1200
793,1713854465227305536,2061,2047,2036,2076,2057,2051,1196
794,1713854465237331710,2047,2014,2032,2097,2067,2061,1194
795,1713854465247308440,2062,2060,2067,2064,2052,2049,1197
796,1713854465257303935,2053,2056,2056,2053,2053,2060,1196
797,1713854465267309009,2062,2053,2061,2068,2101,2049,1195
798,1713854465277304315,2053,2049,2063,2059,2058,2060,1193
799,1713854465287304820,2053,2078,2072,2049,2052,2048,1193
800,1713854465297305386,2053,2046,2043,2061,2040,2053,1196
801,1713854465307307744,2058,2044,2060,2050,2056,2050,1195
802,1713854465317307408,2060,2056,2062,2058,2026,2053,1196
803,1713854465327305649,2052,2056,2062,2061,2045,2047,1193
804,1713854465337321403,2046,2038,2036,2066,2046,2056,1197
805,1713854465347304526,2048,2012,2024,2041,2042,2049,1197
806,1713854465357301785,2052,2044,2051,2066,2061,2056,1198
807,1713854465367304294,2054,2051,2052,2047,2060,2048,1198
808,1713854465377301653,2056,2053,2090,2057,2034,2056,1197
809,1713854465387302439,2055,2042,2057,2040,2043,2047,1196
810,1713854465397304748,2049,2053,2072,2070,2052,2058,1198
811,1713854465407308069,2049,2042,2047,2058,2056,2049,1197
812,1713854465417302322,2057,2063,2059,2070,2047,2058,1197
813,1713854465427305963,2053,2094,2065,2053,2059,2048,1197
814,1713854465437319853,2045,2053,2043,2060,2040,2056,1195
815,1713854465447304569,2051,2052,2036,2051,2050,2051,1196
816,1713854465457344709,2056,2052,2068,2072,2048,2062,1198
817,1713854465467306221,2056,2056,2057,2046,2053,2050,1197
818,1713854465477303200,2051,2043,2050,2040,2049,2056,1195
819,1713854465487306490,2048,2040,2050,2051,2055,2045,1194
820,1713854465497307776,2056,2064,2070,2067,2074,2059,1194
821,1713854465507307150,2052,2062,2104,2054,2058,2047,1195
822,1713854465517282347,2053,2054,2098,2066,2049,2057,1197
823,1713854465527300837,2062,2046,2045,2056,2054,2049,1195
824,1713854465537325428,2057,2062,2076,2066,2046,2059,1197
825,1713854465547310403,2055,2060,2092,2052,2059,2052,1196
826,1713854465557303023,2056,2040,2047,2060,2046,2056,1196
827,1713854465567306034,2047,2036,2037,2051,2060,2050,1193
828,1713854465577303333,2060,2042,2044,2064,2059,2053,1196
829,1713854465587304139,2056,2059,2089,2060,2046,2049,1198
830,1713854465597319222,2051,2028,2057,2065,2050,2056,1197
831,1713854465607312633,2057,2046,2057,2018,2042,2047,1194
832,1713854465617307057,2056,2052,2076,2063,2042,2056,1194
833,1713854465627306360,2049,2056,2048,2037,2053,2050,1196
834,1713854465637343785,2054,2055,2048,2062,2050,2058,1194
835,1713854465647312360,2062,2074,2062,2053,2058,2049,1197
836,1713854465657308177,2061,2056,2049,2053,2050,2055,1196
837,1713854465667304203,2053,2060,2045,2050,2060,2053,1196
838,1713854465677303306,2047,2037,2029,2059,2048,2057,1192
839,1713854465687304092,2050,2047,2046,2061,2064,2051,1195
840,1713854465697305248,2049,2062,2053,2064,2050,2056,1197
841,1713854465707305564,2070,2088,2060,2058,2073,2053,1196
842,1713854465717303714,2049,2046,2068,2080,2057,2052,1194
843,1713854465727306253,2056,2062,2044,2078,2061,2050,1194
844,1713854465737323209,2050,2052,2051,2056,2040,2056,1194
845,1713854465747306582,2049,2049,2052,2038,2067,2052,1196
846,1713854465757321966,2052,2036,2044,2072,2049,2056,1194
847,1713854465767305069,2060,2052,2049,2056,2061,2049,1197
848,1713854465777302999,2052,2040,2052,2044,2044,2052,1195
849,1713854465787303463,2066,2090,2081,2066,2056,2052,1197
850,1713854465797306544,2050,2045,2044,2061,2045,2052,1195
851,1713854465807306719,2072,2068,2112,2066,2056,2049,1196
852,1713854465817303647,2052,2045,2044,2085,2078,2059,1196
853,1713854465827304563,2053,2051,2049,2057,2085,2053,1197
854,1713854465837323813,2050,2044,2040,2034,2045,2053,1196
855,1713854465847306165,2058,2064,2060,2068,2066,2052,1197
856,1713854465857304396,2056,2062,2048,2064,2047,2054,1196
857,1713854465867305873,2055,2045,2021,2049,2050,2047,1193
858,1713854465877305617,2059,2077,2113,2065,2042,2052,1193
859,1713854465887304318,2052,2037,2052,2042,2049,2049,1195
860,1713854465897304182,2057,2067,2064,2059,2048,2056,1194
861,1713854465907307202,2057,2057,2056,2065,2059,2052,1194
862,1713854465917311766,2054,2056,2062,2072,2052,2058,1195
863,1713854465927305288,2050,2036,2030,2052,2060,2049,1195
864,1713854465937330420,2053,2040,2044,2061,2048,2056,1197
865,1713854465947310306,2053,2059,2043,2056,2051,2045,1192
866,1713854465957307124,2057,2072,2053,2053,2028,2051,1196
867,1713854465967307148,2054,2050,2055,2035,2053,2054,1196
868,1713854465977303556,2055,2051,2024,2064,2052,2056,1197
869,1713854465987307197,2056,2061,2040,2083,2051,2052,1196
870,1713854465997311921,2072,2075,2096,2081,2072,2060,1196
871,1713854466007305222,2062,2061,2046,2053,2051,2051,1197
872,1713854466017307240,2054,2052,2056,2070,2039,2051,1198
873,1713854466027307524,2053,2047,2071,2052,2060,2052,1196
874,1713854466037316585,2059,2062,2060,2065,2046,2056,1196
875,1713854466047306571,2053,2060,2042,2057,2077,2053,1197
876,1713854466057303479,2052,2052,2053,2059,2050,2053,1196
877,1713854466067306789,2053,2054,2041,2046,2066,2051,1196
878,1713854466077303927,2057,2051,2050,2070,2053,2055,1193
879,1713854466087306356,2057,2051,2037,2058,2057,2051,1194
880,1713854466097309195,2060,2052,2053,2049,2047,2053,1196
881,1713854466107306214,2056,2068,2052,2070,2072,2053,1195
882,1713854466117306348,2050,2016,2040,2028,2052,2053,1193
883,1713854466127306342,2044,2018,2038,2054,2058,2052,1195
884,1713854466137321214,2049,2041,2046,2082,2112,2059,1195
885,1713854466147309857,2058,2063,2045,2015,2066,2052,1195
886,1713854466157306594,2056,2046,2046,2065,2056,2056,1195
887,1713854466167306048,2057,2049,2060,2066,2058,2053,1197
888,1713854466177303256,2056,2048,2041,2065,2082,2064,1197
889,1713854466187305735,2057,2068,2073,2064,2061,2049,1196
890,1713854466197307812,2058,2055,2041,2064,2056,2056,1197
891,1713854466207316653,2050,2072,2052,2059,2068,2053,1198
892,1713854466217308692,2047,2041,2024,2045,2044,2056,1196
893,1713854466227304428,2060,2087,2070,2056,2065,2052,1195
894,1713854466237328126,2048,2028,2041,2056,2045,2054,1197
895,1713854466247305378,2056,2061,2046,2054,2052,2047,1195
896,1713854466257304289,2056,2049,2089,2056,2047,2056,1196
897,1713854466267305556,2057,2044,2062,2064,2052,2049,1199
898,1713854466277306341,2053,2049,2048,2053,2049,2056,1194
899,1713854466287306856,2055,2057,2096,2062,2057,2049,1196
900,1713854466297313053,2057,2056,2052,2058,2058,2059,1196
901,1713854466307305953,2054,2049,2051,2052,2057,2052,1193
902,1713854466317305947,2045,2032,2036,2068,2053,2053,1195
903,1713854466327307914,2050,2032,2030,2032,2050,2045,1193
904,1713854466337330702,2056,2046,2044,2044,2075,2058,1196
905,1713854466347307722,2057,2058,2042,2056,2053,2049,1196
906,1713854466357308167,2053,2040,2033,2052,2052,2052,1196
907,1713854466367308521,2052,2056,2065,2053,2051,2050,1195
908,1713854466377308205,2056,2056,2060,2061,2051,2056,1196
909,1713854466387308780,2056,2045,2033,2049,2049,2049,1197
910,1713854466397311139,2050,2037,2017,2051,2060,2056,1196
911,1713854466407310621,2062,2056,2061,2063,2064,2050,1196
912,1713854466417310776,2054,2047,2047,2078,2061,2056,1195
913,1713854466427312673,2056,2060,2057,2059,2064,2056,1193
914,1713854466437332815,2056,2059,2034,2059,2057,2057,1196
915,1713854466447311348,2054,2065,2035,2045,2054,2053,1195
916,1713854466457311533,2051,2040,2027,2053,2059,2053,1196
917,1713854466467325773,2060,2074,2070,2041,2054,2053,1196
918,1713854466477280332,2057,2064,2040,2000,2044,2056,1194
919,1713854466487312496,2052,2054,2061,2032,2054,2049,1196
920,1713854466497316518,2058,2047,2056,2056,2048,2056,1195
921,1713854466507327843,2049,2050,2046,2052,2051,2052,1196
922,1713854466517313761,2061,2082,2062,2053,2046,2056,1195
923,1713854466527314516,2051,2061,2066,2054,2049,2050,1196
924,1713854466537326343,2061,2075,2088,2056,2053,2058,1195
925,1713854466547315586,2053,2045,2046,2072,2052,2049,1196
926,1713854466557315340,2054,2054,2061,2085,2047,2052,1196
927,1713854466567314983,2055,2053,2061,2049,2046,2052,1195
928,1713854466577314396,2060,2064,2064,2066,2046,2061,1197
929,1713854466587293290,2056,2048,2054,2057,2054,2049,1197
930,1713854466597315436,2057,2047,2053,2056,2055,2056,1196
931,1713854466607316462,2050,2049,2052,2053,2052,2048,1198
932,1713854466617316245,2047,2036,2026,2050,2035,2056,1193
933,1713854466627317151,2059,2072,2073,2053,2048,2050,1196
934,1713854466637316614,2057,2052,2045,2056,2063,2056,1197
935,1713854466647323270,2057,2049,2074,2056,2048,2052,1196
936,1713854466657275654,2057,2064,2041,2056,2064,2054,1195
937,1713854466667318138,2052,2060,2037,2058,2053,2052,1196
938,1713854466677317722,2052,2054,2055,2065,2052,2057,1193
939,1713854466687318658,2054,2057,2054,1972,2054,2050,1197
940,1713854466697301790,2053,2033,2034,2053,2052,2060,1194
941,1713854466707301964,2056,2059,2068,2056,2055,2051,1197
942,1713854466717319721,2052,2045,2049,2047,2045,2055,1193
943,1713854466727307603,2061,2065,2049,2008,2028,2047,1194
944,1713854466737320120,2056,2058,2056,2064,2056,2056,1196
945,1713854466747304806,2056,2061,2100,2048,2064,2060,1196
946,1713854466757304418,2052,2044,2040,2058,2056,2057,1196
947,1713854466767320082,2060,2065,2066,2053,2053,2052,1196
948,1713854466777303635,2062,2068,2053,2062,2064,2058,1197
949,1713854466787305503,2054,2064,2061,2050,2052,2047,1193
950,1713854466797321997,2053,2057,2079,2062,2061,2056,1196
951,1713854466807305591,2050,2042,2053,2044,2049,2049,1196
952,1713854466817322416,2068,2100,2084,2053,2045,2056,1194
953,1713854466827304276,2045,2020,2046,2042,2047,2049,1196
954,1713854466837306724,2069,2068,2071,2056,2056,2054,1197
955,1713854466847307280,2050,2044,2053,2062,2057,2051,1197
956,1713854466857306602,2058,2047,2047,2059,2055,2056,1195
957,1713854466867307318,2060,2074,2101,2061,2057,2050,1197
958,1713854466877304115,2056,2056,2040,2052,2026,2052,1195
959,1713854466887305212,2056,2051,2046,2056,2056,2047,1194
960,1713854466897304594,2054,2095,2064,2058,2047,2054,1197
961,1713854466907305590,2050,2047,2065,2045,2036,2048,1194
962,1713854466917305494,2049,2050,2057,2048,2044,2054,1195
963,1713854466927303524,2052,2047,2031,2054,2051,2051,1196
964,1713854466937302988,2053,2049,2053,2029,2047,2050,1196
965,1713854466947305386,2051,2039,2033,2043,2055,2051,1196
966,1713854466957274291,2053,2052,2056,2054,2052,2056,1194
967,1713854466967312317,2056,2069,2050,2053,2056,2050,1198
968,1713854466977307512,2064,2062,2094,2067,2057,2056,1198
969,1713854466987305712,2053,2044,2027,2061,2074,2056,1198
970,1713854466997306909,2053,2054,2051,2051,2043,2052,1197
971,1713854467007305750,2058,2076,2067,2052,2058,2051,1196
972,1713854467017302798,2056,2065,2068,2052,2047,2053,1197
973,1713854467027302922,2039,1997,2025,2048,2049,2047,1193
974,1713854467037302906,2061,2053,2043,2056,2057,2054,1195
975,1713854467047305013,2056,2058,2088,2055,2047,2049,1197
976,1713854467057303885,2052,2053,2051,2058,2051,2053,1196
977,1713854467067303377,2051,2043,2076,2049,2040,2050,1198
978,1713854467077305154,2066,2057,2089,2062,2039,2056,1194
979,1713854467087302293,2046,2034,2031,2049,2054,2048,1193
980,1713854467097308689,2066,2072,2073,2060,2060,2057,1194
981,1713854467107305205,2049,2047,2056,2047,2040,2051,1193
982,1713854467117306451,2053,2043,2055,2056,2049,2058,1195
983,1713854467127303219,2055,2044,2018,1973,2054,2052,1195
984,1713854467137306559,2056,2053,2057,2065,2051,2054,1197
985,1713854467147307074,2057,2065,2045,2056,2046,2051,1197
986,1713854467157304292,2054,2048,2050,2047,2042,2056,1194
987,1713854467167306279,2056,2052,2068,2064,2040,2050,1197
988,1713854467177316091,2048,2040,2020,2064,2050,2048,1196
989,1713854467187307489,2056,2062,2041,2039,2050,2052,1197
990,1713854467197305328,2055,2057,2054,2052,2057,2054,1196
991,1713854467207306023,2060,2076,2110,2067,2052,2054,1196
992,1713854467217313440,2054,2049,2043,2054,2058,2056,1196
993,1713854467227306231,2060,2081,2060,2055,2070,2056,1195
994,1713854467237305483,2053,2052,2040,2056,2052,2054,1197
995,1713854467247304284,2055,2047,2053,2056,2056,2054,1197
996,1713854467257303466,2060,2057,2047,2011,2046,2052,1196
997,1713854467267336232,2060,2060,2060,2074,2067,2056,1196
998,1713854467277304134,2061,2072,2112,2061,2058,2057,1195
999,1713854467287305672,2051,2062,2025,2070,2069,2056,1196
1000,1713854467297304633,2052,2041,2039,2061,2061,2056,1194
1001,1713854467307312081,2061,2047,2060,2068,2046,2053,1196
1002,1713854467317302276,2057,2068,2037,2060,2064,2056,1196
1003,1713854467327302640,2058,2065,2075,2057,2043,2052,1198
1004,1713854467337329425,2057,2066,2056,2056,2052,2055,1196
1005,1713854467347305032,2054,2051,2072,2056,2056,2049,1197
1006,1713854467357304975,2052,2053,2048,2057,2045,2053,1197
1007,1713854467367305710,2050,2053,2034,2066,2055,2049,1195
1008,1713854467377305013,2056,2050,2053,2063,2054,2056,1197
1009,1713854467387305748,2055,2056,2078,2051,2059,2057,1198
1010,1713854467397304469,2050,2019,2040,2056,2072,2058,1196
1011,1713854467407304533,2053,2032,2036,2058,2055,2046,1194
1012,1713854467417302783,2057,2049,2035,2061,2060,2056,1197
1013,1713854467427303007,2053,2041,2036,2037,2075,2051,1195
1014,1713854467437270329,2058,2053,2088,2069,2061,2057,1197
1015,1713854467447303475,2052,2060,2065,2059,2056,2054,1197
1016,1713854467457300443,2056,2052,2046,2052,2056,2060,1195
1017,1713854467467313281,2048,2025,2038,2052,2047,2051,1196
1018,1713854467477300731,2064,2060,2061,2047,2040,2054,1196
1019,1713854467487303891,2056,2047,2056,2065,2044,2050,1196
1020,1713854467497304485,2054,2078,2078,2057,2056,2053,1195
1021,1713854467507303888,2052,2056,2044,2044,2049,2052,1197
1022,1713854467517303240,2064,2064,2063,2060,2055,2060,1197
1023,1713854467527305668,2060,2071,2076,2061,2066,2053,1196
1024,1713854467537305001,2052,2049,2056,2015,2058,2051,1196
1025,1713854467547306567,2058,2049,2048,2044,2038,2050,1193
1026,1713854467557306210,2052,2047,2051,2076,2061,2056,1196
1027,1713854467567303979,2050,2039,2036,2042,2038,2049,1197
1028,1713854467577308502,2056,2052,2057,2048,2057,2056,1196
1029,1713854467587303596,2057,2053,2077,2031,2048,2049,1198
1030,1713854467597304341,2052,2052,2042,2054,2053,2052,1197
1031,1713854467607305858,2045,2037,2032,2053,2048,2050,1197
1032,1713854467617304508,2053,2051,2049,2064,2058,2056,1197
1033,1713854467627303872,2053,2046,2036,2054,2051,2052,1195
1034,1713854467637305208,2052,2052,2051,2051,2050,2056,1196
1035,1713854467647307946,2054,2073,2068,2052,2052,2056,1197
1036,1713854467657306417,2058,2069,2084,2072,2057,2056,1197
1037,1713854467667305328,2052,2053,2037,2068,2056,2049,1197
1038,1713854467677304090,2048,2021,2002,2048,2056,2056,1193
1039,1713854467687304825,2069,2071,2086,2049,2052,2050,1196
1040,1713854467697305329,2054,2048,2040,2060,2054,2054,1196
1041,1713854467707304070,2054,2050,2040,2045,2047,2050,1195
1042,1713854467717307630,2053,2052,2069,2058,2053,2052,1196
1043,1713854467727306573,2052,2049,2034,2052,2050,2049,1195
1044,1713854467737304292,2057,2056,2052,2009,2050,2052,1197
1045,1713854467747305287,2058,2046,2055,2059,2053,2053,1196
1046,1713854467757303678,2055,2047,2045,2052,2059,2056,1195
1047,1713854467767310103,2056,2060,2062,2056,2070,2052,1197
1048,1713854467777305309,2048,2021,2053,2055,2058,2054,1199
1049,1713854467787306234,2060,2052,2067,2045,2052,2056,1198
1050,1713854467797303432,2053,2049,2054,2064,2051,2051,1198
1051,1713854467807304748,2051,2054,2076,2061,2049,2050,1195
1052,1713854467817303920,2056,2039,2056,2059,2056,2052,1197
1053,1713854467827302552,2054,2066,2055,2084,2054,2052,1197
1054,1713854467837301142,2053,2048,2036,2033,2051,2052,1194
1055,1713854467847303680,2052,2051,2060,2064,2044,2050,1196
1056,1713854467857305347,2058,2077,2064,2070,2050,2052,1196
1057,1713854467867308837,2052,2065,2062,2065,2025,2053,1195
1058,1713854467877303872,2056,2068,2084,2059,2067,2054,1196
1059,1713854467887303835,2046,2042,2053,2050,2056,2052,1196
1060,1713854467897303959,2053,2056,2052,2060,2054,2054,1196
1061,1713854467907303512,2052,2059,2054,2057,2046,2042,1194
1062,1713854467917305439,2059,2058,2052,2053,2062,2060,1197
1063,1713854467927307186,2053,2053,2042,2057,2046,2044,1193
1064,1713854467937305677,2056,2062,2064,2056,2060,2053,1196
1065,1713854467947306702,2052,2065,2060,2060,2046,2052,1194
1066,1713854467957306335,2061,2070,2073,2091,2049,2056,1195
1067,1713854467967308763,2052,2045,2063,2061,2042,2052,1198
1068,1713854467977306744,2053,2058,2055,2064,2056,2054,1195
1069,1713854467987306958,2049,2044,2037,2064,2069,2052,1200
1070,1713854467997306610,2052,2072,2046,2060,2041,2057,1197
1071,1713854468007309418,2056,2054,2048,2063,2043,2048,1196
1072,1713854468017309592,2053,2039,2049,2053,2053,2052,1197
1073,1713854468027308713,2042,2018,2042,2041,2024,2043,1192
1074,1713854468037307645,2059,2070,2135,2058,2054,2053,1197
1075,1713854468047310173,2053,2052,2048,2045,2045,2047,1194
1076,1713854468057308463,2049,2045,2049,2080,2083,2054,1197
1077,1713854468067309958,2061,2081,2069,2052,2058,2056,1196
1078,1713854468077321644,2057,2056,2053,2052,2057,2057,1196
1079,1713854468087318130,2049,2041,2040,2063,2046,2047,1194
1080,1713854468097309237,2061,2064,2084,2064,2058,2058,1192
1081,1713854468107311525,2053,2066,2061,2064,2053,2050,1197
1082,1713854468117313702,2056,2058,2084,2053,2057,2054,1197
1083,1713854468127322282,2053,2039,2057,2090,2066,2056,1198
1084,1713854468137310804,2051,2045,2045,2053,2052,2054,1197
1085,1713854468147316428,2050,2061,2050,2052,2048,2051,1196
1086,1713854468157314186,2056,2059,2084,2081,2064,2058,1197
1087,1713854468167341050,2072,2074,2080,2064,2046,2053,1195
1088,1713854468177312599,2058,2052,2047,2056,2056,2058,1197
1089,1713854468187313755,2045,2032,2042,2051,2052,2050,1198
1090,1713854468197310833,2056,2041,2051,2052,2060,2056,1196
1091,1713854468207315335,2049,2043,2033,2059,2050,2049,1197
1092,1713854468217314757,2053,2048,2044,2050,2047,2054,1195
1093,1713854468227314861,2066,2064,2057,2062,2050,2052,1195
1094,1713854468237314614,2064,2056,2069,2088,2060,2056,1197
1095,1713854468247315898,2051,2031,2070,2075,2048,2048,1198
1096,1713854468257317314,2054,2047,2070,2060,2064,2054,1198
1097,1713854468267311978,2059,2059,2068,2052,2040,2048,1197
1098,1713854468277312612,2065,2074,2140,2069,2059,2058,1194
1099,1713854468287315842,2056,2046,2048,2056,2053,2056,1196
1100,1713854468297316496,2059,2068,2062,2060,2056,2056,1198
1101,1713854468307316600,2056,2081,2069,2040,2041,2052,1197
1102,1713854468317317225,2052,2048,2052,2015,2045,2052,1195
1103,1713854468327317819,2053,2048,2047,2050,2044,2048,1197
1104,1713854468337302833,2058,2056,2048,2052,2054,2054,1195
1105,1713854468347305702,2060,2083,2128,2077,2062,2054,1196
1106,1713854468357303651,2053,2036,2033,2079,2061,2053,1199
1107,1713854468367309826,2050,2041,2067,2007,2044,2052,1196
1108,1713854468377300352,2054,2050,2052,2066,2072,2058,1197
1109,1713854468387318620,2055,2073,2060,2066,2047,2053,1197
1110,1713854468397303705,2056,2053,2062,2044,2049,2054,1195
1111,1713854468407305552,2065,2097,2149,2101,2045,2057,1193
1112,1713854468417301247,2056,2067,2047,2054,2052,2052,1198
1113,1713854468427301881,2049,2049,2047,2013,2040,2051,1197
1114,1713854468437301724,2054,2038,2030,2053,2060,2054,1196
1115,1713854468447307248,2058,2072,2058,2056,2048,2057,1198
1116,1713854468457299747,2061,2059,2044,2048,2050,2053,1196
1117,1713854468467306393,2054,2060,2080,2080,2059,2049,1197
1118,1713854468477305815,2052,2026,2040,2002,2052,2050,1194
1119,1713854468487307111,2056,2049,2067,2068,2045,2049,1197
1120,1713854468497309198,2052,2053,2049,2054,2060,2053,1194
1121,1713854468507310524,2049,2043,2040,2053,2040,2053,1196
1122,1713854468517310066,2063,2057,2049,2063,2056,2054,1196
1123,1713854468527306162,2056,2056,2042,2029,2036,2051,1195
1124,1713854468537301727,2051,2051,2037,2004,2052,2053,1195
1125,1713854468547303042,2050,2043,2052,2058,2048,2050,1197
1126,1713854468557302725,2060,2060,2064,2068,2060,2052,1196
1127,1713854468567301496,2052,2070,2060,2065,2041,2051,1196
1128,1713854468577301239,2057,2051,2044,2013,2052,2053,1196
1129,1713854468587309869,2056,2046,2072,2068,2044,2052,1196
1130,1713854468597305404,2050,2037,2052,2043,2072,2054,1195
1131,1713854468607307150,2049,2036,2038,2061,2040,2052,1195
1132,1713854468617303716,2057,2065,2084,2052,2055,2056,1195
1133,1713854468627302818,2053,2048,2037,2053,2044,2053,1197
1134,1713854468637303242,2056,2043,2062,2057,2056,2057,1195
1135,1713854468647307864,2051,2028,2032,2050,2040,2052,1194
1136,1713854468657303920,2054,2046,2045,2072,2074,2056,1196
1137,1713854468667302211,2050,2045,2048,2050,2049,2050,1197
1138,1713854468677304388,2056,2052,2041,2055,2048,2052,1193
1139,1713854468687299913,2063,2061,2068,2054,2036,2049,1196
1140,1713854468697303642,2056,2061,2058,2064,2066,2056,1195
1141,1713854468707307202,2048,2037,2037,2085,2042,2053,1196
1142,1713854468717306364,2056,2062,2076,2056,2045,2053,1195
1143,1713854468727306588,2052,2068,2051,2051,2042,2051,1197
1144,1713854468737279460,2064,2065,2059,2038,2051,2053,1197
1145,1713854468747308298,2045,2026,2030,2053,2046,2050,1196
1146,1713854468757310967,2064,2075,2099,2040,2069,2056,1195
1147,1713854468767302594,2048,2041,2046,2061,2053,2048,1198
1148,1713854468777301626,2056,2065,2065,2054,2030,2055,1197
1149,1713854468787300245,2059,2052,2033,2052,2040,2047,1195
1150,1713854468797306140,2052,2040,2032,2078,2075,2053,1198
1151,1713854468807295102,2063,2100,2030,2059,2048,2055,1197
1152,1713854468817298983,2054,2049,2060,2062,2059,2053,1200
1153,1713854468827298636,2046,2049,2056,2052,2060,2055,1198
1154,1713854468837310452,2054,2056,2049,2070,2064,2056,1198
1155,1713854468847305766,2055,2057,2042,2060,2042,2051,1196
1156,1713854468857305449,2060,2056,2062,2058,2058,2053,1196
1157,1713854468867302927,2056,2054,2050,2047,2044,2051,1197
1158,1713854468877284305,2058,2069,2086,2084,2070,2057,1196
1159,1713854468887306821,2047,2047,2058,2064,2052,2054,1197
1160,1713854468897305822,2056,2064,2047,2062,2062,2052,1196
1161,1713854468907308070,2053,2064,2047,2050,2043,2051,1196
1162,1713854468917307833,2058,2064,2059,2054,2066,2056,1196
1163,1713854468927302436,2052,2034,2046,2071,2043,2053,1194
1164,1713854468937303101,2052,2067,2069,2051,2058,2056,1195
1165,1713854468947304567,2053,2040,2035,2065,2042,2052,1195
1166,1713854468957303677,2060,2068,2056,2060,2061,2054,1196
1167,1713854468967305454,2053,2056,2049,2053,2038,2052,1196
1168,1713854468977308393,2055,2056,2060,2047,2045,2053,1196
1169,1713854468987307956,2055,2055,2053,2058,2056,2057,1200
1170,1713854468997303380,2053,2062,2077,2050,2060,2053,1196
1171,1713854469007306399,2052,2044,2024,2051,2047,2050,1196
1172,1713854469017306402,2053,2053,2059,2059,2059,2053,1194
1173,1713854469027304762,2052,2056,2066,2044,2065,2054,1196
1174,1713854469037306118,2054,2050,2054,2013,2057,2055,1194
1175,1713854469047304487,2065,2076,2112,2061,2047,2056,1197
1176,1713854469057305432,2054,2056,2057,2046,2045,2049,1196
1177,1713854469067301838,2049,2042,2056,2064,2040,2056,1199
1178,1713854469077299747,2070,2080,2101,2056,2058,2056,1198
1179,1713854469087309268,2052,2065,2093,2056,2033,2050,1199
1180,1713854469097304171,2053,2057,2050,2066,2060,2054,1196
1181,1713854469107312571,2064,2073,2061,2065,2048,2054,1195
1182,1713854469117309297,2047,2044,2038,1992,2058,2056,1194
1183,1713854469127309260,2050,2040,2056,2044,2049,2052,1196
1184,1713854469137310956,2055,2050,2049,2044,2056,2049,1196
1185,1713854469147310137,2053,2056,2066,2058,2044,2048,1195
1186,1713854469157308336,2053,2034,2050,2064,2069,2050,1194
1187,1713854469167303911,2056,2062,2052,2077,2039,2053,1196
1188,1713854469177303053,2052,2047,2043,2053,2050,2054,1195
1189,1713854469187301422,2050,2040,2044,2048,2045,2053,1200
1190,1713854469197303810,2058,2056,2064,2066,2056,2054,1197
1191,1713854469207304834,2056,2044,2029,2055,2045,2050,1196
1192,1713854469217304958,2056,2072,2047,2041,2046,2052,1198
1193,1713854469227300843,2050,2047,2056,2000,2032,2048,1196
1194,1713854469237305665,2055,2056,2040,2033,2049,2056,1196
1195,1713854469247317561,2060,2078,2056,2054,2060,2049,1196
1196,1713854469257311752,2056,2045,2060,2054,2061,2056,1195
1197,1713854469267307277,2048,2036,2073,2082,2072,2056,1195
1198,1713854469277307460,2058,2040,2051,2050,2050,2049,1195
1199,1713854469287302724,2050,2043,2045,2032,2052,2052,1195
1200,1713854469297307807,2056,2069,2073,2048,2056,2052,1195
1201,1713854469307309282,2056,2054,2071,2051,2042,2053,1195
1202,1713854469317303425,2058,2074,2066,2052,2056,2052,1197
1203,1713854469327303808,2056,2056,2036,2058,2047,2052,1196
1204,1713854469337303661,2060,2100,2065,2054,2085,2054,1196
1205,1713854469347304605,2043,2042,2047,2053,2045,2050,1198
1206,1713854469357304268,2053,2064,2055,2055,2058,2058,1198
1207,1713854469367305062,2057,2052,2078,2049,2050,2051,1195
1208,1713854469377302069,2052,2040,2043,2051,2062,2052,1200
1209,1713854469387302964,2050,2035,2062,2049,2033,2050,1197
1210,1713854469397299600,2062,2057,2056,1981,2047,2052,1197
1211,1713854469407308260,2046,2051,2065,2074,2064,2053,1196
1212,1713854469417301369,2056,2058,2057,2053,2060,2051,1195
1213,1713854469427304288,2051,2044,2058,2056,2049,2053,1197
1214,1713854469437304271,2061,2046,2033,2036,2044,2046,1196
1215,1713854469447305175,2053,2050,2062,2080,2045,2052,1197
1216,1713854469457303125,2052,2060,2042,2074,2073,2054,1196
1217,1713854469467305411,2056,2041,2036,2053,2033,2052,1196
1218,1713854469477306046,2056,2053,2047,2056,2058,2052,1194
1219,1713854469487304536,2057,2053,2070,2047,2045,2056,1196
1220,1713854469497303687,2058,2063,2061,2050,2049,2050,1196
1221,1713854469507308309,2053,2036,2035,2059,2044,2054,1196
1222,1713854469517306959,2058,2064,2048,2057,2074,2056,1197
1223,1713854469527304658,2052,2043,2046,2063,2055,2053,1197
1224,1713854469537302607,2056,2054,2077,2045,2066,2055,1198
1225,1713854469547304343,2056,2056,2057,2046,2040,2049,1197
1226,1713854469557303434,2061,2055,2051,2043,2056,2052,1196
1227,1713854469567308827,2047,2031,2029,2001,2032,2052,1197
1228,1713854469577305955,2057,2053,2038,2037,2056,2050,1197
1229,1713854469587306689,2056,2056,2060,2057,2042,2052,1197
1230,1713854469597308135,2050,2041,2036,2065,2060,2049,1196
1231,1713854469607305352,2061,2064,2046,2079,2090,2062,1197
1232,1713854469617307059,2054,2057,2054,2056,2076,2054,1200
1233,1713854469627305709,2049,2042,2041,2049,2042,2050,1198
1234,1713854469637325239,2056,2052,2052,2026,2062,2053,1198
1235,1713854469647303381,2056,2040,2047,2073,2065,2057,1197
1236,1713854469657300448,2053,2049,2045,2046,2060,2053,1196
1237,1713854469667303888,2050,2028,2037,2064,2044,2051,1197
1238,1713854469677314921,2065,2084,2088,2072,2056,2050,1195
1239,1713854469687304104,2049,2045,2035,2064,2047,2050,1196
1240,1713854469697304408,2053,2061,2053,2058,2060,2051,1193
1241,1713854469707311433,2056,2062,2053,2054,2038,2054,1197
1242,1713854469717304133,2059,2042,2060,2038,2049,2054,1197
1243,1713854469727312701,2056,2037,2049,2070,2060,2056,1194
1244,1713854469737304269,2056,2058,2049,2052,2068,2053,1196
1245,1713854469747315973,2053,2048,2041,2055,2045,2056,1196
1246,1713854469757302501,2064,2110,2097,2057,2058,2056,1195
1247,1713854469767303035,2054,2052,2061,2073,2049,2052,1196
1248,1713854469777305282,2056,2056,2050,2059,2061,2054,1198
1249,1713854469787310786,2052,2049,2020,2060,2041,2052,1197
1250,1713854469797308373,2053,2058,2063,2048,2062,2056,1197
1251,1713854469807304459,2058,2064,2046,2072,2053,2056,1195
1252,1713854469817305474,2049,2028,2037,2052,2065,2052,1196
1253,1713854469827306619,2052,2049,2102,2090,2065,2057,1197
1254,1713854469837302565,2054,2064,2061,2074,2063,2050,1197
1255,1713854469847306344,2050,2048,2056,2057,2038,2051,1196
1256,1713854469857301980,2053,2065,2048,2056,2062,2053,1196
1257,1713854469867302663,2052,2042,2040,2049,2036,2049,1193
1258,1713854469877302346,2059,2091,2073,2047,2053,2053,1193
1259,1713854469887309252,2051,2048,2049,2084,2056,2054,1195
1260,1713854469897306229,2058,2066,2066,2051,2056,2056,1197
1261,1713854469907307575,2056,2048,2088,2070,2047,2056,1196
1262,1713854469917303890,2057,2047,2056,2069,2061,2050,1196
1263,1713854469927305517,2049,2052,2034,2050,2047,2050,1194
1264,1713854469937305058,2056,2052,2047,2054,2072,2053,1196
1265,1713854469947301675,2052,2045,2048,2064,2047,2052,1194
1266,1713854469957306847,2061,2074,2054,2064,2082,2054,1195
1267,1713854469967303855,2058,2047,2059,2050,2041,2052,1195
1268,1713854469977302285,2053,2049,2049,2077,2063,2051,1196
1269,1713854469987303049,2052,2045,2037,2056,2047,2053,1197
1270,1713854469997307180,2065,2081,2055,2054,2061,2058,1196
1271,1713854470007306120,2056,2064,2044,2045,2044,2054,1196
1272,1713854470017303238,2057,2065,2096,2068,2062,2052,1196
1273,1713854470027303651,2050,2040,2051,2065,2040,2050,1197
1274,1713854470037303223,2053,2057,2045,2068,2064,2054,1196
1275,1713854470047304908,2056,2052,2054,2058,2044,2052,1196
1276,1713854470057303679,2060,2077,2059,2053,2058,2052,1196
1277,1713854470067303612,2054,2047,2045,2079,2040,2051,1196
1278,1713854470077304115,2056,2058,2069,2052,2059,2051,1193
1279,1713854470087306452,2056,2054,2079,2066,2048,2054,1195
1280,1713854470097303269,2052,2048,2030,2052,2046,2054,1196
1281,1713854470107304043,2052,2046,2058,2063,2036,2056,1197
1282,1713854470117302893,2059,2056,2065,2052,2059,2053,1198
1283,1713854470127306372,2050,2052,2042,2034,2044,2052,1198
1284,1713854470137310954,2056,2037,2043,2060,2064,2054,1196
1285,1713854470147304624,2057,2061,2075,2061,2057,2056,1194
1286,1713854470157302593,2054,2051,2056,2080,2065,2054,1196
1287,1713854470167302465,2052,2045,2067,2046,2044,2051,1196
1288,1713854470177301987,2052,2071,2056,2052,2072,2056,1196
1289,1713854470187303572,2055,2056,2079,2053,2041,2052,1196
1290,1713854470197302883,2053,2052,2044,2061,2056,2054,1194
1291,1713854470207304219,2044,2016,2039,2053,2045,2054,1196
1292,1713854470217304081,2057,2072,2068,2061,2048,2054,1195
1293,1713854470227303282,2057,2061,2082,2036,2037,2050,1196
1294,1713854470237305989,2054,2035,2031,2056,2062,2051,1196
1295,1713854470247311603,2053,2040,2055,2058,2047,2052,1195
1296,1713854470257305214,2053,2044,2036,2052,2056,2050,1199
1297,1713854470267305316,2051,2041,2044,2057,2042,2052,1195
1298,1713854470277304707,2068,2072,2114,1996,2064,2056,1195
1299,1713854470287306113,2054,2044,2059,2040,2059,2056,1197
1300,1713854470297305875,2056,2056,2057,2048,2060,2056,1197
1301,1713854470307307370,2059,2047,2057,2043,2039,2052,1197
1302,1713854470317307122,2057,2060,2069,2063,2064,2052,1196
1303,1713854470327307095,2047,2032,2045,2074,2040,2054,1195
1304,1713854470337308170,2064,2064,2061,2074,2063,2052,1197
1305,1713854470347310316,2050,2044,2044,2056,2034,2054,1195
1306,1713854470357313124,2058,2061,2059,2052,2059,2050,1195
1307,1713854470367309189,2046,2008,2040,2047,2034,2053,1196
1308,1713854470377308891,2062,2061,2034,2049,2057,2054,1198
1309,1713854470387309244,2053,2050,2058,2057,2068,2054,1198
1310,1713854470397313997,2056,2057,2066,2058,2048,2053,1197
1311,1713854470407310282,2057,2056,2056,2065,2038,2054,1198
1312,1713854470417313250,2062,2062,2058,2056,2061,2053,1198
1313,1713854470427309385,2051,2049,2050,2063,2045,2053,1195
1314,1713854470437310811,2057,2056,2052,2061,2068,2055,1196
1315,1713854470447311394,2053,2053,2050,2069,2052,2054,1196
1316,1713854470457311066,2054,2054,2042,2040,2072,2056,1195
1317,1713854470467311639,2054,2072,2041,2006,2043,2054,1194
1318,1713854470477311803,2059,2072,2085,2060,2066,2053,1193
1319,1713854470487311424,2052,2064,2041,2058,2044,2056,1196
1320,1713854470497311858,2067,2082,2080,2037,2061,2049,1197
1321,1713854470507312612,2050,2047,2053,2080,2043,2052,1194
1322,1713854470517313246,2057,2064,2088,2072,2066,2054,1195
1323,1713854470527319941,2052,2037,2037,2063,2052,2052,1195
1324,1713854470537314342,2054,2050,2067,2040,2060,2057,1198
1325,1713854470547315057,2053,2046,2058,2056,2042,2052,1194
1326,1713854470557270726,2052,2037,2041,2055,2074,2056,1197
1327,1713854470567314851,2062,2061,2075,2057,2043,2053,1196
1328,1713854470577315956,2056,2057,2046,2057,2062,2053,1196
1329,1713854470587315458,2047,2037,2027,2052,2028,2048,1198
1330,1713854470597315531,2056,2086,2094,2054,2061,2053,1197
1331,1713854470607316395,2051,2042,2061,2066,2044,2056,1195
1332,1713854470617315786,2064,2066,2056,2051,2049,2056,1197
1333,1713854470627320437,2047,2049,2033,2067,2033,2054,1200
1334,1713854470637317815,2054,2051,2041,2061,2050,2055,1194
1335,1713854470647300615,2052,2058,2038,2053,2038,2052,1197
1336,1713854470657323541,2062,2066,2068,2055,2053,2053,1197
1337,1713854470667301852,2058,2056,2067,2059,2043,2052,1196
1338,1713854470677318907,2053,2056,2040,2027,2060,2052,1194
1339,1713854470687303471,2046,2050,2054,2069,2044,2052,1194
1340,1713854470697301519,2051,2047,2069,2046,2065,2052,1197
1341,1713854470707301923,2054,2047,2064,2023,2042,2053,1196
1342,1713854470717302717,2057,2056,2051,2054,2039,2047,1193
1343,1713854470727301717,2057,2076,2066,2045,2041,2052,1196
1344,1713854470737319473,2054,2064,2073,2047,2051,2051,1197
1345,1713854470747302905,2047,2030,2046,2052,2043,2054,1196
1346,1713854470757301335,2070,2083,2086,2062,2060,2056,1195
1347,1713854470767303992,2047,2028,2032,2070,2044,2053,1197
1348,1713854470777300798,2050,2034,2026,2061,2070,2056,1198
1349,1713854470787303637,2059,2049,2050,2064,2046,2054,1197
1350,1713854470797300994,2048,2036,2025,2007,2063,2052,1197
1351,1713854470807304042,2049,2040,2072,2058,2040,2053,1197
1352,1713854470817299036,2062,2062,2076,2049,2063,2052,1197
1353,1713854470827311632,2042,2031,2027,2070,2042,2053,1196
1354,1713854470837305733,2076,2130,2136,2064,2064,2053,1196
1355,1713854470847325854,2049,2035,2017,2088,2040,2057,1195
1356,1713854470857306260,2066,2073,2063,2068,2072,2056,1197
1357,1713854470867307174,2052,2043,2054,2065,2041,2056,1196
1358,1713854470877305123,2060,2106,2064,2037,2058,2051,1194
1359,1713854470887305476,2061,2064,2052,2058,2045,2056,1196
1360,1713854470897304497,2050,2053,2032,2049,2061,2051,1196
1361,1713854470907306734,2048,2041,2040,2064,2059,2054,1197
1362,1713854470917302919,2057,2044,2052,2026,2057,2053,1197
1363,1713854470927307140,2060,2060,2077,2062,2043,2051,1196
1364,1713854470937307894,2064,2075,2058,2057,2048,2050,1195
1365,1713854470947268051,2050,2045,2037,2073,2049,2053,1195
1366,1713854470957301346,2064,2072,2040,2064,2050,2052,1197
1367,1713854470967272454,2056,2084,2065,2068,2030,2052,1196
1368,1713854470977304818,2044,2013,2026,2056,2068,2057,1196
1369,1713854470987308147,2052,2031,2056,2058,2044,2056,1198
1370,1713854470997304051,2058,2058,2067,2047,2057,2053,1196
1371,1713854471007315846,2053,2042,2026,2045,2029,2050,1195
1372,1713854471017304366,2061,2058,2044,2014,2084,2054,1197
1373,1713854471027306233,2048,2043,2070,2091,2065,2054,1195
1374,1713854471037303690,2053,2057,2060,2053,2059,2050,1195
1375,1713854471047303231,2056,2052,2073,2064,2042,2057,1196
1376,1713854471057303885,2056,2056,2054,2028,2061,2051,1196
1377,1713854471067287245,2049,2052,2077,2076,2040,2056,1197
1378,1713854471077305252,2055,2056,2056,2075,2061,2049,1193
1379,1713854471087303921,2054,2048,2056,2075,2045,2058,1195
1380,1713854471097307541,2060,2074,2060,2032,2062,2050,1195
1381,1713854471107293466,2057,2039,2041,2058,2041,2056,1196
1382,1713854471117308617,2069,2077,2092,2054,2060,2049,1194
1383,1713854471127305644,2061,2044,2039,2056,2044,2057,1195
1384,1713854471137304314,2060,2068,2072,2041,2054,2050,1195
1385,1713854471147262657,2049,2043,2056,2059,2025,2048,1197
1386,1713854471157299319,2052,2065,2086,2008,2053,2052,1197
1387,1713854471167304611,2048,2050,2056,2058,2033,2050,1196
1388,1713854471177304263,2060,2066,2104,2041,2056,2052,1197
1389,1713854471187305316,2058,2038,2013,2054,2045,2056,1197
1390,1713854471197307603,2052,2040,2056,2050,2071,2050,1196
1391,1713854471207305862,2053,2046,2055,2065,2039,2060,1196
1392,1713854471217276188,2049,2052,2030,2031,2054,2045,1194
1393,1713854471227306368,2053,2056,2056,2059,2042,2054,1196
1394,1713854471237306399,2052,2024,2027,2042,2060,2053,1197
1395,1713854471247264302,2060,2058,2069,2074,2044,2057,1197
1396,1713854471257301865,2057,2064,2096,2044,2052,2048,1196
1397,1713854471267305595,2049,2039,2024,2069,2052,2054,1195
1398,1713854471277303753,2048,2049,2024,2041,2056,2049,1193
1399,1713854471287302052,2047,2032,2031,2065,2043,2057,1197
1400,1713854471297303407,2049,2045,2042,2057,2077,2054,1196
1401,1713854471307303420,2052,2056,2048,2045,2040,2056,1196
1402,1713854471317303021,2050,2067,2088,2045,2064,2050,1195
1403,1713854471327304566,2050,2049,2049,2056,2038,2052,1197
1404,1713854471337305540,2067,2124,2099,2061,2065,2057,1196
1405,1713854471347299371,2047,2034,2053,2069,2064,2060,1196
1406,1713854471357296538,2061,2057,2047,2041,2055,2050,1194
1407,1713854471367299676,2055,2057,2056,2057,2043,2054,1196
1408,1713854471377300099,2060,2069,2038,2062,2060,2052,1195
1409,1713854471387301744,2045,2046,2022,2030,2040,2056,1197
1410,1713854471397322005,2057,2021,2016,2037,2060,2051,1197
1411,1713854471407301649,2056,2045,2046,2061,2041,2055,1196
1412,1713854471417312591,2055,2052,2046,1997,2062,2052,1197
1413,1713854471427311071,2060,2077,2080,2071,2052,2058,1197
1414,1713854471437311003,2058,2079,2072,2050,2062,2052,1197
1415,1713854471447305604,2045,2064,2030,2059,2040,2053,1198
1416,1713854471457302501,2056,2054,2065,2057,2065,2053,1196
1417,1713854471467303635,2052,2052,2054,2053,2042,2054,1197
1418,1713854471477303067,2066,2085,2056,2069,2081,2051,1194
1419,1713854471487306095,2060,2083,2122,2078,2040,2053,1194
1420,1713854471497304374,2052,2042,2021,2047,2064,2052,1195
1421,1713854471507303975,2053,2051,2038,2059,2030,2050,1195
1422,1713854471517301563,2065,2096,2088,2050,2060,2056,1197
1423,1713854471527303368,2052,2047,2058,2061,2033,2057,1194
1424,1713854471537303611,2053,2052,2052,2045,2082,2056,1194
1425,1713854471547306659,2053,2036,2053,2051,2036,2053,1195
1426,1713854471557302744,2049,2031,2041,2050,2063,2053,1196
1427,1713854471567304239,2049,2062,2034,2041,2025,2047,1196
1428,1713854471577304121,2046,2040,2068,2053,2060,2057,1196
1429,1713854471587304845,2054,2064,2059,2068,2058,2050,1198
1430,1713854471597308103,2059,2069,2049,2037,2049,2050,1197
1431,1713854471607305500,2053,2046,2045,2028,2040,2051,1195
1432,1713854471617300533,2056,2048,2040,2053,2071,2052,1195
1433,1713854471627303962,2053,2056,2060,2075,2046,2056,1197
1434,1713854471637305396,2057,2052,2053,2052,2057,2048,1197
1435,1713854471647305519,2050,2070,2053,2077,2052,2056,1198
1436,1713854471657301604,2057,2061,2042,2021,2072,2054,1198
1437,1713854471667302117,2058,2060,2088,2061,2046,2057,1196
1438,1713854471677302250,2052,2047,2019,2045,2064,2053,1193
1439,1713854471687305548,2052,2057,2073,2065,2036,2056,1195
1440,1713854471697306672,2058,2060,2056,2050,2062,2052,1196
1441,1713854471707302998,2064,2066,2068,2070,2040,2052,1195
1442,1713854471717300195,2055,2078,2076,2088,2096,2054,1198
1443,1713854471727304585,2051,2038,2038,2047,2027,2051,1194
1444,1713854471737305068,2057,2038,2022,2047,2061,2053,1196
1445,1713854471747304329,2076,2084,2045,2093,2080,2059,1197
1446,1713854471757305784,2048,2060,2049,2048,2060,2053,1195
1447,1713854471767305235,2050,2027,2045,2012,2031,2052,1196
1448,1713854471777302623,2063,2060,2081,2038,2086,2057,1196
1449,1713854471787304909,2056,2048,2037,2050,2044,2056,1196
1450,1713854471797303930,2064,2052,2028,2046,2065,2053,1197
1451,1713854471807307058,2046,2035,2041,2053,2037,2060,1193
1452,1713854471817310556,2050,2057,2054,2024,2066,2049,1195
1453,1713854471827302404,2065,2058,2042,2056,2033,2053,1198
1454,1713854471837301273,2050,2053,2065,2019,2040,2047,1193
1455,1713854471847302868,2056,2100,2064,2077,2050,2056,1197
1456,1713854471857300446,2056,2053,2075,2056,2061,2047,1193
1457,1713854471867318613,2046,2053,2032,2041,2037,2056,1196
1458,1713854471877303416,2068,2080,2092,2054,2067,2056,1193
1459,1713854471887302727,2047,2044,2035,2062,2043,2053,1196
1460,1713854471897303661,2052,2064,2072,2058,2057,2051,1196
1461,1713854471907310406,2057,2100,2050,2050,2030,2053,1196
1462,1713854471917304046,2061,2059,2065,2053,2065,2052,1197
1463,1713854471927307315,2047,2033,2074,2060,2037,2052,1196
1464,1713854471937304863,2049,2052,2049,2038,2062,2052,1195
1465,1713854471947304835,2052,2049,2041,2054,2034,2060,1196
1466,1713854471957305057,2064,2074,2044,2047,2068,2050,1198
1467,1713854471967311832,2056,2061,2056,2069,2040,2054,1197
1468,1713854471977304561,2068,2082,2116,2074,2085,2054,1198
1469,1713854471987307508,2050,2041,2039,2045,2034,2049,1198
1470,1713854471997306630,2056,2060,2068,2062,2066,2056,1196
1471,1713854472007307253,2059,2044,2026,2076,2042,2056,1197
1472,1713854472017307755,2056,2057,2044,2036,2064,2053,1196
1473,1713854472027307316,2060,2059,2053,2014,2044,2053,1197
1474,1713854472037306426,2056,2078,2043,2044,2064,2052,1197
1475,1713854472047309013,2049,2045,2077,2062,2031,2050,1196
1476,1713854472057308515,2061,2060,2052,2055,2068,2050,1196
1477,1713854472067311442,2050,2050,2047,2041,2035,2056,1196
1478,1713854472077308919,2062,2069,2080,2043,2062,2051,1193
1479,1713854472087309522,2050,2043,2045,2027,2028,2053,1197
1480,1713854472097310135,2057,2049,2038,2054,2082,2056,1195
1481,1713854472107310698,2059,2036,2064,2072,2041,2056,1197
1482,1713854472117302914,2066,2077,2060,2049,2069,2050,1195
1483,1713854472127305201,2046,2035,2037,2061,2035,2056,1196
1484,1713854472137308139,2060,2066,2052,2034,2064,2052,1197
1485,1713854472147311076,2052,2037,2025,2031,2043,2056,1195
1486,1713854472157310567,2065,2072,2058,2054,2088,2056,1196
1487,1713854472167315418,2049,2047,2048,2064,2036,2052,1195
1488,1713854472177311863,2053,2068,2050,2056,2061,2050,1193
1489,1713854472187283371,2053,2050,2072,2066,2046,2055,1197
1490,1713854472197312629,2056,2088,2047,2047,2061,2051,1197
1491,1713854472207313391,2047,2016,2032,2076,2044,2059,1196
1492,1713854472217311169,2065,2069,2084,2065,2060,2052,1197
1493,1713854472227313666,2052,2053,2061,2078,2041,2051,1196
1494,1713854472237314169,2055,2059,2051,2032,2073,2050,1195
1495,1713854472247312267,2050,2049,2053,2073,2051,2052,1194
1496,1713854472257316066,2064,2083,2089,2061,2081,2050,1195
1497,1713854472267317881,2072,2041,2040,2064,2040,2052,1195
1498,1713854472277314677,2054,2061,2065,2061,2070,2052,1195
1499,1713854472287316062,2054,2065,2043,2069,2029,2050,1196
1500,1713854472297315583,2059,2060,2057,2052,2073,2053,1195
1501,1713854472307314011,2052,2052,2044,2057,2044,2054,1198
1502,1713854472317317349,2058,2062,2073,2035,2075,2052,1194
1503,1713854472327318624,2044,2036,2037,2054,2028,2053,1197
1504,1713854472337305622,2053,2046,2041,2053,2065,2050,1197
1505,1713854472347304851,2057,2085,2067,2066,2039,2052,1197
1506,1713854472357302539,2056,2050,2042,2052,2069,2048,1196
1507,1713854472367307941,2056,2041,2017,2029,2036,2056,1196
1508,1713854472377300539,2056,2064,2056,2047,2062,2048,1196
1509,1713854472387303306,2053,2056,2077,2071,2038,2054,1197
1510,1713854472397301314,2045,2044,2030,2042,2081,2049,1198
1511,1713854472407304923,2052,2050,2078,2061,2034,2053,1196
1512,1713854472417307420,2048,2059,2054,2067,2069,2046,1192
1513,1713854472427305027,2049,2040,2056,2092,2049,2057,1196
1514,1713854472437305059,2051,2052,2038,2058,2073,2050,1194
1515,1713854472447306714,2048,2062,2072,2072,2054,2053,1193
1516,1713854472457305564,2056,2061,2055,2052,2066,2052,1194
1517,1713854472467303642,2054,2045,2049,2063,2050,2057,1194
1518,1713854472477308573,2062,2059,2059,2039,2082,2054,1193
1519,1713854472487304297,2056,2039,2054,2056,2038,2052,1195
1520,1713854472497301965,2075,2094,2051,2054,2070,2052,1196
1521,1713854472507305704,2047,2035,2034,2068,2039,2051,1194
1522,1713854472517305926,2056,2047,2056,2072,2059,2048,1194
1523,1713854472527305737,2057,2045,2058,2056,2045,2058,1196
1524,1713854472537303234,2053,2050,2047,2048,2059,2052,1195
1525,1713854472547304829,2055,2040,2024,2048,2024,2056,1195
1526,1713854472557304441,2056,2050,2041,2049,2066,2052,1196
1527,1713854472567302789,2051,2046,2036,2057,2036,2053,1193
1528,1713854472577301849,2061,2073,2081,2058,2070,2054,1197
1529,1713854472587313233,2052,2059,2076,2069,2049,2054,1196
1530,1713854472597307524,2064,2072,2112,2059,2075,2056,1196
1531,1713854472607306103,2049,2038,2026,2058,2043,2057,1196
1532,1713854472617306926,2054,2064,2088,2060,2059,2048,1194
1533,1713854472627304473,2052,2068,2060,2067,2039,2053,1197
1534,1713854472637306610,2053,2044,2024,2044,2061,2050,1195
1535,1713854472647304768,2068,2068,2063,2082,2056,2053,1195
1536,1713854472657301063,2049,2046,2030,2044,2066,2049,1197
1537,1713854472667302808,2048,2022,2000,2050,2026,2052,1197
1538,1713854472677302519,2056,2048,2049,2052,2056,2049,1193
1539,1713854472687312650,2056,2048,2069,2070,2036,2053,1195
1540,1713854472697354422,2060,2064,2045,2034,2042,2047,1192
1541,1713854472707301523,2058,2045,2057,2067,2037,2056,1194
1542,1713854472717301926,2053,2047,2042,2036,2068,2046,1194
1543,1713854472727304693,2053,2076,2061,2061,2036,2053,1196
1544,1713854472737302861,2049,2048,2034,2044,2071,2047,1194
1545,1713854472747305558,2060,2084,2104,2073,2045,2058,1195
1546,1713854472757302925,2056,2052,2049,2065,2099,2053,1197
1547,1713854472767303448,2057,2069,2077,2059,2040,2057,1197
1548,1713854472777302889,2055,2076,2057,2047,2068,2052,1196
1549,1713854472787302089,2058,2063,2082,2074,2053,2056,1197
1550,1713854472797303774,2058,2072,2073,2056,2061,2056,1195
1551,1713854472807305229,2051,2051,2052,2054,2037,2056,1196
1552,1713854472817303026,2060,2061,2060,2053,2054,2052,1196
1553,1713854472827305373,2050,2038,2030,2054,2037,2052,1196
1554,1713854472837305785,2061,2085,2077,2059,2053,2050,1196
1555,1713854472847304034,2050,2039,2049,1997,2032,2052,1196
1556,1713854472857304076,2060,2094,2082,2068,2068,2056,1197
1557,1713854472867304509,2050,2041,2050,2069,2043,2056,1197
1558,1713854472877303949,2060,2069,2070,2061,2076,2052,1193
1559,1713854472887297249,2049,2045,2038,2057,2050,2056,1196
1560,1713854472897304213,2047,2015,2048,2029,2061,2050,1194
1561,1713854472907301841,2053,2056,2059,2050,2037,2056,1195
1562,1713854472917302104,2052,2048,2027,2071,2078,2054,1198
1563,1713854472927305853,2047,2037,2031,2078,2056,2055,1197
1564,1713854472937303420,2058,2061,2066,2051,2067,2053,1196
1565,1713854472947307670,2048,2032,2022,2058,2032,2052,1193
1566,1713854472957310827,2064,2081,2051,2025,2056,2049,1196
1567,1713854472967303045,2057,2056,2064,2061,2047,2058,1195
1568,1713854472977307144,2054,2039,2072,2064,2066,2052,1195
1569,1713854472987303830,2052,2040,2052,2036,2035,2054,1197
1570,1713854472997305645,2061,2051,2041,2073,2056,2047,1195
1571,1713854473007304174,2050,2041,2060,2056,2028,2056,1197
1572,1713854473017305879,2058,2064,2061,2053,2066,2052,1196
1573,1713854473027303756,2049,2044,2044,2057,2039,2053,1194
1574,1713854473037305130,2055,2063,2041,2048,2064,2054,1196
1575,1713854473047310552,2048,2032,2035,1964,2021,2052,1198
1576,1713854473057306256,2055,2042,2040,2052,2070,2053,1197
1577,1713854473067303923,2049,2046,2042,2060,2041,2057,1196
1578,1713854473077305838,2048,2025,2055,2054,2068,2052,1194
1579,1713854473087306741,2060,2064,2070,2083,2059,2059,1195
1580,1713854473097306923,2057,2059,2042,2067,2083,2054,1196
1581,1713854473107303488,2052,2051,2054,2061,2040,2052,1196
1582,1713854473117300394,2058,2068,2065,2054,2068,2052,1197
1583,1713854473127305936,2047,2034,2037,2058,2034,2053,1197
1584,1713854473137301169,2056,2044,2048,2049,2056,2047,1192
1585,1713854473147301661,2052,2022,2041,2069,2038,2052,1197
1586,1713854473157302263,2061,2052,2050,2059,2062,2051,1194
1587,1713854473167305591,2052,2042,2037,2057,2043,2055,1196
1588,1713854473177303519,2064,2081,2056,2056,2056,2057,1197
1589,1713854473187305184,2057,2060,2081,2071,2036,2056,1197
1590,1713854473197327117,2060,2060,2060,2053,2069,2051,1195
1591,1713854473207305407,2051,2052,2069,2044,2036,2052,1196
1592,1713854473217305889,2064,2067,2057,2054,2070,2052,1195
1593,1713854473227301413,2046,2045,2041,2048,2033,2053,1196
1594,1713854473237302136,2047,2041,2041,2030,2067,2046,1196
1595,1713854473247303029,2050,2055,2061,2066,2043,2057,1196
1596,1713854473257302278,2060,2060,2066,2036,2089,2054,1196
1597,1713854473267302901,2048,2032,2040,2004,2028,2051,1197
1598,1713854473277301360,2059,2052,2069,2055,2056,2046,1191
1599,1713854473287309257,2054,2049,2067,2051,2034,2056,1194
1600,1713854473297304980,2059,2064,2072,2056,2076,2051,1194
1601,1713854473307305372,2051,2049,2031,2041,2041,2050,1194
1602,1713854473317302869,2064,2068,2079,2053,2088,2053,1194
1603,1713854473327304674,2047,2044,2038,2061,2023,2049,1195
1604,1713854473337303704,2054,2045,2042,1993,2053,2045,1192
1605,1713854473347304116,2053,2064,2039,2063,2040,2050,1196
1606,1713854473357302364,2052,2053,2048,2053,2062,2050,1196
1607,1713854473367303307,2048,2041,2047,2015,2031,2052,1195
1608,1713854473377302557,2053,2045,2036,2048,2089,2053,1196
1609,1713854473387308079,2049,2036,2025,2072,2045,2056,1194
1610,1713854473397303713,2054,2053,2043,2065,2069,2051,1197
1611,1713854473407304827,2060,2093,2082,2087,2052,2060,1197
1612,1713854473417303486,2050,2044,2034,2046,2084,2050,1196
1613,1713854473427305180,2056,2049,2028,2033,2036,2053,1196
1614,1713854473437304691,2061,2063,2068,2053,2066,2049,1196
1615,1713854473447303871,2066,2075,2117,2072,2042,2059,1198
1616,1713854473457359618,2049,2042,2049,2051,2075,2053,1197
1617,1713854473467317841,2059,2101,2067,2052,2041,2053,1197
1618,1713854473477315528,2052,2037,2039,2059,2062,2047,1191
1619,1713854473487317332,2055,2052,2052,2057,2046,2056,1195
1620,1713854473497315640,2056,2057,2053,2074,2076,2054,1197
1621,1713854473507316223,2058,2069,2137,2075,2052,2056,1196
1622,1713854473517315504,2048,2047,2054,2047,2060,2050,1196
1623,1713854473527317730,2048,2035,2047,2056,2042,2056,1195
1624,1713854473537316028,2057,2082,2062,2056,2072,2053,1196
1625,1713854473547318594,2053,2072,2069,2077,2040,2057,1196
1626,1713854473557316852,2064,2064,2037,2064,2073,2051,1197
1627,1713854473567318998,2058,2058,2072,2069,2043,2057,1196
1628,1713854473577317607,2056,2056,2049,2045,2070,2052,1197
1629,1713854473587318470,2057,2059,2061,2060,2040,2057,1199
1630,1713854473597292743,2060,2050,2053,2048,2065,2049,1198
1631,1713854473607320096,2053,2041,2046,2053,2039,2052,1197
1632,1713854473617316170,2060,2080,2072,2042,2052,2049,1196
1633,1713854473627316132,2049,2038,2037,2069,2029,2047,1193
1634,1713854473637310643,2053,2062,2064,2058,2068,2052,1195
1635,1713854473647310735,2050,2056,2081,2056,2040,2055,1197
1636,1713854473657308182,2066,2073,2037,2048,2068,2053,1197
1637,1713854473667308113,2056,2034,2062,2058,2028,2056,1197
1638,1713854473677309947,2052,2029,2041,2060,2071,2050,1197
1639,1713854473687311282,2049,2045,2035,2062,2042,2056,1196
1640,1713854473697308849,2056,2061,2070,2060,2072,2049,1194
1641,1713854473707308840,2044,2049,2064,2052,2036,2057,1196
1642,1713854473717308541,2053,2054,2046,2055,2062,2053,1197
1643,1713854473727310667,2048,2028,2053,2056,2036,2054,1196
1644,1713854473737306260,2064,2049,2042,2051,2067,2048,1194
1645,1713854473747306522,2057,2059,2063,2073,2054,2060,1196
1646,1713854473757306043,2056,2052,2067,2050,2058,2050,1195
1647,1713854473767309160,2056,2050,2049,2065,2061,2058,1196
1648,1713854473777307118,2056,2044,2060,2025,2077,2050,1197
1649,1713854473787305656,2062,2061,2084,2065,2044,2056,1198
1650,1713854473797305938,2052,2052,2041,2054,2060,2048,1199
1651,1713854473807309607,2058,2040,2044,2060,2037,2054,1196
1652,1713854473817309458,2056,2052,2052,2048,2056,2052,1197
1653,1713854473827308999,2053,2054,2056,2061,2040,2052,1196
1654,1713854473837310053,2054,2056,2058,2056,2073,2054,1196
1655,1713854473847308631,2052,2033,2049,2067,2038,2052,1198
1656,1713854473857308021,2060,2057,2056,2058,2068,2052,1196
1657,1713854473867305989,2049,2062,2053,2070,2039,2053,1197
1658,1713854473877308866,2058,2047,2040,1999,2065,2048,1194
1659,1713854473887307415,2050,2029,2025,2048,2030,2055,1194
1660,1713854473897307738,2051,2049,2028,2053,2056,2050,1196
1661,1713854473907307679,2054,2056,2058,2054,2036,2056,1195
1662,1713854473917306828,2046,2028,2041,2050,2066,2048,1196
1663,1713854473927310958,2059,2072,2075,2053,2035,2056,1195
1664,1713854473937315528,2046,2050,2044,2043,2073,2045,1193
1665,1713854473947308767,2054,2042,2038,2060,2047,2053,1196
1666,1713854473957308528,2060,2072,2056,2056,2096,2056,1194
1667,1713854473967307216,2058,2052,2052,2065,2041,2056,1196
1668,1713854473977304463,2056,2057,2061,2059,2082,2048,1195
1669,1713854473987306839,2054,2038,2056,2070,2035,2057,1196
1670,1713854473997304847,2056,2074,2079,2054,2065,2051,1195
1671,1713854474007304508,2036,2009,2006,2040,2036,2053,1195
1672,1713854474017306863,2052,2047,2053,2049,2064,2048,1197
1673,1713854474027305933,2051,2054,2042,2047,2039,2056,1197
1674,1713854474037303890,2058,2044,2068,2054,2072,2053,1195
1675,1713854474047304282,2053,2041,2045,2077,2036,2056,1194
1676,1713854474057307179,2054,2074,2047,2058,2068,2053,1197
1677,1713854474067310937,2052,2048,2029,2060,2038,2054,1194
1678,1713854474077304846,2050,2053,2038,2051,2060,2052,1194
1679,1713854474087305770,2046,2058,2057,2054,2043,2052,1194
1680,1713854474097307554,2049,2056,2040,2023,2072,2047,1192
1681,1713854474107305953,2053,2060,2058,2045,2038,2052,1195
1682,1713854474117308618,2048,2041,2014,2036,2059,2048,1193
1683,1713854474127304392,2065,2056,2014,2069,2051,2059,1195
1684,1713854474137304743,2057,2059,2048,2042,2060,2049,1195
1685,1713854474147325454,2060,2058,2072,2063,2036,2056,1196
1686,1713854474157305237,2058,2045,2060,2049,2068,2050,1195
1687,1713854474167306781,2054,2038,2048,2058,2042,2053,1195
1688,1713854474177303886,2052,2044,2028,2052,2072,2050,1195
1689,1713854474187304720,2062,2057,2057,2067,2039,2054,1196
1690,1713854474197304059,2047,2042,2024,2044,2081,2051,1198
1691,1713854474207304872,2060,2060,2064,2052,2035,2053,1196
1692,1713854474217303921,2052,2042,2026,2044,2062,2052,1196
1693,1713854474227304524,2064,2057,2048,2077,2049,2053,1197
1694,1713854474237305046,2051,2043,2031,2066,2064,2051,1199
1695,1713854474247305167,2061,2057,2074,2070,2034,2056,1197
1696,1713854474257304648,2057,2057,2044,2070,2074,2053,1196
1697,1713854474267305771,2050,2044,2037,2010,2035,2055,1196
1698,1713854474277305432,2053,2052,2039,2046,2072,2054,1194
1699,1713854474287307196,2054,2052,2067,2068,2041,2057,1198
1700,1713854474297306216,2053,2054,2069,2048,2068,2050,1196
1701,1713854474307306727,2058,2047,2046,2066,2041,2058,1196
1702,1713854474317306939,2057,2083,2108,2052,2072,2050,1197
1703,1713854474327307601,2046,2032,2027,2047,2050,2053,1196
1704,1713854474337304948,2068,2091,2056,2060,2056,2054,1197
1705,1713854474347308145,2056,2068,2061,2052,2036,2052,1196
1706,1713854474357307615,2056,2055,2056,2010,2069,2051,1198
1707,1713854474367308778,2049,2035,2052,2067,2040,2053,1196
1708,1713854474377308329,2059,2057,2070,2044,2064,2048,1196
1709,1713854474387309362,2056,2059,2076,2069,2065,2056,1198
1710,1713854474397309233,2050,2043,2030,2064,2091,2052,1197
1711,1713854474407310025,2056,2068,2085,2072,2040,2060,1197
1712,1713854474417309927,2060,2046,2093,2064,2065,2053,1195
1713,1713854474427311360,2055,2066,2094,2062,2030,2056,1196
1714,1713854474437311502,2054,2056,2051,2043,2060,2050,1196
1715,1713854474447311263,2064,2096,2063,2058,2041,2056,1196
1716,1713854474457311064,2052,2050,2033,2064,2069,2047,1193
1717,1713854474467312237,2051,2056,2037,2073,2041,2054,1198
1718,1713854474477311777,2056,2063,2044,2052,2072,2051,1196
1719,1713854474487312540,2053,2044,2033,2087,2048,2057,1196
1720,1713854474498275912,2057,2053,2042,2077,2069,2050,1194
1721,1713854474507312973,2052,2042,2040,2067,2059,2054,1197
1722,1713854474517312704,2056,2072,2075,2052,2069,2047,1192
1723,1713854474527352820,2049,2036,2037,2063,2041,2056,1195
1724,1713854474537352812,2058,2052,2020,2066,2079,2050,1197
1725,1713854474547353414,2051,2043,2034,2079,2029,2053,1196
1726,1713854474557352974,2050,2052,2064,2070,2086,2056,1197
1727,1713854474567353758,2056,2060,2080,2066,2030,2056,1196
1728,1713854474577354039,2053,2045,2040,2052,2074,2048,1197
1729,1713854474587354662,2055,2054,2049,2064,2041,2056,1194
1730,1713854474597354632,2057,2060,2067,2051,2046,2049,1197
1731,1713854474607355986,2056,2044,2034,2085,2037,2052,1197
1732,1713854474617355065,2057,2056,2060,2064,2069,2056,1195
1733,1713854474627355838,2056,2062,2099,2040,2035,2050,1196
1734,1713854474637297880,2057,2063,2068,2046,2063,2052,1196
1735,1713854474647299835,2055,2060,2026,2062,2040,2056,1196
1736,1713854474657356352,2065,2108,2088,2060,2088,2055,1195
1737,1713854474667301571,2052,2051,2056,2080,2036,2054,1197
1738,1713854474677300499,2057,2060,2069,2056,2068,2052,1193
1739,1713854474687342711,2052,2052,2053,2054,2025,2053,1195
1740,1713854474697301523,2056,2063,2076,2059,2069,2053,1194
1741,1713854474707342282,2050,2035,2048,2056,2044,2056,1196
1742,1713854474717340389,2064,2094,2066,2056,2077,2048,1196
1743,1713854474727343136,2056,2055,2040,2068,2038,2054,1195
1744,1713854474737338528,2064,2073,2056,2047,2077,2053,1195
1745,1713854474747338610,2049,2044,2033,2065,2040,2055,1195
1746,1713854474757339021,2054,2042,2049,2061,2093,2051,1195
1747,1713854474767339384,2050,2043,2036,2057,2035,2053,1196
1748,1713854474777337512,2061,2064,2060,2074,2067,2053,1197
1749,1713854474787337863,2048,2036,2025,2059,2040,2057,1194
1750,1713854474797335460,2050,2042,2047,2052,2072,2051,1196
1751,1713854474807335641,2051,2033,2042,2070,2045,2057,1195
1752,1713854474817333819,2056,2060,2047,2049,2072,2051,1195
1753,1713854474827333950,2052,2050,2058,2058,2036,2049,1197
1754,1713854474837332399,2049,2041,2044,2051,2066,2052,1196
1755,1713854474847333021,2047,2044,2068,2062,2065,2056,1197
1756,1713854474857332592,2056,2055,2076,2057,2065,2052,1195
1757,1713854474867333344,2049,2064,2061,2030,2036,2055,1196
1758,1713854474877335780,2055,2075,2064,2054,2060,2050,1196
1759,1713854474887331403,2051,2040,2065,2049,2036,2054,1196
1760,1713854474897328799,2056,2085,2065,2043,2062,2049,1194
1761,1713854474907329692,2062,2070,2100,2066,2039,2050,1195
1762,1713854474917329253,2052,2044,2044,2046,2058,2049,1195
1763,1713854474927329273,2052,2053,2066,2053,2035,2056,1194
1764,1713854474937328574,2062,2077,2091,2067,2063,2049,1197
1765,1713854474947326540,2053,2040,2038,2052,2034,2054,1195
1766,1713854474957328285,2056,2064,2060,2050,2084,2056,1196
1767,1713854474967325691,2060,2062,2064,2073,2057,2058,1193
1768,1713854474977323899,2046,2052,2046,2068,2079,2056,1197
1769,1713854474987332767,2060,2051,2053,2046,2041,2053,1198
1770,1713854474997322148,2060,2074,2096,2075,2074,2056,1195
1771,1713854475007362275,2050,2039,2036,2059,2041,2053,1196
1772,1713854475017321049,2056,2060,2058,2045,2064,2052,1196
1773,1713854475027326079,2053,2045,2059,2068,2052,2057,1196
1774,1713854475037320389,2058,2065,2057,2000,2058,2049,1196
1775,1713854475047321121,2044,2048,2044,2070,2045,2058,1193
1776,1713854475057319047,2056,2050,2044,2049,2061,2052,1196
1777,1713854475067319640,2053,2044,2045,2041,2036,2053,1196
1778,1713854475077320011,2054,2053,2057,2052,2064,2050,1195
1779,1713854475087319401,2062,2075,2068,2049,2043,2058,1197
1780,1713854475097316195,2053,2049,2047,2072,2065,2052,1195
1781,1713854475107317158,2052,2052,2053,2037,2031,2052,1196
1782,1713854475117315506,2055,2054,2050,2049,2065,2049,1197
1783,1713854475127316088,2056,2049,2057,2058,2039,2053,1196
1784,1713854475137314325,2060,2054,2053,2026,2058,2048,1197
1785,1713854475147316620,2052,2041,2034,2065,2041,2057,1197
1786,1713854475157313185,2056,2055,2064,2038,2065,2056,1196
1787,1713854475167313006,2054,2067,2120,2069,2056,2058,1195
1788,1713854475177312556,2050,2044,2048,2048,2071,2053,1197
1789,1713854475187315031,2049,2046,2048,2048,2040,2053,1196
1790,1713854475197313539,2056,2050,2056,2045,2069,2047,1195
1791,1713854475207314673,2052,2041,2029,2032,2028,2056,1195
1792,1713854475217313060,2073,2098,2102,2080,2112,2056,1197
1793,1713854475227312880,2045,2026,2020,2073,2037,2051,1195
1794,1713854475237317339,2054,2052,2052,2050,2066,2052,1197
1795,1713854475247313583,2053,2051,2051,2056,2040,2053,1197
1796,1713854475257312553,2057,2052,2044,2052,2080,2054,1197
1797,1713854475267313796,2064,2108,2078,2064,2038,2056,1195
1798,1713854475277313486,2049,2043,2024,2051,2065,2049,1194
1799,1713854475287313065,2050,2052,2056,2056,2038,2056,1197
1800,1713854475297314148,2058,2058,2056,2046,2070,2050,1196
1801,1713854475307312457,2050,2042,2041,2072,2036,2057,1197
1802,1713854475317315293,2056,2076,2092,2034,2065,2052,1194
1803,1713854475327313370,2052,2038,2049,2051,2037,2052,1196
1804,1713854475337313410,2059,2056,2050,2034,2059,2049,1198
1805,1713854475347313812,2055,2060,2066,2058,2041,2052,1196
1806,1713854475357313783,2054,2061,2036,2031,2072,2049,1196
1807,1713854475367313493,2061,2040,2060,2074,2042,2060,1197
1808,1713854475377313614,2060,2042,2048,2060,2068,2048,1197
1809,1713854475387312653,2052,2040,2049,2085,2045,2056,1197
1810,1713854475397313596,2054,2056,2054,2060,2066,2052,1196
1811,1713854475407331962,2053,2041,2033,2052,2036,2053,1196
1812,1713854475417318076,2067,2096,2158,2043,2093,2060,1196
1813,1713854475427313588,2051,2064,2042,2057,2040,2054,1195
1814,1713854475437311846,2056,2056,2044,2043,2068,2049,1197
1815,1713854475447303101,2056,2079,2101,2014,2038,2054,1197
1816,1713854475457314283,2051,2070,2039,2052,2065,2048,1197
1817,1713854475467314794,2042,2038,2020,2064,2024,2053,1196
1818,1713854475477312240,2056,2041,2064,2079,2066,2048,1197
1819,1713854475487322680,2045,2003,2032,2073,2043,2056,1198
1820,1713854475497312272,2063,2047,2036,2070,2072,2051,1194
1821,1713854475507313645,2060,2073,2057,2061,2047,2058,1195
1822,1713854475517314107,2050,2038,2055,2052,2076,2054,1196
1823,1713854475527314188,2051,2049,2038,2054,2047,2056,1196
1824,1713854475537313407,2053,2053,2052,2069,2087,2053,1196
1825,1713854475547313639,2059,2044,2048,2074,2040,2056,1193
1826,1713854475557318519,2057,2049,2038,2080,2073,2049,1194
1827,1713854475567315674,2048,2047,2050,2050,2042,2056,1194
1828,1713854475577315274,2060,2063,2047,2054,2058,2050,1196
1829,1713854475587313341,2048,2057,2047,2057,2040,2050,1198
1830,1713854475597315426,2056,2059,2096,2049,2065,2051,1197
1831,1713854475607313043,2052,2056,2034,2040,2025,2049,1196
1832,1713854475617311009,2049,2056,2047,2000,2066,2050,1195
1833,1713854475627311932,2058,2057,2032,2086,2037,2053,1194
1834,1713854475637309038,2056,2056,2056,2069,2068,2047,1193
1835,1713854475647315070,2048,2029,2030,2057,2040,2053,1196
1836,1713854475657312375,2064,2064,2064,2053,2048,2047,1191
1837,1713854475667311003,2051,2050,2102,2056,2040,2056,1197
1838,1713854475677310864,2069,2113,2079,2047,2061,2053,1193
1839,1713854475687321686,2056,2059,2057,2051,2037,2056,1194
1840,1713854475697308281,2054,2057,2063,2066,2061,2047,1193
1841,1713854475707312800,2053,2042,2033,2068,2035,2056,1196
1842,1713854475717312611,2055,2064,2044,2059,2068,2049,1195
1843,1713854475727313653,2055,2077,2058,2050,2032,2049,1196
1844,1713854475737313104,2051,2051,2051,2021,2068,2053,1196
1845,1713854475747312103,2062,2057,2052,2059,2042,2054,1196
1846,1713854475757314448,2052,2065,2051,2056,2070,2047,1193
1847,1713854475767311954,2046,2021,2027,2061,2039,2052,1197
1848,1713854475777314028,2052,2049,2038,2025,2080,2051,1195
1849,1713854475787308259,2049,2051,2024,2086,2035,2051,1197
1850,1713854475797311145,2057,2062,2052,2068,2067,2050,1195
1851,1713854475807313570,2055,2047,2049,2064,2032,2056,1193
1852,1713854475817313721,2055,2061,2072,2052,2076,2049,1195
1853,1713854475827354118,2056,2046,2028,2050,2035,2052,1195
1854,1713854475837358177,2057,2058,2086,2014,2064,2052,1193
1855,1713854475847311349,2052,2046,2040,2072,2041,2056,1197
1856,1713854475857336928,2060,2058,2076,2047,2061,2050,1194
1857,1713854475867337520,2052,2067,2079,2055,2044,2056,1196
1858,1713854475877337532,2060,2056,2064,2046,2058,2048,1196
1859,1713854475887338494,2057,2053,2059,2085,2048,2056,1192
1860,1713854475897337643,2049,2036,2037,2067,2069,2052,1195
1861,1713854475907339217,2065,2058,2056,2054,2054,2057,1195
1862,1713854475917338907,2059,2052,2060,2059,2061,2049,1197
1863,1713854475927339159,2052,2057,2065,2057,2026,2052,1193
1864,1713854475937338719,2051,2049,2045,2054,2066,2049,1194
1865,1713854475947339030,2052,2046,2036,2061,2044,2056,1195
1866,1713854475957339992,2057,2057,2061,2050,2058,2051,1194
1867,1713854475967340444,2045,2036,2035,2059,2039,2052,1196
1868,1713854475977339845,2056,2048,2024,2034,2059,2047,1193
1869,1713854475987341939,2058,2088,2131,2056,2047,2058,1196
1870,1713854475997340778,2047,2040,2045,2052,2054,2049,1196
1871,1713854476007330377,2053,2051,2034,2059,2028,2055,1196
1872,1713854476017329156,2064,2072,2088,2053,2074,2051,1195
1873,1713854476027331421,2048,2026,2042,2082,2039,2056,1197
1874,1713854476037327093,2058,2056,2048,2058,2061,2049,1196
1875,1713854476047336141,2054,2053,2047,2053,2035,2051,1197
1876,1713854476057329168,2053,2063,2065,1983,2069,2048,1196
1877,1713854476067326754,2054,2064,2099,2068,2044,2056,1196
1878,1713854476077326053,2056,2065,2068,2050,2064,2051,1195
1879,1713854476087327706,2054,2049,2068,2050,2038,2056,1197
1880,1713854476097324491,2058,2060,2058,2052,2059,2046,1194
1881,1713854476107324792,2050,2040,2047,2056,2057,2058,1196
1882,1713854476117322578,2054,2042,2042,2047,2059,2050,1194
1883,1713854476127323671,2051,2050,2056,2061,2042,2052,1195
1884,1713854476137320736,2050,2034,2024,2062,2065,2050,1195
1885,1713854476147322370,2060,2064,2065,2037,2043,2051,1197
1886,1713854476157321869,2057,2051,2065,2053,2075,2053,1197
1887,1713854476167322331,2061,2036,2083,2057,2044,2057,1197
1888,1713854476177319496,2052,2032,2052,1996,2064,2051,1196
1889,1713854476187321199,2055,2052,2044,2074,2052,2056,1198
1890,1713854476197317933,2045,2033,2029,2052,2065,2051,1197
1891,1713854476207316852,2055,2054,2035,2064,2036,2056,1194
1892,1713854476217316892,2052,2042,2047,2052,2062,2052,1196
1893,1713854476227317534,2062,2052,2071,2054,2030,2052,1196
1894,1713854476237316132,2056,2070,2062,2049,2055,2050,1198
1895,1713854476247317676,2062,2080,2085,2078,2043,2057,1198
1896,1713854476257314951,2066,2070,2053,2058,2069,2051,1196
1897,1713854476267315994,2051,2045,2047,2068,2041,2053,1197
1898,1713854476277315253,2054,2052,2045,2043,2068,2049,1194
1899,1713854476287316535,2060,2085,2053,2068,2061,2057,1195
1900,1713854476297351121,2055,2067,2068,2047,2064,2047,1192
1901,1713854476307320964,2053,2053,2055,2058,2042,2054,1197
1902,1713854476317315875,2056,2056,2049,2065,2065,2051,1195
1903,1713854476327352726,2057,2073,2078,2069,2038,2056,1196
1904,1713854476337306449,2056,2055,2024,2078,2080,2054,1194
1905,1713854476347310206,2048,2032,2033,2063,2053,2057,1197
1906,1713854476357309696,2056,2065,2059,2046,2065,2052,1198
1907,1713854476367312542,2056,2060,2064,2059,2041,2057,1197
1908,1713854476377306992,2053,2060,2050,2048,2068,2049,1199
1909,1713854476387374640,2062,2076,2077,2058,2045,2058,1197
1910,1713854476397303335,2058,2061,2050,2065,2068,2052,1196
1911,1713854476407306672,2051,2063,2045,2083,2041,2056,1197
1912,1713854476417304008,2064,2078,2128,2064,2073,2056,1197
1913,1713854476427324066,2049,2032,2048,2056,2041,2053,1196
1914,1713854476437306604,2055,2049,2056,2047,2064,2050,1197
1915,1713854476447302697,2058,2052,2040,2072,2040,2054,1195
1916,1713854476457311304,2052,2060,2037,2008,2050,2049,1196
1917,1713854476467304091,2058,2054,2047,2065,2037,2051,1196
1918,1713854476477271851,2058,2048,2029,2061,2060,2050,1193
1919,1713854476487354967,2050,2047,2047,2044,2038,2053,1194
1920,1713854476497321835,2056,2063,2081,2053,2057,2051,1195
1921,1713854476507307268,2060,2063,2051,2056,2040,2054,1196
1922,1713854476517304834,2055,2048,2042,2049,2069,2049,1196
1923,1713854476527342216,2064,2056,2056,2037,2041,2053,1193
1924,1713854476537300758,2058,2068,2114,2073,2083,2055,1195
1925,1713854476547304155,2053,2034,2031,2057,2046,2052,1197
1926,1713854476557310968,2051,2047,2042,2047,2063,2049,1198
1927,1713854476567301802,2057,2056,2086,2064,2032,2056,1193
1928,1713854476577303976,2056,2042,2060,2050,2051,2047,1194
1929,1713854476587350624,2056,2069,2092,2061,2035,2053,1197
1930,1713854476597299638,2049,2047,2049,2051,2072,2049,1195
1931,1713854476607379961,2062,2058,2097,2054,2045,2057,1196
1932,1713854476617303066,2057,2057,2053,2070,2089,2054,1197
1933,1713854476627298618,2057,2050,2056,2067,2044,2056,1197
1934,1713854476637304610,2057,2061,2080,2047,2058,2052,1195
1935,1713854476647303058,2052,2053,2046,2036,2045,2056,1195
1936,1713854476657302046,2056,2082,2085,2050,2069,2053,1197
1937,1713854476667303069,2045,2037,2049,2054,2040,2055,1196
1938,1713854476677302418,2053,2049,2052,2018,2056,2052,1193
1939,1713854476687305564,2057,2060,2077,2052,2038,2052,1195
1940,1713854476697299323,2054,2061,2052,2049,2061,2052,1197
1941,1713854476707305896,2054,2045,2037,2062,2020,2044,1193
1942,1713854476717302941,2050,2042,2033,2052,2064,2052,1195
1943,1713854476727304825,2052,2058,2055,2053,2030,2053,1196
1944,1713854476737320385,2050,2046,2044,2037,2047,2049,1196
1945,1713854476747320355,2059,2065,2060,2050,2038,2053,1196
1946,1713854476757302983,2051,2044,2029,2053,2062,2049,1195
1947,1713854476767306530,2061,2059,2064,2048,2062,2059,1196
1948,1713854476777306892,2056,2070,2062,2048,2063,2046,1194
1949,1713854476787339393,2063,2068,2058,2072,2050,2053,1197
1950,1713854476797301562,2058,2062,2051,2054,2064,2051,1194
1951,1713854476807310289,2052,2054,2056,2058,2040,2056,1196
1952,1713854476817322332,2051,2062,2059,2045,2052,2050,1196
1953,1713854476827320740,2057,2064,2052,2065,2030,2052,1197
1954,1713854476837303287,2054,2051,2036,2046,2059,2048,1193
1955,1713854476847306043,2048,2034,2020,2062,2041,2052,1193
1956,1713854476857303038,2062,2060,2058,2052,2061,2051,1195
1957,1713854476867303890,2050,2032,2008,2053,2045,2056,1197
1958,1713854476877304011,2055,2044,2047,2054,2066,2051,1195
1959,1713854476887309872,2061,2052,2036,2065,2052,2053,1196
1960,1713854476897319861,2050,2053,2055,2041,2045,2047,1192
1961,1713854476907309352,2057,2050,2060,2063,2041,2055,1196
1962,1713854476917301688,2061,2088,2076,2043,2058,2052,1197
1963,1713854476927306007,2044,2037,2060,2050,2033,2053,1195
1964,1713854476937305587,2056,2062,2051,2046,2061,2052,1195
1965,1713854476947313282,2052,2056,2053,2061,2042,2056,1197
1966,1713854476957305648,2053,2057,2036,2060,2072,2056,1197
1967,1713854476967304166,2056,2047,2062,2054,2036,2051,1196
1968,1713854476977301842,2052,2044,2049,2048,2057,2049,1196
1969,1713854476987305007,2056,2066,2040,2072,2046,2058,1197
1970,1713854476997309296,2060,2081,2072,2067,2075,2056,1197
1971,1713854477007307343,2052,2046,2036,2055,2054,2056,1196
1972,1713854477017301052,2058,2062,2080,2056,2069,2052,1196
1973,1713854477027306712,2054,2049,2044,2065,2032,2054,1197
1974,1713854477037303827,2052,2042,2038,2049,2057,2049,1197
1975,1713854477047305150,2056,2046,2059,2024,2041,2057,1196
1976,1713854477057302445,2061,2047,2042,2048,2058,2052,1197
1977,1713854477067306072,2049,2052,2046,2060,2037,2056,1194
1978,1713854477077303657,2061,2053,2042,2053,2064,2052,1198
1979,1713854477087303036,2056,2053,2048,2070,2056,2056,1197
1980,1713854477097300212,2050,2047,2042,2045,2062,2050,1198
1981,1713854477107309028,2058,2085,2080,2052,2039,2054,1196
1982,1713854477117300783,2052,2051,2052,2074,2064,2049,1197
1983,1713854477127301374,2050,2045,2052,2081,2059,2051,1197
1984,1713854477137304380,2057,2071,2088,2064,2052,2049,1197
1985,1713854477147305392,2052,2066,2077,2058,2049,2053,1195
1986,1713854477157302887,2057,2066,2091,2051,2064,2050,1197
1987,1713854477167303128,2059,2066,2060,2060,2026,2053,1196
1988,1713854477177303358,2047,2042,2040,2053,2056,2050,1196
1989,1713854477187311364,2060,2077,2072,2052,2048,2059,1197
1990,1713854477197303729,2051,2046,2037,2028,2061,2047,1194
1991,1713854477207306665,2052,2046,2040,2065,2045,2054,1195
1992,1713854477217301646,2053,2052,2080,2047,2061,2052,1195
1993,1713854477227302437,2054,2056,2051,2065,2042,2054,1196
1994,1713854477237304962,2050,2041,2041,2046,2056,2048,1196
1995,1713854477247303590,2054,2047,2042,2056,2038,2055,1195
1996,1713854477257300354,2060,2100,2068,2052,2066,2051,1197
1997,1713854477267301637,2063,2043,2031,2057,2046,2058,1196
1998,1713854477277301075,2049,2040,2026,2061,2055,2050,1195
1999,1713854477287302609,2050,2040,2047,2072,2039,2055,1194
2000,1713854477297306025,2060,2064,2063,2043,2063,2050,1197
2001,1713854477307302909,2056,2046,2050,2056,2031,2056,1196
2002,1713854477317302409,2056,2057,2062,2048,2046,2047,1193
2003,1713854477327300685,2053,2052,2058,2072,2037,2050,1194
2004,1713854477337303561,2056,2080,2051,2056,2065,2050,1196
2005,1713854477347310504,2044,2037,2045,2031,2041,2053,1195
2006,1713854477357303421,2056,2056,2058,2056,2065,2052,1194
2007,1713854477367300285,2054,2040,2062,2060,2040,2056,1195
2008,1713854477377301838,2054,2068,2054,2059,2076,2052,1195
2009,1713854477387304083,2052,2036,2024,2045,2041,2053,1196
2010,1713854477397299083,2052,2044,2041,2018,2064,2052,1194
2011,1713854477407299585,2056,2044,2047,2060,2043,2056,1196
2012,1713854477417299434,2053,2052,2049,2043,2058,2048,1196
2013,1713854477427318861,2057,2078,2079,2063,2036,2053,1196
2014,1713854477437304044,2051,2046,2058,2067,2074,2053,1197
2015,1713854477447306869,2052,2048,2041,2074,2039,2060,1198
2016,1713854477457301920,2054,2048,2050,2082,2068,2052,1197
2017,1713854477467305236,2060,2069,2100,2070,2034,2058,1196
2018,1713854477477302441,2056,2042,2033,2060,2077,2052,1194
2019,1713854477487308112,2056,2041,2029,2059,2050,2054,1195
2020,1713854477497303122,2057,2059,2062,2032,2064,2052,1195
2021,1713854477507306540,2049,2042,2064,2069,2050,2054,1196
2022,1713854477517307210,2054,2064,2076,2072,2065,2056,1197
2023,1713854477527304706,2052,2057,2074,2063,2043,2053,1196
2024,1713854477537306731,2056,2088,2066,2037,2061,2051,1196
2025,1713854477547324413,2062,2114,2074,2059,2047,2054,1197
2026,1713854477557302813,2049,2042,2029,2054,2060,2047,1194
2027,1713854477567305969,2052,2041,2035,2041,2037,2052,1195
2028,1713854477577303565,2060,2060,2067,2054,2067,2047,1193
2029,1713854477587303956,2062,2060,2053,2059,2041,2057,1196
2030,1713854477597316710,2054,2053,2069,2072,2073,2053,1195
2031,1713854477607305158,2056,2057,2073,2052,2040,2056,1196
2032,1713854477617305429,2058,2090,2075,2052,2055,2052,1196
2033,1713854477627305319,2051,2048,2048,2059,2034,2055,1197
2034,1713854477637303396,2059,2049,2050,2064,2058,2051,1196
2035,1713854477647306331,2052,2045,2056,2056,2040,2052,1196
2036,1713854477657301372,2061,2077,2060,2063,2078,2051,1194
2037,1713854477667305479,2047,2040,2020,2060,2043,2054,1197
2038,1713854477677311211,2056,2053,2074,2069,2063,2051,1193
2039,1713854477687324256,2057,2038,2053,2061,2045,2056,1196
2040,1713854477697301182,2057,2060,2056,2040,2078,2052,1196
2041,1713854477707303707,2056,2065,2084,2063,2037,2056,1197
2042,1713854477717308285,2065,2079,2052,2068,2053,2050,1195
2043,1713854477727287767,2052,2047,2042,2062,2040,2052,1196
2044,1713854477737322963,2050,2034,2044,2058,2061,2050,1194
2045,1713854477747297666,2053,2038,2044,2058,2042,2054,1198
2046,1713854477757303698,2062,2064,2049,2065,2053,2049,1193
2047,1713854477767305511,2050,2057,2060,2032,2023,2052,1194
2048,1713854477777312184,2050,2042,2052,2059,2060,2047,1193
2049,1713854477787331290,2042,2037,2061,2060,2042,2052,1198
2050,1713854477797298899,2059,2068,2065,2048,2064,2051,1195
2051,1713854477807305282,2042,2010,2035,2049,2049,2060,1196
2052,1713854477817303638,2064,2059,2060,2028,2058,2053,1196
2053,1713854477827309520,2058,2070,2089,2068,2044,2056,1195
2054,1713854477837313457,2056,2044,2050,2056,2065,2050,1197
2055,1713854477847297527,2049,2041,2029,2064,2043,2052,1196
2056,1713854477857310923,2047,2030,2020,2038,2064,2053,1194
2057,1713854477867305442,2061,2052,2048,2042,2032,2056,1195
2058,1713854477877302678,2054,2056,2059,1998,2057,2052,1195
2059,1713854477887318277,2056,2044,2047,2075,2043,2059,1195
2060,1713854477897298871,2056,2053,2043,2064,2064,2049,1194
2061,1713854477907296757,2050,2034,2026,2054,2040,2055,1196
2062,1713854477917311885,2062,2079,2068,2064,2069,2050,1196
2063,1713854477927307418,2059,2061,2068,2055,2033,2057,1195
2064,1713854477937313619,2059,2064,2072,2073,2059,2049,1194
2065,1713854477947299112,2052,2046,2047,2080,2052,2054,1194
2066,1713854477957303229,2054,2057,2058,2039,2068,2052,1197
2067,1713854477967306386,2057,2058,2068,2058,2044,2055,1195
2068,1713854477977302619,2061,2053,2047,2046,2062,2051,1196
2069,1713854477987325642,2052,2050,2046,2063,2041,2060,1195
2070,1713854477997303661,2052,2049,2083,2072,2058,2047,1193
2071,1713854478007307509,2058,2067,2085,2066,2032,2051,1197
2072,1713854478017302660,2050,2035,2044,2053,2058,2050,1194
2073,1713854478027305094,2053,2039,2029,2044,2044,2056,1195
2074,1713854478037312237,2059,2056,2046,2045,2054,2049,1196
2075,1713854478047299703,2053,2066,2040,2015,2037,2052,1194
2076,1713854478057301176,2060,2072,2045,2051,2050,2046,1193
2077,1713854478067307036,2049,2040,2046,2052,2032,2053,1196
2078,1713854478077304251,2056,2086,2077,2046,2058,2050,1194
2079,1713854478087311946,2056,2072,2067,2036,2038,2050,1195
2080,1713854478097303569,2051,2068,2073,2054,2066,2049,1196
2081,1713854478107300553,2047,2043,2049,2062,2052,2058,1196
2082,1713854478117303740,2060,2065,2057,2064,2045,2053,1194
2083,1713854478127306154,2054,2050,2046,2057,2040,2057,1194
2084,1713854478137306163,2050,2048,2045,2048,2064,2052,1194
2085,1713854478147307255,2056,2039,2053,2056,2041,2055,1196
2086,1713854478157302537,2061,2061,2076,2048,2065,2050,1195
2087,1713854478167307626,2050,2047,2057,2052,2036,2053,1195
2088,1713854478177302425,2052,2029,2040,2000,2065,2048,1197
2089,1713854478187306012,2060,2050,2052,2026,2024,2057,1197
2090,1713854478197302666,2061,2058,2065,2048,2058,2053,1197
2091,1713854478207302736,2056,2047,2048,2059,2043,2057,1197
2092,1713854478217306041,2059,2072,2088,2057,2061,2050,1195
2093,1713854478227309358,2056,2066,2044,2060,2044,2053,1197
2094,1713854478237304639,2054,2052,2035,2016,2056,2050,1198
2095,1713854478247309938,2052,2048,2060,2068,2032,2053,1197
2096,1713854478257305069,2053,2056,2062,2052,2064,2053,1197
2097,1713854478267310479,2051,2043,2046,2059,2042,2060,1196
2098,1713854478277304988,2052,2030,2038,2047,2060,2048,1192
2099,1713854478287308234,2045,2018,2029,2055,2049,2057,1196
2100,1713854478297305229,2053,2040,2043,2065,2060,2049,1193
2101,1713854478307306321,2057,2053,2072,2074,2059,2057,1194
2102,1713854478317307242,2058,2079,2096,2056,2097,2058,1195
2103,1713854478327312943,2053,2047,2052,2072,2038,2052,1197
2104,1713854478337309997,2057,2070,2052,2047,2052,2045,1193
2105,1713854478347307312,2056,2066,2086,2059,2044,2058,1196
2106,1713854478357307421,2048,2064,2041,2051,2062,2047,1194
2107,1713854478367307492,2050,2061,2056,2059,2042,2057,1197
2108,1713854478377307982,2052,2048,2034,2061,2061,2050,1196
2109,1713854478387309244,2058,2068,2068,2045,2042,2060,1198
2110,1713854478397326687,2059,2066,2081,2061,2077,2054,1194
2111,1713854478407309395,2054,2047,2049,2061,2061,2056,1195
2112,1713854478417309234,2056,2056,2052,2050,2046,2045,1194
2113,1713854478427313311,2053,2059,2059,2066,2043,2052,1198
2114,1713854478437310035,2055,2054,2044,2055,2068,2052,1197
2115,1713854478447311077,2063,2064,2057,2047,2043,2054,1195
2116,1713854478457310585,2060,2052,2054,2057,2063,2049,1195
2117,1713854478467323079,2052,2054,2089,2073,2045,2057,1197
2118,1713854478477260761,2056,2053,2064,2062,2072,2054,1193
2119,1713854478487312058,2058,2061,2060,2066,2047,2056,1193
2120,1713854478497311897,2056,2049,2045,2045,2078,2053,1196
2121,1713854478507312268,2061,2064,2090,2061,2043,2056,1195
2122,1713854478517312158,2061,2057,2048,2065,2069,2051,1196
2123,1713854478527316886,2054,2049,2035,2072,2035,2054,1196
2124,1713854478537313179,2056,2084,2061,2054,2065,2049,1196
2125,1713854478547315644,2056,2061,2063,2009,2056,2054,1196
2126,1713854478557314551,2059,2047,2037,2053,2060,2048,1196
2127,1713854478567315813,2058,2039,2033,2041,2039,2054,1195
2128,1713854478577313539,2050,2044,2024,2041,2056,2050,1197
2129,1713854478587314040,2048,2046,2048,2058,2039,2055,1200
2130,1713854478597297648,2068,2105,2070,2068,2059,2047,1195
2131,1713854478607315452,2061,2064,2070,2061,2048,2058,1196
2132,1713854478617297268,2060,2058,2050,2048,2088,2052,1195
2133,1713854478627324378,2052,2057,2073,2050,2040,2056,1196
2134,1713854478637314770,2054,2056,2065,2050,2061,2048,1194
2135,1713854478647316112,2054,2056,2050,2054,2032,2054,1200
2136,1713854478657298489,2060,2075,2052,2063,2058,2053,1197
2137,1713854478667325600,2052,2030,2051,2078,2044,2051,1197
2138,1713854478677299460,2063,2057,2062,2050,2074,2052,1194
2139,1713854478687300202,2050,2060,2056,2043,2040,2053,1196
2140,1713854478697300582,2059,2056,2056,2034,2060,2050,1193
2141,1713854478707304539,2057,2047,2035,2042,2037,2053,1197
2142,1713854478717300051,2049,2044,2034,2056,2059,2054,1195
2143,1713854478727301113,2060,2056,2022,2052,2028,2054,1193
2144,1713854478737301383,2063,2067,2068,2054,2045,2052,1195
2145,1713854478747302846,2056,2046,2062,2060,2042,2056,1198
2146,1713854478757299890,2056,2045,2030,2064,2064,2049,1196
2147,1713854478767303015,2062,2049,2052,2058,2041,2056,1197
2148,1713854478777302694,2052,2033,2046,2035,2057,2048,1198
2149,1713854478787303656,2058,2054,2044,2059,2030,2055,1198
2150,1713854478797307493,2054,2074,2058,2046,2069,2056,1196
2151,1713854478807305008,2055,2060,2062,2062,2044,2055,1198
2152,1713854478817304096,2054,2060,2056,2052,2063,2049,1196
2153,1713854478827304978,2049,2051,2053,2002,2041,2056,1196
2154,1713854478837305248,2056,2066,2056,2039,2048,2047,1195
2155,1713854478847305899,2056,2048,2050,2071,2025,2054,1197
2156,1713854478857300850,2072,2083,2087,2052,2050,2052,1194
2157,1713854478867307302,2050,2034,2033,2058,2039,2056,1195
2158,1713854478877304135,2056,2046,2044,2051,2054,2047,1191
2159,1713854478887303334,2056,2057,2099,2064,2056,2060,1194
2160,1713854478897303775,2062,2063,2068,2052,2064,2049,1195
2161,1713854478907306439,2061,2050,2056,2033,2040,2054,1195
2162,1713854478917300317,2057,2053,2077,2038,2061,2054,1195
2163,1713854478927329061,2057,2049,2056,2066,2045,2054,1194
2164,1713854478937314123,2056,2073,2068,2060,2073,2054,1194
2165,1713854478947307781,2052,2050,2048,2000,2033,2050,1195
2166,1713854478957309283,2059,2059,2064,2043,2073,2050,1195
2167,1713854478967305296,2050,2061,2085,2056,2056,2056,1196
2168,1713854478977301068,2056,2049,2040,2042,2065,2054,1194
2169,1713854478987301448,2056,2056,2066,2076,2068,2056,1197
2170,1713854478997330994,2056,2062,2046,2048,2059,2045,1192
2171,1713854479007302961,2060,2068,2048,2038,2051,2060,1196
2172,1713854479017305675,2054,2047,2045,2048,2056,2051,1193
2173,1713854479027313580,2056,2051,2052,2048,2037,2056,1193
2174,1713854479037306135,2056,2065,2136,2073,2092,2056,1195
2175,1713854479047312476,2053,2040,2056,2042,2045,2054,1197
2176,1713854479057302237,2052,2041,2054,2042,2065,2051,1196
2177,1713854479067307346,2053,2048,2067,2084,2056,2060,1196
2178,1713854479077302586,2056,2058,2078,2078,2064,2050,1196
2179,1713854479087305261,2050,2045,2054,2065,2033,2050,1197
2180,1713854479097302696,2053,2052,2043,2047,2072,2053,1195
2181,1713854479107303937,2047,2025,2026,2037,2036,2054,1196
2182,1713854479117306171,2053,2049,2041,2026,2055,2048,1196
2183,1713854479127313554,2053,2052,2049,2064,2029,2057,1196
2184,1713854479137306680,2062,2081,2062,2092,2064,2046,1194
2185,1713854479147308293,2052,2047,2049,2073,2057,2053,1196
2186,1713854479157301449,2056,2053,2062,2048,2057,2052,1196
2187,1713854479167308022,2056,2050,2046,2062,2088,2064,1195
2188,1713854479177300476,2060,2061,2049,2060,2051,2047,1195
2189,1713854479187294756,2048,2044,2037,2047,2045,2053,1195
2190,1713854479197302870,2056,2075,2040,2016,2078,2054,1194
2191,1713854479207307589,2051,2042,2032,2049,2046,2056,1197
2192,1713854479217306265,2064,2061,2066,2025,2037,2050,1196
2193,1713854479227315783,2051,2045,2044,2049,2033,2055,1197
2194,1713854479237312236,2058,2068,2091,2066,2072,2049,1197
2195,1713854479247309740,2057,2054,2041,2059,2049,2056,1196
2196,1713854479257303939,2051,2044,2059,2064,2064,2053,1196
2197,1713854479267306283,2057,2080,2062,2065,2043,2053,1194
2198,1713854479277305651,2055,2065,2038,2076,2059,2053,1194
2199,1713854479287308105,2054,2041,2059,2072,2067,2059,1194
2200,1713854479297282246,2053,2046,2034,2048,2053,2049,1195
2201,1713854479307303034,2051,2064,2055,2056,2033,2058,1196
2202,1713854479317309997,2056,2061,2089,2053,2062,2054,1195
2203,1713854479327309826,2051,2049,2028,2069,2062,2053,1197
2204,1713854479337312801,2056,2046,2042,2067,2061,2053,1196
2205,1713854479347304996,2056,2047,2079,2070,2026,2053,1197
2206,1713854479357303633,2057,2064,2092,2029,2062,2052,1197
2207,1713854479367306518,2050,2035,2034,2057,2041,2052,1197
2208,1713854479377300436,2056,2055,2040,2054,2056,2049,1197
2209,1713854479387310514,2060,2056,2056,2059,2046,2056,1197
2210,1713854479397300435,2051,2024,2028,2049,2077,2047,1194
2211,1713854479407305694,2052,2016,2032,2060,2032,2052,1195
2212,1713854479417311595,2059,2058,2053,2042,2052,2048,1194
