seq,time,data[0],data[1],data[2],data[3],data[4],data[5],data[6]
201,1713841906181459927,2056,2061,2043,2084,2092,2059,1196
202,1713841906191464310,2060,2056,2054,2058,2037,2051,1198
203,1713841906201460968,2049,2050,2056,2064,2064,2041,1194
204,1713841906211461784,2058,2047,2047,2050,2082,2055,1195
205,1713841906221462190,2056,2056,2053,2062,2072,2055,1198
206,1713841906231466884,2049,2048,2050,2047,2032,2046,1195
207,1713841906241463612,2049,2052,2046,1984,2061,2050,1197
208,1713841906251464078,2054,2052,2061,2062,2056,2056,1196
209,1713841906261464534,2054,2055,2043,2034,2042,2053,1196
210,1713841906271465650,2054,2058,2089,2059,2045,2051,1197
211,1713841906281465424,2058,2062,2041,2027,2041,2051,1198
212,1713841906291466631,2064,2066,2077,2037,2037,2056,1198
213,1713841906301467217,2056,2056,2062,2044,2054,2053,1198
214,1713841906311467172,2056,2056,2060,2063,2065,2056,1197
215,1713841906321466936,2051,2050,2042,2043,2056,2053,1198
216,1713841906331468674,2060,2077,2121,2053,2042,2052,1198
217,1713841906341470141,2054,2056,2039,2057,2065,2053,1196
218,1713841906351468433,2053,2045,2042,2055,2076,2054,1198
219,1713841906361468919,2064,2071,2070,2070,2056,2056,1198
220,1713841906371477379,2056,2046,2042,2073,2064,2056,1195
221,1713841906381470130,2056,2052,2025,2040,2058,2050,1196
222,1713841906391470977,2056,2049,2057,2060,2038,2050,1197
223,1713841906401471212,2055,2053,2057,2058,2044,2050,1196
224,1713841906411456759,2057,2054,2056,2027,2025,2053,1196
225,1713841906421472904,2053,2051,2048,2074,2058,2052,1196
226,1713841906431475044,2060,2049,2049,2076,2052,2053,1197
227,1713841906441456412,2054,2055,2060,2053,2045,2056,1196
228,1713841906451479661,2056,2044,2047,2061,2044,2056,1194
229,1713841906461456302,2058,2068,2068,2049,2053,2054,1196
230,1713841906471475984,2049,2024,2013,2042,2089,2056,1197
231,1713841906481475548,2058,2074,2115,2056,2086,2056,1196
232,1713841906491477847,2054,2061,2037,2057,2000,2044,1195
233,1713841906501461460,2056,2054,2056,2049,2057,2051,1196
234,1713841906511460463,2060,2052,2051,2073,2048,2056,1197
235,1713841906521459045,2056,2049,2046,2041,2045,2050,1197
236,1713841906531501040,2052,2052,2054,2062,2043,2056,1197
237,1713841906541469915,2052,2057,2047,2029,2056,2050,1198
238,1713841906551489387,2056,2055,2063,2060,2046,2055,1197
239,1713841906561465897,2055,2057,2053,2058,2023,2046,1194
240,1713841906571463898,2056,2057,2059,2057,2054,2057,1195
241,1713841906581464163,2054,2056,2054,2049,2072,2052,1196
242,1713841906591486350,2056,2056,2060,2045,2044,2051,1197
243,1713841906601482117,2063,2063,2085,2036,2049,2056,1197
244,1713841906611456923,2057,2047,2050,2072,2056,2057,1196
245,1713841906621463611,2054,2059,2056,2052,2054,2050,1196
246,1713841906631472222,2056,2054,2062,2050,2009,2056,1196
247,1713841906641488458,2049,2054,2060,2050,2062,2058,1193
248,1713841906651463475,2057,2053,2061,2062,2052,2052,1196
249,1713841906661461054,2052,2052,2041,2052,2066,2054,1196
250,1713841906671460599,2054,2040,2038,2097,2072,2059,1197
251,1713841906681468749,2052,2053,2068,2019,2048,2052,1198
252,1713841906691486006,2056,2047,2041,2057,2049,2056,1195
253,1713841906701460422,2061,2062,2048,2057,2037,2056,1196
254,1713841906711460658,2052,2047,2037,2057,2052,2050,1196
255,1713841906721457827,2052,2045,2041,2036,2037,2043,1192
256,1713841906731466468,2070,2097,2185,2069,2041,2052,1196
257,1713841906741465501,2049,2037,2013,2045,2059,2049,1196
258,1713841906751465766,2044,2011,1972,2047,2044,2048,1196
259,1713841906761462514,2101,2208,2440,2106,2073,2064,1198
260,1713841906771461658,2050,2038,2067,2042,2037,2053,1195
261,1713841906781460330,2054,2035,1962,2056,2056,2050,1195
262,1713841906791462248,2036,1994,1970,2037,2036,2047,1192
263,1713841906801459658,2052,2047,2038,2042,2064,2061,1196
264,1713841906811462638,2057,2056,2056,2084,2072,2056,1196
265,1713841906821460258,2056,2054,2040,2048,2060,2051,1196
266,1713841906831471886,2059,2061,2088,2048,2046,2058,1197
267,1713841906841463424,2052,2047,2036,2042,2050,2052,1196
268,1713841906851465102,2059,2059,2097,2067,2110,2056,1195
269,1713841906861463153,2056,2054,2047,2043,2072,2062,1197
270,1713841906871462607,2052,2036,1988,2040,2029,2045,1194
271,1713841906881469184,2052,2046,1999,2037,2036,2056,1197
272,1713841906891480410,2056,2049,2032,2044,2041,2056,1196
273,1713841906901463251,2054,2043,2040,2049,2056,2058,1197
274,1713841906911461093,2056,2054,2048,2062,2046,2052,1196
275,1713841906921460957,2058,2056,2062,2051,2060,2056,1194
276,1713841906931472604,2057,2050,2054,2065,2072,2058,1198
277,1713841906941457470,2056,2051,2045,2052,2052,2052,1194
278,1713841906951457695,2058,2060,2076,2068,2044,2053,1194
279,1713841906961459764,2049,2046,2045,2058,2057,2056,1196
280,1713841906971459638,2056,2052,2042,2042,2056,2054,1195
281,1713841906981462908,2053,2053,2052,2072,2055,2056,1196
282,1713841906991462443,2056,2050,2037,2064,2072,2057,1196
283,1713841907001468228,2047,2047,2030,2046,2051,2052,1196
284,1713841907011468464,2057,2050,2042,2076,2096,2062,1196
285,1713841907021487865,2052,2047,2045,2056,2054,2053,1197
286,1713841907031470938,2058,2057,2051,2068,2047,2050,1195
287,1713841907041474119,2058,2052,2040,2036,2043,2054,1196
288,1713841907051470055,2054,2049,2040,2052,2075,2054,1197
289,1713841907061471422,2060,2057,2042,2070,2086,2061,1198
290,1713841907071464334,2056,2044,2047,2077,2052,2053,1198
291,1713841907081471342,2052,2055,2036,2050,2059,2052,1199
292,1713841907091470335,2050,2043,2029,2043,2045,2054,1197
293,1713841907101469628,2052,2050,2052,2060,2062,2052,1200
294,1713841907111467839,2056,2046,2031,2074,2072,2057,1197
295,1713841907121464638,2058,2052,2041,2058,2059,2033,1195
296,1713841907131469312,2056,2060,2064,2049,2037,2046,1192
297,1713841907141472973,2058,2061,2068,2075,2042,2038,1194
298,1713841907151465543,2056,2047,2049,2052,2048,2060,1195
299,1713841907161469817,2052,2054,2046,2056,2060,2053,1196
300,1713841907171463289,2056,2056,2074,2058,2049,2053,1195
301,1713841907181467903,2057,2052,2043,2044,2056,2046,1192
302,1713841907191473468,2057,2060,2042,2059,2055,2062,1197
303,1713841907201464004,2064,2062,2062,2059,2061,2052,1193
304,1713841907211468057,2060,2050,2052,2056,2052,2052,1198
305,1713841907221467019,2057,2057,2056,2056,2058,2052,1197
306,1713841907231473486,2055,2049,2047,2059,2056,2056,1196
307,1713841907241472379,2056,2056,2056,2050,2060,2053,1196
308,1713841907251470019,2056,2053,2052,2060,2050,2054,1197
309,1713841907261467900,2064,2067,2060,2054,2061,2056,1196
310,1713841907271468746,2052,2047,2053,2069,2058,2054,1197
311,1713841907281471997,2052,2047,2029,2036,2059,2053,1197
312,1713841907291472492,2061,2054,2025,2062,2050,2058,1196
313,1713841907301473379,2052,2055,2052,2058,2060,2054,1197
314,1713841907311472873,2061,2066,2082,2077,2034,2052,1198
315,1713841907321471084,2060,2061,2050,2049,2050,2054,1196
316,1713841907331475226,2062,2056,2056,2048,2048,2056,1196
317,1713841907341475181,2046,2048,2046,2041,2060,2056,1195
318,1713841907351473353,2056,2050,2050,2066,2046,2052,1195
319,1713841907361474880,2052,2046,2045,2050,2054,2046,1193
320,1713841907371475225,2061,2065,2086,2058,2041,2057,1195
321,1713841907381474489,2056,2052,2039,2073,2068,2057,1196
322,1713841907391459946,2054,2050,2046,2005,2026,2053,1194
323,1713841907401478215,2053,2049,2052,2052,2061,2052,1196
324,1713841907411477298,2059,2056,2069,2052,2044,2052,1196
325,1713841907421461502,2053,2049,2047,2057,2058,2050,1196
326,1713841907431465565,2057,2056,2058,2048,2048,2056,1197
327,1713841907441481370,2056,2056,2060,2060,2057,2051,1197
328,1713841907451465474,2056,2050,2046,2057,2043,2052,1196
329,1713841907461479596,2047,2051,2050,2060,2047,2056,1197
330,1713841907471464341,2056,2056,2061,2064,2035,2055,1199
331,1713841907481462964,2055,2052,2050,2034,2060,2050,1197
332,1713841907491465122,2059,2065,2085,2108,2053,2056,1198
333,1713841907501461520,2053,2050,2052,2097,2070,2054,1197
334,1713841907511464751,2053,2052,2047,2054,2045,2053,1198
335,1713841907521459445,2053,2052,2056,2042,2051,2052,1196
336,1713841907531466734,2060,2056,2057,2065,2043,2052,1197
337,1713841907541471979,2056,2052,2044,2060,2050,2057,1198
338,1713841907551464870,2056,2050,2023,2030,2034,2047,1194
339,1713841907561464834,2055,2056,2050,2049,2061,2053,1196
340,1713841907571466332,2056,2052,2050,2045,2045,2052,1194
341,1713841907581462980,2057,2060,2052,2084,2046,2047,1192
342,1713841907591463787,2052,2036,2017,2047,2040,2045,1193
343,1713841907601468911,2054,2053,2050,2074,2064,2053,1196
344,1713841907611473835,2057,2062,2073,2083,2040,2056,1197
345,1713841907621464943,2052,2059,2065,2040,2054,2050,1197
346,1713841907631482100,2057,2051,2051,2054,2034,2049,1197
347,1713841907641470633,2054,2056,2071,2056,2051,2052,1196
348,1713841907651464786,2052,2043,2029,2076,2069,2051,1196
349,1713841907661471153,2053,2050,2041,2044,2044,2056,1196
350,1713841907671475637,2056,2052,2051,2056,2047,2053,1198
351,1713841907681467757,2053,2054,2045,2060,2084,2054,1200
352,1713841907691480285,2053,2048,2039,2058,2046,2051,1198
353,1713841907701461114,2053,2060,2054,2051,2052,2053,1199
354,1713841907711469143,2059,2053,2045,2057,2046,2056,1197
355,1713841907721461683,2056,2054,2050,2055,2058,2052,1196
356,1713841907731466798,2060,2052,2056,2063,2057,2064,1195
357,1713841907741472834,2056,2058,2048,2075,2056,2046,1195
358,1713841907751464904,2056,2051,2045,2075,2100,2052,1198
359,1713841907761467844,2054,2053,2046,2050,2056,2052,1197
360,1713841907771465975,2060,2046,2033,2059,2046,2052,1196
361,1713841907781469707,2056,2056,2057,2048,2068,2056,1197
362,1713841907791465654,2060,2060,2068,2061,2052,2053,1196
363,1713841907801464747,2059,2067,2068,2058,2064,2057,1198
364,1713841907811468188,2058,2049,2047,2062,2040,2056,1198
365,1713841907821463344,2052,2053,2043,2068,2088,2056,1198
366,1713841907831467487,2056,2053,2053,2061,2042,2043,1195
367,1713841907841474615,2051,2053,2058,2053,2060,2048,1196
368,1713841907851465472,2057,2053,2052,2057,2043,2053,1199
369,1713841907861468582,2058,2056,2049,2054,2059,2054,1197
370,1713841907871464219,2056,2056,2056,2097,2040,2052,1197
371,1713841907881466588,2055,2065,2101,2088,2069,2051,1200
372,1713841907891481551,2057,2054,2056,2068,2047,2056,1197
373,1713841907901462229,2052,2056,2057,2052,2056,2055,1195
374,1713841907911472183,2053,2051,2051,2059,2052,2052,1197
375,1713841907921462970,2054,2055,2056,2052,2059,2052,1195
376,1713841907931470850,2060,2047,2037,2064,2045,2052,1198
377,1713841907941472267,2052,2057,2056,2041,2056,2053,1197
378,1713841907951461641,2053,2050,2052,2065,2036,2052,1197
379,1713841907961469862,2054,2050,2044,2022,2011,2047,1194
380,1713841907971464096,2056,2050,2047,2047,2034,2053,1195
381,1713841907981488507,2056,2058,2060,2046,2055,2053,1196
382,1713841907991464035,2056,2041,2033,2053,2045,2056,1197
383,1713841908001461063,2056,2077,2089,2053,2052,2056,1198
384,1713841908011465647,2054,2048,2029,2047,2040,2052,1198
385,1713841908021463367,2058,2069,2078,2053,2062,2054,1197
386,1713841908031468783,2060,2054,2067,2084,2058,2054,1195
387,1713841908041471102,2056,2059,2041,2052,2061,2056,1197
388,1713841908051461037,2057,2054,2060,2052,2049,2056,1195
389,1713841908061467895,2054,2052,2054,2053,2063,2058,1197
390,1713841908071463121,2061,2056,2053,2065,2050,2056,1198
391,1713841908081463415,2051,2053,2050,2056,2063,2060,1198
392,1713841908091472588,2056,2056,2072,2066,2060,2056,1197
393,1713841908101457444,2056,2060,2056,2072,2068,2060,1196
394,1713841908111463119,2056,2048,2049,1992,2042,2047,1193
395,1713841908121463395,2057,2053,2052,2056,2062,2052,1197
396,1713841908131499598,2054,2038,1998,2057,2048,2055,1196
397,1713841908141488461,2056,2052,2045,2053,2060,2056,1197
398,1713841908151468378,2053,2052,2050,2057,2048,2052,1196
399,1713841908161466819,2057,2058,2059,2056,2058,2055,1195
400,1713841908171456144,2055,2048,2050,2058,2042,2049,1195
401,1713841908181472260,2053,2057,2056,2056,2056,2045,1194
402,1713841908191469188,2056,2052,2053,2061,2029,2053,1197
403,1713841908201457360,2052,2052,2032,2039,2040,2053,1196
404,1713841908211459740,2056,2050,2024,2055,2040,2053,1195
405,1713841908221460125,2056,2057,2071,2052,2056,2049,1196
406,1713841908231486470,2054,2048,2044,2057,2045,2053,1194
407,1713841908241493718,2056,2056,2056,2056,2061,2050,1196
408,1713841908251461471,2053,2041,2036,2060,2000,2050,1197
409,1713841908261477377,2051,2049,2050,2046,2057,2053,1196
410,1713841908271467673,2057,2062,2101,2018,2050,2050,1196
411,1713841908281476304,2062,2080,2145,2063,2062,2053,1199
412,1713841908291464396,2050,2046,2041,2060,2046,2053,1198
413,1713841908301464531,2050,2049,2036,2059,2051,2051,1197
414,1713841908311465878,2052,2046,2036,2052,2042,2056,1197
415,1713841908321460823,2052,2056,2050,2054,2086,2053,1196
416,1713841908331470526,2056,2051,2052,2061,2047,2056,1197
417,1713841908341481331,2055,2054,2056,2051,2058,2052,1195
418,1713841908351463652,2056,2052,2072,2056,2047,2047,1194
419,1713841908361474438,2049,2048,2061,2049,2045,2050,1198
420,1713841908371465034,2057,2047,2058,2069,2045,2048,1195
421,1713841908381472874,2053,2055,2037,1998,2031,2053,1194
422,1713841908391460976,2056,2047,2032,2054,2046,2046,1195
423,1713841908401465569,2051,2059,2065,2057,2060,2056,1196
424,1713841908411468149,2060,2061,2060,2057,2048,2054,1195
425,1713841908421464366,2054,2053,2054,2063,2063,2052,1197
426,1713841908431468910,2061,2049,2055,2060,2042,2057,1196
427,1713841908441471820,2056,2052,2064,2054,2047,2050,1196
428,1713841908451466304,2058,2060,2061,2032,2041,2056,1196
429,1713841908461484765,2050,2050,2037,2052,2050,2056,1196
430,1713841908471462506,2058,2054,2060,2070,2043,2049,1195
431,1713841908481463443,2056,2059,2050,2042,2063,2054,1196
432,1713841908491467605,2056,2047,2036,2054,2047,2056,1197
433,1713841908501460757,2051,2054,2058,2052,2057,2052,1198
434,1713841908511467585,2058,2052,2069,2064,2074,2053,1197
435,1713841908521465716,2056,2052,2060,2018,2040,2052,1195
436,1713841908531473816,2052,2052,2056,2059,2048,2051,1198
437,1713841908541473680,2054,2056,2056,2050,2059,2052,1198
438,1713841908551461431,2057,2048,2056,2060,2047,2052,1196
439,1713841908561475032,2057,2060,2045,2064,2071,2056,1196
440,1713841908571469506,2052,2044,2027,2047,2044,2058,1195
441,1713841908581477867,2053,2056,2051,2038,2052,2052,1195
442,1713841908591462843,2056,2052,2058,2078,2054,2056,1197
443,1713841908601466965,2057,2061,2069,2049,2056,2045,1196
444,1713841908611484003,2054,2052,2059,2081,2040,2058,1195
445,1713841908621461635,2052,2053,2054,2035,2061,2051,1196
446,1713841908631485796,2057,2056,2054,2067,2045,2052,1195
447,1713841908641463658,2053,2054,2058,2055,2062,2056,1196
448,1713841908651463813,2053,2046,2047,2059,2050,2056,1197
449,1713841908661472334,2048,2040,2014,2044,2054,2056,1195
450,1713841908671462520,2051,2049,2056,2058,2054,2056,1198
451,1713841908681471281,2052,2065,2082,2020,2056,2050,1199
452,1713841908691492386,2060,2068,2095,2056,2038,2055,1194
453,1713841908701486349,2056,2056,2055,2058,2055,2056,1195
454,1713841908711464152,2059,2053,2051,2060,2049,2052,1197
455,1713841908721464227,2055,2050,2039,2056,2061,2052,1196
456,1713841908731466085,2050,2049,2038,2064,2048,2052,1201
457,1713841908741506757,2052,2064,2055,2054,2055,2056,1196
458,1713841908751466875,2053,2042,2015,2055,2028,2046,1194
459,1713841908761476990,2050,2047,2036,2039,2040,2052,1197
460,1713841908771466955,2056,2053,2053,2062,2060,2055,1195
461,1713841908781468573,2057,2057,2055,2055,2058,2053,1196
462,1713841908791471583,2054,2054,2052,2065,2057,2052,1196
463,1713841908801467330,2051,2049,2043,2052,2056,2047,1193
464,1713841908811468497,2072,2106,2222,2065,2084,2057,1194
465,1713841908821468912,2052,2042,2026,2035,2045,2038,1192
466,1713841908831470500,2066,2053,2048,2045,2045,2056,1196
467,1713841908841499700,2050,2052,2050,2061,2076,2055,1197
468,1713841908851491770,2057,2053,2053,2052,2048,2050,1196
469,1713841908861471486,2057,2056,2053,2052,2025,2047,1193
470,1713841908871472222,2056,2058,2061,2065,2053,2050,1197
471,1713841908881471956,2053,2052,2053,2058,2072,2057,1199
472,1713841908891475067,2060,2068,2093,2070,2057,2059,1197
473,1713841908901472657,2058,2063,2046,2080,2084,2068,1198
474,1713841908911473794,2056,2047,2052,2060,2047,2055,1197
475,1713841908921474390,2053,2057,2049,2058,2101,2059,1197
476,1713841908931474474,2057,2052,2046,2057,2047,2050,1196
477,1713841908941475100,2056,2058,2066,2054,2058,2052,1199
478,1713841908951458503,2054,2053,2056,2057,2041,2046,1194
479,1713841908961475290,2052,2048,2050,2050,2050,2042,1194
480,1713841908971459555,2059,2054,2069,2046,2042,2058,1196
481,1713841908981477744,2053,2049,2031,2041,2058,2049,1197
482,1713841908991460826,2056,2050,2056,2061,2091,2060,1198
483,1713841909001466973,2057,2063,2054,2052,2058,2047,1194
484,1713841909011461056,2061,2072,2080,2071,2057,2056,1196
485,1713841909021458906,2050,2045,2032,2045,2056,2044,1193
486,1713841909031482296,2053,2056,2074,2054,2038,2038,1196
487,1713841909041461922,2050,2056,2050,2056,2054,2044,1193
488,1713841909051464902,2060,2052,2057,2067,2064,2061,1196
489,1713841909061463685,2052,2056,2051,2056,2084,2053,1198
490,1713841909071466064,2061,2058,2062,2081,2061,2057,1196
491,1713841909081469374,2053,2049,2048,2046,2044,2048,1199
492,1713841909091462676,2057,2050,2053,2083,2052,2056,1197
493,1713841909101460748,2052,2050,2048,2061,2060,2053,1201
494,1713841909111483736,2056,2052,2050,2074,2066,2060,1198
495,1713841909121490464,2053,2056,2051,2056,2060,2050,1195
496,1713841909131464689,2061,2060,2074,2062,2046,2054,1198
497,1713841909141462780,2049,2054,2050,2047,2060,2053,1196
498,1713841909151463265,2058,2055,2054,2062,2048,2049,1196
499,1713841909161462238,2049,2052,2044,2066,2094,2050,1198
500,1713841909171464087,2064,2059,2063,2062,2040,2065,1197
501,1713841909181460565,2054,2052,2043,2036,2037,2052,1196
502,1713841909191460319,2056,2056,2063,2057,2045,2056,1195
503,1713841909201464331,2052,2052,2061,2052,2052,2049,1194
504,1713841909211464135,2056,2052,2057,2066,2051,2057,1196
505,1713841909221469961,2056,2056,2057,2056,2065,2056,1196
506,1713841909231471509,2058,2053,2053,2060,2040,2052,1197
507,1713841909241476243,2053,2056,2046,2046,2054,2053,1195
508,1713841909251469514,2057,2051,2047,2068,2044,2049,1196
509,1713841909261463898,2059,2052,2034,2052,2058,2052,1196
510,1713841909271463221,2057,2056,2061,2066,2076,2059,1196
511,1713841909281462896,2056,2059,2065,2069,2081,2058,1199
512,1713841909291461528,2052,2047,2041,2058,2035,2050,1198
513,1713841909301462925,2064,2080,2088,2052,2060,2064,1197
514,1713841909311459673,2053,2051,2049,2072,2052,2053,1196
515,1713841909321459878,2052,2047,2035,2050,2052,2048,1195
516,1713841909331468850,2051,2038,2026,2058,2044,2048,1198
517,1713841909341466560,2052,2059,2052,2026,2049,2049,1197
518,1713841909351463159,2057,2056,2056,2053,2047,2052,1196
519,1713841909361463254,2054,2052,2056,2034,2064,2057,1196
520,1713841909371462887,2056,2053,2056,2063,2046,2053,1195
521,1713841909381462641,2052,2057,2064,2031,2061,2062,1196
522,1713841909391464170,2056,2049,2049,2052,2042,2052,1200
523,1713841909401465957,2051,2052,2050,2074,2084,2060,1194
524,1713841909411466693,2060,2055,2056,2054,2042,2056,1195
525,1713841909421461749,2054,2049,2055,2053,2056,2052,1197
526,1713841909431468306,2056,2053,2057,2069,2050,2057,1196
527,1713841909441462218,2056,2056,2056,2061,2072,2056,1197
528,1713841909451484116,2057,2053,2051,2059,2052,2052,1198
529,1713841909461463460,2051,2052,2042,2038,2048,2055,1196
530,1713841909471462553,2057,2070,2107,2080,2085,2061,1197
531,1713841909481462518,2052,2052,2042,2053,2060,2040,1196
532,1713841909491464326,2058,2052,2027,2057,2046,2056,1195
533,1713841909501461105,2049,2045,2049,2040,2058,2054,1196
534,1713841909511462633,2057,2053,2052,2047,2051,2056,1195
535,1713841909521461765,2050,2053,2054,2059,2060,2054,1198
536,1713841909531466098,2062,2055,2061,2042,2067,2059,1197
537,1713841909541460743,2056,2049,2056,2036,2037,2050,1195
538,1713841909551476878,2060,2056,2072,2052,2056,2057,1196
539,1713841909561489868,2056,2060,2051,2045,2062,2054,1197
540,1713841909571476858,2056,2056,2048,2054,2049,2052,1196
541,1713841909581467474,2051,2054,2062,2050,2047,2046,1193
542,1713841909591461588,2056,2049,2052,2032,2046,2055,1198
543,1713841909601469778,2054,2053,2056,2066,2071,2054,1197
544,1713841909611470745,2056,2048,2044,2057,2046,2056,1194
545,1713841909621463105,2056,2052,2052,2045,2043,2052,1196
546,1713841909631468049,2056,2050,2044,2070,2041,2057,1195
547,1713841909641462933,2052,2052,2047,2064,2069,2052,1196
548,1713841909651468719,2052,2047,2053,2056,2040,2048,1197
549,1713841909661473243,2053,2056,2052,2050,2044,2051,1197
550,1713841909671466274,2056,2054,2059,2073,2059,2056,1197
551,1713841909681466960,2050,2062,2068,2049,2045,2052,1197
552,1713841909691465512,2056,2052,2053,2058,2045,2053,1196
553,1713841909701484913,2058,2060,2071,2068,2066,2057,1197
554,1713841909711470450,2057,2046,2036,2057,2052,2056,1195
555,1713841909721466127,2055,2061,2084,2049,2062,2052,1197
556,1713841909731475179,2059,2058,2057,2056,2043,2056,1196
557,1713841909741468912,2050,2054,2064,2050,2058,2052,1195
558,1713841909751471461,2055,2049,2049,2050,2056,2056,1197
559,1713841909761476215,2050,2052,2044,2056,2047,2052,1196
560,1713841909771470729,2061,2066,2090,2054,2042,2058,1195
561,1713841909781484480,2057,2053,2056,2042,2045,2051,1197
562,1713841909791460198,2052,2049,2050,2042,2031,2050,1197
563,1713841909801471815,2050,2058,2053,2030,2061,2048,1197
564,1713841909811476459,2056,2056,2073,2041,2050,2056,1197
565,1713841909821472105,2052,2056,2049,2051,2057,2054,1196
566,1713841909831481387,2058,2053,2050,2068,2049,2051,1197
567,1713841909841473497,2057,2056,2064,2052,2064,2056,1196
568,1713841909851475506,2056,2048,2056,2064,2050,2052,1194
569,1713841909861474549,2052,2065,2074,2056,2055,2050,1196
570,1713841909871462290,2066,2065,2108,2064,2052,2052,1196
571,1713841909881466352,2054,2056,2052,2059,2050,2051,1197
572,1713841909891464564,2056,2056,2058,2037,2035,2053,1197
573,1713841909901477803,2051,2050,2045,2043,2052,2051,1199
574,1713841909911461176,2059,2061,2077,2073,2073,2062,1197
575,1713841909921465710,2052,2049,2052,2051,2064,2053,1197
576,1713841909931469702,2058,2052,2057,2063,2047,2056,1195
577,1713841909941464606,2057,2053,2053,2052,2068,2051,1197
578,1713841909951466485,2061,2056,2069,2066,2043,2055,1198
579,1713841909961465247,2058,2067,2128,2046,2052,2053,1197
580,1713841909971461615,2056,2052,2050,2057,2048,2056,1195
581,1713841909981464856,2056,2060,2063,2069,2088,2058,1196
582,1713841909991462746,2058,2064,2093,2061,2037,2053,1196
583,1713841910001466629,2052,2056,2075,2052,2051,2051,1194
584,1713841910011463598,2059,2050,2056,2058,2044,2049,1194
585,1713841910021464283,2051,2054,2055,2062,2062,2056,1195
586,1713841910031465009,2056,2049,2043,2028,2044,2054,1195
587,1713841910041465215,2053,2057,2058,2040,2061,2056,1196
588,1713841910051465249,2061,2052,2052,2053,2043,2054,1196
589,1713841910061466376,2053,2060,2064,2045,2046,2050,1197
590,1713841910071476380,2056,2051,2046,2059,2049,2052,1198
591,1713841910081464431,2056,2058,2069,2056,2104,2057,1198
592,1713841910091463084,2057,2049,2031,2075,2032,2046,1196
593,1713841910101465764,2056,2053,2056,2055,2059,2056,1194
594,1713841910111463754,2056,2050,2054,2068,2061,2057,1198
595,1713841910121463057,2052,2056,2054,2068,2059,2048,1199
596,1713841910131468543,2056,2054,2064,2065,2050,2053,1195
597,1713841910141465401,2053,2055,2052,2048,2066,2053,1197
598,1713841910151467410,2060,2056,2052,2072,2070,2057,1196
599,1713841910161464189,2056,2058,2076,2056,2052,2054,1199
600,1713841910171463201,2056,2050,2047,2052,2040,2056,1196
601,1713841910181468545,2056,2057,2058,2044,2042,2043,1193
602,1713841910191463161,2058,2064,2083,2065,2059,2054,1194
603,1713841910201466712,2051,2056,2044,2056,2081,2052,1197
604,1713841910211466696,2052,2046,2030,2047,2033,2048,1197
605,1713841910221464938,2055,2057,2056,2052,2056,2050,1195
606,1713841910231462498,2058,2050,2052,2058,2062,2051,1197
607,1713841910241462943,2058,2058,2042,2068,2056,2052,1195
608,1713841910251466935,2060,2052,2034,2056,2044,2052,1196
609,1713841910261463023,2052,2056,2060,2070,2069,2053,1195
610,1713841910271462506,2057,2053,2052,2054,2064,2056,1197
611,1713841910281462922,2052,2053,2046,2064,2066,2053,1197
612,1713841910291466022,2056,2056,2058,2056,2047,2052,1195
613,1713841910301464183,2056,2058,2072,2042,2029,2050,1197
614,1713841910311464959,2056,2049,2040,2045,2021,2046,1193
615,1713841910321483981,2054,2054,2044,2048,2053,2053,1197
616,1713841910331469788,2060,2054,2064,2062,2049,2054,1197
617,1713841910341462619,2053,2059,2054,2064,2058,2056,1196
618,1713841910351461241,2057,2055,2068,2054,2049,2056,1198
619,1713841910361462878,2051,2057,2052,2050,2060,2056,1197
620,1713841910371466089,2052,2050,2052,2064,2052,2052,1196
621,1713841910381462377,2054,2048,2057,2056,2058,2056,1197
622,1713841910391493982,2053,2046,2058,2058,2050,2054,1196
623,1713841910401460724,2050,2051,2050,2050,2059,2054,1195
624,1713841910411457261,2053,2050,2056,2061,2039,2050,1196
625,1713841910421456935,2056,2055,2045,2051,2052,2054,1195
626,1713841910431472980,2058,2047,2044,2060,2048,2059,1196
627,1713841910441474087,2053,2050,2049,2050,2058,2052,1197
628,1713841910451464724,2057,2051,2054,2063,2050,2055,1195
629,1713841910461460281,2056,2062,2061,2056,2045,2046,1194
630,1713841910471468331,2048,2049,2043,2052,2046,2056,1197
631,1713841910481464477,2046,2049,2046,2056,2058,2050,1197
632,1713841910491464552,2058,2056,2044,2064,2068,2051,1197
633,1713841910501456873,2054,2054,2050,2060,2057,2050,1200
634,1713841910511460073,2052,2047,2033,2040,2045,2050,1197
635,1713841910521468464,2049,2056,2044,2037,2045,2053,1196
636,1713841910531466325,2057,2051,2051,2047,2036,2052,1196
637,1713841910541459927,2053,2056,2052,2029,2051,2052,1198
638,1713841910551462486,2060,2054,2052,2056,2051,2056,1197
639,1713841910561463243,2052,2057,2064,2056,2057,2052,1197
640,1713841910571459981,2057,2048,2045,2046,2044,2053,1195
641,1713841910581461820,2050,2058,2066,2064,2059,2056,1196
642,1713841910591458568,2054,2052,2049,2057,2049,2054,1198
643,1713841910601461798,2052,2049,2037,2043,2056,2056,1198
644,1713841910611455902,2064,2076,2084,2066,2049,2056,1195
645,1713841910621463491,2056,2046,2046,2047,2057,2050,1195
646,1713841910631462945,2056,2044,2053,2065,2062,2052,1197
647,1713841910641464463,2051,2058,2064,2054,2019,2045,1194
648,1713841910651465569,2056,2052,2073,2058,2036,2054,1195
649,1713841910661481985,2057,2068,2072,2055,2054,2056,1196
650,1713841910671455809,2060,2049,2044,2083,2051,2056,1198
651,1713841910681462928,2053,2052,2058,2059,2059,2053,1197
652,1713841910691465718,2060,2077,2107,2078,2056,2061,1197
653,1713841910701462266,2051,2054,2043,2056,2056,2057,1196
654,1713841910711463052,2056,2049,2055,2058,2038,2053,1197
655,1713841910721462465,2053,2056,2043,2059,2076,2057,1198
656,1713841910731462029,2056,2054,2053,2065,2040,2052,1197
657,1713841910741464669,2055,2058,2056,2072,2060,2057,1197
658,1713841910751463271,2056,2050,2053,2038,2053,2051,1197
659,1713841910761481321,2056,2061,2076,2050,2052,2055,1197
660,1713841910771460886,2052,2038,2040,2072,2069,2047,1194
661,1713841910781462934,2050,2054,2060,2060,2068,2060,1196
662,1713841910791462047,2057,2052,2058,2058,2044,2052,1198
663,1713841910801464918,2052,2052,2052,2047,2065,2053,1196
664,1713841910811461546,2057,2050,2052,2049,2049,2053,1195
665,1713841910821465257,2056,2053,2053,2048,2058,2056,1196
666,1713841910831465463,2058,2059,2057,2062,2042,2049,1199
667,1713841910841472500,2056,2048,2033,2056,2054,2048,1198
668,1713841910851485450,2058,2049,2046,2036,2042,2049,1197
669,1713841910861462571,2057,2076,2062,2034,2056,2051,1196
670,1713841910871462405,2057,2050,2029,2060,2048,2057,1197
671,1713841910881463111,2052,2056,2060,2064,2064,2058,1198
672,1713841910891482002,2057,2045,2040,2057,2053,2056,1199
673,1713841910901459834,2058,2076,2084,2067,2082,2064,1197
674,1713841910911460771,2056,2049,2053,2058,2065,2050,1196
675,1713841910921461086,2055,2058,2054,2031,2059,2051,1196
676,1713841910931468936,2061,2046,2052,2060,2046,2052,1196
677,1713841910941467647,2053,2058,2068,2059,2061,2053,1196
678,1713841910951475126,2059,2053,2059,2059,2045,2056,1198
679,1713841910961465503,2051,2056,2060,2070,2062,2054,1196
680,1713841910971465798,2054,2047,2048,2067,2043,2053,1194
681,1713841910981464681,2054,2061,2067,2064,2060,2052,1196
682,1713841910991465497,2057,2055,2052,2082,2050,2054,1195
683,1713841911001461203,2054,2052,2056,2057,2063,2057,1196
684,1713841911011462741,2056,2047,2035,2055,2044,2053,1197
685,1713841911021462154,2057,2069,2081,2043,2045,2048,1196
686,1713841911031469934,2056,2047,2059,2045,2040,2049,1196
687,1713841911041463547,2052,2053,2040,2073,2062,2054,1195
688,1713841911051465665,2058,2059,2109,2059,2030,2049,1198
689,1713841911061465179,2048,2045,2043,2056,2047,2053,1195
690,1713841911071461647,2052,2046,2044,2064,2049,2056,1198
691,1713841911081464166,2057,2073,2101,2039,2048,2056,1197
692,1713841911091462788,2057,2049,2052,2065,2045,2056,1197
693,1713841911101464877,2054,2052,2056,2053,2053,2051,1198
694,1713841911111461986,2060,2067,2103,2061,2042,2052,1197
695,1713841911121462662,2052,2056,2058,2056,2068,2050,1197
696,1713841911131471924,2054,2054,2048,2056,2040,2047,1193
697,1713841911141468362,2051,2049,2039,2058,2052,2052,1195
698,1713841911151471032,2058,2049,2051,2068,2052,2057,1197
699,1713841911161468601,2054,2052,2041,2055,2063,2054,1196
700,1713841911171466623,2059,2058,2035,2069,2042,2059,1196
701,1713841911181464353,2052,2056,2065,2062,2064,2047,1193
702,1713841911191463436,2062,2054,2061,2069,2032,2059,1197
703,1713841911201465094,2054,2053,2054,2045,2053,2050,1197
704,1713841911211465078,2057,2047,2053,2060,2045,2054,1196
705,1713841911221469110,2061,2069,2074,2061,2068,2061,1196
706,1713841911231475016,2052,2052,2056,2064,2048,2052,1197
707,1713841911241466094,2059,2068,2052,2052,2056,2056,1195
708,1713841911251467071,2060,2056,2052,2096,2053,2056,1195
709,1713841911261467046,2054,2056,2052,2056,2064,2056,1196
710,1713841911271468623,2053,2049,2044,2077,2046,2050,1198
711,1713841911281467355,2056,2056,2056,2064,2062,2057,1199
712,1713841911291473331,2056,2048,2051,2058,2042,2052,1198
713,1713841911301468527,2053,2057,2056,2052,2056,2052,1196
714,1713841911311470575,2058,2056,2056,2078,2050,2054,1198
715,1713841911321470670,2058,2058,2070,2046,2062,2056,1199
716,1713841911331471276,2059,2053,2055,2060,2048,2056,1197
717,1713841911341472222,2054,2046,2045,2054,2054,2050,1195
718,1713841911351471676,2062,2069,2089,2064,2054,2052,1195
719,1713841911361473504,2056,2056,2048,2057,2057,2056,1197
720,1713841911371472847,2060,2056,2054,2077,2059,2054,1194
721,1713841911381473553,2056,2052,2053,2052,2060,2051,1194
722,1713841911391474911,2061,2053,2054,2060,2058,2054,1195
723,1713841911401474655,2056,2053,2044,2053,2057,2054,1195
724,1713841911411475641,2059,2059,2070,2069,2041,2046,1195
725,1713841911421476227,2050,2045,2049,2036,2042,2053,1194
726,1713841911431476462,2045,2045,2044,2060,2054,2054,1197
727,1713841911441457821,2057,2070,2112,2065,2061,2057,1196
728,1713841911451458146,2053,2044,2030,2040,2040,2049,1195
729,1713841911461458542,2054,2053,2054,2052,2030,2056,1196
730,1713841911471461432,2057,2050,2047,2058,2045,2051,1197
731,1713841911481460846,2053,2047,2041,2052,2052,2045,1196
732,1713841911491464467,2060,2069,2078,2068,2051,2056,1196
733,1713841911501462047,2049,2041,2017,2052,2061,2056,1198
734,1713841911511464156,2058,2057,2093,2077,2068,2056,1195
735,1713841911521463439,2050,2049,2027,2030,2057,2052,1196
736,1713841911531462121,2062,2080,2104,2071,2046,2054,1195
737,1713841911541465172,2052,2053,2042,2049,2050,2053,1195
738,1713841911551465056,2056,2047,2049,2028,2045,2056,1195
739,1713841911561489076,2052,2050,2050,2050,2059,2052,1196
740,1713841911571466538,2054,2049,2050,2052,2051,2053,1192
741,1713841911581465411,2058,2060,2068,2056,2060,2053,1195
742,1713841911591464583,2056,2048,2050,2013,2049,2053,1197
743,1713841911601465179,2052,2059,2072,2049,2047,2049,1194
744,1713841911611464603,2056,2047,2049,2063,2049,2056,1194
745,1713841911621484976,2050,2056,2075,2027,2059,2056,1194
746,1713841911631464322,2056,2053,2054,2062,2045,2052,1196
747,1713841911641463866,2052,2066,2088,2052,2077,2053,1195
748,1713841911651462908,2056,2046,2042,2044,2048,2053,1194
749,1713841911661462522,2053,2056,2058,2045,2056,2052,1195
750,1713841911671462026,2058,2060,2075,2052,2042,2049,1198
751,1713841911681468092,2058,2051,2047,2082,2084,2058,1200
752,1713841911691466634,2056,2054,2052,2068,2065,2057,1196
753,1713841911701465276,2052,2047,2026,2047,2058,2053,1197
754,1713841911711464399,2056,2065,2048,2066,2062,2058,1198
755,1713841911721465385,2050,2050,2043,2048,2066,2054,1197
756,1713841911731464138,2056,2047,2031,2020,2042,2051,1197
757,1713841911741464303,2054,2050,2052,2066,2068,2059,1197
758,1713841911751462083,2050,2048,2048,2058,2049,2051,1195
759,1713841911761462048,2051,2054,2053,2047,2056,2051,1196
760,1713841911771484064,2052,2042,2025,2057,2046,2052,1196
761,1713841911781463469,2056,2052,2050,2052,2059,2053,1194
762,1713841911791467271,2053,2053,2058,2059,2049,2053,1198
763,1713841911801499287,2052,2050,2056,2057,2071,2056,1195
764,1713841911811461440,2052,2059,2088,2065,2049,2053,1195
765,1713841911821469239,2056,2056,2030,2037,2104,2056,1195
766,1713841911831464494,2056,2050,2041,2059,2046,2052,1196
767,1713841911841494527,2054,2059,2058,2052,2048,2053,1197
768,1713841911851469283,2057,2064,2099,2056,2047,2054,1196
769,1713841911861463327,2054,2044,2031,2019,2058,2052,1197
770,1713841911871461818,2060,2056,2076,2074,2049,2052,1197
771,1713841911881464017,2057,2056,2064,2051,2065,2053,1198
772,1713841911891490222,2056,2047,2085,2060,2040,2052,1194
773,1713841911901464798,2050,2050,2060,2056,2057,2055,1194
774,1713841911911463380,2050,2048,2055,2048,2057,2054,1196
775,1713841911921466120,2050,2055,2052,2048,2052,2053,1197
776,1713841911931460944,2054,2046,2045,2045,2017,2045,1193
777,1713841911941477230,2064,2053,2038,2062,2068,2056,1194
778,1713841911951459020,2058,2056,2082,2061,2040,2052,1197
779,1713841911961462802,2055,2053,2057,2055,2056,2050,1197
780,1713841911971464259,2053,2050,2050,2052,2046,2051,1195
781,1713841911981464294,2053,2049,2033,2009,2068,2051,1197
782,1713841911991473336,2056,2054,2051,2074,2054,2054,1196
783,1713841912001460275,2054,2058,2053,2060,2051,2052,1194
784,1713841912011463767,2047,2044,2032,2066,2043,2048,1197
785,1713841912021464243,2051,2045,2052,2050,2059,2053,1196
786,1713841912031464568,2053,2056,2079,2041,2051,2056,1196
787,1713841912041463630,2051,2051,2048,2054,2058,2052,1197
788,1713841912051470899,2053,2054,2049,2056,2050,2052,1197
789,1713841912061466585,2054,2055,2051,2046,2056,2057,1196
790,1713841912071495455,2057,2041,2038,2068,2035,2051,1199
791,1713841912081468829,2057,2074,2094,2064,2054,2057,1196
792,1713841912091460347,2056,2064,2049,1990,2037,2052,1196
793,1713841912101473747,2053,2053,2049,2047,2057,2053,1199
794,1713841912111459154,2057,2056,2056,2066,2047,2052,1196
795,1713841912121461524,2053,2048,2043,2049,2056,2051,1195
796,1713841912131469623,2060,2064,2077,2056,2044,2052,1196
797,1713841912141489876,2060,2061,2065,2054,2056,2053,1197
798,1713841912151471486,2054,2053,2060,2056,2050,2052,1197
799,1713841912161465980,2056,2056,2062,2063,2057,2048,1196
800,1713841912171469722,2060,2060,2051,2058,2027,2050,1195
801,1713841912181465349,2056,2053,2049,2064,2066,2056,1197
802,1713841912191466405,2057,2050,2016,2056,2046,2053,1197
803,1713841912201468083,2060,2054,2038,2050,2059,2055,1196
804,1713841912211462787,2055,2046,2053,2056,2048,2053,1196
805,1713841912221468223,2054,2052,2050,2056,2053,2051,1196
806,1713841912231468808,2058,2049,2047,2058,2048,2051,1197
807,1713841912241468793,2052,2047,2027,2047,2059,2054,1196
808,1713841912251469209,2061,2051,2038,2058,2050,2052,1194
809,1713841912261469564,2056,2057,2053,2046,2052,2052,1196
810,1713841912271470430,2057,2050,2045,2057,2040,2052,1195
811,1713841912281470525,2053,2063,2098,2058,2057,2053,1196
812,1713841912291469998,2052,2050,2039,2058,2046,2056,1198
813,1713841912301471536,2054,2059,2061,2056,2053,2052,1196
814,1713841912311472723,2052,2045,2036,2057,2042,2051,1197
815,1713841912321472166,2055,2048,2041,2058,2047,2052,1195
816,1713841912331460669,2053,2052,2052,2050,2041,2054,1197
817,1713841912341474741,2052,2053,2076,2069,2088,2056,1197
818,1713841912351460869,2058,2049,2047,2058,2047,2053,1196
819,1713841912361477204,2057,2069,2118,2062,2063,2059,1195
820,1713841912371460317,2056,2050,2049,2035,2048,2051,1193
821,1713841912381462536,2056,2045,2045,2013,2048,2053,1195
822,1713841912391474122,2052,2048,2052,2054,2049,2050,1195
823,1713841912401502290,2056,2058,2057,2053,2059,2056,1195
824,1713841912411464844,2052,2046,2044,2058,2046,2052,1196
825,1713841912421465720,2058,2064,2091,2040,2058,2056,1196
826,1713841912431490733,2054,2048,2062,2057,2048,2052,1197
827,1713841912441489966,2056,2064,2046,2051,2062,2053,1197
828,1713841912451481264,2057,2056,2064,2080,2054,2056,1197
829,1713841912461462943,2056,2069,2095,2012,2053,2057,1197
830,1713841912471458610,2056,2045,2048,2065,2052,2054,1197
831,1713841912481464105,2059,2056,2053,2056,2063,2056,1197
832,1713841912491460883,2062,2056,2056,2053,2063,2053,1197
833,1713841912501463693,2056,2063,2062,2061,2060,2048,1197
834,1713841912511462316,2060,2051,2045,2063,2048,2052,1194
835,1713841912521464805,2054,2060,2069,2065,2066,2055,1198
836,1713841912531460702,2056,2058,2052,2018,2040,2053,1197
837,1713841912541460837,2051,2056,2067,2048,2064,2056,1196
838,1713841912551462084,2056,2046,2032,2057,2040,2052,1195
839,1713841912561461847,2056,2066,2056,2052,2040,2054,1195
840,1713841912571457654,2053,2047,2040,2050,2034,2051,1193
841,1713841912581459523,2052,2058,2063,2058,2058,2053,1196
842,1713841912591464727,2056,2044,2072,2070,2048,2052,1195
843,1713841912601470664,2054,2056,2085,2059,2026,2053,1195
844,1713841912611461380,2054,2052,2052,2053,2033,2054,1196
845,1713841912621457006,2053,2054,2053,2053,2052,2061,1194
846,1713841912631461329,2057,2054,2054,2054,2037,2047,1192
847,1713841912641463919,2060,2057,2069,2056,2058,2054,1195
848,1713841912651472029,2056,2052,2047,2077,2051,2052,1195
849,1713841912661471292,2051,2053,2046,2056,2059,2052,1196
850,1713841912671465906,2056,2052,2052,2062,2051,2051,1196
851,1713841912681462785,2054,2054,2053,2056,2055,2052,1197
852,1713841912691463902,2057,2047,2047,2051,2046,2052,1196
853,1713841912701466832,2062,2077,2052,2061,2063,2053,1196
854,1713841912711464923,2056,2047,2033,2052,2046,2052,1196
855,1713841912721475778,2058,2065,2057,2047,2045,2054,1195
856,1713841912731469671,2056,2051,2044,2060,2049,2051,1195
857,1713841912741475116,2058,2058,2053,2070,2064,2052,1196
858,1713841912751466294,2060,2056,2052,2075,2053,2054,1198
859,1713841912761472620,2053,2054,2045,2050,2040,2049,1197
860,1713841912771469339,2056,2047,2054,2064,2040,2053,1195
861,1713841912781468121,2052,2053,2071,2054,2058,2055,1194
862,1713841912791466964,2052,2050,2050,2066,2055,2052,1195
863,1713841912801461248,2056,2058,2077,2060,2058,2048,1194
864,1713841912811462835,2058,2050,2061,2059,2052,2052,1198
865,1713841912821474191,2054,2050,2047,2056,2046,2056,1196
866,1713841912831470519,2057,2054,2053,2057,2047,2049,1196
867,1713841912841468440,2058,2060,2056,2053,2053,2052,1198
868,1713841912851471109,2053,2059,2063,2065,2045,2053,1195
869,1713841912861473999,2054,2045,2043,2057,2051,2050,1197
870,1713841912871470508,2053,2050,2054,2059,2047,2052,1195
871,1713841912881469260,2055,2057,2053,2064,2057,2052,1197
872,1713841912891465287,2060,2050,2037,1988,2051,2053,1198
873,1713841912901468608,2054,2065,2049,2050,2058,2053,1196
874,1713841912911465366,2058,2061,2053,2064,2053,2054,1196
875,1713841912921477444,2054,2050,2047,2047,2057,2053,1199
876,1713841912931461738,2056,2049,2045,2056,2052,2056,1196
877,1713841912941463126,2054,2052,2045,2062,2079,2057,1196
878,1713841912951460726,2056,2058,2066,2057,2057,2056,1197
879,1713841912961464057,2055,2057,2072,2070,2052,2053,1197
880,1713841912971464252,2056,2064,2041,2068,2047,2053,1193
881,1713841912981467052,2058,2056,2042,2059,2066,2054,1194
882,1713841912991468539,2056,2052,2054,2060,2049,2051,1195
883,1713841913001470748,2054,2050,2056,2058,2057,2058,1196
884,1713841913011462838,2054,2056,2052,2063,2049,2050,1196
885,1713841913021468753,2052,2052,2054,2052,2052,2052,1196
886,1713841913031464219,2060,2053,2063,2044,2043,2050,1197
887,1713841913041468593,2057,2058,2069,2045,2053,2056,1196
888,1713841913051472485,2054,2048,2056,2053,2047,2053,1195
889,1713841913061473502,2059,2069,2056,2051,2055,2053,1196
890,1713841913071468416,2064,2051,2060,2054,2044,2052,1197
891,1713841913081468581,2057,2064,2077,2057,2059,2060,1196
892,1713841913091464528,2056,2045,2049,2059,2049,2052,1198
893,1713841913101469773,2058,2054,2056,2052,2046,2050,1198
894,1713841913111470008,2059,2047,2051,2068,2041,2052,1196
895,1713841913121467978,2053,2055,2056,2073,2062,2056,1197
896,1713841913131467712,2058,2051,2051,2072,2073,2058,1198
897,1713841913141468028,2060,2061,2062,2052,2043,2050,1196
898,1713841913151467661,2059,2053,2053,2057,2047,2052,1199
899,1713841913161472015,2059,2064,2060,2056,2059,2057,1196
900,1713841913171469124,2060,2045,2041,2056,2049,2056,1193
901,1713841913181469188,2052,2053,2037,2068,2056,2056,1196
902,1713841913191462911,2052,2047,2033,2049,2047,2050,1196
903,1713841913201466964,2058,2065,2044,2052,2043,2052,1194
904,1713841913211463020,2055,2052,2048,2046,2050,2053,1197
905,1713841913221466972,2053,2052,2053,2054,2065,2056,1195
906,1713841913231472548,2060,2054,2065,2054,2048,2052,1195
907,1713841913241462634,2053,2057,2078,2065,2056,2052,1196
908,1713841913251463279,2058,2051,2048,2072,2047,2054,1197
909,1713841913261464596,2054,2053,2056,2056,2052,2051,1196
910,1713841913271462577,2056,2052,2052,2058,2043,2041,1193
911,1713841913281464165,2064,2061,2056,2053,2054,2056,1199
912,1713841913291462096,2054,2050,2042,2056,2053,2052,1196
913,1713841913301465237,2057,2054,2046,2055,2056,2056,1198
914,1713841913311464770,2056,2043,2044,2078,2049,2054,1198
915,1713841913321463091,2057,2059,2056,2060,2060,2056,1196
916,1713841913331458507,2059,2051,2054,2064,2064,2050,1196
917,1713841913341461237,2052,2056,2074,2064,2057,2050,1197
918,1713841913351463205,2057,2049,2042,2064,2075,2051,1198
919,1713841913361463771,2060,2061,2058,2056,2057,2057,1196
920,1713841913371463335,2053,2053,2068,2050,2049,2056,1195
921,1713841913381462628,2054,2051,2056,2059,2056,2057,1195
922,1713841913391463705,2058,2064,2056,2067,2058,2052,1196
923,1713841913401463129,2058,2056,2059,2060,2050,2052,1196
924,1713841913411485897,2053,2053,2066,2057,2049,2053,1197
925,1713841913421441907,2057,2056,2052,2050,2056,2054,1196
926,1713841913431466629,2057,2056,2068,2061,2052,2053,1196
927,1713841913441459420,2056,2054,2047,2057,2052,2048,1198
928,1713841913451463863,2057,2058,2068,2053,2052,2053,1198
929,1713841913461469628,2057,2067,2051,2047,2054,2056,1196
930,1713841913471467198,2056,2049,2046,2072,2050,2049,1198
931,1713841913481464478,2053,2050,2049,2062,2056,2056,1197
932,1713841913491462158,2054,2052,2045,2053,2044,2046,1194
933,1713841913501462764,2054,2060,2080,2067,2070,2055,1197
934,1713841913511476976,2057,2060,2063,2059,2047,2056,1196
935,1713841913521461671,2056,2053,2053,2052,2065,2057,1199
936,1713841913531459010,2053,2059,2064,2059,2050,2049,1197
937,1713841913541460288,2053,2058,2062,2064,2056,2050,1197
938,1713841913551463518,2052,2044,2053,2059,2050,2054,1196
939,1713841913561460587,2055,2058,2050,2064,2053,2051,1195
940,1713841913571461524,2053,2055,2058,2064,2056,2053,1196
941,1713841913581459264,2054,2049,2058,2053,2065,2057,1194
942,1713841913591459078,2054,2056,2066,2045,2036,2051,1195
943,1713841913601456247,2058,2062,2058,2069,2066,2052,1195
944,1713841913611456894,2046,2040,2046,2069,2049,2054,1196
945,1713841913621461006,2045,2052,2053,2066,2061,2054,1196
946,1713841913631458866,2054,2047,2040,2016,2045,2050,1197
947,1713841913641457408,2056,2056,2041,2061,2069,2055,1196
948,1713841913651458054,2056,2052,2045,2050,2044,2050,1196
949,1713841913661458790,2052,2056,2045,2052,2068,2053,1196
950,1713841913671460227,2058,2062,2070,2047,2056,2055,1197
951,1713841913681468819,2060,2054,2043,2059,2054,2058,1197
952,1713841913691461008,2057,2046,2045,2050,2049,2054,1197
953,1713841913701467665,2056,2053,2062,2056,2054,2056,1198
954,1713841913711414298,2059,2044,2046,2059,2056,2049,1198
955,1713841913721459048,2053,2054,2061,2064,2059,2056,1197
956,1713841913731466968,2064,2062,2084,2058,2052,2054,1196
957,1713841913741463917,2056,2061,2076,2064,2059,2056,1195
958,1713841913751464082,2056,2053,2053,2065,2053,2056,1197
959,1713841913761464226,2055,2054,2050,2044,2032,2033,1193
960,1713841913771464722,2056,2054,2059,2024,2040,2047,1192
961,1713841913781489554,2058,2058,2055,2060,2052,2056,1194
962,1713841913791465974,2058,2056,2056,2047,2050,2052,1197
963,1713841913801472881,2053,2056,2057,2048,2037,2053,1197
964,1713841913811467736,2060,2050,2057,2053,2044,2052,1197
965,1713841913821468102,2057,2053,2051,2061,2048,2054,1195
966,1713841913831476773,2056,2047,2046,2045,2072,2048,1195
967,1713841913841476868,2059,2067,2068,2033,2052,2055,1197
968,1713841913851469709,2052,2045,2061,2056,2054,2052,1197
969,1713841913861449013,2056,2063,2084,2058,2039,2048,1196
970,1713841913871470109,2053,2052,2047,2057,2048,2053,1197
971,1713841913881470234,2054,2053,2055,2057,2062,2055,1197
972,1713841913891500065,2054,2049,2047,2041,2048,2053,1195
973,1713841913901472446,2059,2064,2057,2069,2052,2060,1198
974,1713841913911455399,2054,2046,2043,2066,2050,2052,1197
975,1713841913921472166,2056,2058,2072,2062,2052,2053,1197
976,1713841913931455228,2052,2053,2052,2055,2053,2048,1194
977,1713841913941479459,2057,2064,2058,2068,2081,2056,1198
978,1713841913951453474,2061,2065,2058,2046,2056,2054,1197
979,1713841913961456815,2058,2056,2063,2067,2055,2052,1197
980,1713841913971470856,2054,2048,2044,2055,2052,2053,1196
981,1713841913981478926,2057,2056,2058,2068,2091,2060,1197
982,1713841913991456989,2053,2046,2048,2053,2044,2051,1196
983,1713841914001461402,2062,2079,2084,2072,2060,2056,1197
984,1713841914011454643,2056,2052,2047,2062,2053,2051,1196
985,1713841914021459968,2054,2056,2053,2060,2057,2057,1195
986,1713841914031461756,2056,2053,2051,2066,2041,2052,1195
987,1713841914041457843,2058,2061,2056,2056,2049,2056,1196
988,1713841914051455303,2053,2049,2048,2033,2055,2054,1197
989,1713841914061468253,2057,2056,2053,2065,2072,2052,1197
990,1713841914071457527,2056,2054,2044,2051,2047,2056,1196
991,1713841914081453103,2056,2060,2062,2042,2056,2056,1198
992,1713841914091456945,2050,2044,2049,2065,2050,2053,1197
993,1713841914101454645,2056,2051,2062,2078,2079,2056,1196
994,1713841914111455591,2056,2052,2060,2068,2047,2054,1198
995,1713841914121462570,2055,2057,2050,2057,2070,2057,1197
996,1713841914131460630,2058,2057,2056,2056,2052,2052,1198
997,1713841914141447840,2056,2061,2056,2056,2053,2052,1195
998,1713841914151454277,2048,2046,2047,2053,2053,2052,1196
999,1713841914161449944,2063,2058,2050,2056,2053,2056,1197
1000,1713841914171455439,2056,2048,2051,2058,2053,2052,1192
1001,1713841914181448780,2054,2056,2056,2057,2053,2058,1196
1002,1713841914191452392,2057,2046,2034,2057,2058,2052,1196
1003,1713841914201468818,2053,2056,2064,2065,2058,2053,1194
1004,1713841914211451570,2056,2068,2108,2057,2065,2059,1196
1005,1713841914221450673,2056,2051,2041,2053,2046,2052,1195
1006,1713841914231451118,2057,2047,2057,2052,2050,2053,1196
1007,1713841914241450662,2052,2056,2064,2058,2056,2054,1197
1008,1713841914251454814,2051,2049,2050,2056,2048,2050,1195
1009,1713841914261452665,2054,2060,2063,2056,2052,2054,1197
1010,1713841914271451708,2056,2060,2075,2073,2055,2052,1198
1011,1713841914281450900,2057,2059,2057,2059,2056,2057,1200
1012,1713841914291449703,2056,2048,2043,2049,2040,2052,1198
1013,1713841914301452122,2056,2052,2053,2063,2053,2060,1195
1014,1713841914311450864,2052,2044,2032,2066,2074,2056,1196
1015,1713841914321458814,2056,2052,2050,2048,2031,2048,1196
1016,1713841914331459029,2056,2051,2054,2046,2047,2053,1197
1017,1713841914341447662,2053,2050,2040,2060,2053,2050,1195
1018,1713841914351454910,2053,2065,2096,2057,2054,2052,1195
1019,1713841914361506444,2056,2058,2089,2064,2053,2057,1196
1020,1713841914371450001,2056,2051,2036,2073,2058,2056,1195
1021,1713841914381453962,2054,2046,2041,2058,2051,2050,1197
1022,1713841914391449930,2066,2079,2092,2060,2058,2057,1194
1023,1713841914401454032,2054,2056,2054,2054,2052,2054,1196
1024,1713841914411462853,2052,2054,2057,2058,2066,2049,1196
1025,1713841914421457487,2052,2052,2050,2069,2056,2057,1194
1026,1713841914431459436,2058,2052,2053,2056,2077,2052,1196
1027,1713841914441463438,2057,2056,2058,2058,2052,2056,1197
1028,1713841914451487719,2059,2060,2061,2070,2060,2054,1196
1029,1713841914461473917,2056,2058,2071,2036,2052,2057,1196
1030,1713841914471457250,2057,2049,2042,2057,2054,2053,1197
1031,1713841914481454570,2055,2060,2090,2061,2053,2057,1197
1032,1713841914491457540,2055,2045,2048,2051,2056,2053,1198
1033,1713841914501458185,2052,2057,2072,2060,2050,2049,1197
1034,1713841914511463381,2052,2049,2034,2060,2040,2052,1196
1035,1713841914521477772,2056,2061,2064,2034,2049,2053,1196
1036,1713841914531442630,2054,2054,2045,2060,2055,2050,1195
1037,1713841914541465118,2058,2053,2056,2060,2054,2054,1198
1038,1713841914551458710,2052,2048,2051,2054,2053,2051,1197
1039,1713841914561453214,2062,2056,2032,2049,2037,2053,1197
1040,1713841914571457276,2057,2056,2066,2028,2047,2054,1195
1041,1713841914581445729,2056,2045,2041,2019,2061,2053,1196
1042,1713841914591450743,2053,2047,2047,2051,2051,2053,1196
1043,1713841914601459985,2058,2053,2044,2058,2050,2052,1196
1044,1713841914611485058,2049,2046,2042,2041,2054,2054,1197
1045,1713841914621474162,2052,2049,2039,2069,2057,2050,1196
1046,1713841914631462814,2057,2062,2072,2056,2056,2053,1197
1047,1713841914641455465,2056,2050,2040,2053,2052,2053,1194
1048,1713841914651477592,2050,2050,2045,2050,2047,2052,1194
1049,1713841914661411460,2059,2056,2036,2037,2033,2051,1197
1050,1713841914671455549,2058,2061,2063,2049,2052,2052,1199
1051,1713841914681450434,2056,2057,2052,2061,2056,2053,1198
1052,1713841914691459726,2052,2046,2047,2049,2054,2056,1198
1053,1713841914701458859,2058,2056,2070,2061,2053,2059,1195
1054,1713841914711474684,2056,2051,2052,2054,2054,2056,1196
1055,1713841914721474138,2056,2057,2054,2052,2058,2056,1196
1056,1713841914731464053,2058,2060,2074,2056,2057,2053,1197
1057,1713841914741466833,2058,2056,2061,2053,2053,2057,1194
1058,1713841914751465034,2050,2048,2054,2051,2050,2050,1194
1059,1713841914761527989,2056,2056,2039,2056,2052,2054,1198
1060,1713841914771466546,2053,2053,2048,2052,2056,2050,1195
1061,1713841914781466029,2053,2055,2042,2054,2053,2057,1198
1062,1713841914791466365,2054,2047,2056,2042,2088,2058,1194
1063,1713841914801463855,2053,2053,2053,2068,2047,2052,1197
1064,1713841914811482305,2056,2056,2064,2052,2045,2051,1195
1065,1713841914821464405,2052,2052,2058,2061,2056,2053,1196
1066,1713841914831438290,2054,2056,2074,2058,2059,2055,1198
1067,1713841914841460266,2052,2049,2072,2057,2055,2052,1198
1068,1713841914851467064,2053,2046,2046,2058,2051,2056,1196
1069,1713841914861467870,2056,2047,2041,2058,2058,2054,1196
1070,1713841914871469368,2049,2044,2050,2060,2049,2047,1193
1071,1713841914881483569,2052,2058,2089,2056,2047,2056,1195
1072,1713841914891477823,2057,2053,2051,2045,2060,2051,1197
1073,1713841914901456216,2055,2056,2047,2066,2056,2056,1197
1074,1713841914911454097,2055,2051,2047,2053,2056,2050,1196
1075,1713841914921454442,2059,2066,2092,2042,2047,2053,1197
1076,1713841914931455759,2060,2064,2078,2068,2073,2050,1196
1077,1713841914941455243,2057,2060,2066,2047,2052,2057,1198
1078,1713841914951455949,2051,2050,2044,2049,2043,2050,1196
1079,1713841914961454140,2060,2053,2052,2066,2049,2058,1198
1080,1713841914971455327,2056,2053,2058,2052,2057,2057,1197
1081,1713841914981474247,2055,2050,2044,2031,2065,2056,1197
1082,1713841914991456218,2056,2056,2041,2062,2059,2056,1201
1083,1713841915001453407,2053,2055,2051,2059,2052,2057,1197
1084,1713841915011454714,2058,2053,2051,2068,2061,2053,1196
1085,1713841915021454588,2058,2056,2056,2070,2055,2052,1195
1086,1713841915031515619,2052,2051,2033,2053,2047,2055,1198
1087,1713841915041456231,2060,2064,2080,2068,2060,2060,1197
1088,1713841915051456666,2052,2049,2037,2052,2056,2053,1198
1089,1713841915061454125,2057,2056,2060,2056,2055,2053,1198
1090,1713841915071455643,2053,2053,2053,2057,2047,2056,1200
1091,1713841915081456079,2058,2050,2050,2053,2049,2059,1198
1092,1713841915091459800,2050,2047,2049,2069,2078,2053,1199
1093,1713841915101456618,2058,2056,2056,2043,2038,2049,1197
1094,1713841915111486500,2055,2052,2050,2072,2061,2051,1196
1095,1713841915121455125,2058,2056,2057,2058,2050,2056,1197
1096,1713841915131475458,2054,2050,2053,2053,2053,2053,1197
1097,1713841915141464412,2055,2058,2057,2057,2052,2058,1197
1098,1713841915151457484,2056,2052,2052,2056,2055,2056,1197
1099,1713841915161456446,2056,2056,2054,2061,2058,2054,1196
1100,1713841915171454878,2056,2052,2048,2053,2050,2051,1194
1101,1713841915181465954,2056,2061,2080,2056,2058,2056,1193
1102,1713841915191453855,2053,2047,2048,2049,2047,2051,1197
1103,1713841915201455292,2057,2056,2052,2056,2052,2054,1196
1104,1713841915211448283,2056,2056,2040,2056,2050,2053,1195
1105,1713841915221470661,2056,2056,2068,2053,2053,2053,1199
1106,1713841915231424728,2058,2054,2066,2064,2058,2054,1196
1107,1713841915241459929,2057,2058,2068,2058,2040,2052,1196
1108,1713841915251458531,2057,2053,2057,2081,2065,2056,1194
1109,1713841915261460921,2058,2064,2055,2044,2037,2056,1195
1110,1713841915271451908,2052,2047,2037,2055,2067,2054,1198
1111,1713841915281478513,2058,2061,2047,2049,2051,2056,1198
1112,1713841915291449532,2060,2050,2059,2050,2046,2050,1196
1113,1713841915301456260,2058,2058,2085,2059,2055,2054,1196
1114,1713841915311449682,2049,2047,2036,2053,2050,2051,1197
1115,1713841915321467119,2057,2065,2096,2056,2042,2054,1195
1116,1713841915331448899,2054,2049,2050,2056,2044,2052,1198
1117,1713841915341456619,2058,2056,2056,2061,2061,2054,1198
1118,1713841915351459519,2056,2052,2060,2054,2060,2051,1193
1119,1713841915361454544,2055,2050,2052,2052,2055,2054,1196
1120,1713841915371457515,2056,2051,2032,2058,2054,2054,1193
1121,1713841915381472698,2059,2063,2066,2060,2056,2060,1195
1122,1713841915391446132,2055,2046,2046,2053,2056,2056,1194
1123,1713841915401455886,2057,2053,2053,2077,2076,2057,1197
1124,1713841915411459978,2057,2051,2064,2050,2044,2057,1198
1125,1713841915421460984,2058,2067,2078,2058,2065,2059,1196
1126,1713841915431456490,2049,2033,2006,2044,2033,2049,1196
1127,1713841915441483056,2055,2058,2047,2043,2047,2056,1197
1128,1713841915451457301,2059,2064,2080,2057,2058,2054,1197
1129,1713841915461454079,2056,2054,2066,2061,2053,2056,1196
1130,1713841915471457651,2050,2047,2041,2056,2041,2052,1198
1131,1713841915481477253,2056,2057,2062,2068,2046,2058,1196
1132,1713841915491447050,2056,2047,2048,2060,2058,2057,1197
1133,1713841915501462213,2057,2056,2037,2053,2044,2056,1198
1134,1713841915511458370,2056,2059,2061,2057,2056,2056,1196
1135,1713841915521460760,2058,2061,2095,2075,2059,2062,1195
1136,1713841915531461515,2057,2054,2072,2070,2066,2056,1196
1137,1713841915541452503,2053,2052,2046,2067,2064,2053,1196
1138,1713841915551461184,2053,2055,2056,2056,2051,2052,1197
1139,1713841915561455067,2051,2052,2049,2048,2061,2048,1198
1140,1713841915571463337,2053,2047,2042,2051,2050,2052,1195
1141,1713841915581455707,2053,2050,2043,2057,2058,2056,1195
1142,1713841915591454490,2058,2050,2042,2053,2054,2049,1197
1143,1713841915601458432,2061,2056,2101,2056,2040,2053,1196
1144,1713841915611459058,2057,2053,2058,2050,2043,2049,1196
1145,1713841915621459203,2056,2061,2047,2036,2046,2052,1194
1146,1713841915631460039,2058,2049,2052,2053,2028,2049,1196
1147,1713841915641457749,2058,2052,2047,2052,2031,2054,1196
1148,1713841915651460489,2058,2061,2063,2052,2033,2057,1197
1149,1713841915661455745,2064,2069,2111,2056,2064,2055,1197
1150,1713841915671459696,2053,2042,2036,2061,2079,2056,1195
1151,1713841915681456675,2057,2061,2081,2062,2054,2052,1197
1152,1713841915691460537,2053,2045,2040,2047,2044,2050,1197
1153,1713841915701437899,2057,2061,2066,2058,2056,2055,1196
1154,1713841915711455386,2047,2045,2033,2045,2042,2047,1194
1155,1713841915721453287,2065,2084,2093,2042,2045,2056,1196
1156,1713841915731455666,2049,2040,2035,2061,2074,2050,1197
1157,1713841915741453827,2054,2052,2050,2051,2050,2054,1197
1158,1713841915751458771,2056,2053,2080,2052,2053,2057,1198
1159,1713841915761458525,2056,2056,2044,2049,2054,2048,1196
1160,1713841915771458800,2049,2044,2043,2047,2061,2057,1193
1161,1713841915781456020,2056,2065,2080,2072,2058,2056,1195
1162,1713841915791459541,2050,2043,2023,2042,2016,2043,1195
1163,1713841915801456459,2050,2053,2054,2054,2046,2054,1197
1164,1713841915811457016,2055,2052,2067,2041,2026,2047,1194
1165,1713841915821462020,2054,2056,2052,2050,2056,2054,1196
1166,1713841915831451705,2053,2050,2083,2059,2053,2056,1196
1167,1713841915841462761,2053,2055,2049,2058,2062,2057,1198
1168,1713841915851452065,2053,2047,2043,2048,2045,2047,1193
1169,1713841915861454554,2056,2050,2043,2062,2057,2056,1194
1170,1713841915871459919,2057,2056,2061,2051,2043,2052,1200
1171,1713841915881457118,2053,2051,2052,2059,2050,2052,1198
1172,1713841915891454277,2056,2059,2056,2024,2048,2053,1197
1173,1713841915901459962,2059,2052,2053,2056,2043,2051,1195
1174,1713841915911454617,2053,2056,2096,2061,2054,2055,1197
1175,1713841915921456175,2058,2057,2069,2069,2058,2056,1197
1176,1713841915931474905,2049,2052,2049,2054,2063,2053,1197
1177,1713841915941484628,2054,2046,2034,2048,2029,2057,1197
1178,1713841915951455346,2062,2058,2050,2060,2049,2056,1196
1179,1713841915961463497,2051,2049,2048,2057,2037,2054,1198
1180,1713841915971455847,2056,2056,2056,2056,2044,2052,1195
1181,1713841915981454538,2054,2056,2056,2057,2058,2054,1196
1182,1713841915991452830,2061,2059,2051,2049,2043,2058,1197
1183,1713841916001454628,2054,2051,2050,2035,1997,2034,1194
1184,1713841916011454212,2056,2049,2047,2069,2085,2058,1195
1185,1713841916021456360,2054,2054,2058,2057,2064,2054,1196
1186,1713841916031460984,2058,2064,2114,2062,2052,2049,1198
1187,1713841916041469385,2049,2041,2038,2047,2047,2052,1197
1188,1713841916051456505,2053,2045,2038,2056,2057,2053,1197
1189,1713841916061456289,2058,2060,2085,2040,2051,2056,1197
1190,1713841916071456805,2057,2065,2065,2059,2052,2053,1196
1191,1713841916081463993,2058,2051,2046,2073,2072,2053,1198
1192,1713841916091458046,2055,2054,2044,2053,2056,2060,1195
1193,1713841916101455576,2053,2052,2056,2052,2046,2050,1197
1194,1713841916111458737,2056,2056,2065,2057,2051,2053,1197
1195,1713841916121459232,2057,2056,2052,2057,2056,2053,1197
1196,1713841916131469165,2056,2052,2049,2053,2067,2056,1197
1197,1713841916141459722,2052,2055,2056,2072,2061,2057,1197
1198,1713841916151462332,2056,2047,2045,2053,2037,2050,1197
1199,1713841916161460903,2054,2049,2045,2040,2047,2057,1198
1200,1713841916171462070,2060,2067,2079,2052,2050,2056,1195
1201,1713841916181461554,2056,2060,2083,2047,2044,2047,1194
1202,1713841916191462009,2053,2048,2054,2058,2049,2052,1197
1203,1713841916201463005,2057,2060,2074,2060,2078,2063,1196
1204,1713841916211411261,2053,2049,2041,2050,2057,2050,1200
1205,1713841916221445912,2054,2057,2056,2068,2080,2056,1194
1206,1713841916231473960,2049,2045,2037,2052,2052,2051,1198
1207,1713841916241462713,2054,2052,2072,2057,2054,2056,1197
1208,1713841916251463960,2055,2052,2044,2056,2048,2053,1197
1209,1713841916261469806,2056,2051,2053,2052,2061,2055,1197
1210,1713841916271466094,2057,2050,2047,2049,2068,2033,1196
1211,1713841916281449486,2050,2049,2043,2056,2060,2050,1200
1212,1713841916291449250,2052,2053,2049,2049,2059,2052,1197
1213,1713841916301466639,2056,2047,2043,2056,2057,2052,1197
1214,1713841916311467655,2057,2053,2035,2056,2059,2055,1197
1215,1713841916321469152,2054,2051,2032,2052,2052,2050,1197
1216,1713841916331469688,2057,2056,2041,2050,2033,2047,1193
1217,1713841916341452360,2051,2046,2029,2059,2049,2058,1196
1218,1713841916351469988,2053,2048,2050,2045,2028,2045,1195
1219,1713841916361452669,2056,2067,2089,2061,2045,2053,1196
1220,1713841916371471820,2052,2049,2037,2056,2047,2049,1195
1221,1713841916381471514,2056,2060,2072,2058,2054,2061,1194
1222,1713841916391451220,2053,2050,2040,2055,2045,2050,1197
1223,1713841916401472234,2056,2056,2056,2055,2055,2052,1197
1224,1713841916411453113,2054,2054,2052,2064,2056,2054,1196
1225,1713841916421455552,2058,2060,2059,2064,2046,2056,1196
1226,1713841916431445597,2056,2054,2056,2054,2057,2057,1196
1227,1713841916441454198,2053,2052,2058,2057,2049,2056,1196
1228,1713841916451475654,2053,2052,2050,2056,2046,2052,1197
1229,1713841916461454138,2060,2053,2056,2064,2052,2053,1195
1230,1713841916471458911,2053,2051,2058,2053,2057,2052,1197
1231,1713841916481450681,2060,2064,2065,2071,2064,2057,1198
1232,1713841916491459602,2052,2047,2037,2065,2065,2054,1198
1233,1713841916501456951,2054,2046,2040,2064,2054,2053,1197
1234,1713841916511452177,2049,2046,2040,2045,2047,2052,1198
1235,1713841916521457432,2062,2065,2069,2045,2050,2077,1197
1236,1713841916531464490,2047,2047,2050,2058,2042,2049,1195
1237,1713841916541460306,2056,2052,2048,2056,2056,2056,1195
1238,1713841916551460341,2060,2069,2100,2057,2026,2049,1197
1239,1713841916561519809,2057,2057,2051,2060,2033,2048,1196
1240,1713841916571456363,2051,2046,2045,2046,2032,2052,1196
1241,1713841916581459543,2058,2063,2077,2053,2049,2054,1198
1242,1713841916591453336,2052,2047,2047,2050,2056,2047,1193
1243,1713841916601447890,2057,2052,2053,2060,2051,2042,1194
1244,1713841916611469596,2058,2077,2104,2061,2028,2044,1193
1245,1713841916621445454,2052,2050,2039,2054,2044,2048,1197
1246,1713841916631453865,2052,2051,2047,2047,2046,2047,1193
1247,1713841916641456415,2054,2060,2061,2060,2056,2050,1196
1248,1713841916651461228,2058,2047,2045,2041,2043,2047,1192
1249,1713841916661451264,2053,2049,2051,2046,2042,2046,1193
1250,1713841916671449174,2066,2079,2121,2064,2050,2054,1199
1251,1713841916681453908,2055,2048,2045,2054,2060,2059,1199
1252,1713841916691456498,2056,2052,2053,2060,2053,2056,1197
1253,1713841916701467904,2060,2071,2083,2059,2058,2053,1197
1254,1713841916711477116,2056,2052,2060,2054,2054,2058,1197
1255,1713841916721456121,2061,2065,2057,2062,2057,2056,1196
1256,1713841916731456927,2051,2045,2037,2051,2058,2052,1195
1257,1713841916741460307,2054,2046,2045,2057,2049,2044,1194
1258,1713841916751462156,2060,2058,2092,2059,2064,2052,1195
1259,1713841916761458113,2052,2049,2046,2069,2088,2060,1196
1260,1713841916771456955,2056,2065,2069,2054,2072,2054,1196
1261,1713841916781458783,2056,2053,2084,2060,2064,2051,1196
1262,1713841916791462845,2054,2055,2054,2051,2046,2051,1194
1263,1713841916801456127,2061,2060,2082,2054,2053,2052,1196
1264,1713841916811463736,2056,2063,2056,2058,2057,2056,1196
1265,1713841916821456076,2064,2070,2065,2056,2046,2065,1198
1266,1713841916831455790,2057,2055,2064,2028,2029,2052,1197
1267,1713841916841453751,2060,2061,2059,2054,2043,2056,1195
1268,1713841916851454597,2053,2050,2045,2045,2044,2044,1196
1269,1713841916861453800,2056,2065,2046,2044,2028,2045,1193
1270,1713841916871452482,2050,2047,2029,2047,2042,2052,1198
1271,1713841916881492092,2050,2052,2033,2050,2040,2056,1195
1272,1713841916891455968,2060,2075,2066,2062,2056,2062,1197
1273,1713841916901453237,2052,2052,2050,2054,2032,2068,1197
1274,1713841916911453823,2054,2051,2044,2048,2052,2050,1197
1275,1713841916921485889,2053,2050,2046,2058,2056,2056,1196
1276,1713841916931455536,2056,2055,2063,2078,2110,2122,1197
1277,1713841916941455290,2053,2052,2053,2056,2054,2052,1194
1278,1713841916951453431,2049,2048,2046,2049,2068,2045,1194
1279,1713841916961451792,2063,2069,2074,2054,2060,2062,1196
1280,1713841916971452819,2057,2053,2053,2058,2052,2052,1196
1281,1713841916981465017,2056,2056,2054,2058,2060,2056,1195
1282,1713841916991455924,2057,2056,2056,2056,2052,2051,1196
1283,1713841917001453373,2052,2047,2050,2067,2057,2045,1196
1284,1713841917011453338,2057,2051,2056,2056,2050,2048,1197
1285,1713841917021454836,2050,2047,2049,2041,2029,2054,1197
1286,1713841917031452065,2053,2056,2056,2056,2053,2051,1197
1287,1713841917041456488,2056,2056,2060,2060,2053,2055,1196
1288,1713841917051457905,2056,2055,2052,2053,2052,2049,1196
1289,1713841917061452980,2061,2060,2064,2071,2052,2059,1200
1290,1713841917071455399,2057,2050,2048,2059,2045,2052,1197
1291,1713841917081545886,2054,2057,2061,2094,2063,2056,1198
1292,1713841917091458324,2053,2045,2056,2025,2048,2056,1197
1293,1713841917101458810,2052,2048,2053,2101,2069,2054,1195
1294,1713841917111460497,2058,2061,2076,2058,2058,2054,1198
1295,1713841917121461403,2056,2052,2050,2056,2053,2061,1195
1296,1713841917131459585,2056,2052,2046,2061,2054,2052,1196
1297,1713841917141462655,2053,2052,2060,2068,2066,2053,1196
1298,1713841917151462389,2054,2060,2140,2029,2069,2050,1197
1299,1713841917161458246,2060,2067,2073,2056,2048,2057,1197
1300,1713841917171462468,2053,2051,2041,2039,2065,2050,1194
1301,1713841917181466030,2055,2057,2056,2066,2051,2056,1196
1302,1713841917191458841,2052,2049,2048,2044,2045,2050,1197
1303,1713841917201461691,2059,2056,2058,2063,2026,2054,1196
1304,1713841917211462266,2056,2060,2062,2057,2051,2045,1195
1305,1713841917221462932,2059,2060,2080,2061,2072,2054,1193
1306,1713841917231462506,2056,2050,2052,2046,2049,2056,1196
1307,1713841917241462691,2056,2049,2037,2056,2047,2053,1194
1308,1713841917251462024,2048,2048,2046,2058,2042,2053,1196
1309,1713841917261463702,2060,2055,2058,2071,2060,2057,1198
1310,1713841917271463767,2055,2057,2056,2053,2056,2052,1197
1311,1713841917281490402,2058,2054,2058,2063,2053,2057,1200
1312,1713841917291468936,2056,2056,2053,2060,2053,2051,1196
1313,1713841917301467518,2056,2056,2042,2056,2043,2052,1198
1314,1713841917311451081,2055,2053,2038,2061,2061,2053,1198
1315,1713841917321466004,2058,2056,2056,2054,2068,2052,1195
1316,1713841917331471980,2050,2053,2051,2055,2046,2050,1198
1317,1713841917341449842,2063,2055,2050,2044,2041,2053,1197
1318,1713841917351453443,2056,2052,2055,2055,2060,2052,1197
1319,1713841917361452095,2053,2050,2056,2050,2037,2053,1197
1320,1713841917371457009,2053,2047,2051,2056,2070,2052,1197
1321,1713841917381501369,2049,2039,2027,2057,2056,2053,1197
1322,1713841917391468581,2056,2052,2044,2058,2050,2051,1197
1323,1713841917401447996,2061,2054,2058,2088,2067,2059,1197
1324,1713841917411460194,2053,2050,2047,2049,2056,2052,1195
1325,1713841917421454598,2056,2049,2062,2075,2042,2056,1196
1326,1713841917431453580,2050,2052,2079,2053,2052,2056,1196
1327,1713841917441447062,2057,2057,2050,2054,2068,2057,1195
1328,1713841917451457497,2053,2060,2062,2047,2062,2056,1196
1329,1713841917461449426,2055,2050,2048,2056,2054,2060,1196
1330,1713841917471460291,2052,2054,2068,2056,2054,2052,1196
1331,1713841917481490243,2052,2053,2052,2052,2049,2056,1198
1332,1713841917491448448,2053,2052,2043,2049,2056,2052,1197
1333,1713841917501450597,2053,2053,2051,2048,2027,2051,1196
1334,1713841917511449850,2052,2050,2052,2060,2053,2050,1197
1335,1713841917521455114,2052,2047,2036,2056,2048,2056,1197
1336,1713841917531459066,2058,2070,2130,2046,2049,2044,1194
1337,1713841917541447850,2060,2048,2032,2036,2039,2052,1197
1338,1713841917551455228,2054,2046,2034,2046,2042,2042,1193
1339,1713841917561451275,2055,2053,2058,2064,2047,2059,1197
1340,1713841917571456590,2056,2058,2074,2056,2054,2049,1195
1341,1713841917581504666,2059,2052,2042,2045,2043,2053,1197
1342,1713841917591460006,2056,2065,2053,2040,2008,2040,1195
1343,1713841917601449500,2052,2045,2049,2054,2050,2056,1198
1344,1713841917611450166,2056,2052,2059,2046,2053,2050,1197
1345,1713841917621450551,2056,2048,2042,2045,2026,2056,1198
1346,1713841917631459232,2054,2060,2065,2048,2044,2049,1195
1347,1713841917641450921,2060,2068,2113,2059,2041,2056,1196
1348,1713841917651473459,2054,2046,2048,2072,2109,2062,1195
1349,1713841917661456130,2058,2068,2076,2074,2053,2046,1194
1350,1713841917671454071,2052,2047,2048,2048,2058,2051,1195
1351,1713841917681471899,2058,2052,2046,2067,2058,2058,1197
1352,1713841917691456685,2054,2053,2060,2045,2045,2048,1196
1353,1713841917701451810,2057,2047,2037,2066,2043,2056,1198
1354,1713841917711451003,2061,2069,2075,2060,2057,2059,1197
1355,1713841917721449955,2056,2052,2051,2066,2054,2056,1196
1356,1713841917731457925,2050,2053,2053,2040,2054,2053,1197
1357,1713841917741454023,2062,2062,2088,2067,2050,2057,1196
1358,1713841917751457935,2052,2056,2057,2063,2048,2051,1198
1359,1713841917761469241,2057,2049,2039,2055,2047,2053,1196
1360,1713841917771516395,2050,2052,2039,2041,2065,2052,1196
1361,1713841917781461195,2058,2064,2071,2076,2059,2056,1197
1362,1713841917791451220,2050,2054,2069,2056,2064,2050,1198
1363,1713841917801455773,2059,2054,2046,2060,2043,2056,1195
1364,1713841917811452231,2046,2052,2052,2045,2058,2045,1192
1365,1713841917821452877,2057,2056,2066,2064,2032,2053,1196
1366,1713841917831455226,2050,2056,2069,2040,2073,2056,1196
1367,1713841917841453347,2065,2061,2067,2072,2035,2054,1197
1368,1713841917851490683,2046,2049,2056,2052,2070,2050,1196
1369,1713841917861450761,2068,2065,2060,2077,2039,2053,1193
1370,1713841917871451617,2052,2057,2046,2045,2069,2052,1197
1371,1713841917881450660,2064,2060,2105,2064,2033,2057,1198
1372,1713841917891480892,2047,2045,2034,2062,2091,2059,1197
1373,1713841917901457823,2067,2076,2092,2068,2032,2057,1194
1374,1713841917911451415,2045,2049,2032,2026,2049,2052,1196
1375,1713841917921452472,2064,2058,2052,2060,2022,2050,1195
1376,1713841917931457847,2046,2046,2026,2040,2080,2056,1197
1377,1713841917941487167,2068,2076,2134,2058,2028,2072,1196
1378,1713841917951450832,2044,2054,2046,2017,2037,2045,1194
1379,1713841917961450646,2060,2050,2055,2076,2036,2055,1196
1380,1713841917971461482,2048,2066,2085,2042,2074,2052,1194
1381,1713841917981431890,2068,2054,2058,2063,2028,2055,1195
1382,1713841917991450841,2047,2058,2056,2029,2074,2054,1196
1383,1713841918001451606,2061,2040,2058,2086,2029,2054,1194
1384,1713841918011449567,2040,2052,2053,2026,2078,2056,1197
1385,1713841918021451195,2063,2056,2061,2083,2032,2059,1197
1386,1713841918031451300,2045,2058,2088,2040,2077,2051,1195
1387,1713841918041449310,2066,2047,2055,2072,2029,2054,1194
1388,1713841918051454014,2045,2053,2045,2033,2074,2047,1192
1389,1713841918061448258,2060,2046,2041,2097,2050,2061,1197
1390,1713841918071454083,2044,2049,2041,2032,2061,2045,1195
1391,1713841918081454038,2065,2064,2082,2064,2042,2069,1198
1392,1713841918091450225,2042,2047,2041,2042,2052,2037,1193
1393,1713841918101455961,2066,2052,2043,2073,2060,2086,1200
1394,1713841918111453110,2050,2064,2060,2064,2080,2040,1197
1395,1713841918121447784,2066,2056,2058,2066,2025,2047,1195
1396,1713841918131449672,2045,2050,2045,2034,2068,2048,1195
1397,1713841918141451250,2064,2042,2042,2072,2046,2068,1198
1398,1713841918151450233,2043,2060,2056,2038,2068,2043,1195
1399,1713841918161450066,2063,2058,2094,2073,2042,2054,1197
1400,1713841918171463857,2048,2056,2066,2044,2066,2049,1193
1401,1713841918181455285,2066,2059,2057,2060,2019,2059,1195
1402,1713841918191449368,2049,2056,2066,2042,2071,2053,1195
1403,1713841918201454263,2061,2050,2060,2073,2043,2059,1196
1404,1713841918211448807,2046,2054,2064,2043,2077,2051,1196
1405,1713841918221477856,2065,2052,2053,2060,2036,2055,1195
1406,1713841918231463313,2052,2054,2047,2044,2071,2052,1197
1407,1713841918241456856,2061,2055,2064,2067,2033,2054,1198
1408,1713841918251454446,2046,2053,2045,2035,2070,2045,1193
1409,1713841918261453087,2062,2048,2043,2068,2025,2046,1194
1410,1713841918271459735,2048,2057,2045,2036,2068,2056,1199
1411,1713841918281460722,2065,2050,2050,2085,2047,2060,1198
1412,1713841918291451518,2052,2076,2117,2045,2083,2070,1198
1413,1713841918301453897,2064,2056,2068,2093,2048,2058,1196
1414,1713841918311461997,2042,2049,2044,2030,2066,2053,1198
1415,1713841918321450851,2073,2053,2053,2080,2045,2051,1197
1416,1713841918331456656,2057,2068,2076,2049,2079,2053,1197
1417,1713841918341460588,2065,2053,2055,2059,2032,2052,1197
1418,1713841918351451616,2045,2052,2040,2038,2075,2050,1196
1419,1713841918361461690,2060,2050,2053,2065,2043,2050,1197
1420,1713841918371455703,2047,2048,2044,2046,2077,2040,1194
1421,1713841918381450497,2057,2047,2053,2072,2049,2053,1195
1422,1713841918391449300,2052,2067,2082,2053,2072,2051,1196
1423,1713841918401454765,2061,2052,2052,2070,2040,2052,1198
1424,1713841918411476781,2047,2052,2050,2044,2067,2052,1196
1425,1713841918421450736,2058,2052,2053,2062,2047,2057,1197
1426,1713841918431457113,2052,2061,2058,2044,2073,2056,1194
1427,1713841918441477166,2066,2064,2067,2081,2042,2052,1195
1428,1713841918451458284,2046,2047,2040,2051,2057,2045,1193
1429,1713841918461466434,2062,2055,2048,2074,2044,2062,1197
1430,1713841918471454506,2049,2052,2046,2053,2072,2051,1196
1431,1713841918481452247,2056,2053,2070,2065,2041,2056,1196
1432,1713841918491452481,2052,2056,2061,2058,2085,2068,1197
1433,1713841918501451734,2060,2048,2048,2069,2042,2057,1198
1434,1713841918511453072,2044,2044,2050,2045,2061,2052,1197
1435,1713841918521452846,2056,2051,2052,2062,2049,2059,1195
1436,1713841918531453892,2048,2052,2051,2047,2080,2064,1195
1437,1713841918541454428,2059,2045,2034,2065,2043,2046,1194
1438,1713841918551456216,2052,2077,2114,2084,2090,2069,1199
1439,1713841918561455269,2060,2047,2044,2056,2020,2017,1194
1440,1713841918571455574,2049,2051,2042,2045,2075,2051,1195
1441,1713841918581456831,2061,2056,2088,2074,2047,2044,1193
1442,1713841918591457607,2044,2049,2042,2045,2057,2045,1193
1443,1713841918601456950,2068,2061,2072,2067,2046,2056,1197
1444,1713841918611458408,2044,2048,2024,2058,2067,2049,1197
1445,1713841918621464634,2058,2057,2052,2064,2047,2058,1197
1446,1713841918631460981,2049,2050,2043,2050,2064,2056,1197
1447,1713841918641464793,2056,2049,2066,2064,2041,2067,1197
1448,1713841918651459658,2056,2057,2074,2044,2053,2085,1197
1449,1713841918661460414,2058,2054,2037,2056,2028,2044,1194
1450,1713841918671461049,2057,2059,2062,2053,2074,2072,1198
1451,1713841918681462777,2058,2053,2056,2060,2033,2048,1197
1452,1713841918691467541,2054,2051,2052,2041,2028,2069,1197
1453,1713841918701469039,2071,2089,2138,2068,2049,2069,1198
1454,1713841918711463382,2052,2051,2052,2050,2059,2049,1197
1455,1713841918721446975,2060,2058,2076,2068,2064,2057,1197
1456,1713841918731464704,2047,2047,2040,2039,2052,2050,1198
1457,1713841918741464989,2058,2060,2065,2062,2058,2056,1196
1458,1713841918751447139,2056,2056,2052,2055,2064,2053,1196
1459,1713841918761466150,2059,2060,2045,2058,2044,2052,1196
1460,1713841918771449323,2063,2060,2051,2065,2116,2053,1192
1461,1713841918781449969,2057,2058,2078,2058,2036,2016,1195
1462,1713841918791468589,2055,2056,2066,2060,2071,2046,1193
1463,1713841918801449967,2057,2051,2066,2054,2048,2050,1197
1464,1713841918811451645,2056,2054,2051,2058,2069,2058,1196
1465,1713841918821451590,2056,2053,2046,2054,2052,2052,1197
1466,1713841918831452236,2050,2054,2056,2055,2061,2052,1197
1467,1713841918841453673,2056,2056,2056,2060,2077,2053,1198
1468,1713841918851454449,2050,2053,2051,2058,2068,2053,1197
1469,1713841918861450967,2054,2056,2064,2060,2043,2052,1195
1470,1713841918871452164,2050,2059,2046,2056,2056,2047,1196
1471,1713841918881451477,2059,2061,2052,2056,2062,2056,1197
1472,1713841918891450820,2051,2051,2050,2052,2056,2053,1200
1473,1713841918901455895,2056,2050,2050,2056,2041,2053,1197
1474,1713841918911460338,2054,2056,2056,2050,2089,2060,1196
1475,1713841918921465993,2059,2053,2049,2056,2050,2052,1196
1476,1713841918931455938,2053,2051,2048,2053,2050,2050,1196
1477,1713841918941458358,2061,2057,2047,2053,2035,2050,1196
1478,1713841918951461258,2053,2052,2050,2048,2052,2052,1197
1479,1713841918961456092,2054,2043,2036,2051,2056,2054,1197
1480,1713841918971453993,2065,2096,2134,2068,2065,2062,1196
1481,1713841918981462604,2056,2048,2039,2053,2029,2043,1192
1482,1713841918991478238,2050,2055,2051,2053,2057,2047,1192
1483,1713841919001452964,2056,2052,2056,2040,2047,2058,1197
1484,1713841919011453149,2056,2057,2059,2053,2062,2048,1196
1485,1713841919021452794,2053,2056,2056,2059,2047,2052,1195
1486,1713841919031478808,2056,2064,2068,2053,2063,2053,1195
1487,1713841919041452602,2061,2056,2057,2047,2038,2050,1196
1488,1713841919051449821,2056,2054,2054,2052,2055,2053,1196
1489,1713841919061452450,2056,2052,2057,2050,2042,2052,1196
1490,1713841919071451904,2053,2052,2050,2052,2052,2047,1196
1491,1713841919081494079,2056,2043,2033,2055,2055,2054,1197
1492,1713841919091446904,2052,2054,2052,2048,2033,2055,1196
1493,1713841919101447850,2061,2059,2060,2061,2061,2056,1197
1494,1713841919111453074,2058,2058,2064,2057,2052,2053,1196
1495,1713841919121455534,2056,2050,2055,2056,2047,2054,1196
1496,1713841919131464335,2056,2060,2075,2039,2056,2047,1194
1497,1713841919141455833,2053,2050,2029,2064,2061,2053,1195
1498,1713841919151446761,2057,2065,2064,2048,2035,2045,1194
1499,1713841919161451424,2058,2047,2047,2058,2040,2055,1195
1500,1713841919171451649,2052,2053,2051,2047,2052,2051,1197
1501,1713841919181496058,2056,2056,2055,2067,2070,2056,1196
1502,1713841919191455045,2049,2054,2056,2055,2057,2057,1195
1503,1713841919201459829,2059,2047,2044,2061,2050,2055,1195
1504,1713841919211454884,2055,2057,2045,2054,2061,2054,1197
1505,1713841919221452253,2060,2056,2044,2069,2062,2056,1197
1506,1713841919231473819,2050,2049,2052,2046,2060,2053,1197
1507,1713841919241453725,2058,2056,2055,2056,2047,2054,1196
1508,1713841919251453880,2059,2062,2057,2061,2052,2050,1198
1509,1713841919261448484,2055,2061,2062,2047,2026,2050,1199
1510,1713841919271449881,2056,2050,2052,2060,2056,2056,1197
1511,1713841919281446780,2057,2049,2047,2056,2050,2053,1197
1512,1713841919291445922,2058,2054,2070,2024,2051,2052,1197
1513,1713841919301458301,2058,2061,2068,2081,2040,2049,1196
1514,1713841919311458225,2050,2047,2047,2061,2075,2053,1196
1515,1713841919321448180,2053,2040,2053,2053,2046,2054,1197
1516,1713841919331459517,2052,2047,2046,2044,2056,2054,1196
1517,1713841919341470222,2056,2050,2045,2053,2048,2056,1196
1518,1713841919351446290,2056,2056,2056,2062,2064,2052,1197
1519,1713841919361447948,2058,2061,2065,2061,2047,2054,1197
1520,1713841919371446991,2054,2052,2045,2041,2049,2052,1197
1521,1713841919381406528,2058,2056,2059,2064,2088,2056,1193
1522,1713841919391462069,2051,2049,2058,2057,2053,2052,1196
1523,1713841919401458797,2060,2048,2036,2072,2062,2055,1197
1524,1713841919411453411,2050,2048,2039,2042,2057,2052,1197
1525,1713841919421450581,2059,2064,2098,2043,2042,2055,1196
1526,1713841919431456146,2051,2050,2043,2052,2053,2050,1197
1527,1713841919441459957,2059,2056,2054,2060,2085,2056,1196
1528,1713841919451451306,2053,2050,2077,2059,2060,2054,1196
1529,1713841919461455178,2056,2056,2055,2058,2030,2050,1197
1530,1713841919471451665,2050,2054,2052,2048,2057,2054,1196
1531,1713841919481457250,2051,2048,2052,2069,2053,2057,1198
1532,1713841919491460241,2054,2057,2066,2041,2040,2054,1197
1533,1713841919501445588,2057,2053,2055,2052,2032,2054,1198
1534,1713841919511453778,2057,2056,2052,2054,2054,2052,1197
1535,1713841919521448672,2053,2049,2048,2058,2051,2052,1198
1536,1713841919531457313,2057,2060,2065,2058,2053,2050,1197
1537,1713841919541460664,2056,2051,2052,2026,2044,2051,1198
1538,1713841919551458815,2058,2054,2049,2054,2046,2049,1197
1539,1713841919561454091,2056,2056,2050,2048,2037,2053,1197
1540,1713841919571455037,2053,2056,2052,2056,2053,2052,1196
1541,1713841919581455753,2056,2051,2053,2059,2044,2054,1196
1542,1713841919591458933,2057,2067,2044,2056,2054,2053,1195
1543,1713841919601455301,2061,2053,2050,2061,2052,2053,1195
1544,1713841919611457310,2052,2053,2049,2054,2056,2052,1196
1545,1713841919621457144,2062,2058,2056,2052,2047,2053,1195
1546,1713841919631463450,2059,2052,2052,2052,2057,2051,1198
1547,1713841919641463616,2056,2050,2053,2060,2050,2052,1197
1548,1713841919651471224,2053,2052,2068,2047,2058,2056,1197
1549,1713841919661455629,2053,2056,2045,2046,2046,2053,1197
1550,1713841919671458489,2056,2054,2057,2064,2061,2056,1199
1551,1713841919681412266,2058,2056,2067,2044,2044,2052,1197
1552,1713841919691457176,2053,2056,2084,2038,2057,2053,1197
1553,1713841919701461038,2050,2023,1973,2052,2049,2054,1197
1554,1713841919711465511,2054,2041,2012,2052,2060,2056,1197
1555,1713841919721461588,2057,2050,2042,2054,2048,2051,1196
1556,1713841919731465139,2059,2061,2058,2051,2051,2054,1197
1557,1713841919741465033,2058,2055,2057,2049,2040,2057,1197
1558,1713841919751473374,2052,2052,2055,2026,2054,2051,1198
1559,1713841919761449172,2056,2057,2052,2066,2047,2054,1198
1560,1713841919771447864,2055,2057,2060,2053,2059,2054,1196
1561,1713841919781448991,2058,2045,2052,2043,2047,2050,1195
1562,1713841919791444867,2053,2045,2050,2027,2056,2053,1197
1563,1713841919801450302,2058,2052,2053,2046,2033,2049,1198
1564,1713841919811449826,2055,2053,2050,2047,2059,2051,1197
1565,1713841919821462776,2056,2053,2055,2033,2052,2053,1197
1566,1713841919831471757,2053,2051,2046,2044,2056,2051,1198
1567,1713841919841471771,2056,2051,2025,2052,2041,2055,1197
1568,1713841919851464663,2054,2049,2056,2042,2047,2053,1198
1569,1713841919861451212,2055,2064,2052,2046,2037,2054,1196
1570,1713841919871449423,2056,2056,2057,2053,2049,2050,1195
1571,1713841919881448495,2056,2048,2052,2058,2053,2055,1198
1572,1713841919891449933,2054,2054,2052,2011,2048,2054,1198
1573,1713841919901447212,2057,2047,2033,2037,2048,2056,1196
1574,1713841919911448539,2062,2090,2145,2048,2060,2053,1198
1575,1713841919921448273,2056,2054,2052,2047,2042,2054,1196
1576,1713841919931450001,2056,2068,2054,2058,2075,2056,1197
1577,1713841919941461889,2053,2051,2058,2059,2047,2054,1194
1578,1713841919951458567,2052,2058,2054,2012,2050,2046,1195
1579,1713841919961449474,2064,2078,2106,2076,2056,2058,1197
1580,1713841919971455630,2050,2049,2052,2034,2069,2052,1196
1581,1713841919981537580,2053,2050,2058,2076,2047,2054,1196
1582,1713841919991456470,2051,2048,2048,2054,2060,2055,1195
1583,1713841920001456295,2057,2052,2060,2054,2040,2050,1194
1584,1713841920011455167,2056,2054,2054,2046,2061,2052,1196
1585,1713841920021455873,2057,2056,2054,2058,2049,2057,1194
1586,1713841920031471116,2056,2056,2049,2069,2055,2052,1196
1587,1713841920041455031,2058,2056,2049,2068,2050,2056,1196
1588,1713841920051457910,2058,2059,2058,2030,2061,2054,1199
1589,1713841920061451843,2053,2049,2050,2077,2051,2054,1197
1590,1713841920071456126,2059,2073,2093,2066,2061,2056,1198
1591,1713841920081458505,2055,2047,2061,2062,2047,2052,1200
1592,1713841920091451166,2054,2058,2054,2039,2068,2057,1198
1593,1713841920101467411,2054,2049,2048,2048,2053,2052,1197
1594,1713841920111454561,2056,2061,2067,2060,2059,2054,1197
1595,1713841920121453344,2057,2057,2057,2062,2052,2056,1198
1596,1713841920131455402,2052,2056,2062,2063,2056,2057,1198
1597,1713841920141460456,2056,2051,2047,2042,2041,2053,1197
1598,1713841920151447395,2056,2066,2064,2077,2058,2052,1195
1599,1713841920161463961,2055,2049,2037,2058,2046,2053,1196
1600,1713841920171461431,2056,2062,2050,2012,2059,2050,1195
1601,1713841920181471485,2057,2061,2061,2058,2054,2057,1195
1602,1713841920191464366,2052,2059,2058,2068,2060,2055,1199
1603,1713841920201459040,2057,2052,2054,2060,2042,2053,1197
1604,1713841920211453294,2058,2073,2049,2036,2034,2052,1197
1605,1713841920221453339,2064,2053,2052,2067,2034,2048,1198
1606,1713841920231483631,2055,2053,2057,2060,2059,2058,1197
1607,1713841920241432498,2057,2048,2055,2049,2048,2051,1196
1608,1713841920251460266,2053,2054,2053,1996,2051,2056,1196
1609,1713841920261457716,2057,2052,2056,2062,2049,2053,1197
1610,1713841920271453802,2056,2057,2062,2060,2059,2048,1197
1611,1713841920281477732,2053,2045,2056,2070,2053,2051,1199
1612,1713841920291455294,2057,2051,2056,2024,2042,2052,1198
1613,1713841920301449948,2057,2053,2064,2080,2060,2054,1196
1614,1713841920311455684,2051,2054,2061,2088,2066,2053,1198
1615,1713841920321453033,2056,2053,2060,2069,2054,2054,1193
1616,1713841920331455633,2053,2056,2044,2076,2077,2057,1197
1617,1713841920341456098,2058,2058,2091,2072,2045,2060,1198
1618,1713841920351452446,2053,2053,2036,2048,2059,2051,1195
1619,1713841920361454344,2058,2056,2058,2062,2032,2050,1196
1620,1713841920371452996,2054,2048,2058,2050,2058,2056,1193
1621,1713841920381484270,2057,2053,2042,2037,2045,2052,1193
1622,1713841920391455470,2054,2055,2069,2055,2056,2049,1195
1623,1713841920401471295,2061,2052,2058,2064,2052,2057,1197
1624,1713841920411463655,2052,2059,2051,2033,2059,2052,1197
1625,1713841920421456305,2056,2050,2070,2066,2044,2049,1196
1626,1713841920431455909,2052,2056,2059,2050,2049,2053,1197
1627,1713841920441457377,2056,2053,2057,2082,2090,2059,1196
1628,1713841920451450136,2051,2056,2057,2074,2064,2050,1195
1629,1713841920461451734,2056,2060,2042,2056,2050,2054,1198
1630,1713841920471451969,2051,2052,2054,2051,2057,2053,1195
1631,1713841920481459738,2059,2052,2056,2077,2061,2054,1198
1632,1713841920491452409,2050,2049,2040,2022,2043,2052,1197
1633,1713841920501454247,2056,2055,2036,2074,2059,2058,1197
1634,1713841920511450475,2053,2051,2045,2099,2070,2053,1199
1635,1713841920521453745,2056,2047,2046,2026,2051,2054,1197
1636,1713841920531450734,2056,2049,2056,2049,2061,2052,1197
1637,1713841920541453294,2059,2053,2053,2067,2048,2055,1197
1638,1713841920551453979,2055,2056,2054,2048,2070,2055,1197
1639,1713841920561450838,2054,2052,2052,2043,2038,2052,1197
1640,1713841920571456614,2059,2066,2044,2059,2045,2056,1196
1641,1713841920581510832,2053,2046,2046,2071,2057,2054,1195
1642,1713841920591451974,2053,2065,2079,2047,2070,2056,1197
1643,1713841920601459523,2055,2056,2053,2064,2048,2060,1198
1644,1713841920611437835,2056,2057,2053,2052,2072,2056,1197
1645,1713841920621447077,2052,2051,2068,2061,2052,2055,1196
1646,1713841920631452052,2056,2058,2060,2052,2060,2051,1196
1647,1713841920641452067,2057,2050,2052,2073,2054,2056,1195
1648,1713841920651455958,2059,2086,2096,2083,2066,2057,1197
1649,1713841920661452506,2060,2065,2056,2064,2066,2053,1197
1650,1713841920671497857,2053,2047,2054,2047,2075,2056,1199
1651,1713841920681454730,2052,2051,2052,2064,2032,2056,1198
1652,1713841920691498859,2052,2056,2055,2078,2048,2060,1196
1653,1713841920701425673,2057,2050,2052,2069,2054,2056,1197
1654,1713841920711457368,2054,2052,2048,2028,2044,2048,1196
1655,1713841920721452975,2058,2060,2060,2059,2050,2053,1196
1656,1713841920731451296,2058,2051,2050,2038,2057,2054,1197
1657,1713841920741451400,2056,2055,2052,2028,2037,2054,1197
1658,1713841920751450403,2057,2058,2057,2065,2053,2053,1197
1659,1713841920761450688,2053,2040,2056,2061,2047,2054,1197
1660,1713841920771453658,2058,2054,2057,2064,2056,2053,1195
1661,1713841920781501875,2055,2051,2045,2038,2043,2053,1197
1662,1713841920791451844,2054,2054,2053,2065,2056,2052,1196
1663,1713841920801420288,2052,2052,2049,2061,2050,2052,1198
1664,1713841920811452053,2053,2056,2049,2053,2055,2052,1195
1665,1713841920821490361,2060,2073,2066,2082,2064,2053,1198
1666,1713841920831451882,2056,2056,2045,2065,2056,2051,1197
1667,1713841920841491432,2057,2053,2053,2086,2066,2056,1197
1668,1713841920851450238,2058,2060,2060,2037,2053,2052,1196
1669,1713841920861490099,2056,2050,2047,2015,2045,2053,1196
1670,1713841920871490324,2056,2053,2041,2052,2056,2053,1196
1671,1713841920881487964,2058,2056,2047,2057,2048,2052,1195
1672,1713841920891488419,2052,2060,2060,2054,2060,2052,1199
1673,1713841920901442737,2056,2053,2059,2059,2045,2055,1198
1674,1713841920911489450,2050,2042,2072,2052,2052,2053,1196
1675,1713841920921489605,2059,2066,2083,2070,2049,2053,1198
1676,1713841920931490000,2050,2050,2052,2092,2056,2053,1198
1677,1713841920941490105,2054,2053,2047,2065,2066,2053,1195
1678,1713841920951493345,2053,2056,2064,2032,2032,2047,1193
1679,1713841920961493010,2054,2049,2056,2044,2049,2056,1199
1680,1713841920971494116,2052,2057,2060,2053,2057,2056,1195
1681,1713841920981421241,2053,2052,2052,2060,2047,2056,1197
1682,1713841920991492402,2056,2054,2061,2052,2054,2052,1196
1683,1713841921001500993,2057,2057,2053,2053,2049,2053,1197
1684,1713841921011492622,2060,2053,2049,2049,2058,2057,1198
1685,1713841921021499780,2057,2060,2077,2074,2056,2056,1198
1686,1713841921031499063,2053,2053,2052,2069,2057,2055,1195
1687,1713841921041495631,2056,2052,2038,2061,2054,2054,1196
1688,1713841921051494212,2053,2057,2055,2084,2092,2052,1197
1689,1713841921061427219,2056,2048,2040,2044,2045,2053,1198
1690,1713841921071484793,2052,2049,2049,2036,2056,2048,1198
1691,1713841921081482093,2061,2058,2059,2079,2059,2055,1198
1692,1713841921091483931,2053,2053,2053,2050,2069,2056,1195
1693,1713841921101481461,2056,2065,2051,2031,2045,2049,1198
1694,1713841921111482056,2055,2055,2054,2049,2041,2049,1196
1695,1713841921121482812,2052,2040,2044,2050,2043,2052,1197
1696,1713841921131482777,2056,2047,2047,2068,2080,2059,1198
1697,1713841921141493973,2058,2053,2060,2038,2043,2056,1197
1698,1713841921151482085,2052,2054,2050,2049,2066,2055,1197
1699,1713841921161479835,2057,2051,2048,1987,2040,2051,1197
1700,1713841921171481442,2056,2054,2056,2045,2039,2048,1196
1701,1713841921181479072,2058,2052,2052,2044,2035,2053,1194
1702,1713841921191494827,2056,2060,2081,2053,2062,2052,1198
1703,1713841921201476477,2058,2050,2055,2048,2048,2051,1200
1704,1713841921211479066,2053,2053,2058,2058,2059,2053,1198
1705,1713841921221476064,2055,2052,2052,2066,2052,2060,1196
1706,1713841921231482521,2057,2060,2057,2057,2053,2053,1198
1707,1713841921241476785,2057,2051,2056,2069,2055,2054,1195
1708,1713841921251480256,2052,2056,2064,2046,2053,2056,1195
1709,1713841921261477125,2055,2056,2046,2056,2053,2053,1196
1710,1713841921271475516,2049,2050,2042,2037,2049,2052,1198
1711,1713841921281474248,2055,2048,2047,2067,2048,2051,1198
1712,1713841921291476938,2059,2071,2094,2053,2062,2053,1198
1713,1713841921301473676,2059,2050,2037,2047,2047,2054,1198
1714,1713841921311517073,2052,2056,2053,2068,2053,2053,1198
1715,1713841921321512128,2056,2053,2056,2075,2049,2054,1201
1716,1713841921331476886,2054,2051,2052,2048,2051,2051,1196
1717,1713841921341473634,2061,2055,2053,2052,2054,2056,1196
1718,1713841921351472316,2056,2053,2045,2040,2058,2052,1198
1719,1713841921361471419,2056,2057,2052,2056,2047,2053,1196
1720,1713841921371468849,2058,2059,2065,2052,2061,2052,1194
1721,1713841921381465106,2057,2051,2044,2065,2069,2052,1196
1722,1713841921391531377,2053,2054,2063,2050,2057,2052,1197
1723,1713841921401466758,2055,2047,2049,2045,2046,2052,1197
1724,1713841921411468726,2058,2060,2055,2061,2074,2053,1197
1725,1713841921421471536,2057,2052,2065,2064,2047,2054,1197
1726,1713841921431470429,2053,2056,2054,2056,2078,2056,1196
1727,1713841921441472367,2053,2044,2031,2060,2052,2050,1197
1728,1713841921451469676,2054,2057,2059,2049,2035,2055,1198
1729,1713841921461464611,2061,2051,2052,2061,2046,2057,1196
1730,1713841921471469505,2056,2056,2050,2032,2052,2052,1196
1731,1713841921481467546,2062,2065,2061,2072,2053,2056,1198
1732,1713841921491465747,2051,2052,2056,2053,2065,2052,1198
1733,1713841921501463597,2064,2059,2037,2047,2051,2050,1200
1734,1713841921511465375,2053,2056,2056,2060,2057,2052,1198
1735,1713841921521464608,2056,2056,2053,2050,2045,2054,1195
1736,1713841921531467959,2056,2055,2061,2083,2048,2053,1198
1737,1713841921541472773,2053,2052,2056,2064,2052,2054,1195
1738,1713841921551465744,2057,2056,2060,2061,2062,2055,1197
1739,1713841921561473293,2053,2053,2047,2060,2049,2053,1198
1740,1713841921571471203,2061,2076,2107,2058,2059,2055,1196
1741,1713841921581468894,2053,2046,2060,2068,2051,2055,1196
1742,1713841921591461745,2056,2056,2056,2066,2057,2054,1195
1743,1713841921601468061,2051,2048,2052,2047,2046,2054,1195
1744,1713841921611470270,2052,2059,2059,2068,2059,2056,1197
1745,1713841921621472839,2056,2051,2049,2070,2044,2054,1197
1746,1713841921631464998,2056,2066,2065,2049,2060,2056,1196
1747,1713841921641463591,2056,2051,2052,2060,2047,2052,1197
1748,1713841921651462863,2051,2052,2046,2065,2060,2053,1198
1749,1713841921661465643,2056,2050,2050,2072,2053,2054,1197
1750,1713841921671465989,2052,2058,2062,2056,2062,2052,1198
1751,1713841921681464981,2054,2047,2040,2057,2051,2054,1200
1752,1713841921691465437,2056,2073,2159,2059,2061,2053,1199
1753,1713841921701463197,2050,2031,2001,2046,2049,2052,1198
1754,1713841921711469253,2065,2091,2086,2064,2064,2062,1197
1755,1713841921721466072,2054,2044,2046,2028,2047,2056,1197
1756,1713841921731465776,2054,2055,2038,2048,2056,2053,1193
1757,1713841921741471360,2056,2052,2049,2056,2049,2053,1197
1758,1713841921751464101,2058,2057,2060,2049,2064,2052,1196
1759,1713841921761463294,2056,2053,2049,2059,2048,2056,1198
1760,1713841921771460683,2056,2056,2056,2066,2058,2054,1194
1761,1713841921781460288,2054,2046,2029,2057,2050,2054,1198
1762,1713841921791470341,2051,2041,2017,2000,2054,2051,1198
1763,1713841921801461208,2058,2047,2044,2065,2053,2053,1197
1764,1713841921811471472,2058,2059,2061,2056,2064,2052,1196
1765,1713841921821463051,2051,2042,2020,2060,2052,2054,1195
1766,1713841921831465119,2059,2084,2112,2064,2058,2058,1196
1767,1713841921841475453,2052,2042,2046,2033,2037,2052,1196
1768,1713841921851464507,2053,2050,2052,2040,2049,2052,1196
1769,1713841921861465523,2055,2046,2042,2057,2049,2054,1197
1770,1713841921871468233,2052,2048,2042,2052,2059,2057,1197
1771,1713841921881462878,2057,2070,2070,2061,2047,2054,1200
1772,1713841921891463122,2057,2050,2045,2052,2056,2056,1196
1773,1713841921901461644,2058,2052,2053,2077,2049,2053,1197
1774,1713841921911465145,2056,2052,2056,2052,2061,2056,1198
1775,1713841921921464880,2055,2049,2086,2059,2049,2053,1197
1776,1713841921931470244,2057,2070,2052,2061,2060,2056,1198
1777,1713841921941462103,2052,2052,2054,2064,2052,2056,1196
1778,1713841921951460425,2053,2056,2053,2058,2057,2053,1197
1779,1713841921961461430,2058,2056,2056,2074,2054,2056,1195
1780,1713841921971463188,2057,2052,2057,2024,2061,2053,1196
1781,1713841921981459727,2056,2053,2056,2064,2047,2056,1197
1782,1713841921991465021,2056,2058,2082,2054,2062,2054,1196
1783,1713841922001460507,2066,2080,2133,2069,2053,2056,1197
1784,1713841922011469278,2056,2052,2050,2048,2056,2053,1197
1785,1713841922021466778,2056,2050,2050,2053,2046,2052,1195
1786,1713841922031464939,2064,2066,2050,2058,2060,2057,1196
1787,1713841922041464994,2058,2054,2052,2072,2049,2051,1199
1788,1713841922051466441,2058,2060,2061,2058,2058,2056,1197
1789,1713841922061465463,2056,2041,2024,2056,2047,2054,1199
1790,1713841922071471018,2052,2042,2025,2056,2058,2053,1198
1791,1713841922081469981,2062,2072,2107,2065,2054,2056,1200
1792,1713841922091468443,2056,2052,2050,2041,2057,2055,1198
1793,1713841922101468798,2056,2053,2044,2068,2046,2052,1198
1794,1713841922111470937,2060,2080,2133,2053,2062,2056,1197
1795,1713841922121474839,2058,2052,2050,2050,2040,2051,1198
1796,1713841922131475535,2054,2056,2045,2047,2056,2053,1197
1797,1713841922141468886,2054,2064,2061,2066,2052,2054,1198
1798,1713841922151467788,2053,2056,2049,1976,2047,2050,1195
1799,1713841922161471229,2060,2061,2078,2064,2048,2054,1198
1800,1713841922171470893,2056,2074,2104,2040,2057,2053,1195
1801,1713841922181470778,2053,2043,2041,2051,2054,2053,1197
1802,1713841922191472766,2053,2052,2050,2065,2047,2052,1196
1803,1713841922201470416,2053,2050,2044,2061,2049,2054,1197
1804,1713841922211473276,2053,2057,2053,2039,2052,2056,1197
1805,1713841922221472660,2056,2051,2056,2072,2057,2057,1195
1806,1713841922231516738,2056,2052,2042,2052,2059,2056,1195
1807,1713841922241515951,2054,2053,2045,2072,2050,2056,1197
1808,1713841922251433257,2048,2051,2056,2053,2058,2054,1197
1809,1713841922261518184,2056,2053,2036,2061,2052,2056,1196
1810,1713841922271521956,2056,2058,2070,2054,2060,2056,1196
1811,1713841922281461345,2056,2065,2114,2059,2047,2053,1200
1812,1713841922291519581,2057,2057,2075,2060,2060,2053,1198
1813,1713841922301462566,2058,2064,2091,2065,2053,2054,1197
1814,1713841922311464484,2048,2042,2035,2057,2057,2051,1197
1815,1713841922321464970,2057,2054,2068,2064,2050,2056,1198
1816,1713841922331453873,2056,2061,2053,2056,2058,2052,1197
1817,1713841922341521407,2052,2042,2049,2034,2045,2056,1198
1818,1713841922351460174,2059,2059,2072,2065,2064,2056,1197
1819,1713841922361464006,2055,2061,2070,2066,2053,2056,1198
1820,1713841922371464712,2056,2049,2044,2065,2059,2050,1195
1821,1713841922381461490,2061,2068,2051,2062,2052,2057,1194
1822,1713841922391463579,2060,2061,2060,1992,2055,2052,1196
1823,1713841922401463363,2054,2051,2048,2052,2044,2049,1198
1824,1713841922411465371,2056,2052,2056,2037,2057,2050,1196
1825,1713841922421496375,2057,2053,2053,2069,2053,2054,1199
1826,1713841922431460310,2052,2056,2050,2056,2058,2054,1197
1827,1713841922441490282,2056,2059,2067,2065,2053,2053,1196
1828,1713841922451462754,2057,2062,2058,2037,2060,2052,1197
1829,1713841922461496753,2055,2057,2078,2060,2047,2053,1197
1830,1713841922471493512,2056,2051,2053,2032,2052,2054,1197
1831,1713841922481460934,2053,2050,2057,2064,2047,2052,1197
1832,1713841922491494122,2058,2069,2095,2059,2060,2059,1195
1833,1713841922501459671,2055,2054,2071,2032,2050,2056,1196
1834,1713841922511494963,2058,2053,2048,2053,2057,2053,1197
1835,1713841922521490338,2053,2053,2048,2055,2049,2054,1197
1836,1713841922531491264,2057,2064,2064,2067,2057,2054,1195
1837,1713841922541489927,2056,2047,2037,2042,2044,2050,1196
1838,1713841922551489520,2058,2057,2052,2062,2060,2056,1196
1839,1713841922561489464,2056,2051,2047,2059,2051,2056,1197
1840,1713841922571490661,2056,2054,2037,2057,2058,2054,1195
1841,1713841922581487590,2053,2048,2053,2061,2050,2055,1195
1842,1713841922591488717,2056,2053,2056,2056,2057,2053,1194
1843,1713841922601486537,2053,2051,2052,2058,2051,2056,1196
1844,1713841922611487673,2054,2058,2050,2052,2056,2052,1197
1845,1713841922621487127,2060,2054,2054,2059,2045,2052,1194
1846,1713841922631486330,2052,2053,2052,2054,2055,2053,1195
1847,1713841922641486325,2056,2052,2058,2057,2049,2053,1196
1848,1713841922651484526,2052,2061,2063,2049,2059,2053,1194
1849,1713841922661485502,2059,2053,2053,2057,2052,2055,1195
1850,1713841922671488152,2051,2047,2040,2051,2056,2050,1196
1851,1713841922681489269,2061,2058,2070,2058,2053,2053,1199
1852,1713841922691484825,2055,2049,2041,2014,2056,2054,1196
1853,1713841922701480080,2052,2047,2066,2064,2049,2053,1197
1854,1713841922711490494,2047,2044,2024,2057,2056,2052,1197
1855,1713841922721487222,2057,2058,2088,2060,2048,2058,1197
1856,1713841922731481626,2057,2059,2049,2060,2059,2053,1193
1857,1713841922741481841,2056,2052,2042,2059,2051,2054,1197
1858,1713841922751480213,2055,2052,2055,2058,2052,2053,1196
1859,1713841922761480998,2056,2054,2061,2073,2052,2053,1193
1860,1713841922771483057,2057,2055,2058,2049,2053,2052,1194
1861,1713841922781479445,2056,2045,2046,2054,2050,2054,1195
1862,1713841922791480181,2058,2059,2066,2044,2058,2054,1195
1863,1713841922801481958,2058,2054,2043,2059,2049,2053,1194
1864,1713841922811478226,2056,2053,2057,2056,2056,2053,1195
1865,1713841922821478080,2056,2054,2052,2061,2051,2054,1198
1866,1713841922831478856,2053,2052,2045,2050,2060,2052,1195
1867,1713841922841477097,2056,2053,2057,2057,2048,2053,1197
1868,1713841922851476020,2051,2047,2042,2039,2057,2053,1197
1869,1713841922861478008,2056,2059,2080,2089,2056,2056,1195
1870,1713841922871447414,2053,2048,2044,2045,2054,2053,1197
1871,1713841922881474511,2056,2060,2064,2064,2052,2052,1197
1872,1713841922891475065,2054,2052,2045,2049,2058,2054,1197
1873,1713841922901473607,2055,2057,2074,2061,2053,2053,1196
1874,1713841922911474183,2056,2054,2056,2056,2060,2056,1197
1875,1713841922921448158,2058,2057,2077,2070,2056,2054,1196
1876,1713841922931485293,2052,2046,2025,2070,2056,2055,1197
1877,1713841922941476391,2053,2044,2033,2068,2050,2052,1195
1878,1713841922951473370,2056,2053,2049,2045,2053,2051,1196
1879,1713841922961475638,2054,2055,2056,2052,2050,2053,1196
1880,1713841922971474050,2053,2057,2076,2056,2057,2053,1194
1881,1713841922981471068,2056,2045,2041,2076,2045,2051,1195
1882,1713841922991473167,2053,2056,2077,2075,2061,2054,1196
1883,1713841923001469655,2052,2047,2051,2057,2050,2056,1194
1884,1713841923011472886,2056,2055,2068,2064,2062,2056,1197
1885,1713841923021469664,2058,2053,2060,2066,2049,2053,1196
1886,1713841923031476762,2056,2052,2047,2060,2056,2054,1195
1887,1713841923041468952,2060,2056,2056,2053,2050,2053,1196
1888,1713841923051468345,2050,2049,2037,2052,2057,2053,1193
1889,1713841923061471465,2055,2052,2051,2048,2047,2052,1195
1890,1713841923071469526,2058,2066,2135,2068,2057,2054,1197
1891,1713841923081478848,2058,2052,2051,2061,2052,2053,1199
1892,1713841923091467070,2052,2056,2064,2054,2057,2052,1198
1893,1713841923101459360,2059,2062,2099,2065,2050,2052,1197
1894,1713841923111464214,2052,2050,2052,2068,2060,2053,1196
1895,1713841923121464549,2055,2053,2064,2060,2052,2052,1197
1896,1713841923131466156,2053,2049,2028,1997,2053,2052,1197
1897,1713841923141464217,2056,2056,2056,2058,2048,2056,1196
1898,1713841923151463891,2051,2053,2052,2064,2056,2051,1196
1899,1713841923161461121,2056,2054,2053,2056,2054,2052,1198
1900,1713841923171461025,2056,2054,2060,2060,2056,2051,1194
1901,1713841923181471890,2056,2050,2057,2074,2047,2054,1196
1902,1713841923191458239,2054,2055,2064,2072,2056,2055,1195
1903,1713841923201458113,2053,2052,2042,2058,2050,2053,1196
1904,1713841923211463247,2052,2056,2053,2052,2058,2052,1197
1905,1713841923221463933,2060,2057,2083,2066,2051,2055,1194
1906,1713841923231460200,2051,2044,2017,2056,2056,2056,1197
1907,1713841923241460655,2056,2048,2044,2069,2049,2051,1195
1908,1713841923251458847,2054,2039,2027,2041,2053,2054,1196
1909,1713841923261458861,2057,2064,2072,2072,2052,2054,1197
1910,1713841923271460278,2056,2051,2047,2069,2057,2053,1198
1911,1713841923281455454,2058,2051,2045,2056,2050,2053,1196
1912,1713841923291457291,2060,2056,2040,2051,2060,2056,1198
1913,1713841923301455562,2054,2052,2044,2054,2049,2055,1196
1914,1713841923311457561,2053,2053,2045,2067,2056,2053,1197
1915,1713841923321456504,2052,2049,2040,2073,2050,2054,1197
1916,1713841923331453713,2052,2052,2047,2075,2058,2054,1199
1917,1713841923341456893,2056,2050,2044,2056,2081,2056,1197
1918,1713841923351455265,2058,2072,2079,2037,2057,2053,1195
1919,1713841923361454337,2056,2052,2052,2042,2045,2054,1198
1920,1713841923371455414,2055,2060,2064,2056,2058,2052,1196
1921,1713841923381450489,2057,2052,2053,2028,2047,2052,1196
1922,1713841923391453449,2055,2053,2059,2074,2060,2053,1196
1923,1713841923401450949,2054,2054,2046,2034,2048,2053,1196
1924,1713841923411451084,2058,2060,2047,2060,2059,2056,1194
1925,1713841923421451529,2059,2056,2058,2070,2047,2056,1197
1926,1713841923431454920,2053,2056,2056,2049,2053,2052,1196
1927,1713841923441459032,2054,2053,2053,2065,2061,2056,1197
1928,1713841923451455710,2056,2056,2059,2064,2055,2054,1197
1929,1713841923461494759,2057,2051,2051,2005,2044,2054,1195
1930,1713841923471495686,2053,2053,2070,2056,2052,2054,1197
1931,1713841923481456636,2056,2054,2042,2057,2052,2053,1198
1932,1713841923491454847,2060,2065,2059,2061,2048,2056,1197
1933,1713841923501458017,2055,2050,2045,2068,2048,2053,1195
1934,1713841923511458282,2052,2052,2070,2067,2061,2056,1197
1935,1713841923521459368,2056,2061,2102,2064,2052,2058,1197
1936,1713841923531458892,2058,2065,2072,2040,2050,2052,1195
1937,1713841923541460580,2053,2051,2049,2049,2052,2056,1196
1938,1713841923551461857,2060,2059,2069,2056,2058,2052,1194
1939,1713841923561461721,2056,2049,2060,2000,2049,2053,1197
1940,1713841923571484660,2058,2068,2084,2060,2066,2056,1195
1941,1713841923581463885,2058,2051,2053,2057,2047,2053,1197
1942,1713841923591489087,2053,2052,2050,2029,2052,2052,1195
1943,1713841923601485815,2056,2055,2067,2041,2029,2053,1198
1944,1713841923611488495,2049,2047,2032,2035,2052,2056,1197
1945,1713841923621462429,2056,2049,2043,2064,2045,2048,1196
1946,1713841923631467293,2051,2051,2064,2037,2045,2052,1197
1947,1713841923641466647,2054,2053,2036,2067,2058,2056,1195
1948,1713841923651448206,2052,2045,2024,2058,2058,2053,1197
1949,1713841923661466605,2063,2062,2046,2025,2060,2054,1197
1950,1713841923671465387,2052,2050,2040,1999,2064,2052,1196
1951,1713841923681447888,2054,2051,2058,2061,2046,2052,1199
1952,1713841923691466889,2049,2045,2024,2040,2047,2052,1198
1953,1713841923701449701,2060,2060,2058,2070,2065,2058,1197
1954,1713841923711469904,2052,2052,2056,2044,2047,2049,1198
1955,1713841923721477964,2057,2053,2076,2060,2035,2056,1197
1956,1713841923731476636,2054,2047,2033,2058,2056,2053,1196
1957,1713841923741476591,2055,2055,2050,2076,2068,2060,1195
1958,1713841923751476354,2053,2053,2054,2061,2068,2059,1198
1959,1713841923761450059,2055,2047,2056,2057,2049,2053,1198
1960,1713841923771474340,2066,2086,2145,2064,2052,2047,1192
1961,1713841923781471008,2055,2047,2028,2066,2046,2051,1195
1962,1713841923791450944,2056,2051,2053,2046,2055,2055,1195
1963,1713841923801450318,2057,2053,2047,2029,2046,2055,1197
1964,1713841923811474538,2056,2056,2056,2058,2055,2050,1196
1965,1713841923821452651,2056,2055,2053,2066,2049,2053,1195
1966,1713841923831451954,2055,2054,2047,2050,2048,2052,1195
1967,1713841923841459252,2057,2053,2048,2050,2072,2050,1196
1968,1713841923851477311,2054,2052,2042,2053,2054,2050,1196
1969,1713841923861455544,2060,2057,2068,2058,2050,2056,1197
1970,1713841923871454617,2056,2056,2062,2063,2054,2054,1197
1971,1713841923881452257,2052,2044,2036,1990,2044,2051,1199
1972,1713841923891475997,2059,2057,2076,2056,2058,2054,1196
1973,1713841923901458728,2056,2052,2053,2060,2051,2052,1194
1974,1713841923911455506,2052,2056,2049,2055,2061,2053,1197
1975,1713841923921453598,2056,2053,2053,2101,2102,2061,1195
1976,1713841923931478219,2056,2056,2064,2056,2066,2056,1195
1977,1713841923941477632,2056,2052,2048,2080,2062,2052,1195
1978,1713841923951458320,2052,2051,2046,2054,2076,2054,1197
1979,1713841923961478574,2054,2060,2059,2061,2051,2052,1195
1980,1713841923971479269,2053,2056,2073,2052,2058,2052,1198
1981,1713841923981453725,2064,2072,2098,2083,2056,2057,1196
1982,1713841923991456474,2053,2052,2043,2052,2054,2052,1197
1983,1713841924001454064,2056,2052,2053,2069,2066,2054,1194
1984,1713841924011456704,2054,2057,2062,2057,2056,2052,1196
1985,1713841924021427112,2056,2052,2058,2061,2054,2056,1196
1986,1713841924031484526,2058,2053,2049,2046,2049,2052,1196
1987,1713841924041457449,2060,2054,2052,2057,2052,2055,1196
1988,1713841924051455680,2053,2053,2061,2047,2058,2055,1196
1989,1713841924061458058,2053,2043,2037,2057,2052,2056,1196
1990,1713841924071450699,2053,2040,2061,2054,2042,2052,1197
1991,1713841924081450674,2062,2045,2036,2061,2040,2057,1200
1992,1713841924091453223,2054,2064,2056,2053,2070,2061,1196
1993,1713841924101460381,2056,2052,2058,2064,2057,2060,1196
1994,1713841924111454975,2053,2047,2037,2058,2072,2054,1197
1995,1713841924121466331,2065,2080,2107,2064,2060,2060,1197
1996,1713841924131449844,2050,2044,2036,2047,2052,2052,1195
1997,1713841924141456352,2061,2063,2067,2064,2032,2052,1197
1998,1713841924151451437,2056,2051,2060,2047,2064,2055,1197
1999,1713841924161450569,2056,2055,2066,2056,2046,2051,1197
2000,1713841924171454411,2053,2053,2058,2060,2056,2055,1193
2001,1713841924181461579,2057,2052,2053,2056,2049,2052,1195
2002,1713841924191454390,2056,2065,2070,2061,2060,2056,1196
2003,1713841924201452952,2057,2051,2033,2040,2041,2056,1197
2004,1713841924211452285,2056,2058,2062,2033,2047,2045,1192
2005,1713841924221455435,2060,2052,2053,2060,2046,2052,1195
2006,1713841924231453406,2050,2052,2048,2050,2059,2054,1196
2007,1713841924241454803,2057,2047,2042,2052,2054,2056,1195
2008,1713841924251457052,2053,2060,2075,2057,2065,2051,1197
2009,1713841924261453540,2055,2048,2040,2059,2052,2054,1195
2010,1713841924271455298,2052,2052,2040,2024,2056,2052,1197
2011,1713841924281457266,2055,2056,2089,2077,2069,2056,1198
2012,1713841924291453052,2050,2049,2042,2036,2056,2052,1197
2013,1713841924301438539,2056,2058,2050,2072,2062,2060,1197
2014,1713841924311458261,2057,2057,2091,2074,2074,2057,1196
2015,1713841924321465780,2052,2047,2035,2044,2026,2051,1198
2016,1713841924331451457,2057,2057,2048,2045,2056,2052,1196
2017,1713841924341450930,2054,2050,2073,2069,2054,2056,1197
2018,1713841924351454953,2054,2057,2051,2061,2056,2052,1196
2019,1713841924361453585,2056,2062,2056,2053,2049,2053,1196
2020,1713841924371452136,2061,2053,2046,2054,2056,2051,1194
2021,1713841924381447993,2053,2058,2069,2062,2058,2053,1194
2022,1713841924391452025,2050,2050,2049,2040,2051,2050,1195
2023,1713841924401448713,2053,2049,2032,2057,2048,2053,1195
2024,1713841924411455861,2054,2057,2060,2068,2071,2053,1195
2025,1713841924421460064,2061,2063,2065,2068,2063,2056,1195
2026,1713841924431477682,2053,2048,2068,2062,2067,2056,1196
2027,1713841924441450264,2060,2058,2062,2061,2048,2054,1194
2028,1713841924451453675,2047,2036,2026,2019,2056,2052,1197
2029,1713841924461453489,2059,2065,2105,2072,2056,2056,1194
2030,1713841924471470065,2053,2053,2051,2052,2058,2052,1198
2031,1713841924481453899,2051,2058,2054,2060,2051,2053,1197
2032,1713841924491458703,2053,2056,2077,2056,2057,2052,1196
2033,1713841924501456974,2054,2048,2061,2061,2049,2052,1197
2034,1713841924511460986,2056,2047,2044,2056,2049,2052,1198
2035,1713841924521456021,2060,2054,2035,2078,2054,2054,1196
2036,1713841924531457258,2051,2036,2047,2054,2057,2052,1198
2037,1713841924541460138,2057,2044,2042,2052,2045,2054,1196
2038,1713841924551468378,2053,2055,2059,2059,2057,2054,1195
2039,1713841924561460237,2064,2076,2061,2057,2048,2056,1195
2040,1713841924571470891,2056,2052,2056,2031,2056,2052,1195
2041,1713841924581462069,2060,2060,2061,2061,2072,2056,1197
2042,1713841924591464128,2052,2068,2120,2025,2054,2051,1195
2043,1713841924601465004,2060,2072,2049,2064,2050,2054,1197
2044,1713841924611469437,2051,2052,2045,2057,2050,2051,1194
2045,1713841924621462458,2056,2052,2033,2057,2068,2060,1193
2046,1713841924631464326,2049,2049,2072,2064,2072,2056,1195
2047,1713841924641463859,2051,2048,2042,2056,2043,2054,1195
2048,1713841924651463303,2052,2050,2032,2041,2065,2056,1195
2049,1713841924661464440,2059,2049,2053,2068,2052,2056,1198
2050,1713841924671462941,2052,2052,2046,2058,2059,2056,1196
2051,1713841924681466663,2056,2070,2056,2060,2059,2057,1199
2052,1713841924691436359,2056,2054,2057,2043,2058,2053,1197
2053,1713841924701464076,2057,2052,2069,2008,2045,2050,1198
2054,1713841924711463270,2056,2053,2040,2061,2078,2056,1199
2055,1713841924721465889,2062,2064,2057,2054,2050,2056,1197
2056,1713841924731454642,2052,2056,2089,2057,2060,2047,1196
2057,1713841924741468673,2056,2048,2062,2062,2046,2057,1196
2058,1713841924751453780,2062,2068,2058,2058,2066,2053,1196
2059,1713841924761466147,2052,2053,2068,2064,2057,2053,1198
2060,1713841924771452746,2055,2052,2053,2050,2056,2056,1194
2061,1713841924781454685,2062,2059,2061,2078,2068,2056,1195
2062,1713841924791453186,2052,2056,2073,2062,2063,2052,1197
2063,1713841924801450145,2052,2042,2029,2066,2067,2056,1195
2064,1713841924811455650,2053,2056,2046,2053,2046,2048,1196
2065,1713841924821458551,2058,2048,2064,2070,2050,2053,1195
2066,1713841924831454336,2058,2047,2045,1991,2056,2050,1197
2067,1713841924841462927,2058,2058,2064,2057,2045,2056,1197
2068,1713841924851451510,2056,2055,2042,2046,2052,2052,1195
2069,1713841924861455001,2054,2052,2040,2061,2055,2056,1197
2070,1713841924871456118,2047,2051,2050,2025,2056,2051,1200
2071,1713841924881450632,2057,2058,2081,2072,2052,2056,1198
2072,1713841924891448782,2055,2061,2085,2016,2054,2052,1198
2073,1713841924901451853,2057,2058,2074,2058,2052,2055,1197
2074,1713841924911452599,2058,2062,2072,2060,2060,2060,1197
2075,1713841924921452333,2056,2052,2049,2051,2044,2053,1199
2076,1713841924931456185,2054,2053,2050,2067,2094,2057,1198
2077,1713841924941455869,2057,2052,2049,2045,2049,2057,1195
2078,1713841924951451695,2052,2051,2041,2056,2053,2052,1198
2079,1713841924961456319,2064,2068,2084,2068,2061,2056,1196
2080,1713841924971450562,2055,2064,2078,2056,2056,2056,1197
2081,1713841924981453151,2058,2052,2052,2061,2048,2055,1195
2082,1713841924991452194,2051,2052,2036,2046,2059,2055,1195
2083,1713841925001452069,2053,2047,2044,2060,2044,2057,1197
2084,1713841925011454448,2052,2056,2067,2048,2053,2053,1197
2085,1713841925021479860,2056,2060,2053,2060,2051,2052,1195
2086,1713841925031459566,2050,2044,2024,2050,2055,2053,1199
2087,1713841925041463237,2057,2047,2041,2055,2041,2052,1199
2088,1713841925051457721,2052,2052,2058,2045,2052,2053,1195
2089,1713841925061453648,2061,2057,2056,2037,2056,2050,1198
2090,1713841925071450096,2048,2041,2037,2054,2059,2052,1197
2091,1713841925081453016,2055,2050,2053,2073,2056,2060,1198
2092,1713841925091455325,2054,2054,2056,2060,2073,2052,1197
2093,1713841925101450870,2057,2058,2071,2053,2050,2056,1198
2094,1713841925111456456,2052,2054,2061,2065,2052,2054,1198
2095,1713841925121455890,2060,2053,2057,2056,2036,2052,1196
2096,1713841925131456555,2053,2060,2073,2049,2060,2056,1199
2097,1713841925141455678,2054,2035,2024,2055,2058,2053,1198
2098,1713841925151449420,2064,2068,2085,2056,2056,2052,1198
2099,1713841925161458983,2056,2051,2070,2056,2045,2054,1196
2100,1713841925171456162,2057,2069,2106,2050,2064,2055,1196
2101,1713841925181459373,2056,2051,2047,2074,2049,2064,1195
2102,1713841925191480307,2056,2051,2048,2064,2062,2056,1197
2103,1713841925201461696,2059,2058,2075,2056,2044,2053,1197
2104,1713841925211458294,2056,2058,2065,2045,2053,2051,1198
2105,1713841925221455763,2057,2056,2056,2070,2050,2054,1198
2106,1713841925231458253,2054,2052,2046,2064,2060,2053,1197
2107,1713841925241465862,2056,2051,2046,2054,2043,2051,1197
2108,1713841925251452060,2054,2052,2030,2052,2058,2053,1197
2109,1713841925261456844,2057,2053,2056,2055,2035,2054,1200
2110,1713841925271463340,2053,2060,2077,2052,2041,2048,1196
2111,1713841925281462994,2058,2049,2046,2045,2043,2056,1199
2112,1713841925291455074,2056,2056,2067,2055,2054,2050,1196
2113,1713841925301452053,2056,2055,2061,2006,2040,2052,1196
2114,1713841925311458278,2053,2056,2052,2061,2066,2059,1195
2115,1713841925321458995,2056,2052,2059,2052,2036,2055,1197
2116,1713841925331453549,2052,2044,2028,2056,2044,2051,1195
2117,1713841925341453613,2057,2053,2060,2062,2056,2060,1197
2118,1713841925351451474,2049,2053,2093,2053,2050,2053,1196
2119,1713841925361453752,2056,2064,2066,2035,2038,2052,1197
2120,1713841925371450180,2056,2052,2036,2029,2050,2057,1195
2121,1713841925381466546,2056,2043,2028,2056,2045,2052,1195
2122,1713841925391457753,2050,2052,2043,2057,2056,2051,1197
2123,1713841925401448420,2057,2052,2050,2076,2049,2057,1197
2124,1713841925411456640,2054,2059,2072,2060,2057,2054,1196
2125,1713841925421460321,2062,2052,2049,2040,2055,2056,1196
2126,1713841925431459765,2050,2053,2061,2054,2057,2052,1196
2127,1713841925441469989,2060,2053,2040,2061,2041,2054,1197
2128,1713841925451456458,2055,2058,2070,2072,2053,2052,1197
2129,1713841925461454488,2052,2050,2029,2063,2047,2053,1197
2130,1713841925471453431,2050,2050,2040,2053,2057,2050,1198
2131,1713841925481456290,2060,2056,2046,2092,2080,2056,1196
2132,1713841925491455694,2056,2064,2068,2034,2060,2054,1198
2133,1713841925501447493,2056,2050,2056,2104,2065,2059,1195
2134,1713841925511456765,2052,2052,2043,2049,2054,2051,1197
2135,1713841925521452101,2059,2061,2080,2059,2052,2058,1197
2136,1713841925531461663,2057,2064,2066,2059,2058,2044,1195
2137,1713841925541453512,2056,2056,2044,2049,2037,2055,1197
2138,1713841925551459007,2060,2056,2054,2041,2057,2052,1196
2139,1713841925561459262,2056,2047,2030,2058,2042,2052,1196
2140,1713841925571460189,2053,2048,2039,2037,2043,2052,1194
2141,1713841925581451376,2056,2051,2046,2068,2054,2053,1195
2142,1713841925591455889,2059,2059,2056,2065,2056,2052,1196
2143,1713841925601452887,2058,2051,2054,2068,2049,2047,1195
2144,1713841925611456770,2054,2056,2042,2036,2052,2053,1196
2145,1713841925621452106,2059,2065,2102,2066,2080,2057,1195
2146,1713841925631455026,2053,2057,2078,2060,2053,2054,1197
2147,1713841925641459368,2053,2050,2084,2053,2042,2052,1198
2148,1713841925651458110,2057,2053,2040,2050,2055,2051,1198
2149,1713841925661458866,2056,2056,2054,2056,2049,2056,1196
2150,1713841925671456005,2056,2062,2084,2066,2059,2056,1196
2151,1713841925681459096,2056,2050,2053,2021,2045,2050,1198
2152,1713841925691462246,2051,2049,2047,2058,2047,2053,1196
2153,1713841925701451229,2060,2073,2075,2065,2052,2056,1196
2154,1713841925711454189,2058,2052,2054,2062,2068,2054,1198
2155,1713841925721462790,2057,2056,2064,2060,2049,2053,1198
2156,1713841925731457705,2053,2061,2064,2054,2048,2053,1196
2157,1713841925741467709,2057,2049,2047,2049,2038,2052,1196
2158,1713841925751456462,2057,2057,2081,2082,2073,2054,1197
2159,1713841925761447830,2058,2054,2065,2054,2053,2056,1196
2160,1713841925771463584,2056,2056,2084,2011,2046,2050,1196
2161,1713841925781454020,2058,2050,2052,2060,2052,2056,1196
2162,1713841925791449025,2059,2064,2052,2060,2054,2056,1196
2163,1713841925801451575,2068,2062,2058,2064,2042,2056,1196
2164,1713841925811453663,2056,2052,2056,2054,2059,2053,1197
2165,1713841925821451784,2056,2055,2045,2046,2043,2053,1197
2166,1713841925831451668,2053,2056,2069,2022,2058,2053,1196
2167,1713841925841452364,2059,2061,2065,2064,2051,2054,1197
2168,1713841925851458190,2056,2055,2051,2052,2053,2052,1195
2169,1713841925861453255,2053,2052,2056,2056,2040,2053,1198
2170,1713841925871464000,2053,2055,2054,2051,2046,2050,1197
2171,1713841925881455658,2057,2050,2057,2070,2050,2056,1198
2172,1713841925891462235,2056,2053,2052,2054,2056,2050,1196
2173,1713841925901462630,2053,2043,2030,2065,2064,2056,1197
2174,1713841925911455151,2054,2047,2037,1995,2035,2045,1195
2175,1713841925921452440,2059,2060,2053,2057,2054,2054,1197
2176,1713841925931454689,2051,2057,2086,2055,2053,2051,1196
2177,1713841925941468089,2054,2048,2050,2056,2032,2049,1197
2178,1713841925951456491,2054,2054,2056,2050,2048,2051,1196
2179,1713841925961455133,2053,2047,2058,2065,2050,2050,1195
2180,1713841925971473553,2057,2066,2107,2037,2059,2052,1195
2181,1713841925981459441,2056,2049,2020,2064,2053,2059,1198
2182,1713841925991458242,2054,2048,2053,1998,2053,2053,1197
2183,1713841926001464328,2050,2041,2034,2041,2044,2054,1195
2184,1713841926011456077,2057,2068,2082,2050,2058,2056,1196
2185,1713841926021459448,2057,2052,2048,2055,2057,2054,1194
2186,1713841926031457018,2053,2052,2047,2053,2063,2054,1197
2187,1713841926041457434,2060,2058,2072,2073,2051,2059,1197
2188,1713841926051460413,2050,2050,2073,2026,2054,2053,1196
2189,1713841926061459897,2054,2044,2057,2064,2052,2056,1197
2190,1713841926071459621,2052,2050,2047,2034,2056,2047,1193
2191,1713841926081462641,2056,2051,2052,2066,2051,2050,1197
2192,1713841926091459890,2055,2061,2060,2066,2081,2054,1196
2193,1713841926101461447,2060,2052,2045,2057,2044,2056,1197
2194,1713841926111463466,2053,2053,2051,2044,2057,2052,1195
2195,1713841926121463000,2056,2045,2044,2077,2068,2060,1196
2196,1713841926131463134,2049,2050,2052,2035,2052,2047,1196
2197,1713841926141444573,2058,2054,2050,2062,2047,2056,1196
2198,1713841926151445279,2054,2050,2028,2045,2053,2054,1195
2199,1713841926161463177,2056,2054,2075,2056,2038,2050,1199
2200,1713841926171464645,2056,2058,2058,2042,2032,2044,1193
2201,1713841926181448028,2057,2053,2057,2054,2053,2052,1196
2202,1713841926191468141,2052,2053,2056,2060,2059,2052,1195
2203,1713841926201449659,2056,2058,2064,2046,2047,2053,1197
2204,1713841926211449764,2054,2063,2064,2041,2059,2054,1196
2205,1713841926221452003,2058,2056,2066,2062,2049,2052,1196
2206,1713841926231451456,2056,2052,2051,2047,2054,2052,1198
2207,1713841926241451100,2056,2049,2039,2056,2046,2053,1197
2208,1713841926251451485,2056,2066,2068,2069,2062,2053,1198
2209,1713841926261448704,2058,2065,2072,2081,2056,2058,1198
2210,1713841926271454199,2053,2049,2050,2058,2061,2055,1196
2211,1713841926281450396,2053,2049,2043,2056,2041,2054,1198
2212,1713841926291473866,2056,2060,2084,2058,2064,2053,1197
