seq,time,data[0],data[1],data[2],data[3],data[4],data[5],data[6]
201,1713853702225816278,2049,2040,2047,2044,2056,2051,1197
202,1713853702235831841,2066,2056,2049,2081,2040,2056,1197
203,1713853702245816866,2044,2065,2079,2053,2077,2057,1196
204,1713853702255828100,2061,2047,2053,2067,2032,2056,1196
205,1713853702265819577,2041,2056,2036,2040,2069,2052,1195
206,1713853702275827935,2056,2040,2049,2076,2040,2058,1197
207,1713853702285825734,2036,2045,2036,2002,2063,2050,1195
208,1713853702295827931,2066,2052,2051,2082,2041,2053,1196
209,1713853702305816672,2048,2072,2061,2040,2068,2054,1195
210,1713853702315822226,2060,2050,2045,2064,2040,2056,1195
211,1713853702325816538,2044,2072,2096,2035,2037,2049,1195
212,1713853702335821681,2059,2056,2054,2095,2036,2057,1195
213,1713853702345816625,2046,2048,2045,2033,2066,2052,1194
214,1713853702355821596,2056,2051,2064,2065,2038,2050,1196
215,1713853702365817352,2042,2055,2052,2033,2064,2050,1192
216,1713853702375822294,2069,2065,2066,2085,2038,2048,1193
217,1713853702385817277,2061,2060,2050,2036,2058,2041,1191
218,1713853702395822200,2054,2056,2064,2066,2033,2054,1195
219,1713853702405816471,2049,2059,2060,2044,2071,2053,1196
220,1713853702415822736,2070,2056,2049,2060,2044,2056,1196
221,1713853702425817299,2045,2064,2069,2056,2077,2062,1195
222,1713853702435821970,2061,2044,2047,2075,2040,2052,1194
223,1713853702445817415,2048,2050,2043,2033,2069,2052,1195
224,1713853702455825182,2072,2087,2069,2075,2036,2056,1196
225,1713853702465817010,2061,2070,2052,2029,2072,2050,1195
226,1713853702475827873,2068,2050,2044,2081,2029,2054,1197
227,1713853702485817857,2052,2056,2061,2052,2070,2052,1197
228,1713853702495825114,2064,2050,2049,2077,2035,2048,1197
229,1713853702505824977,2044,2056,2060,2052,2074,2056,1194
230,1713853702515828366,2064,2053,2065,2059,2035,2057,1195
231,1713853702525820124,2044,2057,2064,2032,2069,2053,1196
232,1713853702535833321,2063,2050,2064,2040,2038,2049,1194
233,1713853702545818417,2045,2044,2041,2045,2077,2052,1196
234,1713853702555825552,2059,2037,2046,2019,2032,2052,1196
235,1713853702565817820,2040,2048,2046,2046,2065,2054,1193
236,1713853702575826620,2061,2046,2053,2078,2045,2064,1194
237,1713853702585826062,2042,2053,2052,2020,2088,2054,1194
238,1713853702595824011,2056,2047,2056,2060,2040,2052,1195
239,1713853702605816981,2047,2056,2058,2054,2069,2053,1196
240,1713853702615824618,2066,2049,2061,2104,2064,2061,1196
241,1713853702625817839,2039,2053,2052,2029,2068,2052,1193
242,1713853702635828020,2062,2056,2044,2066,2045,2056,1197
243,1713853702645829065,2044,2070,2052,2054,2076,2054,1196
244,1713853702655825792,2065,2053,2058,2081,2048,2056,1195
245,1713853702665811999,2042,2052,2058,2040,2064,2051,1197
246,1713853702675820979,2072,2044,2056,2068,2037,2051,1198
247,1713853702685818908,2053,2056,2047,2041,2051,2042,1193
248,1713853702695832435,2062,2056,2064,2073,2014,2056,1196
249,1713853702705819735,2048,2077,2057,2033,2064,2056,1195
250,1713853702715847710,2067,2050,2046,2069,2033,2056,1194
251,1713853702725816705,2040,2059,2062,2002,2063,2045,1192
252,1713853702735820656,2066,2058,2058,2069,2048,2058,1197
253,1713853702745817993,2042,2054,2056,2031,2068,2054,1193
254,1713853702755821493,2060,2049,2052,2077,2026,2057,1195
255,1713853702765819983,2050,2042,2034,2000,2070,2056,1193
256,1713853702775828241,2072,2044,2047,2077,2032,2056,1195
257,1713853702785824017,2041,2053,2046,2011,2072,2057,1195
258,1713853702795824620,2060,2066,2049,2101,2040,2054,1194
259,1713853702805817249,2056,2078,2063,2063,2072,2054,1194
260,1713853702815821170,2060,2052,2066,2068,2025,2048,1194
261,1713853702825815562,2045,2058,2054,2040,2072,2052,1194
262,1713853702835822288,2066,2053,2068,2069,2051,2054,1196
263,1713853702845816760,2048,2053,2045,2047,2070,2049,1196
264,1713853702855824878,2066,2056,2063,2076,2037,2053,1195
265,1713853702865815364,2046,2058,2049,2036,2072,2052,1196
266,1713853702875823111,2057,2042,2053,2072,2040,2060,1197
267,1713853702885817423,2047,2057,2053,2049,2060,2043,1193
268,1713853702895827164,2065,2042,2056,2076,2043,2049,1197
269,1713853702905814764,2040,2048,2051,2040,2073,2052,1194
270,1713853702915822381,2065,2056,2082,2069,2024,2052,1196
271,1713853702925817856,2054,2065,2052,2027,2061,2052,1198
272,1713853702935835110,2064,2048,2056,2062,2040,2048,1195
273,1713853702945820467,2040,2050,2042,2041,2052,2046,1194
274,1713853702955823915,2062,2054,2066,2068,2034,2053,1195
275,1713853702965816424,2041,2047,2056,2042,2096,2053,1196
276,1713853702975820746,2064,2040,2064,2066,2036,2051,1193
277,1713853702985815438,2058,2061,2058,2037,2076,2052,1194
278,1713853702995820411,2056,2044,2054,2086,2065,2053,1195
279,1713853703005817628,2052,2058,2069,2049,2073,2058,1197
280,1713853703015821799,2061,2042,2047,2069,2036,2050,1196
281,1713853703025816102,2042,2059,2071,2002,2047,2051,1196
282,1713853703035824119,2070,2050,2049,2082,2024,2050,1196
283,1713853703045816257,2047,2059,2052,2039,2064,2048,1196
284,1713853703055823684,2065,2052,2054,2080,2056,2056,1196
285,1713853703065816674,2046,2056,2053,2040,2072,2050,1196
286,1713853703075823910,2064,2053,2045,2072,2040,2053,1196
287,1713853703085816730,2047,2059,2049,2052,2070,2052,1197
288,1713853703095823926,2058,2063,2064,2072,2032,2052,1195
289,1713853703105815554,2042,2055,2052,2040,2060,2052,1196
290,1713853703115824643,2061,2056,2047,2063,2037,2054,1196
291,1713853703125817262,2051,2056,2059,2021,2052,2046,1194
292,1713853703135822265,2057,2041,2046,2068,2042,2056,1196
293,1713853703145819613,2049,2054,2050,2041,2072,2056,1196
294,1713853703155822932,2060,2053,2060,2071,2064,2063,1196
295,1713853703165816934,2044,2053,2045,2043,2073,2050,1194
296,1713853703175819501,2061,2051,2058,2086,2063,2059,1194
297,1713853703185816608,2044,2054,2049,2042,2056,2045,1193
298,1713853703195826640,2061,2068,2089,2060,2048,2056,1197
299,1713853703205815943,2046,2056,2048,2040,2069,2048,1195
300,1713853703215824722,2063,2051,2070,2058,2028,2053,1197
301,1713853703225818684,2048,2049,2032,2034,2061,2053,1196
302,1713853703235820159,2053,2052,2060,2069,2062,2056,1197
303,1713853703245819381,2046,2052,2053,2025,2038,2056,1197
304,1713853703255823311,2060,2053,2064,2092,2033,2041,1193
305,1713853703265816110,2044,2045,2032,2030,2071,2053,1198
306,1713853703275825932,2068,2064,2069,2068,2033,2057,1198
307,1713853703285813311,2037,2049,2033,2037,2077,2051,1196
308,1713853703295821930,2067,2052,2053,2067,2040,2050,1197
309,1713853703305815081,2056,2056,2056,2038,2072,2053,1195
310,1713853703315823018,2061,2050,2058,2069,2037,2056,1197
311,1713853703325815978,2045,2056,2089,2044,2071,2050,1195
312,1713853703335820599,2055,2038,2040,2060,2012,2055,1197
313,1713853703345816514,2042,2052,2037,2044,2087,2053,1195
314,1713853703355821527,2068,2048,2050,2074,2026,2053,1198
315,1713853703365821500,2041,2059,2053,2032,2053,2047,1191
316,1713853703375826301,2068,2052,2053,2074,2037,2054,1195
317,1713853703385816406,2042,2047,2038,2044,2069,2050,1196
318,1713853703395821087,2062,2036,1992,2053,2059,2061,1194
319,1713853703405817383,2035,2053,2027,2029,2056,2046,1193
320,1713853703415824119,2065,2054,2054,2082,2073,2054,1195
321,1713853703425815185,2042,2054,2051,2035,2075,2048,1194
322,1713853703435820237,2061,2050,2047,2056,2042,2051,1196
323,1713853703445815261,2048,2063,2046,2018,2064,2047,1192
324,1713853703455820504,2056,2046,2036,2060,2044,2052,1194
325,1713853703465818233,2048,2035,2013,1946,2044,2050,1195
326,1713853703475823135,2061,2070,2052,2012,2037,2054,1197
327,1713853703485815042,2051,2052,2046,2096,2066,2049,1196
328,1713853703495820937,2068,2072,2070,2076,2044,2051,1195
329,1713853703505816080,2052,2058,2047,2032,2065,2053,1196
330,1713853703515822735,2063,2047,2056,2065,2040,2054,1195
331,1713853703525817068,2045,2051,2037,2045,2084,2051,1198
332,1713853703535822290,2057,2052,2032,2077,2036,2062,1196
333,1713853703545817544,2040,2049,2040,2033,2077,2053,1194
334,1713853703555820473,2060,2048,2061,2070,2056,2056,1195
335,1713853703565875888,2047,2058,2054,2052,2076,2052,1194
336,1713853703575823193,2061,2052,2056,2080,2038,2053,1195
337,1713853703585816474,2053,2060,2059,2065,2068,2045,1193
338,1713853703595826285,2056,2044,2050,2081,2066,2057,1194
339,1713853703605815809,2052,2051,2046,2054,2136,2056,1194
340,1713853703615828254,2064,2049,2056,2064,2042,2058,1195
341,1713853703625816565,2042,2056,2044,2051,2098,2054,1195
342,1713853703635775613,2066,2066,2105,2092,2040,2061,1194
343,1713853703645816441,2046,2058,2055,2066,2079,2053,1197
344,1713853703655820261,2059,2059,2058,2068,2040,2050,1195
345,1713853703665820254,2047,2056,2056,2035,2070,2053,1197
346,1713853703675828292,2060,2046,2047,2077,2027,2052,1197
347,1713853703685816824,2050,2053,2052,2047,2057,2044,1193
348,1713853703695827336,2067,2056,2067,2072,2043,2055,1195
349,1713853703705816128,2048,2053,2064,2053,2069,2053,1195
350,1713853703715823244,2054,2053,2063,2073,2040,2060,1196
351,1713853703725830170,2052,2054,2054,2081,2133,2057,1195
352,1713853703735823009,2060,2057,2058,2036,2036,2056,1196
353,1713853703745740990,2056,2077,2132,2006,2073,2055,1195
354,1713853703755823756,2057,2048,2048,2088,2057,2054,1194
355,1713853703765816616,2039,2051,2042,2040,2054,2045,1191
356,1713853703775823262,2063,2056,2062,2072,2057,2060,1194
357,1713853703785812274,2044,2056,2057,2023,2041,2043,1192
358,1713853703795822165,2054,2049,2062,2070,2041,2054,1195
359,1713853703805815335,2044,2054,2046,2043,2089,2047,1194
360,1713853703815858849,2066,2054,2063,2100,2033,2051,1193
361,1713853703825740823,2047,2064,2064,2057,2069,2052,1194
362,1713853703835856491,2060,2053,2047,2044,2040,2050,1196
363,1713853703845815747,2043,2049,2037,2039,2062,2048,1194
364,1713853703855856617,2064,2064,2047,2072,2043,2057,1195
365,1713853703865857100,2046,2054,2049,2043,2084,2058,1196
366,1713853703875855059,2054,2046,2033,2061,2026,2050,1195
367,1713853703885855393,2040,2062,2078,2040,2078,2052,1195
368,1713853703895862128,2059,2054,2072,2062,2036,2052,1196
369,1713853703905856019,2051,2050,2028,2037,2062,2052,1196
370,1713853703915855542,2056,2054,2059,2064,2040,2055,1195
371,1713853703925855585,2056,2057,2054,2032,2062,2049,1199
372,1713853703935857611,2060,2049,2062,2056,2043,2054,1196
373,1713853703945853637,2048,2052,2049,2033,2075,2058,1196
374,1713853703955855673,2064,2050,2043,2020,2035,2052,1196
375,1713853703965855847,2053,2065,2064,2028,2030,2044,1190
376,1713853703975859617,2059,2051,2054,2065,2037,2058,1195
377,1713853703985855622,2043,2058,2054,2051,2074,2051,1194
378,1713853703995855295,2065,2052,2053,2057,2008,2052,1196
379,1713853704005842894,2053,2054,2052,2038,2045,2048,1196
380,1713853704015882190,2058,2048,2057,2070,2056,2057,1196
381,1713853704025846267,2054,2056,2049,2088,2105,2054,1196
382,1713853704035840749,2065,2053,2053,2001,2035,2056,1194
383,1713853704045840110,2045,2060,2074,2044,2071,2053,1197
384,1713853704055839533,2057,2062,2096,2081,2035,2056,1196
385,1713853704065837121,2040,2053,2048,2045,2068,2053,1197
386,1713853704075838426,2061,2052,2056,2059,2030,2052,1198
387,1713853704085835574,2044,2052,2056,2052,2074,2056,1196
388,1713853704095835146,2059,2058,2064,2065,2036,2053,1196
389,1713853704105836351,2051,2055,2036,2031,2060,2055,1195
390,1713853704115831555,2061,2057,2049,2066,2036,2054,1196
391,1713853704125832299,2053,2054,2044,2063,2085,2049,1198
392,1713853704135836159,2060,2046,2036,2062,2040,2051,1196
393,1713853704145831473,2042,2056,2044,2031,2044,2048,1197
394,1713853704155832127,2061,2047,2041,2072,2034,2052,1195
395,1713853704165832842,2048,2061,2057,2060,2075,2059,1194
396,1713853704175831722,2065,2045,2036,2064,2043,2054,1197
397,1713853704185832266,2039,2060,2074,2047,2067,2047,1193
398,1713853704195834273,2056,2043,2043,2064,2029,2054,1194
399,1713853704205833003,2052,2068,2068,2040,2070,2056,1196
400,1713853704215831603,2068,2052,2052,2052,2024,2046,1191
401,1713853704225831396,2043,2049,2035,2030,2054,2052,1194
402,1713853704235829686,2061,2044,2049,2064,2036,2053,1193
403,1713853704245833475,2056,2068,2081,2058,2097,2048,1195
404,1713853704255828880,2066,2056,2076,2061,2036,2053,1195
405,1713853704265831748,2048,2056,2045,2057,2064,2050,1193
406,1713853704275839355,2052,2056,2066,2077,2072,2061,1196
407,1713853704285838256,2048,2052,2052,2046,2060,2047,1193
408,1713853704295832248,2068,2056,2064,2057,2019,2056,1196
409,1713853704305831799,2056,2056,2070,2040,2077,2050,1196
410,1713853704315831132,2059,2055,2066,2072,2042,2058,1196
411,1713853704325831856,2043,2057,2054,2014,2067,2061,1197
412,1713853704335830546,2062,2051,2057,2056,2040,2053,1195
413,1713853704345832373,2047,2053,2049,2046,2064,2049,1193
414,1713853704355831073,2056,2056,2068,2072,2032,2060,1195
415,1713853704365832137,2058,2050,2038,2036,2050,2047,1189
416,1713853704375830939,2052,2050,2045,2069,2058,2062,1196
417,1713853704385833285,2052,2052,2045,2051,2068,2052,1194
418,1713853704395831525,2065,2052,2045,2060,2044,2056,1194
419,1713853704405833682,2053,2054,2050,2064,2054,2046,1192
420,1713853704415829016,2060,2051,2054,2043,2028,2047,1192
421,1713853704425833809,2049,2060,2070,2035,2072,2056,1194
422,1713853704435831667,2056,2050,2058,2072,2051,2053,1194
423,1713853704445831108,2049,2064,2081,2044,2069,2053,1194
424,1713853704455831773,2052,2044,2042,2052,2026,2053,1195
425,1713853704465831666,2043,2054,2050,2056,2052,2046,1192
426,1713853704475831217,2062,2044,2057,2078,2034,2052,1195
427,1713853704485830359,2047,2053,2053,2036,2064,2050,1195
428,1713853704495831784,2058,2056,2057,2059,2036,2056,1194
429,1713853704505832138,2048,2054,2040,2055,2063,2052,1195
430,1713853704515831069,2058,2045,2054,2071,2046,2052,1194
431,1713853704525831943,2051,2052,2048,2057,2072,2051,1195
432,1713853704535803022,2060,2050,2059,2088,2041,2054,1197
433,1713853704545830998,2051,2053,2045,2040,2072,2059,1193
434,1713853704555832373,2063,2046,2050,2033,2030,2052,1195
435,1713853704565829680,2057,2056,2047,2029,2066,2048,1194
436,1713853704575829954,2056,2052,2060,2097,2052,2060,1197
437,1713853704585827041,2043,2053,2072,2026,2062,2049,1194
438,1713853704595857000,2066,2052,2069,2070,2029,2052,1194
439,1713853704605825795,2042,2050,2044,2003,2020,2048,1195
440,1713853704615852998,2072,2052,2056,2085,2056,2053,1198
441,1713853704625823877,2045,2062,2070,2028,2068,2052,1195
442,1713853704635852894,2071,2053,2078,2105,2034,2051,1193
443,1713853704645821538,2050,2058,2061,2067,2070,2047,1192
444,1713853704655852028,2061,2046,2056,2050,2043,2056,1197
445,1713853704665821444,2044,2053,2054,2014,2061,2052,1197
446,1713853704675851132,2059,2049,2049,2077,2043,2058,1198
447,1713853704685820237,2045,2058,2052,2043,2076,2047,1193
448,1713853704695849575,2063,2053,2073,2085,2036,2056,1197
449,1713853704705817859,2046,2061,2046,2056,2060,2052,1197
450,1713853704715845824,2061,2056,2086,2090,2047,2053,1195
451,1713853704725817023,2046,2053,2040,2033,2073,2053,1195
452,1713853704735848604,2065,2056,2050,2062,2038,2059,1195
453,1713853704745817779,2047,2059,2041,2024,2069,2052,1193
454,1713853704755844934,2064,2050,2052,2088,2041,2052,1197
455,1713853704765816774,2043,2052,2045,2026,2064,2056,1194
456,1713853704775840320,2072,2048,2052,2050,2047,2056,1197
457,1713853704785817331,2045,2050,2040,2024,2085,2052,1194
458,1713853704795839354,2060,2049,2032,2077,2035,2056,1195
459,1713853704805817026,2032,2056,2043,1969,2072,2046,1190
460,1713853704815822128,2068,2050,2068,2081,2028,2056,1194
461,1713853704825817041,2038,2056,2053,2052,2076,2045,1193
462,1713853704835835859,2073,2047,2054,2089,2048,2057,1196
463,1713853704845817388,2039,2056,2064,2034,2080,2050,1196
464,1713853704855833440,2066,2056,2064,2059,2024,2052,1194
465,1713853704865742455,2041,2057,2050,2005,2065,2052,1195
466,1713853704875831333,2076,2053,2058,2082,2032,2056,1198
467,1713853704885804175,2044,2053,2045,2042,2077,2052,1197
468,1713853704895838242,2065,2048,2061,2077,2033,2054,1196
469,1713853704905817105,2048,2059,2049,2034,2114,2052,1197
470,1713853704915829200,2065,2044,2044,2064,2032,2059,1196
471,1713853704925817051,2057,2068,2092,2035,2070,2051,1198
472,1713853704935827292,2066,2042,2047,2088,2056,2056,1195
473,1713853704945820582,2033,2056,2053,2052,2076,2051,1194
474,1713853704955825745,2066,2049,2053,2114,2009,2045,1190
475,1713853704965817372,2042,2061,2056,2026,2067,2051,1192
476,1713853704975822495,2073,2062,2090,2089,2052,2056,1193
477,1713853704985817980,2047,2058,2049,2027,2073,2049,1194
478,1713853704995824364,2072,2050,2056,2093,2050,2059,1194
479,1713853705005818025,2041,2056,2046,2022,2072,2050,1195
480,1713853705015822276,2062,2046,2034,2104,2045,2058,1194
481,1713853705025831456,2048,2056,2049,2012,2077,2048,1193
482,1713853705035824185,2067,2056,2051,2084,2037,2053,1196
483,1713853705045816584,2047,2064,2056,2031,2061,2052,1196
484,1713853705055858454,2058,2045,2049,2085,2029,2056,1194
485,1713853705065815517,2043,2056,2047,2028,2072,2051,1195
486,1713853705075825129,2074,2066,2080,2091,2035,2060,1198
487,1713853705085815914,2040,2056,2045,2028,2082,2052,1198
488,1713853705095821056,2066,2046,2053,2065,2026,2056,1196
489,1713853705105815349,2036,2056,2044,2031,2083,2052,1198
490,1713853705115820371,2072,2072,2068,2085,2040,2066,1197
491,1713853705125815855,2038,2054,2029,2026,2059,2047,1192
492,1713853705135820657,2062,2047,2058,2072,2039,2054,1195
493,1713853705145816051,2045,2059,2056,2022,2064,2052,1197
494,1713853705155824680,2062,2046,2047,2056,2060,2053,1197
495,1713853705165815687,2052,2066,2107,2033,2070,2047,1190
496,1713853705175821450,2059,2040,2028,2077,2029,2069,1194
497,1713853705185820621,2040,2052,2019,2052,2177,2057,1193
498,1713853705195830933,2072,2047,2044,2076,2043,2052,1193
499,1713853705205816730,2046,2060,2037,2028,2082,2045,1193
500,1713853705215822533,2056,2040,2037,2096,2068,2062,1197
501,1713853705225815814,2038,2049,2034,1999,2045,2032,1194
502,1713853705235821437,2072,2060,2070,2090,2033,2059,1196
503,1713853705245818534,2041,2056,2056,2021,2056,2041,1190
504,1713853705255822204,2061,2040,2037,2076,2028,2059,1195
505,1713853705265817068,2046,2075,2083,2058,2091,2060,1195
506,1713853705275825646,2064,2041,2045,2072,2034,2056,1195
507,1713853705285816973,2044,2058,2048,2028,2070,2047,1195
508,1713853705295823007,2058,2050,2057,2097,2062,2069,1193
509,1713853705305817620,2040,2058,2056,2049,2088,2064,1197
510,1713853705315841948,2064,2053,2053,2091,2034,2056,1196
511,1713853705325824138,2039,2046,2039,2034,2065,2050,1196
512,1713853705335819231,2063,2047,2037,2097,2068,2072,1196
513,1713853705345817521,2047,2054,2037,2019,2048,2039,1194
514,1713853705355827583,2062,2050,2052,2070,2022,2056,1195
515,1713853705365817386,2040,2057,2048,2030,2069,2047,1191
516,1713853705375820295,2063,2049,2051,2076,2036,2057,1196
517,1713853705385818535,2047,2057,2050,2045,2100,2054,1196
518,1713853705395822885,2067,2062,2081,2097,2093,2060,1196
519,1713853705405813991,2037,2052,2037,2031,2064,2046,1192
520,1713853705415820807,2057,2047,2044,2072,2081,2058,1195
521,1713853705425817303,2048,2060,2052,2040,2089,2054,1196
522,1713853705435820092,2063,2066,2082,2081,1989,2056,1195
523,1713853705445818782,2054,2056,2053,2032,2064,2051,1195
524,1713853705455823323,2065,2045,2049,2078,2040,2054,1196
525,1713853705465815832,2038,2068,2093,2041,2078,2054,1196
526,1713853705475820093,2065,2047,2046,2068,2048,2056,1197
527,1713853705485818523,2052,2058,2045,2027,2044,2042,1194
528,1713853705495823665,2056,2044,2037,2050,2008,2050,1194
529,1713853705505815864,2058,2064,2061,2009,1976,2038,1191
530,1713853705515813091,2060,2052,2056,2064,2043,2053,1195
531,1713853705525821620,2046,2051,2044,2041,2047,2054,1196
532,1713853705535841300,2056,2047,2054,2056,2003,2046,1193
533,1713853705545818320,2046,2052,2052,2044,2066,2053,1195
534,1713853705555828441,2066,2053,2056,2073,2036,2054,1196
535,1713853705565817524,2049,2054,2051,2028,2034,2045,1191
536,1713853705575814621,2062,2058,2063,2066,2021,2056,1194
537,1713853705585816447,2048,2051,2048,2024,2073,2050,1195
538,1713853705595819125,2061,2056,2069,2056,2029,2057,1196
539,1713853705605817896,2047,2058,2054,2026,2059,2052,1196
540,1713853705615837655,2056,2050,2049,2072,2042,2053,1194
541,1713853705625839091,2042,2046,2041,2035,2057,2049,1196
542,1713853705635820059,2056,2047,2055,2056,2032,2061,1195
543,1713853705645818107,2047,2056,2052,2052,2074,2050,1195
544,1713853705655826356,2061,2048,2056,2072,2039,2053,1197
545,1713853705665817312,2048,2060,2051,2056,2062,2048,1194
546,1713853705675820701,2068,2048,2054,2045,2022,2053,1198
547,1713853705685832236,2040,2053,2051,2036,2064,2047,1196
548,1713853705695820386,2058,2049,2050,2087,2085,2056,1194
549,1713853705705817543,2048,2053,2050,2056,2096,2055,1195
550,1713853705715839567,2057,2056,2050,2069,2038,2052,1196
551,1713853705725816979,2047,2058,2064,2049,2066,2051,1195
552,1713853705735821910,2060,2047,2052,2059,2034,2058,1195
553,1713853705745817384,2052,2050,2043,2049,2079,2054,1196
554,1713853705755819402,2059,2056,2054,2091,2049,2057,1194
555,1713853705765817190,2048,2060,2056,2040,2060,2050,1194
556,1713853705775818946,2059,2053,2056,2065,2023,2057,1194
557,1713853705785816405,2046,2058,2050,2048,2096,2049,1194
558,1713853705795822068,2060,2052,2066,2070,2041,2056,1197
559,1713853705805816991,2047,2061,2060,2045,2062,2055,1195
560,1713853705815819759,2061,2058,2073,2116,2051,2056,1196
561,1713853705825819041,2044,2061,2073,2058,2056,2048,1194
562,1713853705835819394,2066,2054,2059,2072,2052,2055,1195
563,1713853705845818395,2049,2055,2056,2056,2073,2049,1195
564,1713853705855819380,2059,2044,2045,2096,2038,2056,1194
565,1713853705865818501,2047,2056,2059,2024,2072,2052,1195
566,1713853705875823834,2064,2062,2088,2050,2051,2047,1195
567,1713853705885825109,2047,2050,2054,2053,2055,2051,1195
568,1713853705895826404,2062,2064,2086,2073,2042,2056,1197
569,1713853705905817150,2041,2053,2049,2024,2035,2048,1198
570,1713853705915837060,2061,2044,2052,2074,2011,2048,1196
571,1713853705925816935,2044,2052,2045,2053,2046,2046,1192
572,1713853705935822148,2058,2053,2047,2067,2031,2053,1196
573,1713853705945817642,2046,2058,2063,2020,2056,2053,1196
574,1713853705955822384,2056,2048,2044,2059,2042,2051,1195
575,1713853705965817528,2051,2076,2074,2045,2066,2051,1193
576,1713853705975822580,2056,2036,2032,2057,2040,2051,1193
577,1713853705985817764,2053,2061,2074,2058,2064,2051,1195
578,1713853705995819981,2051,2053,2057,2096,2077,2056,1196
579,1713853706005818020,2040,2058,2050,2044,2049,2047,1192
580,1713853706015826889,2062,2054,2039,2045,2037,2056,1196
581,1713853706025820210,2052,2062,2081,2028,2112,2056,1194
582,1713853706035826204,2051,2045,2044,2046,2041,2052,1195
583,1713853706045815607,2041,2055,2040,2032,2060,2048,1195
584,1713853706055818465,2065,2052,2058,2076,2032,2049,1194
585,1713853706065815402,2040,2050,2033,2060,2050,2051,1193
586,1713853706075821937,2059,2052,2054,2047,2035,2053,1196
587,1713853706085818704,2053,2052,2051,2058,2069,2050,1194
588,1713853706095819719,2069,2056,2043,2080,2041,2056,1194
589,1713853706105817047,2056,2050,2038,2012,2054,2047,1194
590,1713853706115823231,2060,2047,2045,2088,2041,2056,1197
591,1713853706125817594,2043,2049,2044,2041,2064,2048,1195
592,1713853706135825491,2056,2058,2079,2067,2033,2052,1193
593,1713853706145816607,2040,2052,2044,2036,2036,2050,1195
594,1713853706155819165,2064,2050,2057,2072,2027,2054,1196
595,1713853706165815711,2045,2056,2050,2034,2068,2049,1193
596,1713853706175818699,2059,2052,2055,2070,2027,2048,1195
597,1713853706185826857,2045,2056,2055,2018,2072,2051,1196
598,1713853706195818926,2054,2047,2051,2054,2042,2056,1193
599,1713853706205819830,2054,2058,2061,2030,2072,2053,1195
600,1713853706215818781,2061,2049,2065,2032,2039,2056,1193
601,1713853706225816881,2044,2054,2037,2037,2082,2051,1195
602,1713853706235835688,2064,2044,2060,1945,2054,2057,1195
603,1713853706245816114,2049,2052,2060,2017,2068,2053,1195
604,1713853706255818021,2061,2048,2052,2085,2051,2056,1195
605,1713853706265815399,2038,2052,2060,2016,2064,2050,1196
606,1713853706275819619,2057,2052,2056,2065,2034,2054,1196
607,1713853706285829090,2047,2053,2054,2046,2069,2048,1196
608,1713853706295822601,2061,2045,2047,2031,2028,2050,1196
609,1713853706305815991,2053,2085,2098,2045,2069,2050,1195
610,1713853706315821384,2058,2044,2040,2071,2032,2057,1196
611,1713853706325816588,2059,2061,2065,2047,2068,2052,1196
612,1713853706335838441,2060,2064,2088,2056,2043,2056,1196
613,1713853706345818326,2049,2056,2046,2054,2080,2053,1196
614,1713853706355821265,2056,2053,2068,2064,2035,2053,1194
615,1713853706365815818,2052,2052,2045,2064,2096,2052,1194
616,1713853706375844293,2065,2056,2057,1968,2021,2048,1193
617,1713853706385828908,2054,2056,2054,2061,2069,2056,1195
618,1713853706395829592,2055,2049,2052,2046,2042,2056,1195
619,1713853706405817773,2051,2057,2056,2060,2052,2042,1191
620,1713853706415822244,2062,2047,2049,2069,2053,2054,1194
621,1713853706425817879,2054,2054,2037,2044,2064,2050,1193
622,1713853706435836356,2057,2064,2093,2068,2041,2057,1195
623,1713853706445815379,2044,2056,2057,2049,2059,2049,1195
624,1713853706455818408,2064,2050,2048,2072,2048,2057,1194
625,1713853706465817529,2041,2064,2053,2026,2054,2048,1194
626,1713853706475821990,2057,2050,2053,2038,2023,2057,1196
627,1713853706485822905,2052,2065,2078,2036,2056,2050,1193
628,1713853706495822627,2065,2056,2080,2084,2056,2057,1195
629,1713853706505816308,2045,2059,2057,2048,2070,2048,1194
630,1713853706515821972,2070,2048,2048,2044,2041,2057,1195
631,1713853706525818348,2049,2056,2047,2044,2079,2052,1195
632,1713853706535838678,2064,2046,2047,2076,2047,2054,1197
633,1713853706545816080,2052,2056,2044,2012,2060,2045,1193
634,1713853706555819709,2058,2052,2056,2058,2041,2052,1194
635,1713853706565819411,2044,2060,2076,1994,2062,2052,1194
636,1713853706575819484,2065,2060,2080,2044,2025,2058,1194
637,1713853706585833583,2051,2052,2051,2068,2039,2050,1195
638,1713853706595839006,2061,2051,2053,2030,2022,2054,1193
639,1713853706605814994,2045,2055,2056,2049,2064,2057,1194
640,1713853706615824555,2058,2053,2054,2080,2063,2056,1195
641,1713853706625820300,2052,2057,2054,2047,2065,2049,1196
642,1713853706635833196,2061,2050,2053,2044,2041,2049,1196
643,1713853706645821308,2059,2057,2055,2028,2123,2056,1195
644,1713853706655814197,2056,2049,2055,2081,2062,2056,1194
645,1713853706665817846,2043,2053,2047,2061,2066,2051,1195
646,1713853706675822979,2052,2048,2044,2065,2036,2049,1196
647,1713853706685836918,2050,2061,2060,2072,2095,2049,1195
648,1713853706695820840,2056,2044,2045,2056,2049,2050,1196
649,1713853706705816284,2049,2052,2041,2056,2085,2052,1198
650,1713853706715814495,2056,2041,2019,2071,2052,2056,1195
651,1713853706725825748,2064,2085,2107,2047,2065,2050,1196
652,1713853706735824208,2059,2048,2065,2058,2043,2056,1195
653,1713853706745816327,2041,2053,2043,2033,2098,2053,1194
654,1713853706755816810,2068,2052,2060,2045,2062,2056,1194
655,1713853706765815851,2057,2067,2078,2052,2064,2047,1192
656,1713853706775820032,2064,2045,2040,2040,2047,2053,1194
657,1713853706785819834,2059,2074,2088,2050,2065,2053,1193
658,1713853706795823944,2060,2052,2056,2077,2060,2056,1193
659,1713853706805801104,2045,2048,2040,2000,2076,2046,1191
660,1713853706815826094,2062,2050,2054,2018,2051,2056,1195
661,1713853706825815858,2041,2052,2047,2052,2059,2047,1192
662,1713853706835824447,2059,2053,2053,2079,2044,2053,1196
663,1713853706845817237,2053,2053,2041,2035,2063,2053,1195
664,1713853706855818632,2060,2050,2053,2072,2058,2052,1196
665,1713853706865816931,2052,2056,2048,2034,2058,2052,1196
666,1713853706875816814,2061,2048,2050,2053,2023,2056,1197
667,1713853706885818851,2043,2056,2047,2080,2049,2049,1193
668,1713853706895823502,2068,2052,2062,2064,2034,2049,1198
669,1713853706905819999,2045,2056,2046,2070,2072,2052,1198
670,1713853706915820462,2066,2054,2069,2065,2042,2056,1196
671,1713853706925817659,2050,2069,2072,2049,2067,2050,1195
672,1713853706935817111,2065,2044,2042,2094,2073,2061,1195
673,1713853706945818016,2053,2073,2100,2060,2065,2052,1194
674,1713853706955817728,2053,2044,2050,2063,2037,2055,1195
675,1713853706965816609,2041,2062,2082,2057,2114,2056,1192
676,1713853706975819267,2056,2046,2050,2089,2077,2057,1193
677,1713853706985820292,2045,2050,2044,2044,2080,2052,1194
678,1713853706995825173,2067,2064,2051,2064,2048,2056,1196
679,1713853707005817893,2039,2050,2033,2042,2059,2053,1196
680,1713853707015821593,2068,2052,2037,2072,2044,2056,1195
681,1713853707025818980,2050,2064,2061,2041,2061,2052,1194
682,1713853707035820716,2060,2049,2056,2068,2049,2056,1196
683,1713853707045817043,2043,2061,2059,2047,2074,2051,1196
684,1713853707055828516,2060,2053,2052,2058,2064,2059,1194
685,1713853707065816887,2049,2050,2034,2059,2066,2052,1197
686,1713853707075825146,2069,2066,2090,2068,2031,2053,1195
687,1713853707085826291,2049,2071,2116,2040,2049,2049,1195
688,1713853707095824650,2054,2034,2024,2044,2034,2052,1195
689,1713853707105818713,2052,2057,2055,2040,2064,2050,1196
690,1713853707115820409,2066,2047,2052,2068,2052,2056,1195
691,1713853707125818868,2048,2060,2074,2038,2065,2056,1196
692,1713853707135820765,2048,2045,2040,2076,2041,2055,1197
693,1713853707145825116,2042,2053,2052,1979,2076,2056,1197
694,1713853707155821211,2067,2046,2050,2072,2041,2054,1196
695,1713853707165817917,2043,2056,2085,2043,2060,2056,1192
696,1713853707175819574,2053,2035,2032,2093,2025,2057,1195
697,1713853707185819807,2050,2070,2077,2042,2064,2053,1196
698,1713853707195824879,2061,2038,2032,2052,2044,2048,1195
699,1713853707205818900,2043,2058,2052,2037,2072,2047,1191
700,1713853707215819595,2062,2057,2078,2076,2049,2057,1195
701,1713853707225816883,2052,2050,2037,2045,2064,2053,1194
702,1713853707235816945,2056,2052,2056,2050,2037,2056,1196
703,1713853707245818662,2052,2052,2059,2046,2059,2050,1195
704,1713853707255815679,2065,2049,2049,2069,2050,2064,1195
705,1713853707265818066,2046,2063,2074,2020,2057,2055,1196
706,1713853707275823699,2065,2051,2072,2080,2042,2056,1197
707,1713853707285831056,2040,2052,2026,2051,2071,2048,1196
708,1713853707295824166,2066,2056,2052,2049,2030,2053,1194
709,1713853707305818338,2051,2057,2050,2030,2047,2046,1193
710,1713853707315819974,2057,2060,2056,2069,2043,2057,1196
711,1713853707325841116,2045,2048,2040,2053,2086,2051,1195
712,1713853707335821422,2062,2057,2061,2058,2035,2052,1194
713,1713853707345820713,2049,2056,2067,2042,2058,2051,1194
714,1713853707355820616,2058,2044,2029,1995,2034,2056,1196
715,1713853707365818425,2047,2055,2068,2043,2061,2054,1194
716,1713853707375824859,2056,2057,2094,2074,2048,2056,1194
717,1713853707385821126,2054,2062,2081,2049,2064,2054,1193
718,1713853707395821399,2054,2046,2049,2073,2051,2056,1193
719,1713853707405819728,2042,2052,2049,2050,2071,2051,1194
720,1713853707415820513,2057,2049,2052,2083,2081,2062,1196
721,1713853707425818001,2050,2059,2048,2076,2086,2056,1195
722,1713853707435825618,2058,2052,2049,2077,2046,2057,1194
723,1713853707445822334,2053,2057,2050,2037,2060,2049,1195
724,1713853707455820945,2060,2049,2037,2080,2066,2056,1195
725,1713853707465818193,2048,2043,2026,2024,2052,2047,1192
726,1713853707475820259,2061,2058,2084,2058,2031,2058,1197
727,1713853707485831112,2041,2057,2056,2044,2068,2052,1194
728,1713853707495821317,2064,2055,2069,2068,2041,2049,1195
729,1713853707505815970,2046,2064,2040,2052,2078,2068,1196
730,1713853707515820010,2064,2050,2044,2085,2047,2058,1195
731,1713853707525818090,2050,2051,2047,2043,2066,2050,1195
732,1713853707535824684,2056,2046,2029,2065,2053,2053,1195
733,1713853707545815770,2047,2053,2034,2035,2028,2054,1195
734,1713853707555825592,2052,2040,2031,2059,2040,2048,1194
735,1713853707565817500,2048,2055,2054,2040,2040,2042,1192
736,1713853707575822622,2065,2055,2057,2072,2050,2060,1193
737,1713853707585821021,2041,2053,2050,2041,2065,2046,1193
738,1713853707595829030,2063,2052,2054,2056,2030,2053,1194
739,1713853707605815898,2044,2057,2051,2024,2050,2052,1194
740,1713853707615820288,2068,2051,2057,2067,2042,2056,1197
741,1713853707625819991,2044,2051,2052,2056,2062,2050,1194
742,1713853707635836625,2059,2052,2060,2064,2037,2052,1193
743,1713853707645816480,2040,2049,2052,2038,2076,2046,1192
744,1713853707655820761,2061,2040,2035,2066,2067,2057,1195
745,1713853707665817778,2064,2088,2097,2047,2049,2057,1197
746,1713853707675821598,2053,2046,2034,2072,2024,2054,1195
747,1713853707685819557,2040,2051,2047,2040,2060,2053,1195
748,1713853707695820091,2057,2051,2053,2083,2040,2052,1196
749,1713853707705816397,2052,2053,2046,2042,2054,2056,1194
750,1713853707715819174,2063,2049,2048,2066,2040,2055,1194
751,1713853707725816191,2041,2056,2060,2062,2068,2054,1195
752,1713853707735821565,2060,2047,2032,2073,2127,2066,1193
753,1713853707745817911,2053,2075,2097,2056,2072,2054,1195
754,1713853707755822291,2065,2048,2041,2030,2033,2049,1195
755,1713853707765814470,2050,2056,2056,2053,2050,2047,1191
756,1713853707775820364,2059,2052,2062,2063,2034,2052,1193
757,1713853707785822911,2043,2057,2056,2025,2068,2048,1195
758,1713853707795817815,2065,2053,2057,2064,2044,2054,1194
759,1713853707805817237,2052,2047,2028,2044,2066,2052,1196
760,1713853707815821727,2064,2056,2042,2064,2040,2051,1194
761,1713853707825817171,2054,2059,2061,2051,2065,2054,1194
762,1713853707835822725,2060,2053,2066,2050,2042,2053,1194
763,1713853707845817498,2056,2052,2059,2046,2049,2047,1192
764,1713853707855819534,2062,2061,2058,2066,2018,2050,1194
765,1713853707865818996,2047,2056,2052,2037,2062,2053,1195
766,1713853707875823438,2057,2054,2038,2080,2059,2052,1195
767,1713853707885819473,2047,2053,2041,2040,2072,2046,1192
768,1713853707895830245,2058,2052,2053,2082,2061,2056,1197
769,1713853707905817716,2044,2058,2073,2020,2056,2047,1191
770,1713853707915824020,2066,2046,2046,2080,2040,2056,1194
771,1713853707925816348,2048,2076,2068,2060,2062,2050,1194
772,1713853707935819427,2060,2054,2072,2059,2058,2058,1196
773,1713853707945815883,2052,2058,2059,2042,2060,2049,1193
774,1713853707955819252,2065,2052,2052,2068,2039,2058,1196
775,1713853707965816990,2048,2056,2044,2038,2065,2049,1192
776,1713853707975819939,2065,2051,2044,2076,2041,2048,1196
777,1713853707985827085,2042,2052,2053,2050,2057,2052,1193
778,1713853707995819764,2059,2046,2049,2068,2044,2054,1193
779,1713853708005817283,2052,2067,2073,2060,2097,2056,1194
780,1713853708015820051,2059,2050,2056,2085,2072,2056,1195
781,1713853708025816807,2047,2053,2043,2056,2064,2050,1197
782,1713853708035866522,2056,2048,2051,2072,2045,2056,1194
783,1713853708045817875,2054,2053,2049,2013,2137,2054,1195
784,1713853708055823158,2057,2047,2047,2058,2041,2054,1195
785,1713853708065818722,2050,2057,2059,2008,2062,2055,1195
786,1713853708075827421,2052,2052,2060,2051,2038,2054,1198
787,1713853708085826723,2046,2054,2051,2045,2065,2053,1193
788,1713853708095825323,2066,2050,2057,2088,2048,2056,1196
789,1713853708105818202,2048,2058,2068,2037,2067,2049,1194
790,1713853708115824937,2062,2054,2049,2043,2042,2056,1194
791,1713853708125821053,2040,2052,2050,1948,2056,2043,1193
792,1713853708135831475,2056,2047,2042,2062,2037,2056,1195
793,1713853708145818233,2052,2056,2036,2057,2062,2050,1196
794,1713853708155832823,2053,2040,2049,2008,2034,2050,1195
795,1713853708165816436,2049,2054,2045,2040,2061,2051,1194
796,1713853708175821287,2060,2049,2051,2056,2036,2052,1195
797,1713853708185826429,2043,2054,2055,2047,2062,2050,1195
798,1713853708195824169,2053,2056,2077,2081,2056,2053,1195
799,1713853708205840251,2053,2051,2045,2039,2061,2054,1193
800,1713853708215821919,2050,2053,2053,2073,2043,2050,1195
801,1713853708225816913,2045,2060,2053,1988,2056,2054,1195
802,1713853708235822196,2064,2050,2058,2104,2049,2056,1193
803,1713853708245817510,2045,2057,2050,2044,2060,2051,1194
804,1713853708255818584,2058,2053,2069,2019,2043,2053,1194
805,1713853708265823758,2050,2067,2044,2047,2068,2053,1197
806,1713853708275825413,2064,2047,2052,2100,2046,2052,1197
807,1713853708285822290,2058,2052,2043,2004,2058,2047,1193
808,1713853708295825629,2056,2054,2053,2065,2043,2056,1196
809,1713853708305816195,2052,2052,2050,2049,2064,2052,1194
810,1713853708315821858,2063,2052,2049,2081,2054,2054,1195
811,1713853708325817111,2040,2057,2052,2018,2057,2049,1196
812,1713853708335851077,2059,2050,2048,2016,2026,2054,1196
813,1713853708345817408,2044,2056,2048,2024,2061,2048,1196
814,1713853708355819464,2058,2052,2053,2075,2044,2056,1196
815,1713853708365816281,2050,2052,2040,2048,2067,2049,1194
816,1713853708375824930,2058,2050,2053,2071,2046,2058,1192
817,1713853708385828830,2044,2056,2052,2076,2069,2057,1195
818,1713853708395824625,2063,2052,2057,2073,2041,2054,1193
819,1713853708405818797,2057,2058,2049,2044,2068,2056,1194
820,1713853708415827045,2066,2057,2068,2107,2047,2056,1193
821,1713853708425819394,2050,2052,2039,2036,2062,2046,1193
822,1713853708435826499,2057,2062,2061,2063,2048,2058,1195
823,1713853708445817645,2044,2054,2049,2058,2089,2049,1196
824,1713853708455823360,2064,2056,2073,2106,2030,2056,1195
825,1713853708465817992,2052,2053,2050,2064,2063,2045,1192
826,1713853708475827973,2062,2056,2055,2068,2045,2059,1195
827,1713853708485819651,2045,2058,2046,2033,2060,2049,1196
828,1713853708495849289,2060,2053,2057,2078,2041,2056,1194
829,1713853708505818003,2047,2054,2048,2005,2064,2052,1194
830,1713853708515823346,2064,2056,2086,2085,2046,2056,1195
831,1713853708525820053,2047,2056,2055,2056,2075,2046,1194
832,1713853708535827009,2056,2053,2052,2073,2023,2048,1195
833,1713853708545816712,2051,2056,2056,2030,2082,2056,1197
834,1713853708555824329,2059,2046,2051,1977,2060,2052,1195
835,1713853708565816097,2047,2055,2047,2007,2048,2046,1191
836,1713853708575822521,2061,2059,2083,2042,2038,2052,1196
837,1713853708585822584,2049,2050,2056,2072,2061,2056,1195
838,1713853708595827205,2065,2051,2052,2041,2036,2056,1195
839,1713853708605819865,2054,2056,2072,2036,2063,2051,1193
840,1713853708615830267,2062,2049,2041,2061,2040,2054,1196
841,1713853708625817395,2048,2054,2052,2056,2065,2052,1194
842,1713853708635825073,2063,2052,2053,2070,2021,2051,1196
843,1713853708645819195,2053,2056,2056,2057,2086,2050,1196
844,1713853708655824988,2060,2050,2052,2030,2037,2051,1196
845,1713853708665819059,2054,2053,2053,2044,2057,2054,1196
846,1713853708675820325,2061,2047,2046,1966,2026,2052,1195
847,1713853708685825187,2049,2056,2053,2047,2068,2049,1194
848,1713853708695827293,2064,2049,2046,2047,2043,2057,1196
849,1713853708705816706,2053,2054,2045,2058,2065,2048,1193
850,1713853708715824665,2064,2058,2072,2025,2029,2050,1195
851,1713853708725817213,2042,2050,2040,1917,2052,2047,1194
852,1713853708735824489,2067,2052,2051,2080,2041,2052,1195
853,1713853708745817259,2040,2054,2046,2023,2064,2050,1196
854,1713853708755823874,2061,2053,2050,1930,2026,2051,1196
855,1713853708765815160,2047,2059,2057,2033,2059,2048,1194
856,1713853708775825903,2060,2046,2052,2041,2042,2056,1195
857,1713853708785819024,2056,2053,2050,2063,2064,2051,1194
858,1713853708795823515,2057,2050,2051,2024,2037,2056,1194
859,1713853708805816614,2038,2056,2076,2089,2077,2046,1192
860,1713853708815825033,2058,2057,2059,2035,2041,2053,1196
861,1713853708825816660,2053,2051,2038,2019,2064,2049,1195
862,1713853708835825209,2067,2049,2053,2036,2040,2054,1193
863,1713853708845817106,2058,2076,2097,2068,2091,2051,1197
864,1713853708855827198,2058,2050,2059,2079,2045,2057,1195
865,1713853708865818084,2044,2056,2053,2044,2058,2049,1193
866,1713853708875822024,2059,2050,2056,2059,2049,2055,1196
867,1713853708885837966,2052,2057,2060,2091,2056,2050,1195
868,1713853708895860411,2056,2050,2055,2075,2039,2050,1194
869,1713853708905816783,2043,2056,2048,2030,2074,2050,1196
870,1713853708915817807,2057,2050,2050,2026,2027,2053,1195
871,1713853708925816317,2060,2056,2043,1998,2052,2053,1194
872,1713853708935816340,2058,2046,2045,2062,2037,2055,1197
873,1713853708945817054,2054,2076,2092,2046,2066,2052,1194
874,1713853708955818970,2057,2042,2046,2065,2036,2056,1192
875,1713853708965816159,2052,2056,2054,2060,2070,2052,1195
876,1713853708975822303,2052,2055,2052,2067,2079,2058,1196
877,1713853708985820582,2044,2052,2052,2052,2072,2056,1195
878,1713853708995820875,2061,2054,2053,1990,2033,2052,1194
879,1713853709005816180,2056,2056,2049,2058,2067,2052,1196
880,1713853709015820601,2064,2052,2049,1952,2040,2051,1193
881,1713853709025817036,2046,2052,2052,2061,2073,2052,1193
882,1713853709035817120,2061,2052,2052,2074,2044,2056,1194
883,1713853709045816081,2043,2057,2051,2066,2060,2054,1195
884,1713853709055818468,2058,2051,2052,2072,2042,2054,1194
885,1713853709065818180,2054,2054,2057,2093,2065,2048,1193
886,1713853709075820687,2061,2050,2056,2072,2041,2056,1196
887,1713853709085821642,2049,2056,2053,2036,2080,2053,1194
888,1713853709095819911,2064,2052,2056,2046,2013,2047,1192
889,1713853709105816728,2042,2054,2052,2018,2062,2047,1193
890,1713853709115828904,2052,2050,2050,2045,2037,2056,1196
891,1713853709125819880,2056,2054,2047,2077,2069,2053,1196
892,1713853709135826124,2060,2054,2050,2062,2052,2054,1196
893,1713853709145816569,2042,2054,2050,2040,2073,2051,1195
894,1713853709155820870,2063,2050,2052,2054,2038,2054,1197
895,1713853709165817687,2046,2057,2053,2072,2071,2052,1192
896,1713853709175821126,2063,2053,2059,1995,2056,2058,1194
897,1713853709185825927,2053,2059,2056,2095,2069,2050,1195
898,1713853709195819849,2061,2052,2056,2072,2039,2056,1195
899,1713853709205817087,2053,2055,2060,2029,2076,2053,1195
900,1713853709215825795,2058,2052,2058,2052,2052,2061,1195
901,1713853709225817593,2042,2056,2050,2044,2063,2052,1196
902,1713853709235823056,2061,2050,2056,2074,2045,2053,1196
903,1713853709245821606,2040,2056,2050,2085,2056,2046,1190
904,1713853709255821519,2065,2046,2046,2065,2046,2060,1197
905,1713853709265818205,2048,2066,2067,2094,2064,2051,1196
906,1713853709275825431,2065,2052,2065,2096,2028,2050,1196
907,1713853709285828600,2046,2053,2051,2039,2052,2049,1197
908,1713853709295825717,2056,2052,2056,2082,2044,2056,1195
909,1713853709305818186,2045,2049,2044,1985,2070,2052,1196
910,1713853709315821024,2061,2047,2055,2059,2041,2053,1195
911,1713853709325817841,2044,2058,2049,2052,2058,2049,1197
912,1713853709335826099,2064,2047,2050,2103,2047,2054,1196
913,1713853709345819960,2047,2057,2053,2033,2070,2049,1195
914,1713853709355820785,2059,2048,2050,2072,2036,2056,1196
915,1713853709365825617,2054,2056,2049,2057,2068,2053,1193
916,1713853709375820540,2059,2047,2051,2067,2038,2051,1194
917,1713853709385826053,2041,2058,2064,2056,2075,2052,1193
918,1713853709395823160,2065,2056,2090,2072,2049,2055,1194
919,1713853709405817393,2042,2056,2047,2079,2095,2055,1196
920,1713853709415820190,2056,2045,2052,2065,2029,2052,1194
921,1713853709425817388,2056,2050,2049,2043,2044,2047,1193
922,1713853709435819124,2045,2050,2067,2058,2040,2056,1195
923,1713853709445818606,2048,2065,2081,2086,2066,2053,1196
924,1713853709455820402,2068,2072,2049,2106,2049,2054,1195
925,1713853709465817248,2060,2042,2044,2036,2060,2048,1197
926,1713853709475817692,2056,2045,2056,2046,2047,2056,1198
927,1713853709485824869,2059,2058,2057,2050,2079,2052,1194
928,1713853709495821926,2059,2072,2096,2042,2043,2056,1195
929,1713853709505816839,2041,2052,2056,2047,2064,2051,1194
930,1713853709515820018,2051,2046,2049,2062,2036,2055,1196
931,1713853709525816995,2042,2040,2052,2082,2059,2048,1195
932,1713853709535818490,2060,2045,2055,2074,2029,2052,1196
933,1713853709545818112,2052,2051,2065,2121,2076,2054,1196
934,1713853709555817855,2061,2050,2047,1957,2064,2055,1197
935,1713853709565818178,2052,2057,2053,2056,2054,2049,1193
936,1713853709575818041,2065,2065,2085,2042,2026,2056,1193
937,1713853709585823914,2050,2047,2046,2050,2056,2056,1196
938,1713853709595823697,2065,2047,2044,2075,2043,2058,1198
939,1713853709605818500,2048,2058,2064,2088,2064,2051,1196
940,1713853709615825706,2052,2053,2056,2037,2035,2054,1194
941,1713853709625817643,2041,2053,2053,2038,2066,2053,1193
942,1713853709635825681,2061,2050,2045,2020,2039,2060,1196
943,1713853709645818832,2049,2056,2065,2045,2071,2056,1196
944,1713853709655821098,2064,2049,2055,2116,2052,2053,1194
945,1713853709665818135,2048,2056,2050,2021,2073,2052,1197
946,1713853709675820703,2061,2053,2071,2061,2043,2057,1199
947,1713853709685821227,2049,2055,2053,2050,2068,2051,1194
948,1713853709695819316,2061,2054,2061,2053,2040,2054,1196
949,1713853709705817054,2054,2064,2059,2056,2076,2056,1196
950,1713853709715826966,2053,2050,2058,2095,2060,2057,1196
951,1713853709725816980,2045,2050,2054,2083,2083,2052,1197
952,1713853709735822483,2058,2055,2061,2100,2042,2050,1193
953,1713853709745821624,2046,2054,2053,2069,2084,2053,1196
954,1713853709755823881,2065,2051,2057,2061,2041,2052,1194
955,1713853709765817673,2042,2060,2050,2031,2058,2052,1194
956,1713853709775820390,2060,2050,2055,1896,2024,2054,1193
957,1713853709785819912,2042,2057,2054,2037,2069,2052,1197
958,1713853709795825205,2057,2051,2054,2080,2048,2058,1194
959,1713853709805818035,2047,2056,2059,2039,2060,2047,1194
960,1713853709815825471,2054,2052,2061,2080,2052,2053,1196
961,1713853709825817559,2042,2053,2048,2024,2056,2044,1192
962,1713853709835799378,2060,2052,2059,2146,2056,2063,1195
963,1713853709845823796,2053,2052,2049,1992,2033,2042,1192
964,1713853709855823819,2056,2050,2060,2072,2042,2053,1194
965,1713853709865818171,2054,2058,2056,2069,2068,2052,1198
966,1713853709875819937,2054,2047,2052,1990,2032,2048,1197
967,1713853709885822044,2050,2058,2052,2037,2069,2050,1195
968,1713853709895822087,2056,2052,2050,1983,2057,2060,1196
969,1713853709905817360,2053,2057,2056,2059,2062,2050,1196
970,1713853709915822743,2064,2056,2062,2015,2038,2052,1197
971,1713853709925818388,2049,2052,2052,2046,2050,2047,1192
972,1713853709935828420,2064,2052,2058,2081,2022,2056,1198
973,1713853709945818273,2048,2053,2050,2045,2090,2053,1194
974,1713853709955819870,2056,2051,2061,2089,2056,2057,1194
975,1713853709965816887,2047,2057,2061,2014,2051,2046,1192
976,1713853709975819113,2057,2052,2054,2073,2042,2056,1197
977,1713853709985826209,2049,2052,2056,2028,2056,2048,1198
978,1713853709995820752,2061,2049,2047,2091,2048,2053,1195
979,1713853710005819462,2042,2056,2050,2061,2076,2048,1197
980,1713853710015827219,2056,2052,2052,2065,2043,2057,1195
981,1713853710025818476,2046,2057,2055,2034,2052,2050,1195
982,1713853710035829950,2061,2052,2058,2086,2043,2053,1193
983,1713853710045806790,2049,2057,2056,1958,2040,2047,1191
984,1713853710055817823,2064,2051,2056,2081,2052,2053,1195
985,1713853710065816673,2043,2057,2050,2004,2068,2052,1195
986,1713853710075818259,2060,2049,2055,2108,2039,2047,1195
987,1713853710085822610,2058,2057,2053,2088,2078,2056,1197
988,1713853710095818425,2061,2052,2064,2096,2054,2059,1195
989,1713853710105816785,2050,2059,2054,2047,2069,2049,1196
990,1713853710115819433,2062,2055,2052,2073,2044,2061,1196
991,1713853710125816610,2052,2049,2050,1964,2056,2077,1194
992,1713853710135816943,2065,2053,2048,1909,2026,2059,1196
993,1713853710145819130,2051,2057,2051,2049,2080,2052,1196
994,1713853710155819223,2054,2044,2053,2037,2067,2058,1197
995,1713853710165818575,2052,2057,2056,2064,2052,2052,1193
996,1713853710175818277,2062,2052,2056,2101,2049,2057,1194
997,1713853710185821165,2047,2056,2056,2088,2065,2052,1195
998,1713853710195832158,2068,2057,2062,2116,2045,2060,1195
999,1713853710205817715,2041,2050,2052,2028,2051,2048,1195
1000,1713853710215825622,2059,2056,2057,2081,2070,2062,1196
1001,1713853710225817098,2048,2052,2051,2040,2085,2053,1194
1002,1713853710235824625,2058,2056,2054,2072,2045,2052,1196
1003,1713853710245823176,2057,2050,2024,2026,2065,2049,1197
1004,1713853710255832606,2057,2058,2075,2087,2037,2056,1195
1005,1713853710265818883,2053,2053,2056,2086,2096,2060,1195
1006,1713853710275823113,2064,2050,2049,2081,2044,2057,1197
1007,1713853710285818357,2049,2052,2046,2028,2073,2045,1192
1008,1713853710295826676,2051,2049,2056,2078,2055,2058,1197
1009,1713853710305820797,2053,2059,2053,1976,2058,2054,1195
1010,1713853710315824637,2062,2051,2049,1986,2043,2049,1195
1011,1713853710325819370,2041,2056,2053,2062,2068,2053,1195
1012,1713853710335821838,2059,2052,2060,2133,2051,2061,1196
1013,1713853710345818975,2044,2056,2055,2066,2062,2050,1194
1014,1713853710355821482,2054,2049,2052,2050,2056,2050,1195
1015,1713853710365818499,2052,2054,2052,1988,2053,2048,1193
1016,1713853710375824323,2057,2049,2053,2024,2038,2056,1197
1017,1713853710385818575,2047,2053,2055,2031,2066,2047,1193
1018,1713853710395823567,2060,2054,2044,1929,2015,2047,1194
1019,1713853710405818941,2053,2057,2056,2056,2052,2045,1193
1020,1713853710415821208,2053,2045,2054,2116,2072,2059,1195
1021,1713853710425818196,2052,2060,2056,2066,2068,2053,1194
1022,1713853710435821585,2061,2052,2054,2053,2034,2056,1196
1023,1713853710445819223,2052,2057,2054,2045,2066,2054,1195
1024,1713853710455823624,2057,2042,2038,2056,2023,2054,1194
1025,1713853710465818407,2057,2073,2068,2044,2061,2051,1198
1026,1713853710475823439,2061,2053,2066,2068,2047,2056,1198
1027,1713853710485818913,2044,2052,2049,2063,2085,2052,1197
1028,1713853710495821271,2059,2049,2053,2045,2034,2052,1197
1029,1713853710505819540,2048,2062,2060,2081,2058,2047,1193
1030,1713853710515824091,2058,2040,2032,2058,2037,2056,1196
1031,1713853710525819265,2046,2056,2050,2040,2070,2051,1195
1032,1713853710535822784,2054,2042,2033,2057,2036,2053,1194
1033,1713853710545819040,2048,2069,2065,2073,2090,2056,1196
1034,1713853710555840353,2064,2051,2047,2070,2042,2059,1195
1035,1713853710565821270,2042,2054,2054,2029,2059,2047,1192
1036,1713853710575821523,2063,2057,2064,2068,2039,2052,1196
1037,1713853710585823891,2043,2049,2033,2056,2064,2051,1195
1038,1713853710595827189,2061,2052,2053,2051,2042,2056,1196
1039,1713853710605819527,2053,2057,2040,2023,2096,2053,1195
1040,1713853710615822335,2058,2047,2042,2052,2034,2053,1196
1041,1713853710625819282,2056,2057,2056,2064,2068,2052,1195
1042,1713853710635821870,2056,2054,2052,2057,2040,2053,1196
1043,1713853710645820029,2052,2058,2061,2076,2072,2052,1195
1044,1713853710655826584,2057,2043,2033,2085,2063,2058,1194
1045,1713853710665818602,2053,2073,2096,2036,2060,2054,1194
1046,1713853710675819427,2060,2047,2060,2017,2021,2052,1196
1047,1713853710685819389,2042,2061,2046,2039,2054,2053,1194
1048,1713853710695822157,2060,2046,2042,2065,2049,2056,1194
1049,1713853710705819144,2051,2056,2045,2042,2078,2053,1197
1050,1713853710715821902,2061,2050,2058,2058,2040,2056,1196
1051,1713853710725817998,2044,2054,2058,2056,2071,2049,1196
1052,1713853710735821777,2064,2053,2044,2077,2041,2052,1196
1053,1713853710745821459,2048,2051,2046,2069,2064,2051,1194
1054,1713853710755825039,2060,2053,2057,2069,2024,2058,1194
1055,1713853710765818530,2056,2050,2041,2042,2080,2054,1193
1056,1713853710775821358,2060,2048,2044,2056,2021,2049,1193
1057,1713853710785857117,2045,2054,2047,2046,2072,2048,1196
1058,1713853710795824258,2062,2045,2046,2072,2080,2057,1194
1059,1713853710805804956,2046,2052,2038,2046,2061,2052,1194
1060,1713853710815818223,2061,2048,2044,2052,2024,2053,1193
1061,1713853710825818666,2050,2049,2050,2045,2073,2050,1195
1062,1713853710835826955,2059,2050,2053,2047,1989,2049,1196
1063,1713853710845824142,2049,2058,2065,2045,2074,2055,1198
1064,1713853710855823223,2056,2058,2064,2100,2064,2060,1196
1065,1713853710865817876,2054,2056,2052,2090,2066,2053,1196
1066,1713853710875821566,2062,2056,2065,2057,2032,2056,1197
1067,1713853710885817601,2056,2054,2050,2024,2060,2046,1192
1068,1713853710895838623,2056,2051,2048,2052,2038,2056,1197
1069,1713853710905820261,2042,2044,2008,2036,2082,2051,1197
1070,1713853710915820544,2064,2083,2131,2078,2041,2059,1197
1071,1713853710925814647,2046,2049,2047,2056,2059,2050,1196
1072,1713853710935821051,2056,2043,2041,2060,2041,2054,1196
1073,1713853710945819681,2056,2073,2129,2055,2068,2054,1195
1074,1713853710955823020,2060,2052,2050,2088,2044,2054,1197
1075,1713853710965818584,2046,2054,2052,1947,2056,2047,1192
1076,1713853710975820712,2057,2056,2059,2069,2036,2056,1195
1077,1713853710985818590,2050,2056,2059,2038,2028,2041,1193
1078,1713853710995823602,2052,2058,2057,2067,2039,2064,1198
1079,1713853711005823324,2049,2052,2052,2033,2052,2047,1192
1080,1713853711015819159,2064,2051,2054,2065,2032,2051,1195
1081,1713853711025819363,2041,2056,2064,2043,2075,2051,1194
1082,1713853711035834573,2057,2044,2036,2053,2042,2054,1195
1083,1713853711045816623,2044,2074,2117,2078,2072,2052,1194
1084,1713853711055820212,2057,2064,2096,2082,2037,2057,1195
1085,1713853711065818542,2041,2053,2042,2047,2048,2047,1193
1086,1713853711075823103,2064,2045,2030,2055,2040,2058,1196
1087,1713853711085822805,2051,2056,2050,2058,2068,2050,1196
1088,1713853711095818610,2064,2050,2052,2069,2029,2054,1196
1089,1713853711105817992,2044,2059,2061,2038,2072,2053,1195
1090,1713853711115821251,2056,2045,2037,2054,2032,2056,1195
1091,1713853711125822776,2039,2053,2040,2054,2056,2050,1195
1092,1713853711135839460,2064,2056,2060,2065,2043,2056,1194
1093,1713853711145818914,2042,2054,2051,2057,2067,2052,1196
1094,1713853711155823666,2062,2051,2072,2068,2046,2054,1195
1095,1713853711165818670,2046,2058,2048,2033,2034,2045,1191
1096,1713853711175821718,2056,2044,2041,2085,2036,2056,1193
1097,1713853711185825157,2060,2047,2015,2071,2068,2052,1193
1098,1713853711195826853,2053,2028,1998,2061,2042,2056,1196
1099,1713853711205817589,2049,2053,2042,2043,2058,2050,1195
1100,1713853711215815197,2062,2052,2053,2071,2037,2054,1195
1101,1713853711225817744,2039,2054,2041,2037,2063,2051,1195
1102,1713853711235820722,2053,2048,2064,2080,2052,2062,1194
1103,1713853711245819513,2052,2047,2032,2038,2056,2045,1192
1104,1713853711255815208,2059,2050,2045,2057,2039,2056,1196
1105,1713853711265817635,2045,2050,2032,2042,2060,2050,1195
1106,1713853711275820563,2064,2050,2050,2068,2044,2053,1197
1107,1713853711285829272,2053,2050,2046,2046,2066,2048,1195
1108,1713853711295818916,2058,2048,2033,2061,2033,2053,1196
1109,1713853711305818608,2051,2067,2078,2071,2049,2050,1194
1110,1713853711315821315,2058,2047,2047,2071,2042,2052,1195
1111,1713853711325818472,2047,2064,2091,2045,2070,2050,1195
1112,1713853711335836108,2060,2051,2052,2056,2096,2061,1196
1113,1713853711345817567,2050,2056,2045,2036,2067,2053,1194
1114,1713853711355826255,2057,2057,2086,2077,2056,2056,1195
1115,1713853711365818153,2055,2057,2052,2020,2064,2048,1191
1116,1713853711375828395,2056,2046,2056,2046,2042,2053,1193
1117,1713853711385817928,2047,2047,2032,2048,2084,2052,1194
1118,1713853711395824623,2057,2043,2036,2068,2041,2056,1195
1119,1713853711405818695,2049,2056,2038,2045,2054,2052,1194
1120,1713853711415821052,2057,2049,2052,2084,2043,2055,1193
1121,1713853711425818581,2051,2053,2054,2057,2076,2051,1193
1122,1713853711435824013,2057,2050,2082,2051,2037,2053,1193
1123,1713853711445820038,2043,2045,2018,2047,2069,2050,1194
1124,1713853711455823237,2055,2047,2052,2065,2045,2057,1197
1125,1713853711465818320,2047,2044,2044,2045,2065,2049,1196
1126,1713853711475822190,2057,2059,2110,2076,2042,2050,1196
1127,1713853711485827413,2045,2056,2044,2044,2056,2048,1194
1128,1713853711495825252,2060,2047,2048,2067,2041,2054,1195
1129,1713853711505816368,2051,2049,2050,2043,2072,2052,1195
1130,1713853711515824346,2058,2053,2066,2042,2009,2056,1194
1131,1713853711525819089,2054,2054,2050,2040,2045,2048,1193
1132,1713853711535826445,2060,2047,2062,2062,2040,2056,1196
1133,1713853711545816629,2043,2056,2031,2034,2059,2052,1195
1134,1713853711555818626,2062,2052,2050,2069,2058,2059,1196
1135,1713853711565818118,2056,2049,2033,2036,2059,2047,1189
1136,1713853711575820926,2059,2047,2051,2060,2045,2052,1195
1137,1713853711585818183,2054,2060,2064,2045,2060,2052,1195
1138,1713853711595833023,2064,2048,2056,2061,2041,2052,1193
1139,1713853711605816705,2050,2054,2050,2047,2040,2045,1196
1140,1713853711615829212,2054,2046,2037,2041,2041,2056,1191
1141,1713853711625819216,2045,2053,2050,2046,2067,2054,1194
1142,1713853711635826693,2056,2037,2024,2031,2038,2052,1195
1143,1713853711645820774,2044,2052,2045,2057,2075,2050,1195
1144,1713853711655823472,2056,2046,2050,2063,2060,2056,1194
1145,1713853711665818125,2040,2052,2049,2036,2056,2051,1197
1146,1713853711675818609,2061,2052,2056,2072,2046,2057,1196
1147,1713853711685818341,2043,2056,2053,2040,2060,2057,1196
1148,1713853711695839162,2067,2056,2033,2066,2049,2054,1195
1149,1713853711705818256,2051,2051,2037,2040,2061,2044,1193
1150,1713853711715817437,2058,2055,2069,2067,2041,2053,1195
1151,1713853711725817019,2047,2056,2050,2043,2065,2052,1196
1152,1713853711735803947,2062,2047,2042,2074,2026,2047,1195
1153,1713853711745819759,2041,2052,2050,2034,2046,2050,1193
1154,1713853711755819893,2066,2060,2073,2084,2047,2061,1196
1155,1713853711765817952,2042,2060,2057,2056,2090,2052,1194
1156,1713853711775820389,2059,2040,2020,2068,2039,2049,1196
1157,1713853711785817987,2045,2056,2068,2046,2064,2051,1195
1158,1713853711795834561,2065,2050,2060,2071,2059,2057,1193
1159,1713853711805816270,2047,2070,2095,2052,2063,2050,1196
1160,1713853711815821121,2062,2045,2043,2055,2036,2055,1196
1161,1713853711825818369,2058,2056,2056,2045,2061,2049,1194
1162,1713853711835787815,2058,2046,2040,2061,2036,2052,1193
1163,1713853711845828133,2047,2056,2026,2030,2073,2052,1193
1164,1713853711855816193,2061,2045,2052,2065,2041,2055,1194
1165,1713853711865818450,2053,2054,2047,2045,2064,2050,1196
1166,1713853711875819334,2056,2048,2052,2069,2063,2056,1198
1167,1713853711885819087,2052,2050,2042,2034,2053,2048,1196
1168,1713853711895838646,2056,2059,2082,2073,2049,2057,1196
1169,1713853711905815776,2053,2058,2061,2046,2057,2051,1196
1170,1713853711915821048,2054,2056,2076,2060,2045,2058,1194
1171,1713853711925817705,2049,2067,2108,2060,2069,2052,1196
1172,1713853711935821234,2053,2046,2047,2057,2034,2054,1193
1173,1713853711945820977,2048,2053,2051,2052,2064,2052,1195
1174,1713853711955818334,2060,2053,2075,2072,2044,2057,1197
1175,1713853711965824238,2056,2060,2056,2043,2058,2051,1196
1176,1713853711975818620,2055,2045,2021,2064,2049,2068,1193
1177,1713853711985816880,2049,2043,2014,2030,2052,2045,1193
1178,1713853711995834576,2056,2044,2053,2057,2040,2047,1193
1179,1713853712005815443,2046,2059,2073,2059,2072,2053,1196
1180,1713853712015820484,2055,2046,2044,2073,2062,2061,1195
1181,1713853712025817472,2040,2057,2044,2049,2053,2046,1192
1182,1713853712035821222,2055,2047,2043,2061,2041,2054,1198
1183,1713853712045818229,2051,2053,2048,2042,2061,2047,1192
1184,1713853712055817510,2065,2053,2056,2075,2040,2051,1196
1185,1713853712065817853,2056,2056,2042,2046,2062,2053,1195
1186,1713853712075818628,2064,2061,2068,2064,2042,2057,1196
1187,1713853712085827116,2045,2045,2008,2047,2054,2047,1193
1188,1713853712095830305,2057,2072,2088,2050,2038,2057,1195
1189,1713853712105816311,2049,2053,2050,2056,2061,2045,1193
1190,1713853712115827745,2065,2056,2077,2064,2072,2065,1196
1191,1713853712125820716,2054,2066,2076,2062,2068,2057,1197
1192,1713853712135827280,2058,2060,2065,2062,2047,2056,1196
1193,1713853712145817344,2057,2054,2057,2050,2063,2049,1196
1194,1713853712155823518,2064,2050,2038,2068,2044,2057,1196
1195,1713853712165818451,2050,2042,2015,2042,2076,2050,1193
1196,1713853712175822131,2060,2049,2045,2064,2057,2058,1197
1197,1713853712185820321,2056,2054,2045,2036,2048,2045,1193
1198,1713853712195836153,2060,2054,2058,2069,2051,2058,1195
1199,1713853712205817561,2048,2056,2047,2050,2064,2050,1195
1200,1713853712215818795,2058,2049,2052,2048,2038,2061,1196
1201,1713853712225818058,2048,2057,2073,2048,2058,2049,1196
1202,1713853712235824142,2056,2044,2047,2063,2030,2056,1196
1203,1713853712245815959,2047,2053,2053,2040,2060,2050,1196
1204,1713853712255819287,2061,2054,2056,2053,2042,2056,1194
1205,1713853712265818689,2046,2057,2053,2069,2060,2049,1196
1206,1713853712275818371,2064,2054,2052,2053,2043,2056,1197
1207,1713853712285818154,2045,2054,2056,2045,2046,2046,1194
1208,1713853712295821062,2066,2060,2041,2078,2052,2056,1195
1209,1713853712305818189,2045,2047,2034,2055,2084,2047,1194
1210,1713853712315824072,2065,2047,2039,2061,2040,2052,1195
1211,1713853712325818506,2055,2057,2082,2030,2059,2049,1195
1212,1713853712335821664,2056,2049,2044,2053,2041,2053,1195
1213,1713853712345819302,2045,2056,2061,2038,2065,2052,1196
1214,1713853712355822240,2061,2052,2068,2074,2066,2057,1196
1215,1713853712365817784,2048,2056,2053,2045,2058,2050,1193
1216,1713853712375818689,2059,2051,2043,2064,2034,2052,1196
1217,1713853712385818131,2050,2051,2060,2056,2066,2051,1193
1218,1713853712395823594,2057,2047,2045,2062,2045,2056,1197
1219,1713853712405818386,2054,2053,2074,2053,2056,2049,1193
1220,1713853712415818138,2050,2052,2052,2072,2056,2060,1196
1221,1713853712425818022,2053,2051,2030,2050,2064,2052,1195
1222,1713853712435823905,2058,2050,2044,2059,2045,2056,1197
1223,1713853712445819109,2048,2052,2052,2056,2059,2053,1193
1224,1713853712455823009,2056,2049,2041,2066,2036,2056,1195
1225,1713853712465820817,2061,2047,2038,2044,2053,2052,1196
1226,1713853712475823174,2060,2056,2056,2071,2058,2056,1196
1227,1713853712485819070,2045,2056,2058,2025,2054,2046,1192
1228,1713853712495822148,2064,2050,2052,2054,2033,2056,1196
1229,1713853712505818213,2047,2064,2086,2056,2063,2052,1196
1230,1713853712515824337,2062,2050,2040,2077,2042,2057,1197
1231,1713853712525818600,2061,2061,2058,2060,2061,2053,1196
1232,1713853712535821137,2064,2050,2048,2042,2036,2057,1196
1233,1713853712545818845,2058,2064,2059,2047,2041,2045,1193
1234,1713853712555822084,2057,2048,2033,2064,2040,2050,1194
1235,1713853712565818329,2053,2054,2045,2049,2058,2052,1194
1236,1713853712575823582,2050,2051,2052,2064,2041,2056,1196
1237,1713853712585818816,2050,2065,2105,2046,2059,2052,1194
1238,1713853712595828968,2067,2052,2055,2061,2040,2054,1195
1239,1713853712605820384,2045,2051,2046,2070,2061,2052,1195
1240,1713853712615827670,2066,2064,2101,2076,2058,2058,1196
1241,1713853712625819357,2050,2058,2041,2055,2090,2053,1194
1242,1713853712635827326,2059,2052,2052,2044,2040,2053,1195
1243,1713853712645902759,2059,2058,2089,2038,2068,2051,1197
1244,1713853712655825157,2056,2047,2051,2052,2043,2056,1195
1245,1713853712665820591,2045,2053,2052,2044,2064,2047,1194
1246,1713853712675822117,2061,2058,2068,2089,2050,2054,1198
1247,1713853712685820597,2050,2055,2051,2048,2042,2050,1197
1248,1713853712695897432,2051,2049,2056,2061,2036,2056,1197
1249,1713853712705819931,2046,2055,2053,2068,2081,2056,1196
1250,1713853712715832927,2065,2057,2088,2043,2037,2055,1197
1251,1713853712725819435,2053,2052,2056,2032,2063,2048,1197
1252,1713853712735823015,2062,2052,2048,2041,2047,2053,1196
1253,1713853712745868041,2045,2057,2051,2056,2065,2052,1197
1254,1713853712755825665,2064,2053,2069,2065,2066,2053,1194
1255,1713853712765820307,2048,2049,2041,1998,2062,2047,1193
1256,1713853712775823126,2060,2068,2117,2030,2040,2053,1194
1257,1713853712785818771,2047,2055,2053,2068,2068,2054,1196
1258,1713853712795827700,2056,2047,2054,2057,2044,2056,1195
1259,1713853712805818495,2058,2058,2060,2061,2061,2047,1195
1260,1713853712815824148,2063,2053,2075,2068,2047,2052,1193
1261,1713853712825819201,2046,2065,2064,2078,2064,2053,1194
1262,1713853712835827821,2057,2050,2045,2112,2047,2056,1194
1263,1713853712845835668,2045,2054,2051,2053,2062,2053,1194
1264,1713853712855828537,2064,2051,2053,2073,2039,2056,1197
1265,1713853712865820355,2052,2048,2047,2040,2061,2054,1196
1266,1713853712875828272,2066,2056,2060,2060,2027,2052,1198
1267,1713853712885819108,2046,2056,2045,2054,2073,2053,1197
1268,1713853712895780719,2062,2052,2053,2048,2041,2054,1197
1269,1713853712905819815,2045,2056,2063,2088,2065,2052,1196
1270,1713853712915827291,2058,2064,2082,2079,2054,2061,1198
1271,1713853712925819238,2052,2055,2043,2031,2056,2050,1196
1272,1713853712935830152,2057,2054,2053,2043,2036,2053,1195
1273,1713853712945819806,2042,2056,2061,2037,2052,2047,1193
1274,1713853712955827673,2060,2050,2051,2075,2042,2054,1194
1275,1713853712965820322,2055,2056,2052,2069,2047,2046,1189
1276,1713853712975824863,2062,2050,2050,2066,2044,2054,1196
1277,1713853712985819706,2056,2056,2056,2050,2069,2050,1196
1278,1713853712995823897,2058,2050,2050,2059,2045,2052,1196
1279,1713853713005819070,2047,2051,2044,2059,2069,2053,1196
1280,1713853713015822289,2066,2044,2025,2047,2033,2057,1196
1281,1713853713025818634,2052,2074,2122,2051,2053,2048,1196
1282,1713853713035829307,2056,2047,2043,2029,2035,2053,1194
1283,1713853713045819352,2056,2058,2052,2072,2052,2047,1193
1284,1713853713055822590,2058,2050,2047,2064,2045,2054,1195
1285,1713853713065819066,2048,2064,2056,2042,2058,2051,1197
1286,1713853713075829138,2064,2055,2060,2064,2044,2056,1197
1287,1713853713085819864,2042,2052,2049,2029,2064,2047,1194
1288,1713853713095826308,2058,2056,2057,2028,2034,2047,1196
1289,1713853713105819408,2047,2057,2056,2041,2058,2050,1196
1290,1713853713115828998,2061,2050,2053,2061,2046,2056,1199
1291,1713853713125819002,2052,2056,2073,2064,2056,2048,1196
1292,1713853713135827852,2056,2042,2028,2057,2040,2053,1195
1293,1713853713145819489,2056,2049,2047,2013,2058,2045,1195
1294,1713853713155827988,2059,2049,2053,2090,2045,2056,1197
1295,1713853713165819915,2053,2069,2085,2054,2060,2053,1196
1296,1713853713175821921,2065,2052,2079,2062,2043,2056,1193
1297,1713853713185820671,2052,2051,2051,2067,2065,2048,1194
1298,1713853713195780159,2057,2056,2056,2082,2044,2060,1197
1299,1713853713205823292,2051,2063,2068,2060,2062,2046,1194
1300,1713853713215825228,2064,2049,2054,2082,2024,2052,1197
1301,1713853713225819120,2055,2050,2041,2056,2057,2046,1194
1302,1713853713235824472,2060,2056,2080,2065,2047,2056,1195
1303,1713853713245819896,2047,2047,2034,2022,2056,2049,1196
1304,1713853713255824618,2060,2056,2056,2088,2047,2052,1196
1305,1713853713265819281,2056,2060,2073,2046,2059,2050,1196
1306,1713853713275824693,2061,2051,2053,2065,2068,2054,1198
1307,1713853713285819767,2045,2052,2038,2047,2053,2050,1196
1308,1713853713295822875,2065,2064,2094,2072,2037,2058,1197
1309,1713853713305819072,2049,2052,2048,2060,2065,2048,1196
1310,1713853713315825586,2061,2050,2047,2060,2040,2051,1196
1311,1713853713325818986,2048,2057,2048,2037,2066,2049,1197
1312,1713853713335822876,2058,2053,2051,2075,2024,2054,1196
1313,1713853713345825964,2048,2054,2061,2056,2059,2052,1196
1314,1713853713355830095,2057,2049,2051,2067,2038,2053,1194
1315,1713853713365823396,2054,2054,2032,2046,2053,2046,1189
1316,1713853713375827826,2056,2050,2052,2063,2047,2056,1195
1317,1713853713385819063,2056,2050,2053,2056,2062,2049,1196
1318,1713853713395828433,2060,2046,2041,2059,2052,2055,1195
1319,1713853713405819208,2050,2057,2032,2052,2066,2052,1196
1320,1713853713415828799,2053,2048,2047,2045,2040,2057,1195
1321,1713853713425819855,2058,2064,2076,2054,2056,2052,1197
1322,1713853713435827672,2053,2047,2049,2020,2026,2050,1196
1323,1713853713445819169,2057,2062,2084,2048,2056,2053,1196
1324,1713853713455826164,2057,2045,2037,2070,2040,2056,1194
1325,1713853713465819284,2049,2057,2061,2051,2062,2049,1197
1326,1713853713475822563,2047,2049,2057,2106,2056,2057,1198
1327,1713853713485818689,2052,2055,2053,2074,2062,2049,1196
1328,1713853713495825174,2050,2052,2050,2072,2039,2056,1196
1329,1713853713505819195,2056,2059,2065,2042,2060,2051,1196
1330,1713853713515828324,2057,2053,2060,2064,2040,2057,1198
1331,1713853713525820353,2044,2057,2064,2049,2068,2050,1196
1332,1713853713535825535,2059,2052,2049,2073,2058,2061,1196
1333,1713853713545820669,2048,2053,2047,2029,2056,2049,1196
1334,1713853713555824348,2057,2051,2074,2049,2042,2056,1196
1335,1713853713565819742,2057,2057,2056,2049,2061,2054,1193
1336,1713853713575825095,2050,2052,2052,2060,2074,2050,1194
1337,1713853713585819538,2053,2060,2061,2042,2061,2050,1195
1338,1713853713595825802,2056,2051,2051,2060,2056,2054,1196
1339,1713853713605820054,2051,2060,2056,2000,2060,2052,1194
1340,1713853713615824935,2059,2053,2052,2071,2058,2061,1196
1341,1713853713625819117,2050,2050,2054,2056,2081,2056,1195
1342,1713853713635821474,2056,2046,2047,2042,2038,2052,1196
1343,1713853713645838990,2051,2056,2051,2019,2044,2049,1195
1344,1713853713655820488,2056,2048,2044,2057,2045,2060,1194
1345,1713853713665823516,2052,2066,2070,2023,2058,2051,1198
1346,1713853713675826504,2056,2059,2076,2068,2044,2060,1196
1347,1713853713685818632,2050,2055,2069,2032,2059,2049,1196
1348,1713853713695822162,2068,2052,2060,2063,2044,2056,1195
1349,1713853713705818969,2056,2053,2044,2094,2045,2050,1197
1350,1713853713715828920,2059,2050,2053,2100,2040,2056,1197
1351,1713853713725820687,2046,2060,2059,2067,2065,2054,1197
1352,1713853713735825308,2056,2049,2044,2036,2038,2049,1194
1353,1713853713745820712,2059,2056,2056,2020,2065,2051,1193
1354,1713853713755830123,2060,2046,2050,2071,2056,2058,1195
1355,1713853713765820888,2048,2057,2054,2045,2060,2051,1195
1356,1713853713775822133,2056,2056,2048,2094,2046,2054,1195
1357,1713853713785819050,2057,2058,2057,2075,2063,2048,1196
1358,1713853713795822239,2058,2048,2054,2060,2049,2056,1195
1359,1713853713805819467,2047,2057,2081,2045,2061,2051,1194
1360,1713853713815824038,2058,2054,2049,2064,2045,2057,1196
1361,1713853713825820063,2044,2052,2049,2072,2067,2049,1195
1362,1713853713835822309,2060,2046,2043,2047,2021,2049,1197
1363,1713853713845818034,2051,2058,2071,2057,2049,2049,1194
1364,1713853713855824579,2054,2052,2059,2076,2036,2054,1192
1365,1713853713865824001,2053,2056,2052,2061,2057,2049,1195
1366,1713853713875822421,2056,2061,2081,2069,2045,2060,1197
1367,1713853713885823415,2047,2050,2041,2044,2048,2050,1193
1368,1713853713895822606,2056,2048,2056,2053,2040,2058,1195
1369,1713853713905819533,2048,2053,2048,2060,2067,2049,1197
1370,1713853713915825277,2063,2053,2045,1984,2043,2049,1196
1371,1713853713925819339,2052,2057,2056,2063,2057,2053,1195
1372,1713853713935822006,2059,2056,2056,2059,2044,2056,1195
1373,1713853713945819885,2056,2061,2085,2052,2059,2053,1195
1374,1713853713955824536,2066,2054,2068,2074,2033,2057,1197
1375,1713853713965821472,2053,2059,2072,2002,2077,2049,1194
1376,1713853713975822588,2055,2056,2057,2028,2041,2056,1196
1377,1713853713985819054,2051,2052,2052,2036,2062,2051,1196
1378,1713853713995825549,2064,2056,2064,2076,2077,2057,1195
1379,1713853714005819590,2050,2048,2041,2052,2059,2051,1196
1380,1713853714015827217,2060,2056,2055,2058,2040,2056,1193
1381,1713853714025819316,2048,2053,2048,2040,2049,2048,1195
1382,1713853714035824388,2060,2052,2052,2064,2055,2057,1194
1383,1713853714045818990,2059,2052,2054,2042,2059,2052,1194
1384,1713853714055824533,2054,2053,2073,2058,2043,2054,1195
1385,1713853714065820488,2056,2056,2035,2028,2068,2056,1197
1386,1713853714075827694,2055,2049,2051,2079,2051,2060,1196
1387,1713853714085824121,2045,2060,2085,2069,2065,2054,1195
1388,1713853714095822861,2054,2051,2043,2046,2041,2056,1196
1389,1713853714105820118,2055,2057,2047,2050,2066,2054,1195
1390,1713853714115833015,2060,2060,2061,2054,2044,2056,1197
1391,1713853714125819191,2054,2057,2067,2010,2057,2049,1197
1392,1713853714135826768,2058,2050,2047,2064,2037,2052,1195
1393,1713853714145819217,2057,2056,2042,2062,2059,2052,1196
1394,1713853714155827776,2061,2049,2046,2062,2041,2058,1197
1395,1713853714165821587,2057,2049,2038,2051,2058,2050,1193
1396,1713853714175822581,2059,2060,2090,2049,2045,2056,1196
1397,1713853714185819979,2056,2060,2068,2037,2056,2047,1192
1398,1713853714195822726,2053,2047,2045,2049,2044,2056,1196
1399,1713853714205816016,2054,2050,2047,2058,2060,2050,1195
1400,1713853714215827781,2061,2050,2051,1987,2018,2055,1195
1401,1713853714225818247,2052,2053,2054,2052,2048,2053,1195
1402,1713853714235824471,2056,2051,2050,2073,2050,2056,1194
1403,1713853714245818322,2056,2056,2052,2050,2065,2053,1194
1404,1713853714255824646,2062,2053,2056,2101,2051,2054,1195
1405,1713853714265822434,2050,2056,2057,1989,2056,2049,1196
1406,1713853714275824431,2049,2052,2052,2072,2040,2056,1198
1407,1713853714285819315,2050,2056,2072,2035,2024,2042,1195
1408,1713853714295826561,2058,2061,2066,2054,2040,2054,1196
1409,1713853714305818648,2053,2054,2054,2056,2063,2052,1195
1410,1713853714315831034,2056,2049,2052,2045,2042,2052,1196
1411,1713853714325820397,2056,2058,2052,2026,2075,2056,1195
1412,1713853714335820961,2052,2047,2049,2073,2045,2056,1197
1413,1713853714345817998,2056,2058,2053,2043,2066,2047,1193
1414,1713853714355820976,2060,2053,2044,2042,2045,2054,1196
1415,1713853714365820688,2061,2069,2072,2061,2062,2053,1193
1416,1713853714375823526,2058,2047,2050,2004,2040,2055,1196
1417,1713853714385819130,2055,2056,2060,1951,2047,2046,1194
1418,1713853714395826287,2064,2050,2044,2065,2044,2054,1195
1419,1713853714405820218,2051,2054,2044,2049,2072,2052,1194
1420,1713853714415863241,2058,2050,2055,2056,2046,2056,1194
1421,1713853714425818751,2046,2053,2068,2038,2065,2049,1196
1422,1713853714435859339,2053,2050,2066,2103,2065,2056,1194
1423,1713853714445818155,2048,2052,2062,2009,2064,2055,1194
1424,1713853714455858603,2064,2050,2054,2066,2041,2051,1194
1425,1713853714465860499,2047,2053,2045,2055,2072,2053,1194
1426,1713853714475858869,2059,2053,2058,2082,2053,2056,1197
1427,1713853714485858350,2045,2050,2046,2068,2060,2048,1196
1428,1713853714495860036,2060,2058,2058,2061,2040,2056,1196
1429,1713853714505858085,2046,2052,2052,2062,2045,2046,1191
1430,1713853714515859100,2059,2050,2056,2060,2045,2058,1196
1431,1713853714525859253,2042,2056,2054,2045,2054,2047,1193
1432,1713853714535858604,2053,2052,2054,2061,2050,2058,1196
1433,1713853714545858577,2053,2055,2052,2040,2056,2052,1193
1434,1713853714555858690,2061,2050,2049,2108,2052,2054,1196
1435,1713853714565858852,2053,2061,2074,2037,2056,2052,1192
1436,1713853714575857443,2056,2054,2054,2056,2043,2056,1195
1437,1713853714585858337,2049,2057,2044,2055,2046,2052,1195
1438,1713853714595857418,2060,2053,2070,2049,2041,2052,1193
1439,1713853714605858954,2050,2053,2045,2092,2064,2053,1194
1440,1713853714615844740,2063,2052,2056,2068,2039,2055,1194
1441,1713853714625842558,2049,2056,2056,2069,2080,2053,1194
1442,1713853714635842040,2068,2066,2076,2097,2044,2052,1194
1443,1713853714645840540,2056,2053,2049,2072,2056,2052,1194
1444,1713853714655841855,2056,2056,2053,2056,2045,2050,1197
1445,1713853714665840265,2063,2068,2113,2056,2074,2054,1196
1446,1713853714675838704,2061,2049,2042,2096,2058,2057,1198
1447,1713853714685837835,2046,2052,2048,2057,2068,2050,1196
1448,1713853714695835203,2065,2052,2058,2040,2043,2057,1196
1449,1713853714705836028,2052,2050,2044,2002,2058,2049,1194
1450,1713853714715835640,2058,2059,2095,2068,2092,2059,1193
1451,1713853714725832707,2063,2076,2125,2065,2069,2050,1196
1452,1713853714735835104,2058,2046,2043,2069,2043,2054,1193
1453,1713853714745831129,2054,2058,2054,2058,2069,2053,1195
1454,1713853714755835530,2054,2048,2036,2038,2049,2055,1197
1455,1713853714765835082,2056,2052,2045,2065,2064,2053,1195
1456,1713853714775830586,2060,2056,2057,2089,2074,2061,1195
1457,1713853714785831631,2048,2057,2060,2072,2054,2046,1192
1458,1713853714795831353,2060,2057,2057,2032,2041,2055,1196
1459,1713853714805830073,2047,2057,2052,2060,2054,2052,1195
1460,1713853714815835456,2062,2053,2059,2061,2030,2053,1196
1461,1713853714825832373,2049,2061,2060,2036,2059,2052,1196
1462,1713853714835832646,2059,2052,2058,2056,2028,2052,1197
1463,1713853714845831366,2047,2053,2046,2032,2062,2047,1194
1464,1713853714855829926,2056,2053,2040,2008,2024,2052,1194
1465,1713853714865832023,2045,2053,2041,2036,2060,2045,1194
1466,1713853714875831976,2066,2052,2050,2059,2044,2057,1196
1467,1713853714885830917,2061,2065,2073,1982,2054,2050,1196
1468,1713853714895834917,2058,2052,2050,2056,2047,2056,1195
1469,1713853714905831152,2050,2048,2049,2038,2077,2052,1196
1470,1713853714915834922,2053,2050,2046,2069,2044,2053,1197
1471,1713853714925831568,2049,2054,2045,2047,2060,2049,1196
1472,1713853714935832322,2054,2052,2047,2079,2043,2053,1195
1473,1713853714945832856,2047,2056,2053,2047,2064,2053,1195
1474,1713853714955829633,2057,2053,2055,2038,2036,2055,1194
1475,1713853714965830407,2049,2049,2039,2036,2045,2048,1194
1476,1713853714975830299,2058,2047,2050,2076,2058,2052,1195
1477,1713853714985830712,2054,2064,2074,2095,2072,2056,1195
1478,1713853714995809516,2053,2052,2064,2063,2037,2054,1194
1479,1713853715005834565,2053,2059,2057,2047,2064,2049,1196
1480,1713853715015836552,2067,2058,2085,2096,2045,2053,1194
1481,1713853715025830984,2050,2054,2052,2036,2086,2050,1195
1482,1713853715035820136,2060,2052,2053,2031,2040,2052,1194
1483,1713853715045832692,2053,2060,2061,2056,2064,2052,1193
1484,1713853715055813288,2056,2052,2056,2050,2029,2056,1197
1485,1713853715065829521,2063,2052,2052,2041,2053,2049,1196
1486,1713853715075834113,2053,2050,2052,2041,2028,2052,1195
1487,1713853715085829978,2041,2052,2047,2041,2071,2048,1196
1488,1713853715095831844,2060,2051,2047,2090,2048,2057,1193
1489,1713853715105840983,2043,2056,2053,2064,2057,2048,1194
1490,1713853715115839864,2058,2055,2064,2080,2052,2058,1195
1491,1713853715125831651,2052,2054,2059,2046,2062,2050,1197
1492,1713853715135833167,2063,2056,2058,2090,2056,2056,1195
1493,1713853715145831056,2047,2056,2052,2027,2054,2050,1194
1494,1713853715155863459,2054,2052,2056,2057,2042,2056,1195
1495,1713853715165852060,2051,2056,2056,2060,2062,2053,1195
1496,1713853715175832266,2057,2056,2065,2058,2034,2053,1195
1497,1713853715185829633,2055,2056,2055,2039,2059,2048,1194
1498,1713853715195860293,2055,2052,2056,2062,2040,2052,1196
1499,1713853715205827505,2054,2053,2056,2044,2052,2045,1194
1500,1713853715215821636,2052,2057,2048,2020,2047,2053,1196
1501,1713853715225825236,2056,2059,2057,2033,2068,2047,1192
1502,1713853715235856266,2054,2047,2047,2046,2045,2054,1196
1503,1713853715245821965,2053,2057,2057,2052,2062,2050,1194
1504,1713853715255853476,2056,2052,2056,2061,2041,2055,1195
1505,1713853715265822822,2042,2053,2050,1996,2047,2045,1194
1506,1713853715275853672,2054,2051,2056,1992,2039,2057,1196
1507,1713853715285822066,2050,2052,2056,2047,2037,2051,1197
1508,1713853715295857525,2057,2049,2047,2065,2040,2057,1195
1509,1713853715305840496,2056,2061,2085,2052,2055,2052,1194
1510,1713853715315849785,2053,2052,2048,2053,2046,2052,1195
1511,1713853715325820523,2056,2064,2065,2036,2059,2054,1195
1512,1713853715335849350,2054,2050,2051,2073,2041,2054,1196
1513,1713853715345817724,2046,2060,2052,2044,2057,2047,1191
1514,1713853715355844006,2060,2053,2060,2056,2025,2056,1195
1515,1713853715365819473,2054,2056,2056,2072,2061,2052,1194
1516,1713853715375843780,2053,2054,2056,2056,2026,2054,1196
1517,1713853715385796094,2056,2052,2050,2002,2053,2053,1197
1518,1713853715395823477,2053,2052,2056,2056,2028,2056,1193
1519,1713853715405820815,2056,2052,2048,2033,2047,2050,1195
1520,1713853715415838721,2059,2053,2056,2065,2061,2057,1196
1521,1713853715425820270,2050,2053,2050,2053,2069,2056,1194
1522,1713853715435840681,2056,2052,2060,2075,2044,2054,1195
1523,1713853715445819053,2055,2057,2067,2058,2066,2053,1195
1524,1713853715455836458,2063,2051,2044,1997,2053,2054,1195
1525,1713853715465817835,2052,2047,2048,2044,2066,2051,1196
1526,1713853715475830051,2064,2056,2056,2056,2047,2060,1197
1527,1713853715485823011,2050,2052,2052,2050,2058,2046,1194
1528,1713853715495832181,2061,2050,2053,2053,2040,2056,1196
1529,1713853715505820041,2046,2055,2054,2042,2058,2051,1195
1530,1713853715515830022,2058,2054,2076,2022,2045,2051,1194
1531,1713853715525819364,2058,2055,2044,2032,2064,2049,1195
1532,1713853715535829846,2058,2068,2094,2074,2048,2060,1195
1533,1713853715545817095,2053,2049,2038,2050,2054,2056,1196
1534,1713853715555827648,2065,2049,2044,2092,2045,2053,1195
1535,1713853715565820678,2051,2056,2060,2049,2065,2047,1190
1536,1713853715575825149,2060,2053,2048,2062,2047,2056,1195
1537,1713853715585821064,2048,2060,2065,2061,2076,2052,1194
1538,1713853715595823641,2052,2049,2039,2065,2044,2057,1196
1539,1713853715605820447,2053,2063,2057,2050,2064,2056,1196
1540,1713853715615822795,2064,2054,2072,2077,2059,2057,1195
1541,1713853715625820203,2053,2056,2050,2050,2047,2048,1196
1542,1713853715635819604,2062,2052,2056,2085,2040,2056,1194
1543,1713853715645823684,2052,2054,2053,2052,2066,2050,1196
1544,1713853715655822745,2062,2056,2056,2060,2050,2057,1196
1545,1713853715665820173,2056,2060,2061,2038,2065,2056,1194
1546,1713853715675822590,2053,2057,2061,2070,2050,2056,1197
1547,1713853715685819247,2053,2049,2042,2053,2058,2051,1195
1548,1713853715695825631,2060,2057,2061,2064,2048,2056,1194
1549,1713853715705820685,2057,2057,2051,2081,2058,2051,1198
1550,1713853715715823352,2060,2050,2059,2079,2052,2054,1196
1551,1713853715725820039,2044,2052,2049,2062,2083,2053,1193
1552,1713853715735820151,2061,2056,2078,2065,2069,2060,1197
1553,1713853715745821046,2056,2047,2034,2033,2062,2051,1195
1554,1713853715755820207,2058,2056,2072,2059,2043,2057,1196
1555,1713853715765819829,2048,2054,2051,2042,2060,2049,1192
1556,1713853715775818519,2056,2052,2057,2064,2043,2053,1193
1557,1713853715785819574,2061,2056,2052,2046,2064,2050,1195
1558,1713853715795819256,2062,2056,2074,2052,2040,2053,1194
1559,1713853715805819759,2045,2053,2057,2057,2056,2050,1195
1560,1713853715815819111,2053,2044,2041,2025,2035,2053,1195
1561,1713853715825820026,2056,2060,2057,2058,2092,2057,1195
1562,1713853715835827462,2057,2049,2036,2052,2038,2053,1192
1563,1713853715845800244,2051,2056,2067,2036,2063,2053,1193
1564,1713853715855816767,2064,2052,2052,2057,2041,2058,1194
1565,1713853715865822200,2056,2056,2068,2065,2060,2052,1194
1566,1713853715875831179,2058,2056,2062,2069,2052,2053,1195
1567,1713853715885819971,2050,2047,2046,2050,2072,2050,1196
1568,1713853715895850340,2061,2050,2057,2076,2073,2053,1195
1569,1713853715905818464,2045,2056,2038,2047,2048,2048,1196
1570,1713853715915816783,2060,2056,2056,2045,2043,2061,1196
1571,1713853715925819290,2055,2053,2053,2056,2072,2052,1196
1572,1713853715935823511,2057,2067,2110,2056,2044,2056,1195
1573,1713853715945821309,2051,2056,2050,2065,2061,2048,1195
1574,1713853715955816694,2057,2049,2046,2077,2047,2056,1194
1575,1713853715965819492,2051,2050,2054,2037,2057,2048,1192
1576,1713853715975822229,2059,2056,2069,2062,2046,2058,1193
1577,1713853715985819206,2054,2071,2082,2056,2072,2056,1196
1578,1713853715995831712,2058,2047,2042,2061,2069,2056,1195
1579,1713853716005819772,2050,2063,2063,2045,2084,2056,1195
1580,1713853716015821999,2064,2059,2074,2068,2038,2051,1195
1581,1713853716025820469,2045,2047,2039,2072,2061,2049,1195
1582,1713853716035838675,2061,2071,2131,2080,2061,2057,1196
1583,1713853716045821917,2053,2052,2052,2042,2059,2048,1194
1584,1713853716055799228,2057,2049,2056,2042,2041,2053,1197
1585,1713853716065820790,2048,2046,2025,2078,2082,2049,1195
1586,1713853716075819721,2061,2068,2096,2092,2071,2058,1197
1587,1713853716085822919,2050,2050,2045,2033,2061,2049,1196
1588,1713853716095818564,2057,2049,2041,2057,2029,2055,1198
1589,1713853716105820490,2050,2049,2030,2024,2046,2047,1194
1590,1713853716115820292,2052,2046,2047,2046,2052,2056,1195
1591,1713853716125818943,2056,2072,2112,2050,2056,2054,1196
1592,1713853716135839463,2058,2049,2048,2055,2041,2056,1196
1593,1713853716145820060,2049,2055,2070,2044,2064,2051,1194
1594,1713853716155818560,2059,2051,2040,2062,2038,2052,1195
1595,1713853716165819494,2053,2050,2043,2047,2056,2053,1195
1596,1713853716175819517,2061,2082,2088,2070,2036,2046,1192
1597,1713853716185820290,2052,2062,2075,2067,2068,2052,1193
1598,1713853716195820153,2056,2050,2046,2051,2038,2052,1195
1599,1713853716205822090,2052,2056,2052,2048,2052,2052,1195
1600,1713853716215819157,2062,2052,2058,2064,2053,2053,1193
1601,1713853716225819620,2053,2057,2056,2045,2032,2045,1192
1602,1713853716235822348,2054,2052,2052,2064,2040,2058,1196
1603,1713853716245822931,2056,2068,2101,2044,2058,2046,1193
1604,1713853716255822564,2052,2044,2033,2060,2049,2053,1197
1605,1713853716265826083,2056,2058,2057,2068,2058,2056,1195
1606,1713853716275824843,2050,2043,2045,1965,2041,2052,1197
1607,1713853716285820438,2047,2056,2054,2035,2061,2052,1196
1608,1713853716295826121,2053,2050,2056,2064,2047,2056,1197
1609,1713853716305821074,2052,2060,2059,2041,2061,2052,1193
1610,1713853716315823811,2063,2047,2050,2064,2045,2056,1197
1611,1713853716325820508,2049,2060,2066,2038,2060,2051,1196
1612,1713853716335822324,2051,2053,2050,2065,2046,2057,1196
1613,1713853716345821626,2046,2060,2075,2025,2064,2056,1195
1614,1713853716355816588,2057,2053,2058,2064,2041,2056,1194
1615,1713853716365819717,2049,2057,2061,2070,2069,2048,1193
1616,1713853716375818668,2061,2058,2049,2078,2050,2064,1193
1617,1713853716385818360,2046,2044,2029,2039,2056,2054,1192
1618,1713853716395819354,2058,2052,2049,2060,2056,2056,1196
1619,1713853716405820409,2046,2058,2051,2051,2064,2052,1192
1620,1713853716415818939,2058,2051,2040,2037,2043,2054,1194
1621,1713853716425799516,2052,2058,2049,2068,2088,2054,1193
1622,1713853716435819004,2063,2063,2084,2080,2042,2056,1196
1623,1713853716445820460,2056,2057,2047,2046,2063,2056,1196
1624,1713853716455820452,2058,2048,2028,2072,2036,2049,1192
1625,1713853716465739174,2046,2054,2060,2045,2063,2053,1196
1626,1713853716475822952,2065,2051,2064,2067,2037,2051,1195
1627,1713853716485820249,2061,2051,2034,2047,2040,2046,1192
1628,1713853716495820863,2049,2047,2045,2066,2052,2056,1196
1629,1713853716505821017,2051,2053,2043,2021,2048,2046,1193
1630,1713853716515821861,2058,2059,2052,2056,2047,2055,1195
1631,1713853716525820952,2056,2072,2104,2051,2050,2051,1194
1632,1713853716535792331,2062,2047,2051,2063,2049,2056,1198
1633,1713853716545744685,2044,2060,2105,2043,2054,2050,1197
1634,1713853716555825047,2057,2061,2084,2068,2045,2052,1197
1635,1713853716565819459,2045,2052,2051,2050,2071,2054,1193
1636,1713853716575820844,2056,2048,2048,2064,2046,2057,1195
1637,1713853716585820537,2044,2051,2064,2050,2050,2045,1193
1638,1713853716595823495,2059,2049,2040,2068,2047,2052,1193
1639,1713853716605820782,2046,2054,2052,2004,2056,2052,1196
1640,1713853716615821005,2063,2053,2048,2070,2056,2055,1194
1641,1713853716625820897,2049,2052,2046,2061,2073,2050,1194
1642,1713853716635823845,2063,2057,2038,2075,2054,2057,1195
1643,1713853716645820792,2056,2056,2058,2043,2037,2042,1196
1644,1713853716655823250,2062,2052,2048,2076,2052,2058,1195
1645,1713853716665823303,2047,2056,2038,2022,2051,2048,1197
1646,1713853716675821242,2058,2056,2072,2084,2034,2053,1197
1647,1713853716685820272,2051,2049,2040,2067,2056,2047,1195
1648,1713853716695820736,2060,2052,2053,2061,2042,2051,1196
1649,1713853716705820207,2055,2055,2043,2045,2061,2056,1194
1650,1713853716715818977,2056,2052,2060,2060,2040,2053,1196
1651,1713853716725819531,2060,2066,2064,2054,2060,2051,1195
1652,1713853716735825074,2052,2045,2026,2072,2043,2057,1196
1653,1713853716745821651,2049,2051,2054,2063,2076,2052,1196
1654,1713853716755821122,2061,2051,2051,2061,2020,2053,1195
1655,1713853716765847664,2047,2054,2052,2045,2097,2050,1192
1656,1713853716775820717,2058,2052,2056,2042,2040,2056,1196
1657,1713853716785819777,2056,2057,2056,2029,2052,2053,1197
1658,1713853716795819600,2060,2058,2081,2072,2045,2053,1196
1659,1713853716805832406,2043,2051,2051,2042,2062,2045,1196
1660,1713853716815823102,2064,2053,2056,2060,2028,2056,1196
1661,1713853716825826771,2053,2057,2050,2044,2067,2050,1197
1662,1713853716835822175,2062,2048,2060,2065,2079,2056,1194
1663,1713853716845820695,2056,2052,2052,2053,2060,2045,1192
1664,1713853716855821108,2069,2061,2114,2084,2049,2057,1197
1665,1713853716865822724,2056,2057,2061,2046,2058,2047,1194
1666,1713853716875823158,2053,2041,2037,2061,2034,2052,1197
1667,1713853716885820986,2052,2053,2039,2042,2067,2048,1195
1668,1713853716895820408,2058,2048,2049,2062,2034,2051,1196
1669,1713853716905820591,2056,2056,2052,2025,2049,2050,1195
1670,1713853716915833508,2060,2052,2043,2065,2039,2056,1195
1671,1713853716925805809,2052,2053,2064,2056,2064,2049,1196
1672,1713853716935824406,2060,2054,2082,2088,2041,2053,1195
1673,1713853716945820210,2049,2056,2076,2047,2068,2050,1196
1674,1713853716955823570,2057,2043,2035,2058,2036,2054,1195
1675,1713853716965822129,2052,2050,2032,2050,2056,2051,1192
1676,1713853716975819307,2066,2056,2052,2047,2044,2052,1193
1677,1713853716985819510,2054,2056,2058,2044,2064,2051,1197
1678,1713853716995822759,2053,2052,2044,2069,2036,2058,1195
1679,1713853717005819846,2056,2050,2040,2040,2058,2050,1197
1680,1713853717015823385,2058,2052,2055,2060,2044,2054,1195
1681,1713853717025829118,2058,2057,2056,2037,2059,2054,1193
1682,1713853717035790359,2054,2052,2052,2067,2034,2052,1198
1683,1713853717045820627,2048,2052,2046,2057,2058,2053,1196
1684,1713853717055819889,2064,2056,2078,2072,2047,2055,1195
1685,1713853717065819521,2045,2056,2053,2051,2065,2051,1195
1686,1713853717075818942,2059,2050,2050,2069,2049,2058,1197
1687,1713853717085833282,2060,2056,2056,2031,2059,2052,1196
1688,1713853717095822414,2058,2056,2037,2053,2059,2056,1195
1689,1713853717105819681,2052,2053,2040,2039,2056,2048,1196
1690,1713853717115819774,2058,2056,2056,2070,2036,2052,1197
1691,1713853717125821450,2060,2054,2045,2000,2066,2050,1196
1692,1713853717135841340,2060,2048,2052,2060,2047,2057,1196
1693,1713853717145818290,2054,2051,2044,2042,2061,2049,1195
1694,1713853717155826016,2055,2047,2044,2057,2026,2056,1197
1695,1713853717165820749,2048,2068,2092,2056,2076,2058,1192
1696,1713853717175820040,2053,2045,2040,2054,2032,2051,1196
1697,1713853717185820063,2051,2056,2041,2041,2062,2046,1192
1698,1713853717195822941,2056,2046,2041,2067,2045,2058,1196
1699,1713853717205820328,2053,2063,2059,2058,2058,2050,1196
1700,1713853717215819580,2057,2052,2047,2047,2039,2056,1195
1701,1713853717225830623,2056,2069,2063,2047,2072,2056,1193
1702,1713853717235820447,2056,2049,2049,2065,2049,2056,1195
1703,1713853717245820921,2057,2057,2037,2060,2067,2056,1196
1704,1713853717255820552,2061,2046,2032,1968,2021,2051,1198
1705,1713853717265820775,2046,2058,2061,2059,2091,2052,1196
1706,1713853717275821780,2062,2052,2056,2068,2036,2057,1196
1707,1713853717285820199,2052,2052,2054,2047,2055,2047,1192
1708,1713853717295823167,2060,2056,2066,2073,2046,2056,1196
1709,1713853717305819994,2051,2080,2123,2064,2062,2053,1195
1710,1713853717315821229,2065,2047,2045,2080,2034,2052,1197
1711,1713853717325829708,2053,2058,2052,2044,2068,2052,1198
1712,1713853717335818760,2054,2052,2055,2072,2045,2060,1196
1713,1713853717345820195,2050,2058,2056,2058,2063,2052,1197
1714,1713853717355823133,2061,2050,2056,2040,2028,2052,1196
1715,1713853717365820821,2050,2053,2050,2012,2052,2052,1193
1716,1713853717375821124,2056,2048,2052,2051,2032,2053,1193
1717,1713853717385820265,2056,2052,2052,2087,2066,2050,1195
1718,1713853717395824105,2056,2048,2047,2084,2056,2058,1196
1719,1713853717405820861,2052,2054,2045,2053,2059,2052,1195
1720,1713853717415821516,2057,2045,2038,2064,2032,2053,1193
1721,1713853717425830906,2056,2068,2069,2064,2064,2052,1195
1722,1713853717435820730,2060,2050,2054,2070,2046,2058,1194
1723,1713853717445820722,2053,2056,2049,2049,2071,2054,1196
1724,1713853717455820885,2055,2047,2053,2084,2062,2054,1193
1725,1713853717465819194,2045,2053,2042,2040,2069,2052,1195
1726,1713853717475823785,2054,2046,2027,2026,2040,2053,1193
1727,1713853717485820311,2041,2056,2037,2053,2099,2051,1194
1728,1713853717495824312,2064,2051,2047,2070,2052,2057,1195
1729,1713853717505821139,2042,2052,2043,2042,2058,2052,1196
1730,1713853717515820129,2055,2058,2084,2089,2053,2057,1196
1731,1713853717525825612,2052,2052,2046,2072,2066,2050,1195
1732,1713853717535820075,2054,2049,2052,2077,2038,2058,1194
1733,1713853717545819225,2044,2052,2066,2048,2056,2051,1195
1734,1713853717555819038,2057,2053,2079,2085,2036,2056,1194
1735,1713853717565820292,2045,2056,2048,2037,2058,2047,1189
1736,1713853717575823551,2057,2047,2049,2059,2052,2057,1194
1737,1713853717585820478,2052,2068,2089,2060,2069,2051,1195
1738,1713853717595834797,2061,2053,2046,2084,2036,2056,1194
1739,1713853717605817378,2047,2053,2048,2065,2064,2050,1195
1740,1713853717615823432,2060,2050,2049,2045,2036,2057,1193
1741,1713853717625830297,2050,2062,2058,2054,2046,2048,1194
1742,1713853717635826312,2057,2049,2054,2079,2042,2060,1195
1743,1713853717645820113,2049,2052,2048,2071,2070,2056,1194
1744,1713853717655820216,2058,2048,2050,2068,2034,2052,1192
1745,1713853717665819577,2056,2052,2049,2036,2062,2048,1195
1746,1713853717675823337,2056,2050,2035,2060,2042,2053,1193
1747,1713853717685819984,2056,2050,2042,2057,2076,2053,1197
1748,1713853717695823412,2058,2052,2062,2060,2045,2052,1195
1749,1713853717705820901,2049,2056,2044,2052,2078,2051,1197
1750,1713853717715821384,2064,2056,2066,2092,2069,2060,1196
1751,1713853717725830664,2046,2056,2051,2036,2062,2052,1197
1752,1713853717735825557,2063,2050,2043,2080,2044,2056,1194
1753,1713853717745819929,2050,2060,2060,2036,2060,2053,1196
1754,1713853717755820132,2057,2056,2060,2070,2050,2057,1195
1755,1713853717765820164,2052,2057,2043,2040,2088,2056,1193
1756,1713853717775819175,2056,2043,2045,2084,2024,2052,1194
1757,1713853717785819218,2047,2057,2060,2047,2080,2056,1196
1758,1713853717795820073,2053,2050,2049,2080,2050,2056,1195
1759,1713853717805821197,2050,2062,2072,2052,2038,2051,1195
1760,1713853717815823744,2063,2048,2048,2080,2044,2059,1195
1761,1713853717825830259,2053,2058,2052,2048,2057,2050,1194
1762,1713853717835820764,2062,2058,2072,2041,2056,2055,1196
1763,1713853717845820937,2045,2059,2072,2048,2073,2051,1194
1764,1713853717855821521,2066,2045,2052,2106,2096,2059,1196
1765,1713853717865820983,2045,2055,2053,2003,2056,2051,1196
1766,1713853717875820544,2061,2055,2064,2090,2048,2053,1197
1767,1713853717885820296,2044,2058,2054,2036,2055,2049,1196
1768,1713853717895819768,2059,2046,2054,2070,2045,2058,1195
1769,1713853717905818939,2050,2057,2052,2035,2057,2048,1195
1770,1713853717915818420,2058,2049,2054,2074,2035,2054,1195
1771,1713853717925824073,2048,2070,2096,1981,2073,2054,1195
1772,1713853717935821481,2058,2045,2046,2040,2044,2056,1196
1773,1713853717945820933,2047,2068,2099,2055,2053,2049,1196
1774,1713853717955821857,2060,2047,2047,2072,2036,2053,1195
1775,1713853717965820959,2048,2052,2042,2054,2064,2053,1194
1776,1713853717975820951,2056,2049,2057,2066,2039,2053,1196
1777,1713853717985820222,2048,2059,2095,2049,2063,2049,1195
1778,1713853717995823982,2057,2056,2052,2064,2029,2056,1196
1779,1713853718005821440,2044,2050,2031,2045,2059,2050,1195
1780,1713853718015821372,2061,2056,2068,2056,2026,2053,1194
1781,1713853718025831173,2046,2058,2054,2044,2080,2056,1196
1782,1713853718035822970,2061,2058,2071,2066,2031,2056,1195
1783,1713853718045820438,2042,2056,2056,2012,2040,2045,1192
1784,1713853718055821372,2062,2052,2048,2072,2050,2058,1195
1785,1713853718065820474,2037,2051,2041,2037,2069,2045,1194
1786,1713853718075822841,2061,2063,2101,2072,2042,2058,1196
1787,1713853718085820098,2057,2056,2025,2046,2078,2052,1196
1788,1713853718095822896,2056,2048,2052,2067,2062,2058,1194
1789,1713853718105820694,2057,2076,2089,2044,2056,2050,1197
1790,1713853718115823321,2055,2048,2058,2064,2040,2052,1196
1791,1713853718125831149,2053,2062,2072,2046,2054,2047,1193
1792,1713853718135821223,2056,2045,2054,2070,2044,2054,1197
1793,1713853718145827597,2046,2056,2046,2064,2069,2053,1197
1794,1713853718155784440,2058,2047,2048,2066,2036,2053,1196
1795,1713853718165821061,2052,2048,2036,2034,2058,2047,1192
1796,1713853718175819430,2072,2075,2152,2084,2068,2063,1194
1797,1713853718185819854,2049,2049,2044,2043,2076,2049,1194
1798,1713853718195819285,2069,2056,2058,2062,2056,2060,1194
1799,1713853718205818977,2057,2056,2060,2020,2063,2051,1197
1800,1713853718215820202,2060,2052,2052,2069,2026,2053,1195
1801,1713853718225840512,2044,2058,2053,2008,2056,2052,1197
1802,1713853718235825496,2056,2046,2040,2018,2043,2056,1196
1803,1713853718245820540,2049,2056,2056,2042,2061,2053,1195
1804,1713853718255820753,2061,2052,2049,2101,2055,2056,1196
1805,1713853718265821076,2057,2064,2066,2038,2061,2053,1196
1806,1713853718275820768,2057,2048,2048,2063,2084,2064,1195
1807,1713853718285820621,2049,2056,2056,2044,2061,2051,1195
1808,1713853718295820674,2064,2044,2044,2078,2042,2056,1194
1809,1713853718305820896,2044,2054,2056,2062,2064,2053,1195
1810,1713853718315826509,2059,2054,2064,2089,2045,2053,1196
1811,1713853718325831361,2043,2052,2056,2036,2053,2050,1196
1812,1713853718335852092,2061,2054,2054,2029,2026,2053,1195
1813,1713853718345820706,2045,2056,2042,2039,2074,2056,1197
1814,1713853718355821290,2062,2048,2046,2089,2064,2056,1195
1815,1713853718365820821,2052,2048,2026,1997,2038,2043,1192
1816,1713853718375821145,2062,2044,2032,2087,2055,2061,1195
1817,1713853718385821308,2050,2052,2037,2082,2096,2052,1195
1818,1713853718395825318,2061,2061,2091,2088,2040,2056,1193
1819,1713853718405820432,2041,2053,2046,2050,2064,2049,1196
1820,1713853718415819262,2058,2052,2056,2069,2047,2060,1193
1821,1713853718425823192,2046,2053,2044,2051,2086,2053,1194
1822,1713853718435820349,2060,2044,2042,2067,2036,2056,1196
1823,1713853718445821273,2052,2052,2050,2049,2040,2046,1192
1824,1713853718455821165,2061,2054,2056,2078,2037,2053,1196
1825,1713853718465821028,2052,2068,2105,2048,2061,2046,1195
1826,1713853718475804530,2068,2047,2044,2044,2040,2054,1198
1827,1713853718485820172,2057,2059,2048,2043,2075,2051,1197
1828,1713853718495819202,2053,2050,2050,2056,2029,2053,1196
1829,1713853718505820317,2045,2059,2051,2044,2050,2047,1192
1830,1713853718515821342,2065,2049,2047,2059,2032,2056,1196
1831,1713853718525828317,2049,2061,2064,2056,2061,2048,1196
1832,1713853718535822058,2063,2053,2057,2070,2039,2058,1196
1833,1713853718545819456,2056,2062,2070,2038,2067,2050,1195
1834,1713853718555819218,2058,2052,2055,2069,2050,2053,1196
1835,1713853718565821655,2053,2050,2056,2054,2057,2047,1193
1836,1713853718575820726,2064,2056,2065,2061,2056,2060,1194
1837,1713853718585819406,2043,2057,2057,2021,2056,2048,1195
1838,1713853718595835609,2062,2048,2044,2060,2040,2056,1196
1839,1713853718605820884,2046,2056,2052,2056,2087,2051,1194
1840,1713853718615821728,2060,2048,2044,2044,2029,2055,1195
1841,1713853718625830056,2050,2072,2073,2071,2073,2053,1195
1842,1713853718635827805,2060,2060,2064,2049,2042,2056,1195
1843,1713853718645823429,2047,2056,2059,2048,2063,2047,1193
1844,1713853718655821518,2059,2053,2066,2088,2046,2060,1194
1845,1713853718665820398,2053,2052,2054,1976,2055,2047,1195
1846,1713853718675823827,2064,2052,2064,2060,2042,2057,1198
1847,1713853718685821836,2053,2053,2044,2048,2053,2046,1195
1848,1713853718695839682,2056,2056,2053,2076,2025,2058,1196
1849,1713853718705820129,2046,2059,2057,2046,2076,2049,1196
1850,1713853718715848033,2066,2051,2056,2060,2037,2056,1198
1851,1713853718725821056,2047,2058,2060,2044,2065,2056,1197
1852,1713853718735830576,2054,2045,2046,2096,2044,2059,1195
1853,1713853718745819929,2052,2056,2051,2076,2064,2051,1196
1854,1713853718755822816,2068,2058,2071,2074,2031,2051,1196
1855,1713853718765818541,2052,2054,2047,2056,2073,2048,1194
1856,1713853718775822511,2056,2052,2055,2112,2052,2056,1195
1857,1713853718785841589,2046,2056,2073,2047,2062,2045,1192
1858,1713853718795818509,2064,2057,2057,2082,2050,2057,1194
1859,1713853718805822438,2049,2059,2062,2024,2062,2051,1196
1860,1713853718815821740,2059,2052,2064,2070,2076,2060,1193
1861,1713853718825823306,2047,2056,2041,2014,2044,2050,1196
1862,1713853718835825823,2065,2056,2083,2062,2042,2053,1196
1863,1713853718845817510,2053,2058,2065,2033,2055,2045,1193
1864,1713853718855824035,2055,2050,2056,2070,2029,2058,1196
1865,1713853718865820791,2047,2050,2046,2048,2065,2049,1197
1866,1713853718875826254,2058,2048,2056,2006,2044,2052,1195
1867,1713853718885820596,2057,2058,2049,2049,2068,2051,1196
1868,1713853718895820428,2063,2052,2052,2067,2052,2058,1197
1869,1713853718905819899,2052,2058,2056,2054,2077,2053,1197
1870,1713853718915821315,2060,2048,2049,2062,2024,2053,1195
1871,1713853718925832749,2048,2055,2044,2053,2091,2052,1196
1872,1713853718935829456,2066,2057,2040,2058,2045,2057,1197
1873,1713853718945821543,2054,2056,2057,2042,2065,2047,1191
1874,1713853718955821095,2060,2047,2061,2012,2028,2051,1197
1875,1713853718965820406,2052,2069,2105,2056,2063,2056,1194
1876,1713853718975820820,2060,2048,2043,2052,2027,2054,1195
1877,1713853718985820061,2059,2058,2050,2052,2072,2056,1194
1878,1713853718995819743,2056,2050,2056,2062,2025,2055,1193
1879,1713853719005820817,2042,2053,2055,1987,2060,2045,1191
1880,1713853719015818436,2065,2050,2048,2076,2041,2056,1196
1881,1713853719025821694,2056,2050,2026,2044,2065,2053,1194
1882,1713853719035820254,2058,2047,2052,2047,2044,2060,1193
1883,1713853719045819436,2042,2048,2038,2044,2055,2046,1194
1884,1713853719055820370,2056,2052,2068,2064,2042,2052,1195
1885,1713853719065819831,2051,2058,2047,2078,2056,2050,1197
1886,1713853719075819824,2060,2056,2073,2064,2045,2055,1196
1887,1713853719085820898,2050,2056,2051,2043,2059,2050,1197
1888,1713853719095830899,2072,2064,2099,2080,2044,2056,1195
1889,1713853719105821334,2057,2058,2050,2056,2056,2053,1192
1890,1713853719115820134,2066,2057,2044,2069,2060,2059,1195
1891,1713853719125832740,2049,2049,2035,2040,2061,2052,1196
1892,1713853719135825470,2058,2047,2043,2071,2044,2057,1197
1893,1713853719145819841,2045,2052,2040,2058,2070,2052,1197
1894,1713853719155822960,2056,2053,2048,2060,2031,2057,1196
1895,1713853719165819998,2045,2053,2048,2043,2055,2050,1194
1896,1713853719175820741,2056,2052,2063,2069,2045,2061,1196
1897,1713853719185820113,2053,2052,2041,2061,2067,2050,1196
1898,1713853719195817661,2062,2050,2047,2065,2046,2058,1195
1899,1713853719205821691,2046,2050,2057,2011,2060,2050,1196
1900,1713853719215822555,2059,2056,2076,2075,2049,2055,1195
1901,1713853719225829570,2052,2057,2048,2045,2062,2053,1196
1902,1713853719235827709,2056,2048,2048,2069,2034,2054,1195
1903,1713853719245820148,2049,2057,2054,2060,2052,2045,1192
1904,1713853719255823036,2064,2056,2058,2090,2054,2056,1195
1905,1713853719265819972,2044,2056,2046,2047,2096,2050,1195
1906,1713853719275820126,2062,2050,2053,2026,2033,2054,1198
1907,1713853719285818535,2052,2057,2060,2053,2060,2048,1195
1908,1713853719295820792,2064,2056,2053,2067,2044,2056,1197
1909,1713853719305822127,2049,2058,2056,2040,2064,2047,1193
1910,1713853719315821158,2060,2048,2044,2047,2049,2057,1196
1911,1713853719325826040,2050,2051,2041,2046,2061,2047,1193
1912,1713853719335819761,2065,2060,2104,2061,2040,2056,1193
1913,1713853719345820935,2053,2057,2062,2005,2053,2044,1193
1914,1713853719355821589,2054,2049,2052,2034,2040,2056,1195
1915,1713853719365820610,2060,2056,2052,2047,2064,2049,1193
1916,1713853719375821193,2056,2050,2075,2075,2043,2056,1195
1917,1713853719385820284,2058,2055,2048,2061,2062,2054,1196
1918,1713853719395820046,2068,2052,2072,2083,2042,2056,1196
1919,1713853719405820099,2044,2051,2056,2040,2060,2046,1194
1920,1713853719415819681,2065,2057,2047,2082,2050,2057,1196
1921,1713853719425823731,2042,2052,2043,2050,2060,2050,1196
1922,1713853719435880689,2066,2047,2029,2052,2044,2058,1196
1923,1713853719445820260,2053,2057,2054,2042,2062,2048,1195
1924,1713853719455833407,2057,2056,2061,2072,2036,2055,1194
1925,1713853719465820285,2052,2056,2047,2051,2053,2047,1193
1926,1713853719475820518,2062,2053,2053,2063,2040,2056,1198
1927,1713853719485817956,2054,2052,2054,2004,2068,2051,1194
1928,1713853719495824079,2056,2047,2054,2099,2066,2057,1196
1929,1713853719505820205,2056,2065,2068,2037,2084,2052,1195
1930,1713853719515820047,2056,2047,2041,2047,2029,2056,1196
1931,1713853719525823877,2059,2056,2053,2043,2061,2047,1195
1932,1713853719535819401,2056,2040,2040,2063,2044,2054,1195
1933,1713853719545820104,2042,2054,2039,2053,2070,2049,1195
1934,1713853719555825397,2057,2051,2057,2070,2069,2058,1195
1935,1713853719565821163,2056,2058,2065,2045,2064,2050,1194
1936,1713853719575823739,2055,2052,2057,2065,2045,2056,1197
1937,1713853719585820506,2047,2062,2061,2054,2063,2050,1197
1938,1713853719595820599,2056,2045,2046,2062,2045,2054,1194
1939,1713853719605820351,2054,2050,2051,2027,2067,2047,1192
1940,1713853719615822988,2056,2058,2084,2074,2033,2052,1195
1941,1713853719625833100,2045,2050,2052,2048,2059,2048,1196
1942,1713853719635820549,2056,2060,2064,2078,2073,2064,1195
1943,1713853719645821102,2052,2054,2058,2040,2068,2048,1196
1944,1713853719655822798,2056,2051,2046,2079,2049,2056,1196
1945,1713853719665820266,2046,2050,2048,2076,2056,2047,1195
1946,1713853719675821321,2049,2044,2044,2092,2047,2057,1197
1947,1713853719685820110,2048,2056,2068,2052,2056,2047,1193
1948,1713853719695823700,2053,2050,2058,2065,2044,2058,1196
1949,1713853719705819976,2053,2049,2048,2046,2056,2047,1193
1950,1713853719715821121,2059,2054,2065,2044,2052,2056,1195
1951,1713853719725829769,2047,2056,2064,2010,2094,2055,1196
1952,1713853719735822378,2056,2046,2044,2057,2038,2056,1195
1953,1713853719745820637,2055,2056,2071,2040,2051,2045,1192
1954,1713853719755821001,2062,2047,2042,2069,2044,2056,1197
1955,1713853719765820903,2058,2052,2060,2047,2056,2049,1196
1956,1713853719775821547,2056,2057,2072,2078,2047,2053,1196
1957,1713853719785820066,2056,2055,2042,2036,2050,2049,1194
1958,1713853719795820099,2060,2069,2092,2073,2039,2056,1197
1959,1713853719805820492,2049,2064,2091,2047,2064,2052,1196
1960,1713853719815823350,2061,2045,2033,2062,2041,2056,1194
1961,1713853719825825107,2057,2056,2052,2039,2050,2050,1194
1962,1713853719835821442,2059,2052,2068,2060,2046,2057,1195
1963,1713853719845822497,2042,2061,2064,2011,2063,2050,1195
1964,1713853719855821457,2057,2049,2061,2064,2049,2058,1196
1965,1713853719865820638,2048,2054,2090,2076,2064,2053,1197
1966,1713853719875823486,2054,2050,2039,2076,2068,2056,1195
1967,1713853719885821405,2048,2054,2057,2058,2055,2048,1196
1968,1713853719895819704,2062,2050,2050,2062,2045,2057,1193
1969,1713853719905820809,2054,2052,2065,2043,2082,2056,1196
1970,1713853719915819920,2059,2047,2042,2022,2051,2057,1194
1971,1713853719925847644,2051,2061,2066,2018,2044,2037,1192
1972,1713853719935819975,2059,2046,2036,2074,2037,2054,1193
1973,1713853719945820528,2053,2051,2047,2054,2057,2051,1194
1974,1713853719955823336,2060,2058,2065,2068,2040,2057,1197
1975,1713853719965821726,2059,2056,2044,2072,2074,2053,1195
1976,1713853719975823822,2050,2050,2052,2063,2043,2056,1195
1977,1713853719985818545,2058,2053,2046,2010,2052,2049,1194
1978,1713853719995826042,2065,2069,2113,2063,2060,2058,1195
1979,1713853720005821376,2045,2049,2044,2053,2091,2052,1196
1980,1713853720015821078,2056,2054,2056,2053,2034,2053,1196
1981,1713853720025832131,2052,2053,2030,2074,2059,2053,1194
1982,1713853720035818498,2059,2056,2053,2036,2037,2056,1194
1983,1713853720045820514,2061,2074,2096,2054,2055,2052,1194
1984,1713853720055823372,2057,2044,2046,2054,2040,2054,1195
1985,1713853720065820389,2053,2052,2047,2034,2050,2050,1197
1986,1713853720075821584,2061,2049,2055,2056,2044,2056,1197
1987,1713853720085820734,2041,2054,2058,2047,2061,2047,1192
1988,1713853720095828863,2057,2062,2077,2053,2040,2055,1194
1989,1713853720105741542,2056,2055,2080,2035,2053,2049,1196
1990,1713853720115820482,2053,2050,2056,2017,2036,2053,1196
1991,1713853720125828460,2056,2047,2035,2047,2056,2051,1197
1992,1713853720135822601,2056,2059,2025,2064,2044,2053,1196
1993,1713853720145819408,2054,2056,2058,2051,2064,2049,1194
1994,1713853720155819250,2053,2052,2057,2068,2040,2054,1196
1995,1713853720165819393,2042,2049,2030,2061,2093,2056,1194
1996,1713853720175818534,2057,2050,2040,2066,2048,2056,1194
1997,1713853720185818156,2041,2041,2008,2061,2067,2053,1195
1998,1713853720195828307,2058,2048,2048,2068,2042,2054,1193
1999,1713853720205819643,2057,2052,2050,2046,2061,2053,1196
2000,1713853720215826298,2061,2052,2052,2069,2048,2058,1196
2001,1713853720225827824,2064,2065,2083,2072,2060,2057,1195
2002,1713853720235822897,2057,2053,2050,2065,2056,2056,1195
2003,1713853720245821156,2052,2062,2085,2052,2041,2042,1192
2004,1713853720255826219,2053,2044,2031,2057,2036,2056,1194
2005,1713853720265820660,2044,2056,2049,2046,2052,2046,1194
2006,1713853720275824170,2057,2056,2049,2059,2042,2056,1197
2007,1713853720285821276,2040,2052,2040,2059,2063,2052,1196
2008,1713853720295823584,2056,2051,2064,2065,2077,2059,1195
2009,1713853720305821002,2050,2056,2065,2048,2076,2052,1198
2010,1713853720315826043,2054,2055,2072,2060,2043,2052,1196
2011,1713853720325823381,2050,2052,2047,2053,2061,2050,1197
2012,1713853720335823183,2054,2057,2067,2059,2048,2056,1196
2013,1713853720345817756,2062,2053,2052,2040,2044,2051,1195
2014,1713853720355826244,2066,2056,2068,2048,2021,2053,1195
2015,1713853720365821167,2058,2043,2012,2044,2057,2050,1194
2016,1713853720375821240,2049,2052,2047,2053,2034,2058,1196
2017,1713853720385821863,2050,2056,2047,2045,2065,2047,1193
2018,1713853720395833678,2056,2046,2026,2056,2043,2058,1195
2019,1713853720405820666,2047,2049,2046,2047,2060,2052,1195
2020,1713853720415824265,2061,2060,2108,2069,2053,2061,1193
2021,1713853720425832804,2050,2049,2044,2048,2056,2048,1196
2022,1713853720435826846,2064,2055,2070,2047,2043,2056,1197
2023,1713853720445823261,2050,2056,2041,2060,2060,2041,1191
2024,1713853720455821200,2053,2056,2066,2066,2050,2056,1196
2025,1713853720465819941,2057,2054,2068,2064,2061,2049,1196
2026,1713853720475820774,2056,2047,2037,2034,2045,2057,1196
2027,1713853720485821499,2047,2053,2049,2047,2064,2052,1196
2028,1713853720495821261,2055,2052,2061,2066,2047,2056,1196
2029,1713853720505820572,2050,2047,2019,2044,2045,2046,1192
2030,1713853720515821406,2057,2043,2039,2054,2046,2056,1197
2031,1713853720525832479,2044,2047,2052,2054,2057,2048,1196
2032,1713853720535826390,2066,2069,2100,2057,2044,2057,1195
2033,1713853720545820682,2053,2054,2072,2052,2064,2047,1192
2034,1713853720555820444,2066,2056,2060,2053,2058,2056,1196
2035,1713853720565820226,2044,2045,2041,2054,2059,2049,1196
2036,1713853720575820339,2052,2052,2047,2054,2044,2053,1195
2037,1713853720585820472,2047,2055,2079,2050,2058,2049,1196
2038,1713853720595831444,2061,2056,2057,2060,2046,2058,1195
2039,1713853720605820517,2052,2056,2076,2056,2037,2053,1195
2040,1713853720615820209,2053,2048,2054,2060,2046,2050,1195
2041,1713853720625824239,2056,2058,2076,2052,2057,2053,1196
2042,1713853720635820565,2050,2049,2049,2065,2049,2057,1194
2043,1713853720645820207,2056,2045,2057,2036,2054,2050,1196
2044,1713853720655836018,2059,2046,2021,2061,2046,2056,1196
2045,1713853720665820392,2053,2045,2041,2041,2056,2049,1196
2046,1713853720675820064,2057,2046,2052,2053,2038,2054,1196
2047,1713853720685821399,2054,2065,2044,2050,2040,2048,1196
2048,1713853720695821973,2063,2044,2036,2050,2033,2052,1195
2049,1713853720705820412,2053,2052,2058,2056,2052,2046,1195
2050,1713853720715820455,2060,2054,2051,2058,2052,2053,1193
2051,1713853720725832520,2042,2046,2030,2044,2059,2046,1193
2052,1713853720735820490,2066,2058,2075,2080,2058,2057,1196
2053,1713853720745820533,2058,2049,2018,2060,2059,2048,1195
2054,1713853720755822839,2060,2056,2044,2068,2045,2057,1197
2055,1713853720765820898,2053,2051,2039,2047,2053,2052,1195
2056,1713853720775820100,2061,2058,2064,2033,2037,2057,1194
2057,1713853720785820372,2045,2047,2042,2041,2056,2046,1193
2058,1713853720795821037,2061,2047,2052,2038,2054,2055,1196
2059,1713853720805820518,2055,2052,2036,2063,2060,2049,1196
2060,1713853720815819919,2055,2060,2061,2080,2047,2060,1195
2061,1713853720825834820,2044,2050,2044,2055,2057,2050,1196
2062,1713853720835827108,2051,2046,2047,2053,2047,2056,1195
2063,1713853720845741361,2058,2059,2077,2059,2058,2049,1195
2064,1713853720855820441,2062,2056,2054,2048,2040,2058,1194
2065,1713853720865820914,2047,2048,2040,2051,2053,2050,1197
2066,1713853720875821147,2063,2056,2047,2052,2029,2055,1198
2067,1713853720885820989,2050,2052,2045,2044,2049,2047,1194
2068,1713853720895821282,2051,2056,2064,2066,2060,2056,1194
2069,1713853720905820503,2053,2048,2056,2056,2060,2050,1196
2070,1713853720915820416,2051,2053,2050,2048,2045,2055,1196
2071,1713853720925850224,2056,2051,2040,2065,2057,2051,1196
2072,1713853720935825640,2061,2048,2042,2057,2068,2064,1196
2073,1713853720945820804,2057,2046,2036,2053,2058,2045,1192
2074,1713853720955823332,2056,2048,2033,2052,2045,2053,1197
2075,1713853720965821490,2054,2052,2044,2057,2047,2050,1194
2076,1713853720975823958,2051,2050,2052,2036,2050,2055,1194
2077,1713853720985820875,2049,2052,2052,2070,2069,2052,1196
2078,1713853720995820667,2058,2057,2056,2051,2035,2050,1194
2079,1713853721005820830,2050,2052,2052,2054,2054,2052,1198
2080,1713853721015821012,2060,2056,2044,2064,2047,2060,1196
2081,1713853721025827177,2045,2046,2042,2046,2064,2047,1192
2082,1713853721035821599,2064,2057,2074,2047,2047,2053,1195
2083,1713853721045821060,2047,2052,2052,2058,2062,2053,1195
2084,1713853721055826393,2060,2052,2050,2053,2052,2056,1195
2085,1713853721065820875,2044,2044,2034,2066,2053,2050,1196
2086,1713853721075822200,2057,2064,2064,2081,2080,2059,1197
2087,1713853721085822062,2052,2040,2032,2051,2054,2049,1197
2088,1713853721095824199,2052,2048,2045,2051,2047,2056,1196
2089,1713853721105820194,2051,2052,2056,2049,2061,2051,1196
2090,1713853721115819164,2062,2054,2040,2052,2049,2055,1194
2091,1713853721125833333,2065,2061,2060,2057,2045,2047,1194
2092,1713853721135826733,2060,2060,2056,2061,2058,2056,1196
2093,1713853721145820945,2054,2058,2073,2052,2080,2053,1197
2094,1713853721155825917,2054,2058,2056,2070,2054,2056,1196
2095,1713853721165821120,2055,2046,2038,2013,2045,2050,1196
2096,1713853721175823638,2058,2051,2049,2056,2047,2054,1193
2097,1713853721185820113,2054,2042,2019,2060,2055,2049,1194
2098,1713853721195821279,2062,2063,2073,2070,2049,2058,1196
2099,1713853721205820329,2055,2058,2064,2069,2060,2049,1196
2100,1713853721215820302,2050,2053,2051,2058,2047,2056,1194
2101,1713853721225824142,2045,2053,2058,2060,2056,2049,1196
2102,1713853721235822240,2056,2055,2056,2058,2053,2057,1196
2103,1713853721245821502,2054,2045,2040,2054,2054,2047,1192
2104,1713853721255820903,2056,2052,2031,2054,2042,2056,1194
2105,1713853721265821046,2056,2056,2051,2066,2034,2045,1193
2106,1713853721275820498,2054,2057,2058,2055,2038,2058,1198
2107,1713853721285820731,2054,2059,2084,2062,2058,2052,1197
2108,1713853721295821695,2053,2058,2053,2058,2050,2057,1193
2109,1713853721305820746,2047,2053,2049,2060,2057,2049,1195
2110,1713853721315820147,2062,2053,2068,2056,2052,2056,1195
2111,1713853721325829727,2049,2054,2057,2054,2064,2051,1196
2112,1713853721335841381,2053,2060,2059,2051,2054,2057,1195
2113,1713853721345821297,2057,2042,2035,2072,2075,2052,1193
2114,1713853721355804538,2058,2064,2067,2051,2043,2052,1195
2115,1713853721365821662,2058,2057,2075,2057,2060,2049,1192
2116,1713853721375822065,2053,2068,2069,2059,2045,2054,1196
2117,1713853721385820184,2059,2062,2074,2056,2046,2052,1195
2118,1713853721395819716,2050,2056,2069,2059,2043,2056,1194
2119,1713853721405819638,2056,2047,2052,2056,2046,2047,1193
2120,1713853721415819641,2056,2048,2050,2054,2049,2054,1196
2121,1713853721425827468,2056,2064,2098,2064,2066,2052,1196
2122,1713853721435819747,2053,2054,2064,2017,2045,2050,1195
2123,1713853721445820831,2050,2047,2041,2056,2051,2052,1195
2124,1713853721455841562,2054,2066,2075,2057,2047,2054,1195
2125,1713853721465821517,2058,2051,2057,2058,2056,2049,1196
2126,1713853721475824305,2056,2062,2069,2052,2064,2059,1195
2127,1713853721485821262,2056,2054,2053,2062,2056,2050,1196
2128,1713853721495826825,2053,2054,2056,2052,2049,2054,1195
2129,1713853721505822119,2059,2050,2050,2055,2062,2052,1196
2130,1713853721515826359,2058,2062,2072,2058,2052,2056,1196
2131,1713853721525831341,2056,2049,2057,2056,2058,2047,1194
2132,1713853721535819882,2054,2052,2044,2068,2037,2052,1196
2133,1713853721545821368,2057,2050,2052,2047,2051,2051,1195
2134,1713853721555828994,2054,2048,2054,2060,2070,2056,1197
2135,1713853721565821693,2058,2063,2066,2052,2045,2045,1192
2136,1713853721575826334,2052,2058,2074,2058,2036,2056,1196
2137,1713853721585822920,2058,2047,2056,2051,2050,2049,1195
2138,1713853721595824917,2056,2063,2081,2062,2050,2057,1196
2139,1713853721605821182,2053,2056,2054,2056,2063,2050,1196
2140,1713853721615823820,2057,2057,2064,2058,2050,2055,1196
2141,1713853721625821768,2056,2052,2039,2052,2058,2048,1195
2142,1713853721635821951,2052,2056,2055,2054,2046,2054,1195
2143,1713853721645821723,2050,2048,2049,2052,2061,2049,1196
2144,1713853721655830532,2052,2056,2060,2049,2043,2053,1196
2145,1713853721665822399,2059,2050,2047,2052,2032,2054,1196
2146,1713853721675824055,2048,2044,2034,2044,2050,2040,1196
2147,1713853721685823296,2065,2080,2125,2075,2063,2054,1196
2148,1713853721695824501,2052,2050,2042,2058,2057,2069,1195
2149,1713853721705823121,2061,2057,2073,2057,2057,2043,1193
2150,1713853721715826480,2060,2049,2020,2048,2057,2062,1196
2151,1713853721725821644,2056,2057,2067,2052,2039,2054,1196
2152,1713853721735824291,2059,2049,2046,2046,2057,2060,1194
2153,1713853721745821769,2052,2050,2043,2052,2058,2047,1193
2154,1713853721755829896,2058,2051,2052,2057,2053,2056,1196
2155,1713853721765821944,2056,2048,2049,2058,2074,2056,1192
2156,1713853721775821937,2054,2057,2071,2048,2040,2050,1194
2157,1713853721785822601,2058,2040,2014,2058,2057,2050,1192
2158,1713853721795826631,2052,2048,2030,2047,2045,2053,1197
2159,1713853721805821654,2045,2052,2050,2052,2046,2047,1192
2160,1713853721815825483,2053,2050,2050,2057,2056,2053,1194
2161,1713853721825825546,2059,2053,2052,2048,2052,2045,1193
2162,1713853721835824176,2055,2053,2048,2052,2061,2055,1195
2163,1713853721845822726,2056,2049,2050,2056,2056,2052,1195
2164,1713853721855836845,2054,2054,2053,2046,2045,2053,1195
2165,1713853721865820547,2053,2051,2056,2060,2059,2056,1198
2166,1713853721875820569,2052,2054,2056,2064,2050,2052,1198
2167,1713853721885822335,2055,2048,2065,2057,2053,2051,1197
2168,1713853721895824652,2054,2048,2046,2052,2054,2052,1195
2169,1713853721905821068,2056,2050,2057,2054,2050,2053,1194
2170,1713853721915826220,2054,2061,2060,2056,2056,2056,1197
2171,1713853721925821554,2058,2048,2051,2060,2044,2044,1194
2172,1713853721935821286,2056,2056,2051,2057,2052,2054,1197
2173,1713853721945822089,2056,2047,2044,2054,2050,2050,1197
2174,1713853721955833153,2056,2053,2040,2065,2057,2053,1195
2175,1713853721965821584,2048,2046,2041,2057,2046,2049,1194
2176,1713853721975821046,2046,2046,2040,2052,2049,2057,1194
2177,1713853721985823353,2058,2046,2037,2064,2063,2050,1195
2178,1713853721995824287,2059,2057,2056,2057,2054,2056,1195
2179,1713853722005822085,2049,2048,2036,2056,2057,2052,1196
2180,1713853722015824101,2055,2048,2039,2026,2037,2056,1193
2181,1713853722025821630,2052,2051,2033,2079,2060,2050,1197
2182,1713853722035824377,2052,2059,2052,2056,2056,2051,1194
2183,1713853722045821494,2060,2068,2056,2053,2047,2052,1196
2184,1713853722055823701,2053,2067,2106,2064,2058,2055,1196
2185,1713853722065821880,2060,2053,2040,2060,2056,2046,1192
2186,1713853722075824668,2056,2048,2065,2050,2041,2054,1197
2187,1713853722085823879,2056,2056,2068,2057,2048,2045,1194
2188,1713853722095823911,2055,2056,2059,2065,2061,2056,1197
2189,1713853722105821720,2059,2047,2039,2062,2076,2049,1195
2190,1713853722115824247,2058,2047,2053,2048,2048,2052,1195
2191,1713853722125821785,2060,2050,2052,2036,2044,2049,1195
2192,1713853722135821847,2057,2053,2046,2056,2050,2058,1196
2193,1713853722145821890,2060,2050,2038,2060,2064,2048,1196
2194,1713853722155821632,2052,2053,2057,2050,2050,2056,1195
2195,1713853722165821665,2057,2054,2039,2056,2064,2051,1193
2196,1713853722175822819,2053,2052,2045,2047,2048,2051,1194
2197,1713853722185822972,2049,2055,2090,2064,2080,2064,1195
2198,1713853722195824347,2054,2054,2056,2050,2056,2058,1194
2199,1713853722205827515,2048,2056,2056,2049,2031,2044,1192
2200,1713853722215822539,2048,2047,2036,2044,2052,2070,1194
2201,1713853722225822000,2057,2053,2033,2056,2062,2048,1196
2202,1713853722235821662,2055,2050,2043,2052,2057,2054,1193
2203,1713853722245821033,2054,2049,2045,2059,2076,2054,1194
2204,1713853722255824101,2050,2052,2056,2068,2053,2056,1196
2205,1713853722265821960,2053,2049,2057,2076,2053,2048,1195
2206,1713853722275824026,2050,2053,2057,2057,2053,2057,1197
2207,1713853722285825321,2052,2052,2040,2072,2080,2056,1194
2208,1713853722295829622,2056,2067,2063,2047,2037,2052,1195
2209,1713853722305821679,2052,2046,2046,2061,2050,2051,1196
2210,1713853722315821642,2052,2059,2073,2039,2051,2054,1196
2211,1713853722325822185,2062,2062,2080,2064,2045,2054,1197
2212,1713853722335821327,2056,2052,2060,2045,2043,2059,1196
