seq,time,data[0],data[1],data[2],data[3],data[4],data[5],data[6]
201,1713842065007386850,2056,2056,2049,2069,2057,2052,1195
202,1713842065017389028,2057,2052,2056,2062,2056,2052,1198
203,1713842065027391915,2054,2061,2088,2058,2053,2051,1196
204,1713842065037389073,2055,2050,2043,2052,2054,2056,1195
205,1713842065047389236,2053,2049,2050,2054,2054,2052,1196
206,1713842065057389129,2057,2056,2053,2060,2052,2053,1200
207,1713842065067397729,2054,2056,2041,2080,2084,2054,1195
208,1713842065077386491,2054,2054,2052,2077,2041,2058,1199
209,1713842065087389769,2054,2053,2052,2058,2057,2052,1196
210,1713842065097392698,2055,2046,2045,2069,2060,2056,1199
211,1713842065107389585,2053,2052,2058,2086,2066,2050,1196
212,1713842065117384949,2055,2048,2049,2065,2051,2056,1199
213,1713842065127385934,2047,2045,2041,2044,2034,2049,1197
214,1713842065137383323,2059,2064,2088,2062,2061,2050,1196
215,1713842065147390037,2049,2040,2052,2075,2040,2050,1197
216,1713842065157387876,2059,2056,2085,2089,2058,2055,1197
217,1713842065167391186,2056,2064,2052,2047,2058,2057,1200
218,1713842065177383034,2056,2052,2052,2047,2067,2055,1195
219,1713842065187384039,2058,2052,2059,2055,2060,2056,1195
220,1713842065197383640,2058,2063,2072,2053,2025,2056,1195
221,1713842065207384475,2057,2054,2028,2057,2057,2054,1195
222,1713842065217383356,2052,2052,2053,2100,2072,2057,1196
223,1713842065227383950,2054,2044,2036,2057,2062,2054,1196
224,1713842065237384114,2063,2072,2055,2073,2050,2058,1196
225,1713842065247385710,2051,2042,2034,2053,2045,2052,1196
226,1713842065257385181,2064,2076,2117,2060,2077,2056,1196
227,1713842065267386567,2053,2053,2064,2040,2057,2052,1196
228,1713842065277386299,2053,2044,2037,2051,2046,2055,1197
229,1713842065287388366,2054,2055,2023,2085,2060,2052,1196
230,1713842065297383921,2051,2045,2037,2068,2066,2053,1199
231,1713842065307384105,2056,2053,2052,2030,2050,2052,1198
232,1713842065317391881,2059,2052,2044,2063,2047,2052,1197
233,1713842065327382988,2048,2048,2045,2020,2038,2052,1197
234,1713842065337381227,2051,2042,2018,2041,2051,2051,1195
235,1713842065347382403,2051,2050,2076,2068,2050,2052,1196
236,1713842065357390512,2060,2068,2073,2058,2057,2057,1197
237,1713842065367393219,2056,2047,2029,2058,2055,2052,1199
238,1713842065377389755,2057,2056,2062,2082,2070,2060,1197
239,1713842065387387644,2052,2051,2022,2048,2049,2047,1192
240,1713842065397388159,2056,2067,2099,2065,2084,2064,1196
241,1713842065407389244,2056,2045,2032,2045,2040,2050,1197
242,1713842065417385901,2054,2057,2063,2057,2050,2053,1197
243,1713842065427389239,2057,2049,2044,2044,2052,2053,1195
244,1713842065437379704,2059,2072,2105,2040,2064,2053,1196
245,1713842065447389095,2049,2047,2030,2051,2042,2054,1196
246,1713842065457394899,2056,2051,2049,2066,2057,2054,1196
247,1713842065467392067,2059,2058,2085,2034,2056,2055,1196
248,1713842065477385388,2058,2053,2047,2068,2055,2056,1197
249,1713842065487396521,2052,2052,2040,2054,2052,2052,1196
250,1713842065497384461,2065,2099,2213,2066,2048,2054,1197
251,1713842065507389073,2052,2051,2046,2048,2061,2047,1196
252,1713842065517390569,2059,2060,2072,2042,2082,2060,1199
253,1713842065527386905,2053,2048,2040,2028,2042,2049,1195
254,1713842065537401166,2060,2060,2080,2063,2055,2060,1196
255,1713842065547389686,2058,2050,2045,2050,2048,2051,1198
256,1713842065557387976,2053,2044,2012,2044,2041,2050,1197
257,1713842065567392648,2051,2040,2000,2042,2045,2049,1197
258,1713842065577385748,2053,2044,2045,2056,2054,2047,1195
259,1713842065587389288,2056,2066,2048,2080,2068,2058,1194
260,1713842065597380002,2057,2057,2056,2068,2064,2056,1199
261,1713842065607385015,2050,2051,2046,2055,2053,2052,1199
262,1713842065617409875,2068,2089,2116,2069,2056,2064,1197
263,1713842065627394920,2052,2053,2024,2057,2056,2052,1196
264,1713842065637396817,2056,2061,2068,2059,2052,2052,1196
265,1713842065647391530,2056,2052,2052,2056,2056,2052,1197
266,1713842065657387725,2056,2054,2054,2059,2045,2050,1198
267,1713842065667392337,2053,2053,2057,2072,2046,2053,1194
268,1713842065677385026,2056,2054,2058,2074,2059,2056,1196
269,1713842065687389127,2056,2050,2052,2057,2059,2047,1194
270,1713842065697396334,2053,2057,2060,2059,2052,2057,1198
271,1713842065707389344,2052,2051,2052,2052,2056,2052,1197
272,1713842065717395587,2058,2061,2080,2058,2054,2055,1199
273,1713842065727400871,2053,2046,2040,2071,2046,2053,1198
274,1713842065737388961,2056,2040,2019,2049,2048,2056,1197
275,1713842065747383995,2053,2044,2039,2058,2036,2052,1196
276,1713842065757401882,2055,2051,2037,2046,2043,2056,1197
277,1713842065767385654,2059,2064,2080,2059,2048,2049,1196
278,1713842065777388662,2054,2044,2034,2042,2024,2047,1196
279,1713842065787389307,2054,2052,2053,2061,2039,2049,1195
280,1713842065797384350,2059,2053,2043,2050,2038,2051,1196
281,1713842065807400524,2056,2060,2058,2056,2069,2056,1196
282,1713842065817385008,2060,2060,2060,2069,2050,2057,1197
283,1713842065827389949,2054,2049,2040,2042,2047,2054,1197
284,1713842065837388239,2058,2064,2085,2054,2057,2052,1196
285,1713842065847388182,2053,2058,2076,2023,2045,2053,1197
286,1713842065857416990,2053,2056,2061,2052,2050,2056,1198
287,1713842065867386826,2052,2051,2054,2049,2045,2052,1196
288,1713842065877385928,2056,2056,2056,2050,2049,2053,1197
289,1713842065887394626,2053,2052,2052,2053,2047,2050,1196
290,1713842065897387967,2056,2054,2053,1994,2052,2047,1196
291,1713842065907386026,2051,2048,2050,2059,2047,2051,1198
292,1713842065917396519,2053,2047,2031,2064,2107,2058,1200
293,1713842065927382776,2060,2070,2100,2067,2060,2062,1198
294,1713842065937388621,2060,2073,2122,2074,2045,2056,1197
295,1713842065947397099,2056,2052,2056,2048,2062,2058,1197
296,1713842065957389377,2054,2055,2052,2053,2034,2048,1196
297,1713842065967392386,2056,2048,2050,2056,2056,2056,1197
298,1713842065977387049,2053,2056,2053,2056,2056,2056,1197
299,1713842065987398484,2056,2054,2060,2056,2053,2047,1192
300,1713842065997388147,2056,2050,2050,2053,2050,2054,1197
301,1713842066007380585,2056,2056,2026,2065,2076,2056,1196
302,1713842066017391018,2054,2044,2069,2064,2052,2049,1198
303,1713842066027387004,2056,2060,2060,2054,2060,2072,1196
304,1713842066037390153,2057,2057,2073,2067,2059,2054,1197
305,1713842066047388343,2054,2050,2052,2053,2028,2045,1193
306,1713842066057389056,2056,2056,2060,2062,2052,2057,1196
307,1713842066067385623,2052,2055,2052,2073,2052,2053,1197
308,1713842066077383211,2058,2072,2061,2056,2072,2052,1196
309,1713842066087387763,2052,2045,2043,2060,2067,2053,1198
310,1713842066097384911,2056,2052,2065,2062,2064,2059,1199
311,1713842066107385495,2060,2064,2072,2057,2067,2062,1197
312,1713842066117387020,2052,2048,2044,2056,2057,2051,1197
313,1713842066127387164,2053,2047,2044,2043,2049,2053,1197
314,1713842066137387587,2054,2052,2056,2081,2054,2056,1198
315,1713842066147388763,2056,2050,2049,2092,2064,2058,1196
316,1713842066157388215,2056,2061,2053,2054,2051,2057,1198
317,1713842066167390962,2056,2051,2037,2057,2058,2049,1196
318,1713842066177389332,2056,2056,2050,2057,2052,2056,1196
319,1713842066187391620,2056,2066,2052,2042,2038,2053,1197
320,1713842066197390701,2053,2050,2057,2088,2068,2056,1196
321,1713842066207390424,2055,2052,2032,2056,2062,2052,1196
322,1713842066217391097,2056,2059,2080,2066,2058,2057,1197
323,1713842066227392022,2055,2054,2042,2064,2047,2058,1197
324,1713842066237410982,2059,2063,2064,2049,2046,2056,1197
325,1713842066247393802,2056,2048,2048,2037,2029,2050,1200
326,1713842066257393324,2057,2060,2084,2045,2054,2056,1197
327,1713842066267342661,2056,2052,2051,2030,2043,2050,1196
328,1713842066277367560,2060,2066,2105,2082,2062,2057,1195
329,1713842066287396178,2058,2052,2049,2070,2046,2056,1199
330,1713842066297394578,2056,2053,2049,2045,2045,2052,1199
331,1713842066307397727,2056,2049,2044,2062,2032,2053,1200
332,1713842066317396679,2058,2064,2036,2047,2053,2056,1196
333,1713842066327397572,2050,2043,2038,2084,2056,2055,1197
334,1713842066337399419,2053,2054,2056,2092,2052,2054,1197
335,1713842066347398761,2051,2042,2035,2074,2048,2051,1197
336,1713842066357398173,2057,2057,2063,2055,2065,2051,1197
337,1713842066367401382,2055,2056,2064,2072,2064,2060,1195
338,1713842066377399842,2056,2055,2049,2050,2052,2050,1198
339,1713842066387400866,2051,2050,2044,2069,2057,2048,1193
340,1713842066397382334,2057,2056,2052,2066,2052,2056,1196
341,1713842066407382919,2053,2052,2056,2053,2047,2052,1196
342,1713842066417385176,2058,2061,2064,2060,2038,2056,1198
343,1713842066427383767,2056,2053,2076,2072,2077,2053,1196
344,1713842066437380543,2054,2056,2072,2083,2068,2057,1196
345,1713842066447403349,2057,2062,2089,2072,2062,2057,1198
346,1713842066457385508,2053,2042,2030,2072,2069,2057,1195
347,1713842066467387666,2056,2052,2044,2075,2056,2056,1198
348,1713842066477387408,2055,2051,2049,2065,2058,2056,1196
349,1713842066487388994,2057,2056,2046,2056,2047,2049,1196
350,1713842066497388656,2055,2048,2050,2052,2052,2052,1198
351,1713842066507386675,2053,2052,2052,2050,2050,2051,1198
352,1713842066517388792,2056,2051,2054,2052,2056,2056,1198
353,1713842066527387513,2056,2057,2066,2056,2050,2052,1199
354,1713842066537386785,2056,2048,2048,2062,2062,2056,1199
355,1713842066547397968,2057,2050,2043,2060,2058,2055,1198
356,1713842066557387582,2056,2056,2055,2064,2052,2054,1198
357,1713842066567390911,2056,2068,2056,2044,2040,2056,1198
358,1713842066577392227,2048,2050,2041,2040,2069,2051,1199
359,1713842066587387882,2056,2048,2056,2068,2056,2052,1195
360,1713842066597390810,2057,2045,2036,2064,2068,2054,1196
361,1713842066607389099,2056,2046,2033,2056,2059,2050,1196
362,1713842066617388321,2050,2048,2052,2053,2057,2056,1198
363,1713842066627386821,2056,2053,2061,2074,2072,2058,1197
364,1713842066637393197,2060,2075,2097,2059,2042,2053,1197
365,1713842066647396185,2054,2049,2055,2054,2044,2052,1196
366,1713842066657392190,2054,2046,2037,2074,2060,2060,1197
367,1713842066667388266,2049,2030,1994,2084,2056,2051,1197
368,1713842066677391204,2054,2052,2061,2064,2060,2055,1195
369,1713842066687390767,2053,2049,2054,2053,2047,2049,1198
370,1713842066697395819,2060,2056,2047,2061,2054,2057,1198
371,1713842066707392135,2060,2069,2072,2052,2056,2055,1197
372,1713842066717387068,2054,2056,2063,2058,2052,2053,1197
373,1713842066727387392,2053,2049,2040,2065,2061,2053,1197
374,1713842066737392805,2063,2078,2120,2061,2060,2061,1196
375,1713842066747387268,2056,2043,2041,2051,2056,2056,1196
376,1713842066757386480,2056,2047,2049,2043,2046,2049,1196
377,1713842066767386311,2056,2056,2084,2059,2033,2059,1198
378,1713842066777386916,2054,2053,2057,2049,2038,2049,1197
379,1713842066787385576,2061,2059,2078,2056,2048,2058,1199
380,1713842066797385389,2059,2054,2052,2058,2037,2052,1196
381,1713842066807386204,2056,2058,2048,2065,2061,2056,1198
382,1713842066817388150,2055,2053,2052,2055,2055,2057,1198
383,1713842066827385788,2057,2059,2080,2064,2052,2056,1195
384,1713842066837387154,2059,2062,2076,2079,2054,2057,1195
385,1713842066847387107,2050,2040,2031,2033,2065,2052,1197
386,1713842066857385517,2056,2056,2050,2053,2053,2059,1198
387,1713842066867386913,2056,2042,2026,2061,2060,2054,1196
388,1713842066877385723,2054,2046,2029,2070,2049,2058,1195
389,1713842066887385616,2056,2049,2051,2067,2050,2054,1198
390,1713842066897385859,2052,2052,2054,2068,2056,2051,1197
391,1713842066907384891,2053,2052,2037,2057,2044,2054,1196
392,1713842066917386427,2060,2061,2077,2047,2057,2057,1194
393,1713842066927387341,2051,2041,2037,2066,2032,2053,1196
394,1713842066937386512,2052,2047,2045,2041,2057,2054,1197
395,1713842066947386575,2058,2058,2067,2068,2033,2036,1195
396,1713842066957384084,2053,2044,2052,2042,2052,2056,1196
397,1713842066967390129,2058,2045,2076,2052,2052,2050,1197
398,1713842066977385814,2060,2060,2053,2056,2050,2053,1198
399,1713842066987381297,2059,2060,2069,2053,2064,2053,1197
400,1713842066997387191,2056,2060,2078,2059,2047,2056,1194
401,1713842067007391673,2056,2056,2056,2031,2049,2050,1197
402,1713842067017387268,2056,2052,2047,2047,2048,2050,1199
403,1713842067027391820,2057,2060,2053,2076,2057,2053,1195
404,1713842067037390169,2056,2051,2033,2065,2059,2053,1194
405,1713842067047385673,2060,2057,2055,2049,2076,2056,1197
406,1713842067057385716,2059,2041,2042,2046,2038,2058,1196
407,1713842067067386681,2055,2048,2056,2045,2049,2052,1197
408,1713842067077388027,2058,2061,2057,2060,2054,2049,1197
409,1713842067087388581,2056,2048,2047,2069,2060,2056,1198
410,1713842067097385468,2058,2060,2060,2056,2052,2053,1197
411,1713842067107384479,2053,2056,2094,2076,2052,2055,1197
412,1713842067117386255,2053,2040,2024,2047,2049,2056,1199
413,1713842067127387922,2052,2056,2057,2047,2042,2050,1197
414,1713842067137389939,2056,2061,2058,2068,2059,2059,1197
415,1713842067147385302,2053,2049,2051,2002,2044,2050,1194
416,1713842067157388752,2059,2066,2120,2081,2060,2057,1197
417,1713842067167386881,2056,2053,2066,2051,2057,2052,1199
418,1713842067177388568,2054,2044,2056,2041,2029,2050,1197
419,1713842067187387489,2058,2054,2039,2065,2057,2056,1196
420,1713842067197387571,2054,2058,2067,2020,2043,2054,1195
421,1713842067207390941,2054,2042,2037,2068,2046,2052,1196
422,1713842067217388950,2057,2062,2066,2072,2060,2055,1196
423,1713842067227370017,2052,2049,2032,2070,2052,2056,1196
424,1713842067237360342,2053,2052,2046,2060,2061,2058,1195
425,1713842067247392515,2052,2053,2072,2051,2052,2052,1195
426,1713842067257390244,2058,2061,2075,2068,2059,2056,1196
427,1713842067267392471,2054,2044,2034,2064,2053,2052,1198
428,1713842067277392685,2066,2082,2093,2059,2056,2056,1198
429,1713842067287397097,2058,2044,2033,2060,2050,2056,1196
430,1713842067297393963,2056,2056,2067,2056,2047,2054,1197
431,1713842067307393906,2056,2047,2040,2069,2046,2048,1198
432,1713842067317352350,2056,2052,2037,2061,2037,2052,1197
433,1713842067327397519,2056,2048,2044,2046,2046,2052,1197
434,1713842067337416378,2059,2058,2062,2069,2060,2054,1198
435,1713842067347396413,2058,2061,2047,2074,2074,2056,1197
436,1713842067357396626,2055,2056,2049,2072,2057,2053,1197
437,1713842067367397841,2059,2051,2053,2062,2054,2053,1197
438,1713842067377396702,2056,2052,2044,2066,2056,2053,1196
439,1713842067387418647,2058,2056,2076,2060,2047,2057,1195
440,1713842067397398442,2051,2047,2041,2052,2044,2052,1197
441,1713842067407398264,2055,2053,2048,2076,2053,2059,1196
442,1713842067417387777,2050,2047,2037,2071,2056,2057,1196
443,1713842067427411215,2058,2063,2080,2053,2054,2056,1197
444,1713842067437400708,2060,2073,2086,2080,2047,2055,1197
445,1713842067447386153,2053,2047,2052,2056,2058,2051,1195
446,1713842067457385093,2056,2065,2074,2017,2057,2053,1197
447,1713842067467383954,2055,2049,2042,2044,2056,2054,1196
448,1713842067477389368,2048,2045,2036,2038,2077,2058,1197
449,1713842067487387617,2056,2064,2095,2069,2059,2052,1200
450,1713842067497387070,2051,2056,2072,2053,2050,2056,1197
451,1713842067507388915,2053,2059,2082,2057,2053,2053,1197
452,1713842067517388988,2052,2045,2030,2056,2056,2054,1197
453,1713842067527390785,2059,2067,2042,2058,2052,2052,1197
454,1713842067537365710,2056,2048,2047,2013,2046,2048,1199
455,1713842067547464111,2054,2045,2032,2062,2038,2053,1194
456,1713842067557389843,2061,2065,2082,2076,2069,2059,1197
457,1713842067567386709,2057,2056,2089,2042,2051,2052,1195
458,1713842067577388786,2052,2046,2030,2056,2056,2052,1197
459,1713842067587391805,2052,2051,2042,2077,2078,2061,1197
460,1713842067597391247,2057,2062,2068,2073,2056,2057,1197
461,1713842067607383555,2056,2056,2049,2058,2051,2056,1197
462,1713842067617391823,2060,2052,2047,2047,2052,2057,1197
463,1713842067627392738,2059,2052,2051,2071,2056,2056,1196
464,1713842067637390868,2056,2058,2063,2067,2057,2057,1200
465,1713842067647493958,2055,2053,2038,2068,2052,2052,1197
466,1713842067657382338,2060,2056,2060,2064,2054,2060,1196
467,1713842067667385446,2057,2061,2053,2067,2056,2056,1197
468,1713842067677383756,2060,2061,2062,2042,2055,2056,1197
469,1713842067687401112,2054,2057,2076,2064,2045,2052,1198
470,1713842067697383422,2067,2061,2057,2075,2088,2056,1201
471,1713842067707382733,2055,2052,2045,2013,2046,2050,1196
472,1713842067717387234,2061,2050,2050,2059,2052,2052,1198
473,1713842067727391856,2057,2054,2096,2049,2063,2054,1197
474,1713842067737389114,2058,2066,2082,2049,2059,2057,1195
475,1713842067747371674,2056,2064,2104,2060,2054,2054,1198
476,1713842067757390663,2056,2049,2047,2060,2056,2053,1197
477,1713842067767386187,2061,2068,2101,2067,2049,2052,1195
478,1713842067777384697,2047,2043,2035,2027,2050,2051,1200
479,1713842067787387415,2056,2048,2049,2059,2056,2053,1194
480,1713842067797383591,2059,2053,2037,2061,2068,2056,1197
481,1713842067807390478,2054,2041,2036,2044,2032,2051,1195
482,1713842067817388958,2059,2072,2106,2067,2047,2050,1196
483,1713842067827388459,2057,2049,2056,2064,2056,2054,1196
484,1713842067837384575,2054,2059,2053,2054,2054,2055,1196
485,1713842067847385139,2056,2050,2053,2078,2070,2055,1197
486,1713842067857386625,2058,2061,2098,2053,2059,2054,1196
487,1713842067867387650,2054,2058,2068,2073,2056,2060,1198
488,1713842067877387021,2056,2056,2073,1990,2044,2053,1196
489,1713842067887384790,2053,2051,2052,2062,2052,2060,1196
490,1713842067897385294,2055,2057,2054,2056,2057,2055,1197
491,1713842067907385678,2056,2057,2056,2064,2052,2052,1197
492,1713842067917411410,2057,2067,2096,2076,2061,2056,1197
493,1713842067927385042,2054,2054,2053,2060,2050,2051,1196
494,1713842067937384714,2053,2052,2044,2052,2052,2053,1197
495,1713842067947384547,2057,2052,2060,2072,2041,2056,1196
496,1713842067957387446,2060,2060,2066,2063,2053,2055,1199
497,1713842067967387670,2050,2040,2028,2074,2043,2056,1197
498,1713842067977386600,2060,2067,2046,2078,2054,2058,1198
499,1713842067987386933,2060,2051,2079,2074,2069,2053,1197
500,1713842067997386315,2056,2059,2057,2058,2058,2054,1196
501,1713842068007383854,2058,2066,2051,2062,2057,2056,1196
502,1713842068017382775,2060,2064,2096,2060,2080,2057,1195
503,1713842068027385042,2053,2056,2084,2056,2042,2055,1199
504,1713842068037384343,2061,2064,2053,2058,2060,2056,1196
505,1713842068047387242,2057,2050,2051,2072,2053,2052,1196
506,1713842068057382376,2057,2053,2045,2056,2056,2057,1196
507,1713842068067383020,2055,2049,2042,2056,2047,2052,1195
508,1713842068077383864,2056,2066,2079,2057,2057,2053,1197
509,1713842068087386452,2054,2049,2047,2059,2045,2052,1198
510,1713842068097383109,2054,2059,2056,2048,2057,2053,1200
511,1713842068107394183,2056,2056,2076,2060,2056,2056,1197
512,1713842068117387644,2056,2053,2053,2054,2070,2058,1196
513,1713842068127391374,2056,2050,2044,2060,2052,2049,1197
514,1713842068137388761,2056,2049,2041,2055,2052,2052,1198
515,1713842068147385338,2056,2058,2091,2056,2042,2050,1197
516,1713842068157394098,2056,2057,2077,2057,2056,2056,1196
517,1713842068167387889,2056,2069,2096,2056,2050,2054,1198
518,1713842068177389084,2053,2046,2052,2064,2077,2059,1196
519,1713842068187395018,2062,2069,2077,2066,2053,2053,1195
520,1713842068197377227,2053,2049,2042,2057,2069,2056,1195
521,1713842068207390596,2061,2078,2128,2054,2050,2057,1196
522,1713842068217391801,2054,2054,2047,2051,2066,2056,1197
523,1713842068227387085,2056,2056,2056,2056,2049,2053,1197
524,1713842068237391616,2059,2056,2084,2052,2056,2056,1196
525,1713842068247388874,2054,2045,2031,2057,2052,2056,1197
526,1713842068257386683,2052,2052,2035,2044,2053,2053,1197
527,1713842068267384722,2055,2060,2085,2072,2050,2057,1195
528,1713842068277389004,2052,2053,2056,2056,2061,2056,1196
529,1713842068287385058,2055,2039,2052,2036,2049,2054,1196
530,1713842068297384200,2057,2047,2054,2056,2052,2056,1200
531,1713842068307389122,2056,2054,2058,2060,2053,2051,1198
532,1713842068317387082,2056,2064,2112,2059,2057,2056,1196
533,1713842068327382055,2050,2040,2038,2046,2054,2049,1197
534,1713842068337420080,2064,2056,2028,2061,2056,2054,1198
535,1713842068347385387,2054,2052,2050,2030,2038,2053,1200
536,1713842068357378056,2056,2056,2040,2063,2036,2053,1196
537,1713842068367382067,2056,2057,2104,2058,2048,2054,1197
538,1713842068377383192,2057,2057,2046,2056,2060,2052,1195
539,1713842068387411859,2054,2049,2048,2054,2050,2053,1194
540,1713842068397419066,2051,2056,2052,2064,2052,2059,1197
541,1713842068407385745,2057,2052,2044,2060,2048,2053,1196
542,1713842068417383875,2057,2056,2056,2066,2064,2055,1196
543,1713842068427389799,2053,2050,2042,2056,2049,2053,1196
544,1713842068437432844,2053,2049,2042,2048,2052,2053,1195
545,1713842068447385246,2056,2045,2044,2051,2047,2057,1196
546,1713842068457383676,2054,2060,2056,2074,2061,2053,1196
547,1713842068467383830,2056,2043,2073,2068,2040,2050,1195
548,1713842068477388642,2056,2044,2048,2037,2056,2054,1197
549,1713842068487386901,2056,2057,2056,2053,2049,2056,1197
550,1713842068497386072,2049,2049,2046,2048,2067,2051,1198
551,1713842068507374694,2060,2054,2046,2054,2034,2053,1199
552,1713842068517386159,2054,2057,2050,2057,2056,2053,1196
553,1713842068527382404,2055,2048,2034,2056,2044,2053,1196
554,1713842068537388188,2053,2048,2036,2005,2052,2055,1197
555,1713842068547382149,2061,2069,2050,2012,2042,2046,1193
556,1713842068557393394,2056,2062,2088,2046,2050,2056,1197
557,1713842068567381715,2056,2044,2040,2044,2039,2052,1198
558,1713842068577385034,2052,2052,2054,2064,2064,2054,1196
559,1713842068587389425,2056,2058,2085,2051,2054,2054,1195
560,1713842068597386202,2052,2050,2050,2059,2058,2054,1195
561,1713842068607383931,2059,2066,2090,2060,2052,2053,1195
562,1713842068617388412,2059,2053,2063,2058,2056,2053,1194
563,1713842068627391531,2054,2052,2047,2060,2053,2054,1196
564,1713842068637388548,2053,2046,2028,2021,2050,2056,1194
565,1713842068647389122,2053,2048,2015,2060,2043,2054,1196
566,1713842068657392191,2056,2059,2080,2056,2057,2055,1197
567,1713842068667388948,2056,2052,2033,2062,2047,2056,1195
568,1713842068677389122,2054,2068,2046,2040,2052,2056,1196
569,1713842068687395336,2056,2057,2088,2068,2058,2055,1198
570,1713842068697390279,2056,2060,2072,2033,2053,2054,1200
571,1713842068707392286,2051,2047,2047,2065,2061,2050,1199
572,1713842068717392209,2055,2062,2073,2059,2045,2053,1195
573,1713842068727376552,2052,2046,2036,2043,2038,2053,1198
574,1713842068737393607,2051,2052,2056,2059,2052,2054,1196
575,1713842068747393650,2050,2046,2047,2053,2046,2053,1196
576,1713842068757393944,2052,2044,2045,2074,2082,2059,1197
577,1713842068767394458,2056,2049,2064,2057,2045,2050,1199
578,1713842068777411544,2056,2051,2040,2047,2057,2052,1195
579,1713842068787396768,2056,2059,2060,2061,2052,2050,1196
580,1713842068797396490,2054,2060,2068,2048,2062,2056,1196
581,1713842068807398287,2058,2064,2116,2024,2046,2050,1197
582,1713842068817396707,2052,2051,2043,2059,2058,2057,1196
583,1713842068827379968,2056,2056,2052,2064,2056,2055,1194
584,1713842068837380702,2052,2058,2036,2055,2062,2053,1196
585,1713842068847398229,2056,2048,2069,2055,2049,2051,1200
586,1713842068857380879,2056,2056,2052,2052,2057,2053,1198
587,1713842068867400830,2059,2067,2099,2054,2037,2056,1195
588,1713842068877401775,2056,2056,2051,2034,2060,2056,1196
589,1713842068887384875,2056,2052,2053,2057,2044,2052,1195
590,1713842068897384407,2057,2054,2052,2049,2047,2055,1197
591,1713842068907382146,2056,2054,2059,2061,2054,2054,1197
592,1713842068917409391,2055,2056,2055,2090,2062,2052,1196
593,1713842068927402170,2061,2058,2061,2070,2053,2056,1196
594,1713842068937378377,2056,2064,2048,2075,2062,2054,1196
595,1713842068947384913,2053,2037,2021,2066,2038,2052,1196
596,1713842068957355770,2065,2067,2072,2058,2056,2058,1199
597,1713842068967407292,2052,2047,2047,2054,2052,2051,1198
598,1713842068977385573,2056,2059,2074,2057,2064,2057,1196
599,1713842068987385435,2058,2056,2095,2058,2047,2049,1196
600,1713842068997383885,2054,2069,2075,2042,2061,2054,1195
601,1713842069007389018,2053,2046,2050,2060,2052,2053,1195
602,1713842069017385445,2054,2054,2061,2061,2051,2053,1197
603,1713842069027387000,2054,2037,2041,2054,2045,2052,1198
604,1713842069037388636,2058,2053,2065,2053,2056,2053,1195
605,1713842069047382738,2058,2047,2040,2047,2042,2054,1198
606,1713842069057383302,2057,2049,2033,2056,2062,2056,1197
607,1713842069067383005,2058,2069,2088,2072,2056,2056,1197
608,1713842069077399007,2058,2060,2091,2033,2049,2056,1198
609,1713842069087378591,2055,2045,2040,2070,2093,2052,1198
610,1713842069097386610,2052,2040,2053,2053,2050,2052,1197
611,1713842069107389689,2058,2058,2069,2042,2049,2053,1197
612,1713842069117331742,2054,2058,2068,2069,2062,2056,1199
613,1713842069127392349,2059,2058,2060,2062,2052,2055,1195
614,1713842069137377063,2056,2056,2051,2056,2058,2056,1197
615,1713842069147386635,2055,2051,2043,2044,2053,2052,1196
616,1713842069157384253,2053,2056,2056,2042,2056,2049,1198
617,1713842069167381992,2056,2051,2057,2073,2060,2055,1197
618,1713842069177385721,2053,2045,2057,2058,2061,2054,1196
619,1713842069187387398,2054,2052,2047,2060,2050,2057,1194
620,1713842069197381910,2056,2056,2050,2074,2070,2056,1196
621,1713842069207388396,2065,2072,2069,2074,2051,2053,1196
622,1713842069217387197,2050,2053,2026,2048,2057,2053,1195
623,1713842069227411966,2048,2048,2046,2060,2047,2052,1193
624,1713842069237389617,2054,2046,2038,2045,2056,2056,1196
625,1713842069247387656,2054,2046,2053,2057,2053,2054,1196
626,1713842069257384874,2051,2048,2056,2047,2053,2054,1197
627,1713842069267390548,2052,2045,2027,2071,2050,2054,1194
628,1713842069277391782,2053,2047,2044,2051,2048,2052,1197
629,1713842069287385574,2060,2054,2057,2061,2049,2055,1197
630,1713842069297392660,2057,2067,2060,2036,2057,2057,1200
631,1713842069307393806,2055,2047,2033,2060,2059,2053,1198
632,1713842069317385662,2054,2056,2052,2057,2059,2051,1196
633,1713842069327418398,2058,2050,2044,2075,2049,2054,1197
634,1713842069337392842,2057,2063,2057,2065,2041,2054,1195
635,1713842069347386994,2056,2043,2036,2053,2051,2051,1198
636,1713842069357384783,2052,2045,2041,2009,2064,2053,1197
637,1713842069367387481,2065,2078,2137,2072,2055,2052,1196
638,1713842069377395990,2057,2069,2065,2056,2056,2056,1196
639,1713842069387394290,2059,2045,2044,2046,2056,2053,1195
640,1713842069397386167,2058,2056,2063,2064,2072,2052,1196
641,1713842069407393154,2061,2066,2130,2034,2044,2052,1196
642,1713842069417385141,2056,2052,2040,2063,2062,2053,1195
643,1713842069427390063,2051,2038,2040,2053,2050,2050,1196
644,1713842069437389495,2056,2048,2058,2047,2058,2056,1197
645,1713842069447383307,2052,2044,2048,2052,2052,2052,1196
646,1713842069457390103,2062,2072,2099,2056,2060,2056,1198
647,1713842069467387570,2056,2044,2047,2058,2053,2054,1195
648,1713842069477393414,2052,2062,2040,2068,2057,2056,1195
649,1713842069487399830,2057,2042,2068,2071,2047,2052,1195
650,1713842069497386678,2058,2053,2056,2057,2058,2052,1197
651,1713842069507389627,2051,2047,2039,2048,2029,2052,1197
652,1713842069517386553,2058,2056,2024,2060,2047,2054,1198
653,1713842069527389802,2058,2049,2047,2069,2047,2052,1196
654,1713842069537386108,2053,2052,2060,2070,2069,2052,1198
655,1713842069547387614,2056,2052,2050,2050,2047,2050,1197
656,1713842069557387287,2062,2055,2057,2048,2056,2055,1197
657,1713842069567385836,2053,2054,2056,2073,2096,2057,1197
658,1713842069577405467,2057,2052,2063,2034,2052,2052,1196
659,1713842069587383298,2051,2041,2012,2057,2044,2051,1194
660,1713842069597391537,2060,2062,2053,2030,2048,2056,1194
661,1713842069607387983,2058,2050,2052,2067,2046,2053,1194
662,1713842069617389087,2060,2057,2053,2064,2060,2053,1195
663,1713842069627391685,2053,2048,2060,2041,2036,2052,1195
664,1713842069637387330,2050,2058,2053,2064,2058,2052,1196
665,1713842069647388816,2056,2052,2043,2056,2048,2053,1195
666,1713842069657400691,2056,2052,2053,2045,2065,2056,1197
667,1713842069667385856,2058,2052,2042,2065,2057,2056,1197
668,1713842069677407891,2056,2057,2053,2072,2061,2052,1196
669,1713842069687388297,2062,2074,2079,2056,2053,2052,1199
670,1713842069697389172,2052,2059,2061,2064,2060,2056,1198
671,1713842069707388573,2056,2050,2060,2052,2044,2052,1198
672,1713842069717385420,2051,2053,2048,2052,2053,2050,1197
673,1713842069727390793,2056,2055,2067,2044,2060,2052,1195
674,1713842069737391067,2055,2053,2060,2066,2052,2058,1197
675,1713842069747392012,2056,2053,2060,2050,2052,2056,1198
676,1713842069757391543,2053,2057,2065,2053,2057,2053,1196
677,1713842069767390274,2055,2054,2056,2067,2046,2049,1200
678,1713842069777391930,2057,2064,2063,2058,2046,2047,1193
679,1713842069787395219,2052,2037,2045,2057,2047,2053,1195
680,1713842069797399861,2057,2049,2046,2060,2040,2046,1194
681,1713842069807396096,2054,2046,2032,2060,2047,2054,1196
682,1713842069817394376,2061,2072,2112,2062,2064,2060,1196
683,1713842069827394450,2057,2046,2052,2052,2046,2053,1196
684,1713842069837397308,2056,2059,2052,2052,2052,2056,1197
685,1713842069847395407,2052,2047,2049,2041,2046,2052,1194
686,1713842069857397183,2056,2056,2060,2064,2058,2055,1196
687,1713842069867397657,2058,2054,2095,2047,2050,2053,1195
688,1713842069877398462,2060,2059,2057,2064,2058,2054,1197
689,1713842069887384989,2060,2065,2069,2058,2044,2056,1194
690,1713842069897382567,2052,2050,2047,2049,2058,2056,1197
691,1713842069907383121,2052,2056,2042,2075,2050,2057,1200
692,1713842069917399586,2062,2074,2056,2059,2058,2054,1196
693,1713842069927391694,2051,2051,2062,2069,2053,2056,1195
694,1713842069937376348,2058,2069,2066,2048,2058,2056,1197
695,1713842069947379906,2057,2050,2034,2065,2045,2049,1195
696,1713842069957391512,2057,2053,2061,2047,2058,2054,1197
697,1713842069967382708,2063,2053,2077,2050,2041,2054,1194
698,1713842069977390526,2057,2066,2038,2054,2050,2056,1195
699,1713842069987392684,2054,2045,2039,2065,2046,2049,1197
700,1713842069997388047,2056,2050,2040,2048,2058,2053,1197
701,1713842070007389713,2054,2049,2050,2060,2062,2052,1196
702,1713842070017384065,2054,2041,2056,2064,2061,2056,1197
703,1713842070027388026,2058,2045,2049,2057,2048,2053,1197
704,1713842070037383701,2051,2053,2086,2060,2050,2054,1197
705,1713842070047385607,2062,2065,2074,2072,2042,2051,1199
706,1713842070057397783,2056,2054,2058,2056,2053,2053,1196
707,1713842070067386294,2057,2052,2055,2059,2043,2052,1198
708,1713842070077399884,2052,2057,2058,2068,2063,2053,1195
709,1713842070087385959,2057,2059,2056,2052,2054,2052,1195
710,1713842070097390862,2049,2041,2031,2036,2050,2052,1200
711,1713842070107392638,2056,2046,2037,2061,2053,2052,1197
712,1713842070117387251,2052,2045,2028,2044,2056,2055,1198
713,1713842070127385902,2056,2053,2044,2069,2085,2059,1196
714,1713842070137388058,2054,2048,2044,2050,2070,2052,1199
715,1713842070147385706,2058,2058,2085,2060,2050,2056,1196
716,1713842070157386371,2056,2053,2053,1995,2048,2052,1196
717,1713842070167389029,2059,2057,2056,2049,2048,2052,1197
718,1713842070177400824,2058,2064,2087,2050,2060,2053,1197
719,1713842070187388573,2056,2043,2040,2050,2044,2053,1196
720,1713842070197387635,2054,2057,2057,2056,2058,2050,1197
721,1713842070207400523,2059,2056,2043,2068,2056,2056,1197
722,1713842070217383834,2049,2051,2051,2037,2030,2046,1194
723,1713842070227394356,2050,2043,2036,2020,2052,2056,1196
724,1713842070237384851,2048,2051,2034,2052,2056,2052,1198
725,1713842070247389804,2057,2058,2052,2071,2050,2053,1195
726,1713842070257386531,2053,2048,2035,2060,2050,2056,1197
727,1713842070267388087,2056,2057,2057,2068,2057,2057,1197
728,1713842070277396866,2058,2057,2045,2056,2061,2057,1198
729,1713842070287388974,2060,2058,2056,2043,2043,2054,1198
730,1713842070297389548,2052,2053,2071,2045,2057,2054,1199
731,1713842070307390423,2056,2053,2050,2045,2047,2054,1197
732,1713842070317384804,2053,2048,2047,2079,2056,2056,1200
733,1713842070327388434,2062,2055,2043,2058,2036,2056,1197
734,1713842070337383328,2055,2054,2079,2053,2057,2052,1197
735,1713842070347386637,2054,2049,2044,2064,2040,2053,1200
736,1713842070357402661,2056,2049,2048,2056,2066,2054,1195
737,1713842070367387935,2062,2049,2050,2011,2031,2051,1197
738,1713842070377405091,2058,2059,2053,2056,2061,2054,1196
739,1713842070387376990,2054,2046,2045,2058,2056,2056,1195
740,1713842070397387554,2053,2052,2052,2056,2061,2054,1195
741,1713842070407390772,2054,2046,2055,2057,2049,2054,1196
742,1713842070417384182,2056,2060,2083,2041,2064,2052,1198
743,1713842070427383043,2056,2044,2040,2077,2053,2053,1196
744,1713842070437385221,2056,2072,2060,2059,2059,2058,1196
745,1713842070447386146,2060,2064,2082,2065,2049,2056,1197
746,1713842070457383473,2054,2058,2070,2068,2069,2056,1195
747,1713842070467387043,2058,2051,2049,2054,2050,2052,1195
748,1713842070477392005,2050,2054,2057,2052,2056,2052,1198
749,1713842070487396427,2057,2056,2042,2061,2045,2052,1198
750,1713842070497383345,2046,2048,2052,2043,2044,2052,1198
751,1713842070507395180,2061,2056,2066,2061,2051,2056,1200
752,1713842070517385064,2044,2050,2042,2054,2068,2052,1198
753,1713842070527394535,2056,2045,2031,2051,2041,2052,1197
754,1713842070537381824,2058,2062,2053,2056,2060,2054,1197
755,1713842070547389020,2052,2046,2050,2072,2044,2054,1198
756,1713842070557388942,2055,2057,2035,2054,2060,2057,1198
757,1713842070567388274,2055,2037,2014,2048,2041,2053,1197
758,1713842070577395962,2056,2051,2050,2053,2043,2053,1196
759,1713842070587384774,2060,2049,2041,2045,2038,2052,1196
760,1713842070597386810,2053,2050,2028,2025,2049,2051,1197
761,1713842070607398155,2053,2056,2074,2055,2056,2057,1195
762,1713842070617385273,2049,2046,2047,2046,2076,2056,1197
763,1713842070627380377,2059,2053,2053,2076,2071,2056,1195
764,1713842070637384478,2047,2048,2052,2064,2053,2056,1196
765,1713842070647389660,2058,2046,2041,2057,2049,2053,1197
766,1713842070657394523,2051,2050,2045,2069,2064,2056,1197
767,1713842070667387182,2052,2051,2041,2054,2038,2056,1196
768,1713842070677403967,2057,2058,2088,2064,2052,2053,1198
769,1713842070687386927,2055,2052,2069,2043,2041,2053,1197
770,1713842070697388422,2052,2051,2055,2060,2047,2047,1193
771,1713842070707384097,2067,2064,2064,2069,2052,2053,1197
772,1713842070717384361,2053,2058,2047,2068,2091,2056,1197
773,1713842070727391297,2055,2051,2052,2020,2045,2053,1198
774,1713842070737381020,2056,2060,2052,2044,2060,2054,1198
775,1713842070747386534,2056,2053,2047,2038,2041,2052,1198
776,1713842070757383812,2053,2053,2043,2051,2049,2050,1194
777,1713842070767388664,2056,2053,2069,2068,2053,2054,1199
778,1713842070777383818,2054,2057,2045,2084,2074,2053,1197
779,1713842070787389441,2060,2061,2086,2033,2029,2050,1194
780,1713842070797388001,2057,2060,2058,2059,2055,2053,1195
781,1713842070807388535,2056,2045,2032,2053,2049,2052,1196
782,1713842070817386084,2061,2076,2073,2060,2068,2055,1196
783,1713842070827398510,2053,2035,2052,2041,2040,2052,1197
784,1713842070837384616,2062,2053,2044,2053,2055,2053,1195
785,1713842070847385952,2063,2063,2072,2064,2055,2054,1197
786,1713842070857396535,2052,2056,2058,2042,2050,2053,1197
787,1713842070867385477,2059,2055,2059,2045,2072,2057,1196
788,1713842070877388155,2051,2056,2041,2062,2064,2056,1196
789,1713842070887383018,2050,2040,2029,2068,2049,2053,1198
790,1713842070897386277,2056,2064,2064,2046,2066,2056,1198
791,1713842070907389697,2050,2040,2038,2031,2043,2052,1198
792,1713842070917384019,2056,2064,2080,2064,2057,2053,1198
793,1713842070927372529,2054,2052,2065,2058,2050,2053,1196
794,1713842070937410134,2056,2059,2046,2045,2056,2052,1198
795,1713842070947393155,2056,2049,2038,2040,2045,2052,1197
796,1713842070957387467,2049,2052,2046,2054,2049,2048,1197
797,1713842070967390075,2052,2043,2036,2056,2040,2051,1196
798,1713842070977418863,2053,2056,2039,2027,2053,2053,1197
799,1713842070987387546,2056,2048,2049,2056,2029,2052,1197
800,1713842070997392268,2058,2065,2070,2059,2057,2056,1197
801,1713842071007389656,2056,2051,2050,2047,2045,2052,1195
802,1713842071017385841,2056,2061,2072,2064,2062,2056,1196
803,1713842071027424338,2058,2054,2057,2039,2048,2055,1196
804,1713842071037387471,2057,2059,2058,2041,2045,2049,1198
805,1713842071047388265,2055,2046,2050,2058,2042,2052,1197
806,1713842071057391494,2053,2053,2078,2058,2059,2055,1196
807,1713842071067383471,2065,2046,2041,2060,2037,2053,1197
808,1713842071077410787,2060,2072,2042,2053,2056,2053,1198
809,1713842071087390201,2053,2046,2047,2064,2053,2056,1197
810,1713842071097387789,2056,2058,2056,2069,2058,2052,1198
811,1713842071107390226,2057,2054,2052,2047,2044,2052,1197
812,1713842071117386622,2057,2053,2060,2043,2059,2056,1196
813,1713842071127438975,2052,2049,2042,2066,2047,2054,1197
814,1713842071137389183,2048,2052,2053,2051,2088,2056,1197
815,1713842071147390768,2057,2047,2049,2056,2047,2052,1196
816,1713842071157391373,2052,2050,2045,2056,2058,2052,1199
817,1713842071167388350,2058,2050,2051,2076,2043,2054,1198
818,1713842071177422719,2054,2051,2052,2056,2046,2051,1197
819,1713842071187389709,2051,2050,2044,2072,2048,2056,1194
820,1713842071197389701,2055,2056,2056,2064,2068,2054,1194
821,1713842071207390325,2058,2052,2059,2049,2077,2053,1196
822,1713842071217392383,2056,2052,2038,2050,2054,2054,1195
823,1713842071227403026,2060,2064,2085,2069,2047,2052,1196
824,1713842071237393039,2056,2050,2044,2057,2058,2052,1197
825,1713842071247401388,2062,2058,2068,2060,2036,2054,1196
826,1713842071257394017,2048,2044,2039,2054,2057,2053,1198
827,1713842071267393650,2058,2052,2053,2075,2050,2054,1194
828,1713842071277409323,2057,2055,2050,2026,2049,2052,1196
829,1713842071287394947,2056,2053,2044,2074,2068,2060,1198
830,1713842071297396213,2057,2054,2049,2061,2056,2053,1197
831,1713842071307396427,2054,2047,2044,2056,2052,2056,1198
832,1713842071317395909,2054,2055,2041,2065,2060,2054,1198
833,1713842071327395961,2061,2069,2072,2066,2051,2050,1197
834,1713842071337377439,2052,2053,2053,2057,2057,2054,1197
835,1713842071347397400,2058,2056,2057,2062,2052,2053,1197
836,1713842071357398756,2053,2056,2052,2051,2059,2053,1197
837,1713842071367400903,2062,2060,2080,2056,2045,2051,1196
838,1713842071377414271,2056,2058,2079,2043,2051,2056,1197
839,1713842071387387032,2050,2045,2045,2062,2026,2050,1195
840,1713842071397382136,2052,2053,2062,2056,2056,2056,1195
841,1713842071407401886,2059,2060,2082,2036,2051,2052,1195
842,1713842071417384225,2056,2052,2054,2064,2053,2051,1196
843,1713842071427445806,2056,2054,2059,2051,2045,2054,1197
844,1713842071437384973,2055,2065,2052,2054,2056,2052,1198
845,1713842071447386960,2055,2043,2036,2067,2044,2053,1197
846,1713842071457403343,2057,2064,2085,2052,2034,2056,1197
847,1713842071467382065,2057,2054,2068,2049,2044,2054,1196
848,1713842071477418208,2055,2053,2052,2059,2058,2052,1196
849,1713842071487384276,2056,2056,2068,2065,2047,2056,1198
850,1713842071497377556,2060,2064,2042,2036,2047,2049,1198
851,1713842071507389000,2051,2047,2051,2058,2054,2055,1197
852,1713842071517385467,2052,2056,2050,2025,2053,2051,1198
853,1713842071527410337,2060,2052,2048,2077,2078,2057,1197
854,1713842071537387136,2052,2056,2047,2064,2079,2052,1197
855,1713842071547387970,2057,2045,2044,2067,2049,2052,1198
856,1713842071557386440,2052,2055,2050,2045,2057,2053,1196
857,1713842071567387034,2056,2052,2048,2061,2053,2051,1196
858,1713842071577415342,2055,2056,2047,2057,2060,2056,1198
859,1713842071587390046,2054,2053,2044,2064,2053,2053,1198
860,1713842071597354651,2050,2047,2041,2064,2067,2053,1197
861,1713842071607389040,2057,2049,2036,2077,2070,2057,1195
862,1713842071617391377,2051,2056,2064,2052,2061,2053,1197
863,1713842071627416729,2058,2053,2056,2061,2043,2053,1196
864,1713842071637387094,2053,2056,2057,2059,2060,2054,1197
865,1713842071647389151,2057,2050,2058,2056,2049,2054,1197
866,1713842071657387742,2053,2053,2048,2050,2061,2056,1196
867,1713842071667387525,2064,2069,2115,2072,2058,2057,1196
868,1713842071677403709,2056,2050,2064,2058,2050,2048,1196
869,1713842071687388842,2053,2045,2040,2058,2082,2060,1196
870,1713842071697384668,2059,2065,2036,2061,2062,2054,1196
871,1713842071707386875,2056,2059,2053,2056,2043,2052,1198
872,1713842071717387008,2050,2049,2053,2056,2058,2053,1197
873,1713842071727438549,2053,2049,2046,2056,2047,2052,1197
874,1713842071737401251,2056,2054,2045,2056,2069,2055,1196
875,1713842071747392307,2057,2052,2049,2065,2053,2053,1199
876,1713842071757387842,2057,2061,2072,2046,2049,2049,1196
877,1713842071767387494,2056,2052,2056,2054,2050,2056,1197
878,1713842071777428064,2059,2061,2058,2068,2097,2059,1197
879,1713842071787386718,2057,2048,2045,2062,2044,2052,1197
880,1713842071797387142,2056,2061,2056,2059,2068,2056,1196
881,1713842071807387816,2061,2049,2043,2052,2046,2052,1197
882,1713842071817389742,2055,2058,2060,2062,2056,2056,1197
883,1713842071827390306,2041,2049,2040,2064,2047,2056,1197
884,1713842071837390380,2047,2047,2040,2056,2064,2052,1196
885,1713842071847350627,2051,2067,2065,2062,2050,2055,1196
886,1713842071857390837,2050,2028,2051,2057,2068,2052,1197
887,1713842071867391029,2056,2041,2048,2069,2049,2053,1196
888,1713842071877386564,2052,2061,2047,2071,2076,2056,1196
889,1713842071887401415,2054,2037,2056,2056,2027,2052,1198
890,1713842071897392702,2054,2048,2036,2057,2063,2053,1199
891,1713842071907380781,2059,2053,2056,2058,2041,2052,1196
892,1713842071917381586,2050,2072,2062,2064,2067,2055,1196
893,1713842071927390917,2058,2047,2057,2068,2042,2056,1196
894,1713842071937436828,2046,2049,2045,2018,2072,2049,1196
895,1713842071947389159,2060,2068,2125,2065,2033,2051,1196
896,1713842071957384032,2055,2070,2043,2045,2066,2052,1196
897,1713842071967381921,2059,2046,2043,2070,2046,2054,1197
898,1713842071977392695,2054,2063,2081,2025,2066,2056,1197
899,1713842071987381928,2059,2053,2058,2062,2041,2053,1196
900,1713842071997387290,2052,2056,2046,2049,2058,2052,1194
901,1713842072007387363,2060,2051,2080,2060,2032,2053,1198
902,1713842072017384962,2059,2056,2074,2065,2068,2053,1197
903,1713842072027412968,2057,2047,2042,2048,2037,2054,1197
904,1713842072037393624,2056,2069,2081,2061,2072,2053,1197
905,1713842072047382556,2056,2050,2070,2074,2036,2051,1197
906,1713842072057387829,2047,2057,2062,2037,2066,2053,1197
907,1713842072067416908,2065,2065,2060,2073,2056,2052,1197
908,1713842072077387915,2056,2052,2042,2050,2071,2057,1197
909,1713842072087383088,2059,2047,2051,2036,2036,2053,1196
910,1713842072097407117,2052,2064,2060,2056,2072,2056,1199
911,1713842072107392162,2056,2029,2034,2059,2024,2056,1199
912,1713842072117386204,2053,2054,2026,2052,2083,2056,1198
913,1713842072127390454,2056,2047,2037,2068,2036,2054,1198
914,1713842072137397320,2055,2054,2058,2049,2077,2054,1197
915,1713842072147384689,2058,2048,2069,2085,2053,2056,1198
916,1713842072157387157,2052,2061,2048,2001,2061,2047,1197
917,1713842072167389944,2068,2056,2050,2068,2032,2056,1198
918,1713842072177386792,2047,2061,2058,2043,2077,2053,1198
919,1713842072187384821,2060,2044,2036,2060,2029,2053,1197
920,1713842072197386066,2052,2068,2062,2047,2079,2054,1197
921,1713842072207388604,2064,2046,2052,2052,2024,2050,1195
922,1713842072217389779,2052,2067,2091,2036,2076,2054,1195
923,1713842072227393118,2069,2045,2044,2030,2028,2052,1196
924,1713842072237390907,2057,2062,2058,2028,2080,2054,1197
925,1713842072247391041,2065,2050,2062,2064,2014,2054,1197
926,1713842072257391874,2053,2077,2084,2036,2084,2055,1197
927,1713842072267392709,2069,2042,2035,2070,2022,2057,1197
928,1713842072277395498,2046,2066,2064,2057,2083,2055,1195
929,1713842072287393046,2057,2038,2048,2096,2012,2048,1199
930,1713842072297392407,2051,2074,2073,2066,2080,2053,1199
931,1713842072307395887,2068,2043,2056,2084,2032,2057,1197
932,1713842072317416219,2047,2062,2056,2037,2095,2052,1196
933,1713842072327395222,2060,2043,2044,2071,2021,2056,1198
934,1713842072337393621,2048,2068,2054,2038,2085,2053,1196
935,1713842072347405437,2064,2042,2058,2068,2020,2052,1197
936,1713842072357397144,2046,2072,2080,2046,2089,2054,1196
937,1713842072367398349,2060,2045,2081,2061,2028,2056,1195
938,1713842072377398062,2049,2059,2049,2037,2082,2056,1196
939,1713842072387385270,2061,2047,2052,2071,2028,2056,1196
940,1713842072397385864,2049,2072,2081,2054,2088,2056,1196
941,1713842072407385336,2060,2043,2049,2082,2024,2053,1195
942,1713842072417384618,2050,2059,2050,2072,2108,2057,1198
943,1713842072427400079,2063,2056,2062,2069,2023,2050,1195
944,1713842072437384643,2052,2068,2072,2044,2085,2056,1197
945,1713842072447385488,2059,2036,2035,2057,2012,2052,1196
946,1713842072457383377,2042,2037,2032,2060,2099,2061,1196
947,1713842072467385062,2061,2033,2052,2064,2027,2058,1197
948,1713842072477389424,2043,2055,2053,2048,2083,2053,1196
949,1713842072487385610,2062,2041,2055,2086,2032,2053,1196
950,1713842072497388599,2050,2066,2061,2040,2089,2052,1198
951,1713842072507395775,2064,2056,2068,2098,2031,2055,1198
952,1713842072517388243,2045,2061,2052,2049,2084,2056,1197
953,1713842072527386012,2068,2046,2056,2056,2021,2056,1197
954,1713842072537389592,2045,2064,2040,2025,2077,2049,1197
955,1713842072547390908,2062,2046,2056,2085,2050,2052,1198
956,1713842072557386942,2047,2052,2057,2042,2080,2050,1194
957,1713842072567384411,2069,2044,2047,2076,2024,2053,1200
958,1713842072577386077,2050,2064,2058,2029,2088,2053,1199
959,1713842072587386290,2065,2037,2052,2070,2017,2052,1196
960,1713842072597386162,2052,2064,2062,2038,2086,2053,1196
961,1713842072607391716,2062,2045,2049,2029,2000,2055,1195
962,1713842072617384816,2051,2070,2045,2050,2091,2055,1198
963,1713842072627386713,2061,2043,2043,2088,2026,2056,1197
964,1713842072637386264,2042,2055,2052,2046,2085,2056,1197
965,1713842072647387700,2056,2035,2046,2072,2027,2056,1198
966,1713842072657384968,2051,2059,2058,2055,2091,2056,1195
967,1713842072667391534,2061,2039,2039,2104,2021,2054,1196
968,1713842072677389733,2046,2060,2056,2036,2073,2051,1198
969,1713842072687381790,2061,2036,2037,2073,2023,2052,1199
970,1713842072697388075,2048,2058,2047,2020,2067,2053,1198
971,1713842072707386125,2060,2045,2058,2085,2035,2054,1196
972,1713842072717383142,2052,2070,2120,2031,2080,2050,1196
973,1713842072727390919,2060,2049,2093,2080,2036,2056,1197
974,1713842072737385803,2046,2059,2052,2038,2068,2051,1198
975,1713842072747400674,2060,2045,2055,2064,2038,2053,1198
976,1713842072757400437,2054,2058,2056,2077,2086,2052,1198
977,1713842072767385962,2056,2046,2047,2062,2036,2052,1196
978,1713842072777390343,2050,2056,2050,2048,2073,2056,1198
979,1713842072787385286,2059,2037,2027,2066,2036,2056,1196
980,1713842072797387744,2050,2055,2041,1992,2075,2049,1195
981,1713842072807391495,2056,2045,2049,2051,2030,2052,1196
982,1713842072817385756,2047,2060,2058,2044,2060,2051,1195
983,1713842072827389566,2064,2053,2047,2072,2054,2056,1197
984,1713842072837366044,2053,2072,2090,2041,2069,2053,1197
985,1713842072847407396,2057,2046,2045,2076,2024,2052,1198
986,1713842072857393041,2050,2063,2056,2058,2085,2059,1196
987,1713842072867388065,2062,2045,2041,2001,2019,2053,1198
988,1713842072877390062,2049,2061,2057,2037,2066,2048,1194
989,1713842072887383072,2064,2052,2097,2069,2024,2053,1198
990,1713842072897394926,2045,2060,2052,2015,2069,2054,1199
991,1713842072907394148,2060,2049,2054,2063,2028,2056,1199
992,1713842072917389552,2049,2050,2044,2016,2076,2056,1197
993,1713842072927386099,2064,2043,2034,2065,2031,2056,1198
994,1713842072937384960,2046,2062,2054,2050,2087,2052,1198
995,1713842072947384211,2063,2049,2056,2094,2082,2061,1196
996,1713842072957386558,2045,2056,2052,2024,2053,2049,1196
997,1713842072967384097,2064,2075,2104,2067,2028,2055,1195
998,1713842072977386134,2048,2061,2083,2048,2068,2054,1197
999,1713842072987386807,2056,2047,2040,2038,2024,2051,1194
1000,1713842072997389385,2050,2054,2052,2060,2081,2055,1197
1001,1713842073007392314,2059,2049,2056,2068,2025,2053,1198
1002,1713842073017386476,2051,2056,2045,2043,2081,2050,1197
1003,1713842073027387249,2057,2044,2021,2070,2029,2053,1196
1004,1713842073037385770,2052,2070,2075,2038,2076,2056,1195
1005,1713842073047396353,2054,2044,2050,2080,2032,2054,1197
1006,1713842073057389553,2050,2064,2062,2050,2060,2051,1196
1007,1713842073067384406,2062,2049,2059,2061,2021,2056,1195
1008,1713842073077387555,2053,2061,2063,2044,2076,2052,1199
1009,1713842073087386486,2056,2046,2044,2068,2032,2052,1197
1010,1713842073097393112,2049,2059,2056,2052,2074,2056,1198
1011,1713842073107390620,2053,2036,2028,2037,2030,2054,1198
1012,1713842073117390452,2053,2056,2047,2053,2066,2052,1194
1013,1713842073127388080,2053,2034,2035,2054,2028,2053,1196
1014,1713842073137385258,2047,2058,2056,2041,2068,2053,1196
1015,1713842073147384139,2064,2056,2058,2056,2020,2050,1197
1016,1713842073157386826,2051,2056,2053,2037,2073,2053,1198
1017,1713842073167385347,2060,2041,2049,2074,2029,2052,1198
1018,1713842073177385991,2049,2056,2047,2057,2073,2056,1195
1019,1713842073187384201,2061,2060,2094,2030,2026,2054,1195
1020,1713842073197392138,2056,2077,2084,2047,2064,2054,1196
1021,1713842073207387553,2056,2044,2068,2066,2031,2053,1196
1022,1713842073217387205,2050,2069,2076,2070,2090,2059,1196
1023,1713842073227386507,2060,2047,2054,2071,2044,2056,1196
1024,1713842073237386679,2049,2054,2046,2043,2077,2052,1197
1025,1713842073247398465,2057,2048,2044,2061,2028,2048,1198
1026,1713842073257390102,2052,2060,2050,2056,2071,2050,1196
1027,1713842073267391438,2058,2050,2070,2068,2038,2057,1195
1028,1713842073277391420,2056,2061,2053,2023,2068,2052,1196
1029,1713842073287387145,2065,2046,2053,2082,2050,2053,1197
1030,1713842073297389753,2054,2073,2055,2046,2068,2053,1197
1031,1713842073307391429,2061,2054,2088,2066,2036,2054,1198
1032,1713842073317385270,2052,2057,2049,2054,2074,2049,1197
1033,1713842073327391304,2065,2045,2062,2077,2031,2051,1197
1034,1713842073337386899,2053,2078,2090,2056,2104,2056,1198
1035,1713842073347393154,2059,2045,2049,2084,2037,2053,1197
1036,1713842073357390572,2052,2052,2061,2044,2070,2054,1196
1037,1713842073367395504,2060,2052,2072,2065,2029,2047,1193
1038,1713842073377384236,2048,2058,2054,2045,2074,2056,1198
1039,1713842073387387044,2064,2056,2077,2062,2028,2056,1196
1040,1713842073397384342,2052,2062,2081,2032,2065,2049,1194
1041,1713842073407387580,2065,2052,2068,2056,2029,2053,1198
1042,1713842073417391952,2048,2049,2045,2042,2073,2050,1196
1043,1713842073427391043,2061,2051,2052,2087,2037,2056,1195
1044,1713842073437395756,2051,2056,2040,2036,2072,2054,1195
1045,1713842073447387883,2059,2048,2045,2068,2022,2054,1196
1046,1713842073457394388,2055,2061,2056,2054,2056,2049,1195
1047,1713842073467391686,2060,2046,2073,2044,2024,2050,1195
1048,1713842073477389155,2047,2048,2060,2050,2081,2053,1196
1049,1713842073487385139,2065,2046,2055,2070,2028,2056,1196
1050,1713842073497391093,2051,2058,2059,2042,2072,2055,1197
1051,1713842073507408610,2060,2058,2076,2072,2034,2058,1196
1052,1713842073517388104,2047,2050,2035,2049,2058,2050,1196
1053,1713842073527385681,2061,2056,2053,2097,2034,2052,1195
1054,1713842073537383581,2052,2058,2047,2033,2068,2050,1197
1055,1713842073547389445,2068,2053,2086,2050,2032,2056,1197
1056,1713842073557386703,2050,2069,2061,2040,2065,2053,1196
1057,1713842073567383890,2056,2037,2041,2047,2021,2053,1197
1058,1713842073577389003,2053,2067,2058,2040,2065,2052,1196
1059,1713842073587387032,2061,2048,2054,2085,2024,2056,1194
1060,1713842073597468370,2049,2057,2036,2041,2073,2052,1195
1061,1713842073607387499,2066,2054,2024,2065,2034,2053,1197
1062,1713842073617386339,2046,2059,2057,2033,2062,2052,1196
1063,1713842073627389007,2062,2045,2065,2067,2034,2052,1197
1064,1713842073637389331,2052,2065,2104,2044,2074,2053,1197
1065,1713842073647387090,2058,2047,2052,2082,2036,2056,1195
1066,1713842073657391050,2052,2057,2057,2045,2070,2051,1197
1067,1713842073667389850,2058,2046,2043,2077,2033,2056,1197
1068,1713842073677393150,2047,2060,2053,2030,2063,2052,1195
1069,1713842073687390327,2061,2045,2048,2060,2026,2056,1198
1070,1713842073697390801,2044,2062,2044,2035,2064,2049,1198
1071,1713842073707400532,2066,2074,2057,2070,2028,2052,1198
1072,1713842073717391338,2047,2052,2050,2050,2066,2051,1198
1073,1713842073727397443,2061,2053,2056,2071,2036,2053,1197
1074,1713842073737396914,2050,2070,2078,2044,2080,2049,1197
1075,1713842073747392789,2067,2047,2042,2064,2030,2056,1196
1076,1713842073757394846,2052,2066,2060,2046,2088,2052,1195
1077,1713842073767393898,2061,2044,2054,2054,2045,2055,1196
1078,1713842073777394451,2048,2056,2052,2025,2072,2050,1196
1079,1713842073787394494,2067,2056,2093,2082,2036,2056,1195
1080,1713842073797431688,2046,2053,2045,2055,2082,2050,1195
1081,1713842073807397907,2061,2051,2066,2079,2045,2056,1195
1082,1713842073817396266,2057,2066,2076,2042,2064,2057,1197
1083,1713842073827397662,2064,2049,2060,2072,2041,2056,1197
1084,1713842073837397515,2044,2065,2085,2050,2077,2049,1196
1085,1713842073847398940,2060,2045,2033,2077,2032,2054,1196
1086,1713842073857402008,2045,2057,2056,2040,2072,2052,1197
1087,1713842073867382083,2066,2050,2056,2050,2032,2056,1196
1088,1713842073877413577,2055,2072,2090,2044,2077,2052,1196
1089,1713842073887402950,2060,2043,2052,2066,2025,2052,1197
1090,1713842073897385458,2046,2068,2064,2040,2072,2051,1196
1091,1713842073907386704,2062,2050,2041,2060,2036,2054,1200
1092,1713842073917385495,2056,2067,2046,2043,2083,2054,1197
1093,1713842073927404274,2057,2048,2074,2080,2042,2058,1195
1094,1713842073937382826,2052,2052,2044,2046,2061,2052,1200
1095,1713842073947387176,2066,2058,2073,2104,2031,2053,1196
1096,1713842073957384765,2052,2061,2056,2030,2076,2054,1198
1097,1713842073967387593,2064,2052,2074,2088,2029,2050,1196
1098,1713842073977388428,2050,2062,2065,2053,2069,2049,1196
1099,1713842073987387368,2061,2048,2052,2064,2026,2053,1196
1100,1713842073997390537,2053,2062,2061,2045,2084,2053,1194
1101,1713842074007391372,2061,2048,2050,2038,2033,2057,1197
1102,1713842074017388279,2045,2053,2047,2024,2080,2056,1198
1103,1713842074027392109,2065,2061,2044,2069,2040,2056,1196
1104,1713842074037383826,2043,2052,2055,2050,2077,2052,1196
1105,1713842074047389821,2057,2042,2036,2075,2040,2054,1198
1106,1713842074057392028,2056,2071,2076,2036,2071,2052,1197
1107,1713842074067385488,2061,2053,2068,2026,2024,2052,1197
1108,1713842074077401381,2046,2058,2053,2031,2072,2052,1198
1109,1713842074087383310,2061,2052,2058,2065,2023,2052,1198
1110,1713842074097397220,2047,2053,2038,2028,2062,2052,1200
1111,1713842074107386361,2060,2042,2040,2072,2029,2055,1198
1112,1713842074117383779,2056,2053,2045,2038,2070,2053,1198
1113,1713842074127387620,2060,2046,2048,2073,2040,2054,1197
1114,1713842074137384246,2046,2058,2053,2044,2073,2052,1197
1115,1713842074147385421,2057,2029,2024,2030,2015,2047,1194
1116,1713842074157385234,2050,2044,2042,2046,2078,2049,1196
1117,1713842074167385527,2064,2052,2055,2017,2028,2057,1196
1118,1713842074177385370,2047,2056,2052,2053,2080,2054,1198
1119,1713842074187385763,2060,2046,2043,2073,2058,2053,1196
1120,1713842074197395555,2051,2064,2056,2044,2071,2052,1194
1121,1713842074207394416,2056,2039,2033,2059,2035,2054,1196
1122,1713842074217401863,2045,2060,2056,2030,2073,2049,1197
1123,1713842074227387428,2064,2045,2045,2084,2037,2058,1196
1124,1713842074237391258,2052,2061,2042,2057,2078,2053,1194
1125,1713842074247386562,2062,2048,2059,2065,2033,2056,1197
1126,1713842074257393399,2047,2051,2044,2036,2069,2053,1196
1127,1713842074267386968,2057,2045,2044,2059,2030,2054,1196
1128,1713842074277380609,2046,2065,2097,2061,2075,2054,1196
1129,1713842074287385241,2062,2065,2066,2066,2034,2056,1197
1130,1713842074297388601,2050,2052,2050,2050,2081,2055,1198
1131,1713842074307385116,2056,2047,2050,2076,2035,2058,1198
1132,1713842074317379799,2050,2064,2054,2053,2069,2056,1197
1133,1713842074327393649,2056,2042,2061,2068,2036,2057,1197
1134,1713842074337384465,2050,2062,2035,2058,2095,2057,1196
1135,1713842074347389226,2061,2056,2104,2052,2030,2056,1197
1136,1713842074357385462,2052,2061,2047,2062,2075,2053,1197
1137,1713842074367399943,2056,2049,2056,2083,2040,2053,1196
1138,1713842074377395497,2049,2061,2060,2051,2072,2051,1198
1139,1713842074387384999,2060,2045,2041,2061,2029,2052,1196
1140,1713842074397394100,2053,2062,2053,2056,2105,2049,1197
1141,1713842074407387631,2058,2047,2074,2079,2028,2052,1196
1142,1713842074417390449,2045,2055,2047,2049,2074,2053,1196
1143,1713842074427396192,2063,2053,2045,2078,2032,2057,1196
1144,1713842074437388891,2056,2060,2052,2004,2066,2053,1196
1145,1713842074447386570,2064,2049,2051,2068,2028,2057,1196
1146,1713842074457385571,2052,2060,2043,2024,2066,2050,1197
1147,1713842074467388659,2058,2037,2043,2077,2049,2060,1198
1148,1713842074477390536,2050,2058,2100,2050,2069,2051,1194
1149,1713842074487384929,2066,2052,2045,2072,2035,2056,1196
1150,1713842074497390011,2048,2053,2045,2034,2072,2049,1199
1151,1713842074507387098,2060,2047,2041,2088,2038,2057,1197
1152,1713842074517385037,2048,2065,2050,2052,2062,2051,1198
1153,1713842074527394418,2064,2047,2050,2068,2034,2053,1196
1154,1713842074537383601,2049,2053,2046,2032,2060,2050,1197
1155,1713842074547391839,2060,2042,2045,2058,2020,2052,1198
1156,1713842074557385440,2050,2064,2060,2052,2080,2052,1198
1157,1713842074567394280,2061,2046,2032,2052,2025,2050,1196
1158,1713842074577404132,2044,2067,2082,2042,2068,2050,1198
1159,1713842074587385989,2058,2046,2045,2074,2049,2057,1195
1160,1713842074597395220,2048,2060,2056,2052,2081,2056,1196
1161,1713842074607391436,2056,2043,2044,2058,2019,2054,1197
1162,1713842074617391329,2053,2070,2062,2017,2075,2056,1196
1163,1713842074627389738,2063,2045,2052,2072,2025,2055,1196
1164,1713842074637387016,2046,2054,2044,2047,2072,2056,1197
1165,1713842074647388141,2060,2053,2074,2080,2036,2056,1199
1166,1713842074657386461,2051,2063,2064,2052,2075,2051,1197
1167,1713842074667389158,2062,2044,2057,2078,2041,2054,1197
1168,1713842074677388931,2042,2050,2027,2034,2061,2053,1196
1169,1713842074687389766,2062,2041,2015,2083,2028,2061,1197
1170,1713842074697393155,2058,2068,2075,2056,2063,2056,1198
1171,1713842074707392506,2057,2058,2051,2068,2028,2054,1197
1172,1713842074717393862,2050,2053,2046,2047,2092,2053,1196
1173,1713842074727394436,2056,2052,2060,2065,2031,2055,1196
1174,1713842074737390281,2048,2052,2054,2049,2067,2052,1197
1175,1713842074747392448,2059,2043,2046,2072,2027,2049,1198
1176,1713842074757394314,2046,2059,2052,2038,2072,2058,1198
1177,1713842074767393195,2066,2053,2059,2057,2026,2054,1198
1178,1713842074777399561,2049,2060,2060,2047,2072,2052,1197
1179,1713842074787393221,2060,2046,2057,2086,2035,2056,1193
1180,1713842074797394226,2054,2073,2113,2052,2076,2054,1197
1181,1713842074807392145,2060,2050,2088,2089,2049,2057,1194
1182,1713842074817391737,2052,2055,2040,2059,2070,2047,1192
1183,1713842074827395136,2058,2043,2038,2068,2017,2056,1197
1184,1713842074837403705,2052,2057,2043,2041,2074,2054,1196
1185,1713842074847399020,2058,2052,2052,2056,2032,2053,1196
1186,1713842074857398712,2048,2057,2054,2048,2074,2047,1193
1187,1713842074867398223,2060,2052,2056,2073,2036,2058,1194
1188,1713842074877401723,2048,2058,2025,2054,2076,2052,1195
1189,1713842074887400043,2057,2044,2034,2080,2031,2058,1198
1190,1713842074897398253,2054,2058,2040,2056,2101,2056,1200
1191,1713842074907399698,2060,2058,2052,2056,2026,2052,1197
1192,1713842074917399210,2049,2059,2056,2049,2072,2056,1196
1193,1713842074927405295,2059,2054,2069,2068,2036,2054,1198
1194,1713842074937400228,2047,2059,2037,2039,2072,2051,1197
1195,1713842074947403016,2061,2049,2070,2046,2027,2054,1196
1196,1713842074957401546,2052,2061,2043,2039,2076,2054,1198
1197,1713842074967390578,2062,2050,2051,2068,2056,2053,1196
1198,1713842074977407694,2057,2062,2053,2058,2072,2053,1196
1199,1713842074987387348,2058,2045,2050,2060,2035,2052,1196
1200,1713842074997403722,2048,2056,2047,2048,2072,2053,1193
1201,1713842075007383486,2059,2056,2086,2074,2035,2053,1197
1202,1713842075017381255,2054,2060,2041,2050,2080,2053,1196
1203,1713842075027385656,2063,2050,2056,2083,2033,2056,1197
1204,1713842075037384727,2053,2054,2052,2049,2077,2053,1195
1205,1713842075047383408,2056,2048,2059,2072,2036,2052,1196
1206,1713842075057382810,2047,2047,2044,2051,2072,2056,1196
1207,1713842075067389194,2063,2053,2049,2067,2036,2050,1193
1208,1713842075077393084,2054,2061,2042,2041,2075,2056,1197
1209,1713842075087385032,2057,2045,2044,2048,2015,2055,1195
1210,1713842075097389404,2052,2057,2049,2051,2073,2058,1196
1211,1713842075107391339,2058,2045,2048,2063,2033,2050,1197
1212,1713842075117389469,2050,2054,2055,2037,2072,2053,1195
1213,1713842075127388160,2062,2041,2042,2089,2068,2056,1199
1214,1713842075137385929,2057,2076,2112,2059,2064,2056,1199
1215,1713842075147384849,2060,2047,2040,2061,2032,2049,1197
1216,1713842075157384601,2050,2064,2052,2057,2066,2056,1196
1217,1713842075167385687,2060,2047,2059,2057,2036,2055,1196
1218,1713842075177385630,2054,2059,2042,2043,2076,2057,1194
1219,1713842075187384620,2060,2047,2056,2065,2035,2049,1195
1220,1713842075197391817,2046,2054,2049,2049,2088,2056,1195
1221,1713842075207391660,2063,2057,2072,2061,2038,2053,1195
1222,1713842075217392825,2046,2052,2042,2033,2072,2056,1196
1223,1713842075227392005,2059,2047,2048,2056,2033,2051,1196
1224,1713842075237385867,2048,2056,2059,2034,2058,2052,1197
1225,1713842075247394997,2057,2043,2052,2068,2029,2052,1196
1226,1713842075257388408,2045,2057,2050,2044,2078,2058,1198
1227,1713842075267389763,2057,2053,2061,2073,2036,2052,1195
1228,1713842075277393493,2046,2056,2064,2027,2076,2057,1197
1229,1713842075287385230,2069,2047,2036,2045,2046,2056,1197
1230,1713842075297388299,2053,2067,2104,2033,2080,2065,1197
1231,1713842075307384274,2060,2056,2048,2057,2032,2047,1195
1232,1713842075317385449,2050,2059,2052,2040,2081,2060,1197
1233,1713842075327389049,2064,2062,2053,2090,2035,2052,1196
1234,1713842075337382619,2057,2064,2065,2041,2105,2064,1195
1235,1713842075347393573,2064,2052,2054,2072,2033,2050,1195
1236,1713842075357384228,2050,2059,2049,2004,2064,2054,1197
1237,1713842075367388129,2060,2052,2044,2075,2005,2046,1196
1238,1713842075377396948,2052,2064,2058,2064,2089,2064,1195
1239,1713842075387387673,2062,2051,2052,2067,2021,2045,1193
1240,1713842075397392215,2047,2059,2064,2002,2081,2059,1194
1241,1713842075407382089,2060,2052,2072,2064,2025,2046,1193
1242,1713842075417389345,2051,2064,2054,2044,2090,2063,1197
1243,1713842075427386322,2068,2056,2060,2062,2025,2049,1194
1244,1713842075437383981,2054,2064,2052,2017,2084,2061,1195
1245,1713842075447386038,2064,2044,2045,2076,2024,2046,1193
1246,1713842075457383445,2046,2058,2053,2064,2088,2058,1198
1247,1713842075467383408,2059,2058,2099,2069,2030,2048,1196
1248,1713842075477385516,2052,2065,2052,2040,2082,2061,1196
1249,1713842075487393374,2055,2045,2045,2072,2026,2046,1196
1250,1713842075497395199,2061,2090,2149,2043,2086,2064,1198
1251,1713842075507386756,2058,2044,2053,2076,2032,2047,1195
1252,1713842075517384355,2052,2061,2060,1994,2068,2058,1197
1253,1713842075527384859,2062,2039,2041,2059,2023,2048,1196
1254,1713842075537386534,2056,2065,2064,2043,2088,2059,1196
1255,1713842075547383552,2063,2050,2027,2052,2025,2047,1193
1256,1713842075557384797,2052,2064,2065,2044,2088,2062,1197
1257,1713842075567386844,2058,2043,2043,2032,2040,2046,1194
1258,1713842075577389061,2057,2076,2085,2052,2089,2059,1195
1259,1713842075587388413,2057,2041,2048,2066,2034,2042,1192
1260,1713842075597399577,2059,2066,2064,2036,2087,2061,1194
1261,1713842075607382016,2058,2042,2040,2057,2024,2047,1194
1262,1713842075617394022,2054,2068,2064,2045,2086,2057,1197
1263,1713842075627389727,2053,2030,2040,2060,2025,2045,1193
1264,1713842075637385993,2047,2064,2050,2060,2097,2060,1198
1265,1713842075647390514,2056,2044,2047,2068,2023,2049,1197
1266,1713842075657383393,2054,2072,2062,2045,2092,2060,1196
1267,1713842075667384077,2056,2036,2033,2058,2021,2045,1195
1268,1713842075677402656,2060,2073,2060,2040,2085,2062,1196
1269,1713842075687383773,2064,2052,2057,2070,2016,2047,1194
1270,1713842075697387372,2054,2069,2053,2000,2077,2061,1200
1271,1713842075707385963,2060,2049,2054,2056,2016,2043,1194
1272,1713842075717390023,2058,2068,2060,2046,2081,2064,1198
1273,1713842075727380819,2058,2041,2033,2073,2031,2045,1195
1274,1713842075737384488,2054,2070,2058,2040,2082,2057,1195
1275,1713842075747384732,2054,2034,2024,2062,2024,2046,1193
1276,1713842075757379785,2056,2078,2065,2072,2099,2064,1198
1277,1713842075767384727,2056,2030,2014,2088,2016,2044,1196
1278,1713842075777384229,2056,2075,2069,2046,2089,2062,1197
1279,1713842075787386006,2053,2040,2035,2068,2033,2047,1193
1280,1713842075797389055,2058,2085,2122,2052,2094,2059,1197
1281,1713842075807384628,2054,2030,2043,2072,2030,2047,1193
1282,1713842075817386736,2056,2072,2067,2037,2089,2062,1198
1283,1713842075827385697,2054,2037,2047,2077,2012,2044,1194
1284,1713842075837386942,2057,2076,2066,2050,2088,2062,1197
1285,1713842075847389379,2053,2041,2056,2062,2012,2044,1194
1286,1713842075857383561,2057,2080,2107,2043,2090,2056,1197
1287,1713842075867393012,2056,2040,2044,2074,2016,2047,1195
1288,1713842075877386463,2055,2073,2050,2045,2093,2059,1196
1289,1713842075887382437,2049,2032,2037,2071,2026,2045,1195
1290,1713842075897389354,2058,2072,2067,2054,2090,2057,1198
1291,1713842075907385439,2056,2037,2028,2073,2009,2042,1193
1292,1713842075917410230,2058,2073,2066,2040,2095,2060,1197
1293,1713842075927388891,2056,2043,2034,2067,2008,2043,1193
1294,1713842075937384476,2057,2078,2069,2050,2096,2061,1199
1295,1713842075947388457,2056,2042,2085,2074,2019,2046,1196
1296,1713842075957383230,2059,2076,2072,2054,2094,2059,1196
1297,1713842075967390746,2057,2059,2092,2068,2010,2049,1196
1298,1713842075977387633,2056,2077,2066,2038,2088,2058,1198
1299,1713842075987387717,2057,2030,2016,2082,2025,2050,1197
1300,1713842075997393150,2051,2082,2072,2048,2113,2066,1197
1301,1713842076007384827,2054,2033,2035,2075,2019,2047,1194
1302,1713842076017388687,2052,2075,2061,2045,2099,2055,1194
1303,1713842076027389893,2051,2035,2036,2059,2000,2043,1193
1304,1713842076037385817,2057,2088,2076,2040,2093,2063,1193
1305,1713842076047393204,2049,2035,2054,2056,2017,2044,1195
1306,1713842076057384721,2058,2078,2072,2032,2097,2060,1197
1307,1713842076067386938,2056,2037,2036,2072,2012,2044,1195
1308,1713842076077388804,2050,2065,2043,2021,2097,2059,1196
1309,1713842076087394167,2056,2046,2040,2076,1998,2048,1196
1310,1713842076097393389,2056,2070,2048,2031,2095,2061,1197
1311,1713842076107387010,2056,2037,2056,2072,2014,2047,1193
1312,1713842076117387313,2057,2079,2066,2029,2098,2059,1196
1313,1713842076127394670,2049,2029,2043,2069,2002,2046,1194
1314,1713842076137390215,2057,2083,2084,2036,2097,2060,1196
1315,1713842076147390689,2055,2032,2062,2089,2027,2044,1192
1316,1713842076157389058,2056,2082,2088,2034,2104,2064,1197
1317,1713842076167390223,2056,2034,2047,2065,2012,2044,1193
1318,1713842076177390126,2056,2085,2114,2045,2100,2060,1196
1319,1713842076187392163,2050,2029,2024,2088,2015,2050,1196
1320,1713842076197392566,2053,2079,2065,2041,2100,2061,1195
1321,1713842076207402017,2053,2030,2049,2076,2014,2044,1192
1322,1713842076217394436,2057,2083,2097,2040,2100,2060,1197
1323,1713842076227395079,2054,2025,2017,2069,2011,2045,1194
1324,1713842076237395593,2058,2094,2097,2045,2105,2063,1197
1325,1713842076247394013,2049,2027,2036,2069,2020,2047,1193
1326,1713842076257395970,2062,2088,2067,1977,2092,2056,1196
1327,1713842076267397195,2052,2026,2041,2065,2010,2044,1193
1328,1713842076277397198,2052,2075,2052,2048,2096,2059,1195
1329,1713842076287397592,2057,2044,2105,2077,2030,2047,1192
1330,1713842076297399479,2053,2075,2067,2036,2099,2061,1198
1331,1713842076307380134,2052,2031,2048,2089,2010,2047,1193
1332,1713842076317398973,2050,2075,2054,2064,2107,2058,1197
1333,1713842076327382014,2056,2027,1999,2100,2011,2049,1196
1334,1713842076337399691,2052,2080,2068,2036,2097,2060,1195
1335,1713842076347382440,2049,2024,2022,2068,2004,2043,1193
1336,1713842076357382633,2050,2072,2057,2033,2089,2061,1195
1337,1713842076367403486,2056,2034,2045,2075,1983,2046,1193
1338,1713842076377386456,2053,2080,2072,1993,2100,2058,1196
1339,1713842076387403662,2053,2025,2029,2080,2009,2045,1193
1340,1713842076397401471,2052,2077,2074,2049,2099,2058,1196
1341,1713842076407382237,2056,2031,2024,2071,2009,2049,1194
1342,1713842076417411405,2057,2078,2061,2034,2101,2056,1197
1343,1713842076427408262,2057,2030,2049,2073,2006,2042,1195
1344,1713842076437405019,2051,2075,2051,2002,2102,2058,1196
1345,1713842076447386136,2054,2029,2047,2073,2007,2050,1194
1346,1713842076457397039,2055,2079,2056,2024,2103,2062,1197
1347,1713842076467389678,2056,2027,2037,2080,2005,2045,1193
1348,1713842076477389912,2057,2086,2080,2035,2117,2055,1195
1349,1713842076487408760,2051,2028,2035,2087,2004,2042,1196
1350,1713842076497408813,2054,2081,2066,2047,2103,2061,1199
1351,1713842076507391664,2052,2028,2037,2077,2006,2047,1195
1352,1713842076517414110,2052,2081,2064,2025,2117,2060,1198
1353,1713842076527390908,2056,2030,2022,2052,2010,2048,1196
1354,1713842076537394487,2052,2080,2062,2041,2108,2064,1200
1355,1713842076547394611,2053,2028,2036,2071,2002,2046,1195
1356,1713842076557385647,2052,2077,2064,2037,2108,2057,1197
1357,1713842076567384166,2056,2030,2052,2054,2004,2050,1198
1358,1713842076577386023,2054,2077,2072,2035,2101,2059,1197
1359,1713842076587384643,2053,2025,2034,2068,2005,2044,1193
1360,1713842076597404084,2053,2084,2096,2038,2135,2060,1197
1361,1713842076607386061,2058,2040,2046,2100,2009,2049,1196
1362,1713842076617388699,2050,2076,2068,2040,2102,2058,1197
1363,1713842076627392911,2056,2024,2037,2084,2012,2049,1196
1364,1713842076637382384,2050,2076,2052,2037,2109,2067,1196
1365,1713842076647393447,2057,2033,2053,2076,2000,2048,1195
1366,1713842076657387168,2052,2086,2083,2034,2108,2058,1195
1367,1713842076667396659,2054,2024,2037,2093,2006,2047,1192
1368,1713842076677392625,2050,2085,2067,2047,2108,2057,1197
1369,1713842076687388299,2057,2029,2021,2100,2012,2052,1198
1370,1713842076697385967,2050,2072,2056,2025,2106,2060,1198
1371,1713842076707386221,2054,2025,2040,2069,1997,2048,1197
1372,1713842076717391794,2051,2075,2064,2029,2120,2057,1197
1373,1713842076727389232,2060,2033,2051,2105,2021,2049,1197
1374,1713842076737389826,2056,2076,2057,2033,2107,2057,1197
1375,1713842076747394438,2059,2034,2040,2082,2004,2048,1199
1376,1713842076757387487,2055,2084,2045,2026,2097,2057,1196
1377,1713842076767392740,2061,2038,2079,2089,2003,2044,1195
1378,1713842076777391862,2050,2078,2072,2029,2111,2058,1198
1379,1713842076787383789,2053,2026,2032,2089,2004,2050,1193
1380,1713842076797392859,2056,2084,2080,2053,2115,2061,1196
1381,1713842076807384496,2057,2024,2040,2074,2008,2049,1194
1382,1713842076817391132,2050,2088,2086,2034,2105,2057,1195
1383,1713842076827393850,2059,2029,2038,2080,1999,2048,1195
1384,1713842076837389454,2049,2076,2054,2027,2098,2054,1197
1385,1713842076847389948,2055,2021,2029,2071,1984,2047,1194
1386,1713842076857386034,2053,2089,2082,2014,2092,2060,1194
1387,1713842076867394903,2060,2032,2072,2096,2018,2049,1195
1388,1713842076877389325,2052,2075,2068,2038,2109,2058,1197
1389,1713842076887385371,2060,2037,2065,2083,2005,2047,1193
1390,1713842076897390073,2051,2081,2073,2024,2108,2057,1198
1391,1713842076907388392,2060,2038,2012,2088,1995,2046,1193
1392,1713842076917391361,2050,2076,2082,2053,2104,2058,1196
1393,1713842076927401734,2056,2028,2040,2096,1995,2047,1194
1394,1713842076937386878,2052,2076,2056,2036,2101,2058,1195
1395,1713842076947389846,2053,2027,2041,2086,2001,2049,1196
1396,1713842076957384419,2047,2077,2062,2040,2115,2058,1197
1397,1713842076967390023,2059,2029,2044,2108,1998,2048,1198
1398,1713842076977396468,2047,2079,2058,2039,2111,2056,1196
1399,1713842076987387433,2059,2033,2056,2082,1996,2049,1194
1400,1713842076997391684,2054,2077,2068,2018,2100,2056,1195
1401,1713842077007388481,2060,2033,2072,2088,2008,2051,1194
1402,1713842077017388494,2049,2078,2070,2028,2117,2056,1195
1403,1713842077027387595,2064,2036,2059,2092,2009,2054,1195
1404,1713842077037384903,2044,2076,2064,2018,2120,2057,1195
1405,1713842077047395797,2059,2033,2061,2091,2000,2050,1196
1406,1713842077057387263,2053,2084,2082,2028,2114,2058,1197
1407,1713842077067389590,2056,2028,2052,2088,2006,2048,1196
1408,1713842077077382730,2047,2078,2053,2045,2084,2053,1195
1409,1713842077087407040,2059,2031,2054,2083,1999,2049,1198
1410,1713842077097389769,2049,2080,2062,2031,2111,2059,1199
1411,1713842077107386827,2057,2026,2040,2079,1998,2052,1198
1412,1713842077117388162,2047,2078,2064,2026,2108,2057,1196
1413,1713842077127397202,2062,2027,2054,2082,2001,2049,1196
1414,1713842077137389700,2049,2073,2049,2030,2107,2060,1195
1415,1713842077147416986,2060,2029,2032,2079,2001,2049,1196
1416,1713842077157388765,2046,2068,2038,2025,2108,2054,1198
1417,1713842077167388316,2064,2043,2052,2099,2002,2052,1195
1418,1713842077177398399,2047,2076,2058,2042,2116,2054,1196
1419,1713842077187389455,2059,2025,2048,2093,2002,2049,1195
1420,1713842077197425336,2046,2074,2052,2036,2127,2055,1196
1421,1713842077207391073,2064,2030,2041,2072,2000,2050,1195
1422,1713842077217391517,2047,2085,2070,2040,2118,2058,1195
1423,1713842077227395889,2059,2025,2039,2078,2001,2051,1195
1424,1713842077237389769,2047,2080,2064,2047,2112,2056,1195
1425,1713842077247396114,2063,2028,2051,2091,1998,2051,1196
1426,1713842077257392270,2045,2081,2061,2032,2122,2065,1195
1427,1713842077267394628,2064,2031,2048,2092,1997,2052,1198
1428,1713842077277394039,2051,2077,2059,2025,2105,2055,1198
1429,1713842077287395735,2062,2037,2049,2092,2007,2052,1195
1430,1713842077297395408,2050,2078,2054,2034,2118,2058,1198
1431,1713842077307397064,2063,2027,2037,2080,1995,2047,1194
1432,1713842077317398439,2047,2081,2053,2022,2109,2053,1194
1433,1713842077327397911,2059,2033,2024,2082,2000,2048,1197
1434,1713842077337396742,2045,2080,2058,2031,2111,2056,1197
1435,1713842077347399440,2062,2029,2056,2084,2000,2052,1197
1436,1713842077357403199,2054,2086,2096,2026,2116,2056,1197
1437,1713842077367399585,2061,2032,2045,2069,1994,2052,1197
1438,1713842077377437902,2047,2082,2096,2032,2112,2053,1197
1439,1713842077387401244,2061,2026,2037,2088,2020,2056,1194
1440,1713842077397388082,2052,2074,2042,2033,2109,2056,1198
1441,1713842077407407232,2062,2024,2026,2062,2005,2052,1197
1442,1713842077417401734,2046,2074,2060,2037,2107,2053,1196
1443,1713842077427408319,2067,2031,2035,2084,2002,2055,1196
1444,1713842077437387052,2044,2073,2045,2028,2108,2057,1198
1445,1713842077447430037,2066,2034,2032,2088,2002,2053,1196
1446,1713842077457388169,2049,2084,2083,2022,2105,2056,1198
1447,1713842077467393532,2066,2039,2062,2088,2002,2052,1195
1448,1713842077477392734,2040,2069,2049,1997,2105,2053,1196
1449,1713842077487392056,2061,2027,2027,2061,2003,2051,1196
1450,1713842077497391507,2042,2084,2064,2022,2106,2053,1197
1451,1713842077507389446,2060,2025,2037,2088,1998,2052,1196
1452,1713842077517387375,2042,2074,2054,2048,2161,2057,1198
1453,1713842077527415963,2062,2030,2045,2080,1978,2050,1196
1454,1713842077537384094,2046,2074,2045,2021,2108,2054,1196
1455,1713842077547411430,2063,2022,2025,2080,2000,2052,1195
1456,1713842077557390232,2044,2080,2058,2024,2112,2058,1197
1457,1713842077567397268,2066,2045,2046,2073,1988,2048,1197
1458,1713842077577404996,2045,2076,2052,2028,2114,2057,1197
1459,1713842077587385802,2064,2033,2059,2082,1994,2047,1194
1460,1713842077597397748,2042,2074,2058,1996,2127,2056,1198
1461,1713842077607386048,2066,2028,2032,2088,2004,2054,1197
1462,1713842077617385720,2043,2069,2042,2022,2094,2053,1197
1463,1713842077627389000,2061,2030,2050,2077,1997,2049,1194
1464,1713842077637386709,2043,2072,2042,2024,2106,2056,1196
1465,1713842077647390959,2060,2024,2039,2092,2010,2053,1197
1466,1713842077657391042,2044,2069,2056,2005,2100,2056,1196
1467,1713842077667389252,2064,2032,2057,2018,1985,2047,1194
1468,1713842077677342294,2043,2074,2073,2024,2100,2054,1195
1469,1713842077687387394,2064,2040,2086,2084,1994,2052,1196
1470,1713842077697389661,2045,2078,2094,2020,2108,2056,1199
1471,1713842077707386238,2068,2037,2054,2081,1993,2050,1197
1472,1713842077717389256,2048,2072,2040,2021,2113,2052,1197
1473,1713842077727390742,2066,2037,2059,2101,2001,2054,1198
1474,1713842077737385665,2041,2064,2029,1984,2109,2052,1197
1475,1713842077747414282,2066,2024,2037,2079,2029,2054,1197
1476,1713842077757386221,2044,2087,2066,2024,2093,2050,1197
1477,1713842077767389811,2064,2026,2037,2086,2003,2051,1195
1478,1713842077777387139,2038,2070,2068,2007,2106,2052,1197
1479,1713842077787390458,2070,2044,2076,2090,2018,2058,1194
1480,1713842077797407934,2046,2077,2056,2014,2120,2051,1197
1481,1713842077807387498,2065,2036,2053,2080,1999,2054,1195
1482,1713842077817386640,2036,2063,2047,2030,2110,2058,1196
1483,1713842077827389628,2067,2046,2072,2088,1998,2053,1196
1484,1713842077837388218,2040,2057,2056,1992,2092,2047,1195
1485,1713842077847388312,2069,2041,2065,2090,2002,2056,1197
1486,1713842077857385269,2044,2072,2064,2032,2110,2053,1193
1487,1713842077867381474,2061,2033,2049,2043,1979,2049,1196
1488,1713842077877390344,2041,2069,2053,2015,2092,2047,1195
1489,1713842077887393192,2066,2032,2041,2086,1993,2054,1194
1490,1713842077897393435,2042,2071,2048,2012,2106,2051,1200
1491,1713842077907381976,2061,2026,2026,2099,2006,2056,1195
1492,1713842077917394052,2048,2082,2057,2018,2112,2054,1197
1493,1713842077927359820,2065,2040,2040,2076,1996,2056,1196
1494,1713842077937384159,2044,2100,2116,2032,2113,2056,1195
1495,1713842077947390654,2064,2025,2056,2077,1997,2057,1195
1496,1713842077957389075,2041,2073,2076,2005,2118,2054,1196
1497,1713842077967392073,2069,2036,2059,2102,1997,2057,1196
1498,1713842077977384651,2042,2072,2042,2008,2112,2051,1197
1499,1713842077987389123,2065,2041,2072,2091,2002,2057,1194
1500,1713842077997388505,2049,2101,2131,2033,2115,2053,1197
1501,1713842078007392626,2068,2026,2044,2087,1996,2057,1196
1502,1713842078017389733,2041,2075,2056,2028,2152,2049,1197
1503,1713842078027391960,2066,2031,2061,2094,1996,2061,1197
1504,1713842078037387996,2040,2068,2043,2019,2106,2048,1198
1505,1713842078047452511,2069,2035,2025,2076,1991,2055,1195
1506,1713842078057395144,2047,2083,2092,2016,2100,2049,1195
1507,1713842078067384147,2064,2033,2049,2082,1998,2055,1194
1508,1713842078077398416,2046,2068,2044,2008,2107,2049,1197
1509,1713842078087384493,2066,2032,2044,2064,1992,2054,1196
1510,1713842078097377282,2043,2074,2072,2021,2102,2047,1196
1511,1713842078107387074,2068,2037,2034,2104,2001,2053,1197
1512,1713842078117389891,2041,2066,2051,2018,2101,2046,1194
1513,1713842078127394603,2068,2028,2053,2090,1984,2054,1196
1514,1713842078137385068,2040,2061,2025,2012,2112,2052,1198
1515,1713842078147390311,2068,2032,2028,2083,1993,2056,1197
1516,1713842078157391376,2042,2063,2044,2018,2109,2052,1195
1517,1713842078167390006,2073,2041,2064,2097,2001,2059,1195
1518,1713842078177390721,2044,2066,2036,2020,2104,2045,1194
1519,1713842078187383689,2065,2033,2031,2088,2001,2057,1195
1520,1713842078197391297,2039,2068,2054,2006,2104,2045,1192
1521,1713842078207384397,2066,2035,2072,2092,1999,2057,1197
1522,1713842078217386825,2045,2075,2046,2035,2104,2049,1195
1523,1713842078227389011,2069,2036,2046,2105,2005,2056,1197
1524,1713842078237385487,2045,2072,2046,2020,2096,2049,1197
1525,1713842078247387234,2069,2034,2034,2096,2004,2058,1196
1526,1713842078257383749,2048,2078,2095,2032,2098,2047,1194
1527,1713842078267385686,2069,2044,2054,2082,2001,2060,1196
1528,1713842078277385750,2040,2060,2045,2011,2106,2050,1197
1529,1713842078287386344,2072,2052,2061,2105,2010,2056,1195
1530,1713842078297388400,2036,2064,2046,2021,2096,2049,1196
1531,1713842078307382882,2066,2030,2034,2037,1992,2058,1198
1532,1713842078317385110,2040,2066,2043,1997,2105,2047,1192
1533,1713842078327387167,2070,2032,2047,2081,2004,2058,1197
1534,1713842078337387480,2038,2069,2053,2018,2104,2046,1194
1535,1713842078347384958,2074,2039,2043,2097,2001,2059,1197
1536,1713842078357389039,2044,2076,2087,2021,2113,2051,1197
1537,1713842078367385324,2074,2047,2058,2100,2006,2060,1198
1538,1713842078377385067,2040,2070,2073,2011,2104,2049,1197
1539,1713842078387386122,2072,2042,2072,2091,2002,2056,1193
1540,1713842078397392356,2034,2061,2047,2019,2135,2049,1196
1541,1713842078407386939,2064,2035,2041,2096,2010,2060,1198
1542,1713842078417389346,2044,2085,2123,2042,2108,2056,1196
1543,1713842078427383919,2070,2036,2042,2082,2014,2060,1194
1544,1713842078437384081,2038,2066,2072,1998,2094,2048,1197
1545,1713842078447386329,2072,2046,2062,2101,2006,2058,1196
1546,1713842078457384018,2040,2062,2047,2024,2099,2048,1196
1547,1713842078467388749,2068,2037,2035,2094,2023,2058,1194
1548,1713842078477390896,2036,2058,2034,2000,2085,2049,1197
1549,1713842078487391420,2068,2041,2050,2096,2008,2060,1196
1550,1713842078497395832,2049,2072,2083,2026,2097,2052,1199
1551,1713842078507381386,2065,2039,2057,2104,1996,2050,1196
1552,1713842078517381560,2041,2059,2049,2037,2096,2048,1197
1553,1713842078527384398,2072,2043,2053,2082,1995,2060,1196
1554,1713842078537386035,2030,2061,2053,2022,2094,2046,1193
1555,1713842078547384915,2070,2044,2069,2083,2008,2056,1196
1556,1713842078557384587,2031,2049,2027,2028,2093,2047,1196
1557,1713842078567386564,2075,2053,2067,2105,2013,2061,1195
1558,1713842078577386626,2035,2055,2045,1997,2094,2045,1195
1559,1713842078587387792,2066,2040,2043,2088,2032,2059,1196
1560,1713842078597392323,2040,2068,2056,2033,2106,2047,1195
1561,1713842078607388850,2068,2044,2047,2080,2033,2056,1195
1562,1713842078617388642,2035,2053,2026,2030,2089,2047,1194
1563,1713842078627389847,2068,2042,2050,2077,2007,2057,1196
1564,1713842078637388888,2043,2056,2036,2024,2093,2046,1191
1565,1713842078647389733,2072,2044,2040,2100,2016,2061,1195
1566,1713842078657390948,2041,2067,2092,2037,2105,2052,1195
1567,1713842078667390610,2070,2054,2067,2093,2019,2058,1197
1568,1713842078677390533,2036,2063,2075,2020,2082,2048,1197
1569,1713842078687391497,2070,2057,2050,2091,2012,2058,1196
1570,1713842078697400578,2037,2059,2068,2018,2098,2048,1198
1571,1713842078707393738,2071,2042,2056,2101,2010,2060,1196
1572,1713842078717394221,2036,2058,2042,2052,2116,2052,1197
1573,1713842078727395296,2067,2044,2052,2093,2009,2059,1197
1574,1713842078737395199,2041,2064,2084,1995,2102,2049,1197
1575,1713842078747399951,2074,2046,2060,2076,1997,2054,1196
1576,1713842078757395715,2036,2062,2044,2028,2100,2050,1196
1577,1713842078767396680,2069,2034,2053,2101,2003,2057,1197
1578,1713842078777396643,2043,2046,2036,2041,2093,2050,1195
1579,1713842078787397367,2070,2055,2068,2094,2017,2058,1195
1580,1713842078797400746,2040,2056,2045,2038,2093,2047,1193
1581,1713842078807398876,2072,2052,2055,2106,2016,2060,1195
1582,1713842078817399640,2037,2060,2060,2036,2092,2045,1192
1583,1713842078827382961,2078,2051,2056,2085,2015,2062,1196
1584,1713842078837382393,2038,2052,2049,2024,2098,2049,1197
1585,1713842078847409147,2075,2056,2062,2090,2017,2057,1196
1586,1713842078857384032,2037,2053,2033,2044,2097,2049,1198
1587,1713842078867401768,2070,2047,2056,2105,2032,2062,1194
1588,1713842078877386392,2041,2080,2068,2040,2077,2047,1195
1589,1713842078887385053,2066,2049,2079,2084,2021,2061,1195
1590,1713842078897385656,2041,2065,2081,2012,2093,2047,1197
1591,1713842078907385889,2072,2046,2036,2092,2016,2059,1198
1592,1713842078917387676,2041,2064,2087,2032,2081,2046,1193
1593,1713842078927383491,2072,2044,2042,2096,2027,2062,1197
1594,1713842078937388022,2041,2065,2064,2030,2088,2047,1194
1595,1713842078947408173,2073,2051,2051,2081,2008,2057,1195
1596,1713842078957384131,2041,2060,2047,2010,2095,2046,1195
1597,1713842078967389353,2069,2046,2057,2097,2021,2064,1196
1598,1713842078977382984,2039,2068,2042,2019,2090,2048,1197
1599,1713842078987386734,2069,2054,2053,2096,2026,2061,1193
1600,1713842078997370997,2036,2057,2030,2017,2077,2049,1196
1601,1713842079007386519,2074,2058,2069,2078,2008,2058,1196
1602,1713842079017391502,2038,2053,2049,2037,2091,2045,1193
1603,1713842079027383660,2072,2050,2069,2088,2013,2061,1195
1604,1713842079037387399,2041,2060,2081,2025,2088,2044,1193
1605,1713842079047395077,2071,2048,2062,2085,2016,2061,1195
1606,1713842079057385722,2043,2059,2064,2023,2090,2041,1193
1607,1713842079067394141,2068,2049,2062,2073,2025,2060,1198
1608,1713842079077380087,2036,2056,2053,2040,2095,2046,1193
1609,1713842079087386522,2065,2053,2088,2113,2032,2062,1195
1610,1713842079097399510,2045,2060,2038,2029,2090,2047,1195
1611,1713842079107397739,2072,2053,2038,2093,2021,2059,1198
1612,1713842079117421297,2043,2044,2020,2029,2082,2045,1195
1613,1713842079127382967,2069,2049,2044,2085,2013,2058,1197
1614,1713842079137387549,2043,2066,2056,2003,2092,2049,1199
1615,1713842079147398822,2065,2052,2060,2089,2024,2057,1198
1616,1713842079157392533,2041,2057,2043,2025,2082,2044,1193
1617,1713842079167394400,2069,2064,2089,2068,2011,2059,1197
1618,1713842079177398180,2038,2048,2036,2038,2084,2044,1196
1619,1713842079187392712,2066,2048,2045,2077,2012,2059,1195
1620,1713842079197394529,2044,2048,2036,2032,2089,2044,1195
1621,1713842079207389121,2068,2052,2060,2083,2024,2060,1196
1622,1713842079217392099,2037,2052,2040,1994,2082,2046,1194
1623,1713842079227385099,2071,2049,2052,2076,2020,2062,1198
1624,1713842079237388048,2038,2052,2066,2026,2083,2048,1194
1625,1713842079247381698,2066,2045,2053,2083,2021,2059,1196
1626,1713842079257380318,2045,2056,2039,2045,2084,2047,1194
1627,1713842079267378719,2073,2061,2059,2100,2036,2066,1197
1628,1713842079277382910,2043,2052,2064,2042,2076,2043,1195
1629,1713842079287394183,2068,2051,2052,2085,2020,2060,1195
1630,1713842079297396311,2041,2047,2027,2034,2079,2046,1196
1631,1713842079307395172,2071,2053,2058,2078,2025,2059,1196
1632,1713842079317394492,2044,2053,2037,2042,2080,2047,1194
1633,1713842079327385689,2077,2062,2061,2060,2033,2064,1196
1634,1713842079337392054,2040,2047,2036,2040,2074,2046,1194
1635,1713842079347392678,2068,2044,2052,2058,2014,2059,1197
1636,1713842079357381689,2040,2054,2066,1996,2069,2044,1194
1637,1713842079367390539,2068,2060,2112,2086,2030,2059,1195
1638,1713842079377386174,2040,2051,2049,2027,2076,2048,1197
1639,1713842079387389914,2068,2046,2055,2084,2009,2057,1196
1640,1713842079397388023,2044,2054,2050,2043,2073,2046,1193
1641,1713842079407389810,2067,2065,2081,2082,2033,2060,1194
1642,1713842079417392948,2039,2047,2031,2014,2073,2044,1192
1643,1713842079427384324,2072,2073,2063,2084,2028,2060,1196
1644,1713842079437393305,2040,2038,2012,2027,2077,2048,1197
1645,1713842079447396915,2070,2060,2073,2047,2019,2061,1198
1646,1713842079457391026,2046,2047,2041,2044,2088,2047,1195
1647,1713842079467392912,2067,2051,2050,2072,2016,2059,1196
1648,1713842079477391062,2042,2050,2041,2036,2073,2044,1196
1649,1713842079487389671,2068,2060,2060,2074,2029,2056,1197
1650,1713842079497396117,2036,2049,2033,2038,2078,2050,1199
1651,1713842079507390259,2072,2065,2077,2088,2036,2065,1196
1652,1713842079517390122,2042,2042,2034,2008,2076,2046,1197
1653,1713842079527410633,2066,2057,2045,2084,2049,2060,1197
1654,1713842079537387322,2041,2047,2047,2033,2069,2045,1194
1655,1713842079547393216,2068,2052,2056,2084,2045,2061,1196
1656,1713842079557386886,2041,2062,2054,2033,2071,2045,1196
1657,1713842079567387781,2069,2052,2056,2074,2027,2058,1198
1658,1713842079577386632,2038,2049,2033,2033,2072,2043,1192
1659,1713842079587390582,2065,2050,2049,2068,2029,2060,1193
1660,1713842079597397197,2033,2037,2024,2025,2062,2048,1197
1661,1713842079607389876,2066,2052,2048,2061,2018,2060,1196
1662,1713842079617363399,2040,2050,2068,2032,2080,2045,1196
1663,1713842079627389912,2073,2072,2092,2082,2032,2057,1197
1664,1713842079637388653,2040,2039,2033,2040,2072,2045,1193
1665,1713842079647392523,2069,2058,2080,2088,2017,2057,1195
1666,1713842079657388789,2043,2061,2066,2044,2068,2045,1191
1667,1713842079667394262,2076,2063,2072,2074,2028,2058,1196
1668,1713842079677394886,2039,2050,2044,2037,2069,2050,1199
1669,1713842079687390992,2069,2064,2068,2060,2027,2056,1198
1670,1713842079697394270,2047,2057,2045,2039,2072,2049,1198
1671,1713842079707400545,2072,2068,2071,2084,2038,2062,1197
1672,1713842079717396651,2043,2049,2044,2036,2064,2045,1195
1673,1713842079727393578,2062,2056,2056,2075,2026,2058,1196
1674,1713842079737391947,2048,2058,2047,2030,2072,2045,1196
1675,1713842079747392962,2062,2064,2083,2120,2064,2062,1197
1676,1713842079757392775,2043,2045,2038,2026,2069,2044,1195
1677,1713842079767393769,2059,2052,2048,2092,2040,2059,1197
1678,1713842079777393973,2048,2048,2037,2044,2072,2047,1195
1679,1713842079787394757,2072,2058,2068,2076,2028,2063,1194
1680,1713842079797401612,2040,2046,2053,2040,2074,2045,1192
1681,1713842079807369675,2057,2061,2057,2066,2041,2057,1197
1682,1713842079817403082,2043,2052,2077,2040,2072,2047,1193
1683,1713842079827398165,2068,2064,2080,2068,2028,2060,1195
1684,1713842079837398488,2045,2047,2040,2008,2082,2046,1194
1685,1713842079847401096,2065,2059,2096,2088,2051,2060,1194
1686,1713842079857398374,2041,2038,2031,2021,2064,2047,1195
1687,1713842079867400600,2064,2061,2080,2075,2037,2064,1196
1688,1713842079877409771,2044,2046,2048,2044,2080,2046,1194
1689,1713842079887404614,2065,2061,2070,2065,2040,2061,1197
1690,1713842079897388687,2042,2046,2047,2042,2080,2051,1198
1691,1713842079907386976,2065,2058,2057,2080,2040,2060,1196
1692,1713842079917388903,2045,2046,2047,2049,2096,2053,1197
1693,1713842079927387894,2072,2066,2080,2109,2026,2061,1198
1694,1713842079937402975,2045,2035,2034,2020,2062,2044,1195
1695,1713842079947392187,2064,2056,2047,2053,2029,2056,1196
1696,1713842079957387792,2048,2046,2038,2030,2068,2046,1195
1697,1713842079967389719,2068,2069,2056,2085,2035,2058,1197
1698,1713842079977386876,2040,2043,2041,2064,2099,2051,1198
1699,1713842079987386478,2066,2068,2101,2076,2038,2058,1198
1700,1713842079997388004,2047,2056,2045,2036,2067,2045,1194
1701,1713842080007386924,2061,2058,2062,2061,2034,2056,1196
1702,1713842080017383391,2045,2044,2040,2040,2071,2046,1194
1703,1713842080027383684,2069,2059,2059,2076,2047,2064,1195
1704,1713842080037384598,2049,2046,2056,2036,2063,2051,1197
1705,1713842080047389280,2065,2061,2061,2075,2036,2057,1195
1706,1713842080057383583,2046,2039,2045,2026,2049,2048,1197
1707,1713842080067386561,2062,2053,2037,2062,2030,2058,1196
1708,1713842080077386674,2046,2052,2049,2032,2045,2046,1196
1709,1713842080087388059,2065,2058,2060,2069,2028,2057,1199
1710,1713842080097385688,2041,2042,2037,2034,2060,2049,1200
1711,1713842080107384087,2064,2053,2032,2056,2030,2060,1198
1712,1713842080117384922,2045,2045,2055,2023,2068,2048,1200
1713,1713842080127387811,2064,2056,2052,2069,2052,2061,1197
1714,1713842080137387974,2042,2042,2052,2054,2069,2048,1198
1715,1713842080147389399,2060,2057,2051,2077,2033,2059,1198
1716,1713842080157386396,2051,2052,2040,2041,2064,2047,1195
1717,1713842080167389475,2060,2064,2109,2073,2044,2061,1197
1718,1713842080177384658,2056,2060,2046,2049,2073,2053,1198
1719,1713842080187390302,2061,2056,2059,2083,2068,2061,1197
1720,1713842080197389884,2048,2049,2046,2040,2064,2051,1197
1721,1713842080207387101,2065,2060,2059,2100,2039,2060,1197
1722,1713842080217384980,2048,2051,2047,2051,2068,2051,1196
1723,1713842080227385324,2063,2053,2028,2072,2029,2056,1198
1724,1713842080237387602,2051,2062,2056,2040,2067,2045,1194
1725,1713842080247388295,2062,2062,2072,2069,2045,2058,1197
1726,1713842080257386174,2048,2053,2049,2034,2050,2049,1197
1727,1713842080267385907,2065,2072,2123,2045,1992,2051,1196
1728,1713842080277383294,2044,2040,2026,2021,2041,2052,1198
1729,1713842080287384820,2062,2064,2075,2073,2019,2067,1197
1730,1713842080297388420,2048,2050,2062,2021,2034,2045,1197
1731,1713842080307387230,2058,2054,2064,2059,2016,2049,1198
1732,1713842080317386602,2048,2050,2047,2039,2067,2053,1196
1733,1713842080327385994,2064,2061,2064,2080,2040,2064,1196
1734,1713842080337387921,2046,2044,2045,1983,2059,2041,1193
1735,1713842080347387682,2058,2044,2020,2074,2046,2059,1197
1736,1713842080357384489,2050,2060,2038,2030,2061,2048,1197
1737,1713842080367387889,2061,2062,2069,2085,2051,2065,1199
1738,1713842080377386999,2053,2044,2043,2049,2061,2051,1197
1739,1713842080387388405,2068,2065,2085,2057,2032,2057,1195
1740,1713842080397388408,2054,2061,2091,2065,2076,2050,1197
1741,1713842080407388301,2066,2045,2046,2074,2014,2060,1197
1742,1713842080417385137,2051,2043,2054,2036,2051,2049,1196
1743,1713842080427391593,2073,2079,2116,2037,2032,2054,1197
1744,1713842080437385344,2041,2045,2061,2040,2059,2043,1195
1745,1713842080447390466,2064,2066,2069,2081,2077,2065,1197
1746,1713842080457407682,2045,2045,2048,2042,2040,2047,1194
1747,1713842080467386064,2065,2063,2056,2078,2056,2068,1198
1748,1713842080477356389,2054,2043,2037,2033,2060,2045,1197
1749,1713842080487384506,2062,2058,2054,2093,2044,2059,1197
1750,1713842080497386092,2047,2042,2030,2036,2046,2050,1197
1751,1713842080507383260,2061,2064,2060,2052,2006,2053,1196
1752,1713842080517387510,2050,2046,2024,2025,2042,2044,1193
1753,1713842080527383967,2061,2058,2065,2068,2055,2061,1196
1754,1713842080537387156,2045,2037,2040,1994,2072,2041,1193
1755,1713842080547386537,2072,2062,2082,2108,2073,2064,1198
1756,1713842080557385007,2045,2036,2031,2032,2059,2045,1194
1757,1713842080567384840,2066,2068,2075,2067,2051,2058,1197
1758,1713842080577384541,2052,2055,2034,2050,2098,2048,1195
1759,1713842080587386268,2064,2074,2092,2074,2053,2060,1195
1760,1713842080597388736,2045,2044,2032,2029,2059,2045,1194
1761,1713842080607387195,2069,2065,2090,2082,2050,2063,1195
1762,1713842080617384873,2041,2036,2029,2032,2041,2039,1193
1763,1713842080627388453,2068,2068,2078,2075,2034,2063,1196
1764,1713842080637389098,2047,2044,2045,2016,2056,2046,1194
1765,1713842080647388920,2064,2063,2056,2072,2043,2056,1195
1766,1713842080657382400,2052,2045,2015,2033,2050,2044,1195
1767,1713842080667387413,2064,2076,2058,2067,2042,2057,1197
1768,1713842080677385411,2043,2040,2034,2024,2059,2048,1196
1769,1713842080687386517,2062,2059,2060,2044,2056,2059,1197
1770,1713842080697388794,2044,2035,2025,2051,2084,2040,1196
1771,1713842080707384980,2058,2057,2057,2073,2052,2056,1198
1772,1713842080717384491,2052,2047,2065,2021,2056,2047,1194
1773,1713842080727391117,2070,2062,2058,2062,2045,2060,1196
1774,1713842080737388956,2044,2035,2035,2022,2045,2047,1197
1775,1713842080747391984,2065,2060,2043,2061,2057,2059,1195
1776,1713842080757385114,2048,2037,2040,2038,2059,2044,1193
1777,1713842080767390147,2065,2054,2074,2068,2074,2060,1197
1778,1713842080777337077,2046,2040,2054,2018,2034,2034,1197
1779,1713842080787391214,2063,2053,2035,2076,2049,2058,1197
1780,1713842080797386759,2046,2044,2041,2042,2048,2042,1195
1781,1713842080807390639,2062,2064,2050,2072,2056,2059,1199
1782,1713842080817405740,2056,2057,2088,2041,2047,2047,1195
1783,1713842080827387258,2065,2065,2067,2058,2040,2054,1195
1784,1713842080837388554,2049,2043,2060,2045,2058,2041,1195
1785,1713842080847390139,2067,2070,2072,2059,2048,2059,1197
1786,1713842080857384982,2041,2033,2032,2034,2053,2042,1195
1787,1713842080867386518,2057,2057,2040,2072,2058,2060,1198
1788,1713842080877383465,2040,2042,2066,2045,2053,2045,1195
1789,1713842080887385772,2063,2065,2064,2065,2041,2057,1198
1790,1713842080897386927,2039,2035,2028,2035,2054,2044,1195
1791,1713842080907389926,2065,2062,2060,2062,2046,2063,1198
1792,1713842080917387273,2045,2040,2056,2000,2052,2045,1194
1793,1713842080927389360,2061,2056,2059,2057,2036,2059,1197
1794,1713842080937391367,2047,2044,2074,2037,2072,2047,1192
1795,1713842080947387632,2060,2064,2055,2066,2048,2060,1196
1796,1713842080957392505,2045,2035,2032,2050,2052,2045,1193
1797,1713842080967390243,2066,2070,2054,2048,2031,2060,1196
1798,1713842080977388834,2044,2037,2025,2041,2051,2043,1195
1799,1713842080987391351,2061,2050,2038,2060,2037,2056,1196
1800,1713842080997387216,2050,2036,2036,2052,2053,2046,1194
1801,1713842081007388642,2060,2059,2049,2061,2056,2056,1197
1802,1713842081017391720,2051,2070,2095,2038,2069,2049,1196
1803,1713842081027388647,2060,2062,2087,2093,2052,2059,1198
1804,1713842081037385454,2044,2036,2040,2052,2047,2043,1193
1805,1713842081047390516,2061,2059,2056,2026,2032,2057,1198
1806,1713842081057390158,2047,2043,2040,2040,2045,2047,1193
1807,1713842081067389180,2057,2057,2051,2048,2038,2057,1197
1808,1713842081077387971,2047,2040,2046,2052,2051,2047,1194
1809,1713842081087394154,2056,2062,2056,2056,2053,2059,1197
1810,1713842081097392334,2043,2029,2008,2050,2076,2046,1197
1811,1713842081107389542,2060,2078,2088,2094,2064,2066,1197
1812,1713842081117410133,2044,2038,2038,2042,2046,2045,1195
1813,1713842081127399276,2060,2062,2060,2044,2046,2057,1200
1814,1713842081137390041,2045,2039,2038,2045,2045,2045,1195
1815,1713842081147390384,2062,2060,2053,2080,2077,2066,1197
1816,1713842081157390618,2050,2056,2029,2034,2041,2044,1196
1817,1713842081167391132,2056,2060,2056,2016,2049,2057,1197
1818,1713842081177390493,2047,2035,2034,2045,2049,2047,1196
1819,1713842081187393822,2056,2056,2051,2068,2051,2060,1196
1820,1713842081197393795,2052,2053,2063,2064,2045,2046,1195
1821,1713842081207394870,2063,2066,2070,2070,2052,2059,1197
1822,1713842081217392658,2047,2035,2047,2053,2035,2043,1193
1823,1713842081227397010,2060,2081,2086,2068,2057,2061,1196
1824,1713842081237396813,2042,2030,2023,1994,2043,2046,1193
1825,1713842081247396915,2059,2061,2064,2065,2054,2061,1196
1826,1713842081257396678,2046,2036,2047,2045,2046,2045,1194
1827,1713842081267462957,2058,2068,2096,2078,2053,2058,1196
1828,1713842081277379340,2045,2032,2015,2049,2033,2046,1196
1829,1713842081287396285,2056,2063,2056,2064,2052,2061,1197
1830,1713842081297398763,2047,2032,2022,2049,2049,2041,1196
1831,1713842081307399808,2059,2068,2062,2081,2057,2061,1197
1832,1713842081317397997,2052,2037,2032,2069,2053,2037,1196
1833,1713842081327401176,2057,2058,2064,2090,2067,2057,1198
1834,1713842081337384067,2055,2043,2061,2060,2040,2047,1197
1835,1713842081347403035,2057,2066,2047,2063,2050,2060,1198
1836,1713842081357352181,2050,2049,2064,2067,2062,2050,1199
1837,1713842081367385137,2057,2056,2042,2072,2076,2062,1196
1838,1713842081377408594,2051,2039,2042,2022,2050,2046,1194
1839,1713842081387385192,2063,2077,2101,2065,2073,2060,1195
1840,1713842081397384384,2047,2039,2044,2066,2090,2052,1195
1841,1713842081407385178,2060,2056,2053,2066,2053,2060,1193
1842,1713842081417385291,2049,2039,2054,2056,2045,2043,1194
1843,1713842081427388130,2052,2060,2059,2046,2072,2059,1196
1844,1713842081437391319,2049,2057,2051,2067,2037,2045,1192
1845,1713842081447391050,2053,2059,2056,2060,2081,2059,1196
1846,1713842081457387036,2052,2040,2043,2046,2035,2049,1198
1847,1713842081467387740,2061,2070,2083,2063,2062,2060,1195
1848,1713842081477382402,2052,2044,2041,2053,2031,2043,1195
1849,1713842081487387335,2058,2057,2043,2054,2058,2059,1197
1850,1713842081497387338,2043,2029,2044,2028,2038,2048,1198
1851,1713842081507385817,2060,2068,2080,2058,2053,2058,1197
1852,1713842081517385430,2050,2051,2041,2056,2034,2049,1198
1853,1713842081527398197,2056,2060,2052,2059,2057,2059,1198
1854,1713842081537387860,2052,2053,2078,2056,2050,2049,1195
1855,1713842081547361923,2056,2068,2064,2062,2061,2060,1195
1856,1713842081557387235,2049,2037,2056,2056,2040,2046,1190
1857,1713842081567380845,2060,2068,2050,2061,2066,2062,1193
1858,1713842081577378924,2042,2036,2049,2069,2021,2046,1195
1859,1713842081587404125,2057,2072,2075,2063,2078,2058,1195
1860,1713842081597390072,2045,2036,2042,2048,2058,2047,1194
1861,1713842081607389192,2064,2082,2104,2060,2054,2060,1197
1862,1713842081617390468,2046,2025,2032,2057,2034,2045,1193
1863,1713842081627384880,2058,2065,2057,2053,2056,2058,1196
1864,1713842081637388980,2049,2024,2029,1978,2024,2043,1193
1865,1713842081647389644,2058,2062,2076,2074,2056,2060,1196
1866,1713842081657385219,2052,2037,2044,2045,2042,2044,1193
1867,1713842081667395351,2068,2085,2116,2072,2061,2058,1197
1868,1713842081677389402,2052,2036,2024,2035,2036,2048,1197
1869,1713842081687390858,2063,2082,2128,2072,2064,2056,1200
1870,1713842081697395250,2050,2044,2033,2066,2043,2046,1196
1871,1713842081707389220,2068,2067,2064,2060,2081,2061,1197
1872,1713842081717389624,2052,2034,2034,2053,2047,2050,1195
1873,1713842081727474560,2056,2052,2052,2059,2078,2058,1199
1874,1713842081737392365,2058,2033,2072,2060,2042,2047,1196
1875,1713842081747390194,2057,2070,2073,2032,2068,2059,1197
1876,1713842081757385538,2046,2052,2086,2068,2036,2049,1198
1877,1713842081767389037,2057,2067,2056,2064,2061,2053,1197
1878,1713842081777389030,2045,2041,2040,2056,2037,2047,1195
1879,1713842081787386418,2060,2065,2059,2048,2056,2060,1194
1880,1713842081797387062,2052,2041,2052,2069,2030,2047,1196
1881,1713842081807386864,2062,2076,2126,2021,2068,2062,1195
1882,1713842081817435380,2048,2033,2020,2020,2030,2048,1198
1883,1713842081827389345,2060,2065,2045,2060,2058,2058,1197
1884,1713842081837386151,2052,2037,2050,2030,2024,2044,1194
1885,1713842081847386265,2057,2056,2051,2050,2058,2058,1194
1886,1713842081857384795,2052,2035,2034,2053,2033,2044,1195
1887,1713842081867405627,2064,2076,2094,2030,2057,2058,1196
1888,1713842081877390501,2049,2038,2051,2074,2029,2047,1193
1889,1713842081887385274,2053,2065,2056,2061,2072,2057,1196
1890,1713842081897387972,2048,2034,2033,2056,2029,2046,1194
1891,1713842081907387203,2057,2062,2054,2063,2056,2058,1197
1892,1713842081917394120,2047,2034,2042,2053,2033,2047,1196
1893,1713842081927385806,2060,2070,2050,2056,2077,2060,1195
1894,1713842081937387893,2056,2032,2021,2054,2036,2047,1196
1895,1713842081947386924,2052,2064,2058,2077,2077,2056,1196
1896,1713842081957382349,2056,2036,2041,2060,2026,2047,1193
1897,1713842081967414973,2058,2068,2058,2068,2069,2059,1197
1898,1713842081977385971,2049,2032,2052,2035,2021,2044,1196
1899,1713842081987387046,2057,2061,2037,2065,2102,2059,1194
1900,1713842081997387800,2056,2035,2067,2011,2037,2052,1196
1901,1713842082007388694,2058,2068,2061,2046,2066,2058,1198
1902,1713842082017396242,2052,2036,2045,2057,2040,2050,1197
1903,1713842082027385564,2060,2073,2068,2064,2049,2052,1196
1904,1713842082037387160,2056,2038,2057,2056,2034,2048,1197
1905,1713842082047387484,2060,2069,2062,2036,2061,2058,1196
1906,1713842082057387286,2058,2054,2059,2075,2037,2045,1194
1907,1713842082067398560,2061,2069,2056,2050,2067,2061,1195
1908,1713842082077384075,2051,2038,2034,2068,2034,2048,1199
1909,1713842082087383758,2057,2059,2046,2051,2053,2058,1198
1910,1713842082097383840,2050,2041,2048,2053,2028,2046,1197
1911,1713842082107386919,2060,2067,2061,2060,2054,2056,1197
1912,1713842082117398996,2053,2036,2043,2024,2028,2048,1198
1913,1713842082127388157,2059,2072,2062,2057,2065,2056,1198
1914,1713842082137389453,2050,2032,2038,2006,2031,2047,1194
1915,1713842082147389105,2058,2072,2112,2064,2069,2058,1198
1916,1713842082157388797,2052,2031,2015,2046,2049,2049,1199
1917,1713842082167423145,2058,2084,2076,2073,2065,2057,1196
1918,1713842082177389023,2053,2033,2039,2047,2025,2047,1194
1919,1713842082187400468,2057,2066,2064,2053,2064,2057,1194
1920,1713842082197396252,2058,2047,2072,2068,2041,2049,1196
1921,1713842082207394412,2056,2064,2061,2021,2067,2057,1196
1922,1713842082217407069,2054,2036,2037,2058,2031,2049,1195
1923,1713842082227393004,2057,2064,2054,2054,2069,2057,1196
1924,1713842082237393058,2059,2048,2060,2064,2029,2050,1196
1925,1713842082247394273,2059,2065,2056,2056,2068,2060,1196
1926,1713842082257394065,2058,2037,2041,2058,2032,2048,1197
1927,1713842082267421140,2053,2065,2061,2064,2076,2061,1196
1928,1713842082277394212,2053,2045,2052,2056,2034,2049,1197
1929,1713842082287397630,2050,2057,2051,2057,2066,2058,1196
1930,1713842082297394457,2052,2033,2022,2068,2026,2047,1197
1931,1713842082307406393,2059,2085,2092,2020,2061,2057,1195
1932,1713842082317451912,2048,2032,2042,2059,2049,2048,1197
1933,1713842082327408823,2057,2075,2069,2058,2068,2059,1197
1934,1713842082337382947,2054,2031,2046,2058,2029,2047,1195
1935,1713842082347399180,2056,2072,2094,2052,2073,2060,1199
1936,1713842082357384946,2050,2039,2017,2045,2022,2049,1196
1937,1713842082367401370,2052,2062,2056,2047,2078,2060,1196
1938,1713842082377402194,2049,2033,2037,2062,2030,2048,1198
1939,1713842082387400183,2050,2062,2046,2054,2072,2059,1197
1940,1713842082397383895,2050,2033,2037,2058,2031,2045,1194
1941,1713842082407388046,2056,2069,2072,2057,2060,2062,1194
1942,1713842082417395873,2063,2054,2064,2068,2036,2046,1193
1943,1713842082427388643,2056,2065,2052,2049,2076,2063,1196
1944,1713842082437454261,2052,2032,2042,2064,2026,2046,1195
1945,1713842082447390071,2056,2071,2065,2040,2065,2057,1195
1946,1713842082457389773,2054,2034,2038,2091,2044,2055,1197
1947,1713842082467392592,2059,2072,2068,2056,2073,2062,1198
1948,1713842082477385871,2052,2028,2027,2067,2032,2046,1195
1949,1713842082487441430,2056,2065,2063,2046,2077,2058,1198
1950,1713842082497392390,2050,2037,2035,2053,2040,2047,1196
1951,1713842082507396720,2059,2065,2056,2067,2098,2058,1197
1952,1713842082517395311,2054,2040,2064,2047,2036,2047,1195
1953,1713842082527389132,2056,2068,2063,2059,2069,2058,1196
1954,1713842082537440252,2058,2037,2056,2065,2029,2045,1195
1955,1713842082547387234,2059,2066,2034,2054,2073,2061,1196
1956,1713842082557386656,2056,2039,2060,2014,2025,2044,1194
1957,1713842082567397159,2053,2071,2062,2052,2080,2061,1197
1958,1713842082577390709,2057,2040,2059,2062,2046,2052,1197
1959,1713842082587449895,2056,2072,2062,2066,2073,2061,1195
1960,1713842082597392338,2052,2040,2047,2026,2025,2044,1195
1961,1713842082607389876,2058,2062,2048,2067,2080,2061,1197
1962,1713842082617390510,2053,2029,2020,2058,2018,2044,1195
1963,1713842082627390393,2056,2072,2072,2052,2071,2060,1196
1964,1713842082637444318,2049,2033,2025,2046,2019,2042,1194
1965,1713842082647394506,2058,2072,2060,2063,2096,2064,1195
1966,1713842082657383618,2058,2040,2044,2076,2044,2049,1197
1967,1713842082667382568,2057,2070,2077,2052,2075,2064,1198
1968,1713842082677389024,2056,2040,2028,2065,2022,2045,1195
1969,1713842082687434865,2056,2076,2097,2049,2070,2060,1197
1970,1713842082697391694,2052,2033,2037,2048,2024,2046,1195
1971,1713842082707389864,2056,2067,2066,2048,2079,2060,1197
1972,1713842082717387472,2060,2041,2041,2076,2029,2047,1194
1973,1713842082727385391,2056,2072,2057,2081,2070,2056,1196
1974,1713842082737458203,2058,2032,2046,2059,2018,2047,1194
1975,1713842082747388363,2053,2075,2098,2052,2082,2064,1197
1976,1713842082757388055,2052,2028,2029,2066,2017,2044,1195
1977,1713842082767386093,2058,2081,2060,2052,2086,2061,1196
1978,1713842082777383612,2057,2036,2042,2080,2045,2046,1195
1979,1713842082787384737,2056,2074,2059,2088,2105,2064,1194
1980,1713842082797427491,2055,2028,2028,2065,2028,2046,1194
1981,1713842082807396385,2052,2065,2044,2072,2095,2064,1196
1982,1713842082817426145,2055,2052,2040,2085,2015,2042,1193
1983,1713842082827426918,2052,2068,2064,2046,2073,2058,1197
1984,1713842082837425248,2054,2032,2038,2054,2020,2045,1195
1985,1713842082847425522,2050,2070,2049,2045,2079,2058,1199
1986,1713842082857426977,2052,2038,2036,2056,2032,2045,1195
1987,1713842082867425136,2060,2068,2053,2044,2072,2057,1195
1988,1713842082877384512,2053,2036,2020,2068,2019,2047,1194
1989,1713842082887384665,2054,2070,2058,2048,2076,2056,1197
1990,1713842082897423081,2056,2032,2035,2071,2020,2049,1198
1991,1713842082907425138,2053,2070,2071,2047,2062,2057,1197
1992,1713842082917420472,2052,2028,2029,2085,2028,2047,1194
1993,1713842082927422248,2052,2057,2041,1990,2081,2060,1197
1994,1713842082937422832,2061,2031,2065,2050,2024,2047,1193
1995,1713842082947421442,2052,2067,2040,2056,2085,2062,1195
1996,1713842082957420212,2059,2040,2043,2078,2035,2050,1198
1997,1713842082967453589,2053,2070,2063,2044,2066,2057,1197
1998,1713842082977419918,2056,2032,2042,2053,2012,2048,1198
1999,1713842082987420641,2056,2073,2058,2046,2075,2060,1196
2000,1713842082997418641,2056,2034,2038,2036,2014,2042,1192
2001,1713842083007377756,2053,2065,2061,2038,2074,2059,1199
2002,1713842083017417283,2056,2032,2039,2068,2026,2049,1196
2003,1713842083027417196,2056,2073,2064,2061,2085,2058,1196
2004,1713842083037418141,2056,2047,2078,2073,2020,2047,1193
2005,1713842083047414938,2056,2070,2062,2036,2080,2058,1196
2006,1713842083057415872,2053,2033,2031,2066,2013,2050,1196
2007,1713842083067427457,2061,2070,2057,2056,2084,2058,1195
2008,1713842083077414425,2056,2036,2051,2064,2019,2048,1197
2009,1713842083087415650,2054,2066,2059,2033,2073,2062,1198
2010,1713842083097414501,2065,2049,2087,2068,2023,2049,1197
2011,1713842083107414093,2057,2071,2045,2060,2096,2060,1196
2012,1713842083117414526,2052,2026,2028,2072,2016,2049,1195
2013,1713842083127413097,2060,2081,2058,2051,2082,2058,1197
2014,1713842083137413060,2049,2025,2028,2067,2024,2049,1196
2015,1713842083147413342,2057,2088,2112,2024,2072,2057,1196
2016,1713842083157411252,2057,2037,2054,2068,2021,2050,1197
2017,1713842083167412287,2056,2065,2049,2056,2086,2058,1197
2018,1713842083177410075,2056,2038,2070,2072,2022,2051,1198
2019,1713842083187411891,2057,2081,2082,2060,2104,2058,1195
2020,1713842083197412987,2059,2036,2047,2088,2035,2053,1194
2021,1713842083207409312,2056,2074,2061,2047,2081,2058,1195
2022,1713842083217409776,2053,2031,2064,2077,2020,2050,1196
2023,1713842083227410570,2052,2070,2088,2045,2087,2053,1194
2024,1713842083237410542,2056,2032,2041,2062,2021,2052,1196
2025,1713842083247411197,2056,2061,2068,2032,2077,2057,1196
2026,1713842083257411160,2065,2036,2056,2082,2030,2052,1197
2027,1713842083267412444,2052,2071,2058,2053,2074,2052,1196
2028,1713842083277412568,2057,2044,2074,2047,2015,2047,1193
2029,1713842083287413072,2051,2053,2035,2040,2082,2057,1197
2030,1713842083297418625,2058,2037,2048,2072,2030,2052,1196
2031,1713842083307414149,2051,2070,2076,2058,2081,2052,1196
2032,1713842083317414563,2055,2048,2093,2075,2019,2051,1197
2033,1713842083327415027,2052,2069,2060,2040,2086,2057,1197
2034,1713842083337415089,2057,2038,2049,2075,2024,2052,1198
2035,1713842083347416044,2053,2073,2076,2047,2086,2053,1196
2036,1713842083357416467,2060,2040,2047,2036,2020,2050,1197
2037,1713842083367401913,2056,2068,2056,2041,2080,2049,1196
2038,1713842083377401836,2057,2034,2051,2044,2020,2051,1198
2039,1713842083387401187,2052,2058,2025,2034,2075,2052,1195
2040,1713842083397400899,2063,2040,2037,2072,2030,2052,1196
2041,1713842083407400171,2054,2067,2060,2030,2077,2056,1195
2042,1713842083417400895,2062,2043,2048,2052,2054,2056,1197
2043,1713842083427401789,2048,2066,2057,2060,2085,2060,1198
2044,1713842083437399518,2057,2045,2078,2079,2034,2055,1197
2045,1713842083447399241,2050,2070,2072,2046,2085,2060,1195
2046,1713842083457399413,2064,2043,2042,2063,2024,2053,1198
2047,1713842083467397553,2052,2062,2040,2068,2066,2057,1197
2048,1713842083477398067,2064,2040,2042,2070,2031,2052,1197
2049,1713842083487398099,2053,2069,2085,2060,2074,2056,1197
2050,1713842083497397561,2066,2041,2052,2071,2029,2056,1200
2051,1713842083507397113,2052,2053,2027,2050,2080,2053,1196
2052,1713842083517397266,2027,2016,2015,2025,2057,2032,1194
2053,1713842083527398291,2109,2105,2108,2123,2018,2092,1198
2054,1713842083537396300,2010,1990,1980,1998,2057,2017,1196
2055,1713842083547393948,2117,2125,2130,2115,2024,2092,1198
2056,1713842083557398249,2017,1981,1998,2012,2043,2019,1196
2057,1713842083567400026,2092,2108,2111,2095,2042,2083,1195
2058,1713842083577396691,2028,2017,2024,2037,2038,2027,1196
2059,1713842083587397746,2082,2100,2104,2088,2059,2074,1195
2060,1713842083597399032,2035,2007,1994,2062,2032,2036,1194
2061,1713842083607404986,2082,2092,2085,2074,2057,2073,1195
2062,1713842083617395100,2037,2012,2010,2033,2027,2032,1195
2063,1713842083627395594,2080,2096,2088,2070,2056,2076,1196
2064,1713842083637397299,2045,2026,2060,2072,2039,2042,1197
2065,1713842083647395810,2076,2089,2062,2080,2067,2073,1198
2066,1713842083657398518,2040,2019,2025,2046,2041,2040,1196
2067,1713842083667399402,2072,2089,2092,2063,2072,2072,1194
2068,1713842083677396740,2042,2009,2013,2046,2041,2037,1194
2069,1713842083687396553,2071,2082,2069,2068,2068,2072,1196
2070,1713842083697403309,2040,2014,2011,2064,2029,2040,1195
2071,1713842083707395476,2067,2086,2061,2026,2065,2063,1197
2072,1713842083717395198,2044,2016,2029,2050,2019,2040,1196
2073,1713842083727396053,2072,2097,2120,2067,2075,2065,1198
2074,1713842083737408920,2045,2024,2054,2053,2028,2045,1195
2075,1713842083747396920,2069,2083,2068,2074,2074,2066,1198
2076,1713842083757395971,2049,2018,2028,2050,2034,2044,1193
2077,1713842083767398649,2061,2088,2104,2064,2076,2067,1197
2078,1713842083777397389,2053,2032,2033,2052,2029,2044,1195
2079,1713842083787399657,2065,2075,2067,2077,2072,2068,1195
2080,1713842083797399188,2037,2009,2033,2056,1997,2032,1193
2081,1713842083807400313,2074,2104,2087,2062,2076,2073,1196
2082,1713842083817400667,2024,1984,1996,2031,2012,2025,1196
2083,1713842083827392854,2142,2198,2213,2131,2090,2123,1195
2084,1713842083837401153,2026,1978,1980,2029,2012,2022,1193
2085,1713842083847393502,2117,2169,2146,2102,2096,2113,1195
2086,1713842083857403924,2031,1981,2031,2050,1996,2020,1196
2087,1713842083867394339,2148,2237,2208,2136,2139,2136,1197
2088,1713842083877394452,2022,1960,1969,2025,1994,2008,1194
2089,1713842083887395707,2157,2218,2176,2136,2096,2132,1196
2090,1713842083897397453,2025,1980,1986,2009,1999,2016,1197
2091,1713842083907396013,2145,2231,2169,2122,2140,2133,1196
2092,1713842083917396827,2024,1967,1985,2032,2017,2023,1194
2093,1713842083927395147,2147,2214,2188,2132,2088,2128,1195
2094,1713842083937397344,2029,1947,1992,2005,1963,2010,1196
2095,1713842083947393921,2124,2178,2164,2119,2095,2109,1198
2096,1713842083957397400,2026,1962,1981,2036,1992,2018,1196
2097,1713842083967395780,2143,2223,2233,2128,2109,2125,1196
2098,1713842083977375815,2008,1935,1944,2016,2000,2001,1197
2099,1713842083987398520,2116,2201,2159,2100,2138,2117,1194
2100,1713842083997395928,2020,1958,1966,2023,1987,2005,1196
2101,1713842084007402815,2058,2070,2059,2063,2072,2060,1195
2102,1713842084017397156,2057,2036,2046,2090,2031,2048,1198
2103,1713842084027394775,2051,2072,2047,1987,2075,2054,1196
2104,1713842084037397864,2062,2044,2039,2067,2024,2054,1195
2105,1713842084047399789,2051,2069,2061,2052,2085,2057,1197
2106,1713842084057398320,2064,2042,2063,2072,2021,2053,1195
2107,1713842084067398443,2050,2066,2052,2045,2085,2053,1196
2108,1713842084077396882,2061,2047,2056,2076,2047,2057,1197
2109,1713842084087398278,2056,2059,2053,2037,2074,2050,1198
2110,1713842084097398902,2061,2040,2057,2065,2033,2056,1197
2111,1713842084107397382,2052,2065,2083,2046,2073,2056,1197
2112,1713842084117397605,2057,2042,2037,2051,2035,2052,1196
2113,1713842084127395595,2055,2067,2076,2045,2068,2054,1200
2114,1713842084137397640,2057,2049,2037,2068,2036,2055,1196
2115,1713842084147395910,2051,2060,2091,2052,2072,2050,1198
2116,1713842084157396976,2060,2051,2053,2064,2040,2052,1199
2117,1713842084167397599,2054,2056,2054,2040,2075,2051,1198
2118,1713842084177395087,2064,2057,2049,2062,2029,2052,1200
2119,1713842084187377106,2055,2068,2081,2052,2118,2058,1196
2120,1713842084197398980,2062,2047,2049,2058,2040,2056,1194
2121,1713842084207398883,2052,2075,2115,2029,2073,2053,1196
2122,1713842084217399657,2057,2041,2052,2068,2035,2054,1197
2123,1713842084227395712,2053,2061,2053,2050,2081,2053,1199
2124,1713842084237398370,2064,2043,2037,2070,2026,2056,1196
2125,1713842084247396830,2046,2061,2049,2047,2082,2052,1194
2126,1713842084257396271,2067,2037,2057,2070,2027,2053,1196
2127,1713842084267397507,2049,2052,2056,2043,2075,2051,1195
2128,1713842084277399805,2064,2047,2058,2073,2032,2058,1196
2129,1713842084287396079,2052,2060,2056,2050,2083,2054,1197
2130,1713842084297395832,2064,2046,2037,2082,2033,2050,1198
2131,1713842084307401596,2052,2062,2049,2021,2072,2054,1197
2132,1713842084317433379,2056,2030,2047,2060,2024,2057,1196
2133,1713842084327397003,2053,2058,2054,2044,2071,2052,1197
2134,1713842084337399300,2056,2038,2065,2070,2032,2056,1196
2135,1713842084347396277,2053,2058,2061,2052,2080,2052,1196
2136,1713842084357396049,2065,2054,2063,2079,2045,2053,1196
2137,1713842084367400120,2055,2071,2064,2056,2089,2056,1197
2138,1713842084377397527,2056,2033,2051,2058,2024,2055,1195
2139,1713842084387399364,2047,2046,2054,2034,2076,2051,1193
2140,1713842084397395770,2065,2042,2061,2073,2024,2054,1197
2141,1713842084407430779,2051,2078,2077,2052,2084,2055,1195
2142,1713842084417431844,2086,2053,2118,2068,2009,2050,1195
2143,1713842084427392693,2045,2061,2057,2037,2077,2052,1196
2144,1713842084437434535,2057,2037,2077,2082,2020,2053,1196
2145,1713842084447397177,2046,2056,2049,2073,2125,2058,1195
2146,1713842084457433670,2070,2050,2076,2072,2026,2053,1197
2147,1713842084467433762,2054,2084,2061,2042,2084,2060,1197
2148,1713842084477433555,2060,2038,2045,2026,2021,2054,1195
2149,1713842084487434810,2045,2057,2053,2056,2098,2057,1197
2150,1713842084497393854,2061,2038,2044,2066,2023,2053,1197
2151,1713842084507436088,2053,2074,2057,2046,2082,2054,1198
2152,1713842084517435860,2059,2030,2037,2063,2016,2048,1196
2153,1713842084527436645,2050,2060,2052,2059,2083,2057,1196
2154,1713842084537420316,2063,2046,2043,2069,2030,2053,1196
2155,1713842084547419608,2059,2081,2066,2022,2081,2056,1197
2156,1713842084557420041,2058,2052,2048,2076,2031,2054,1195
2157,1713842084567422378,2045,2060,2044,2008,2089,2052,1195
2158,1713842084577420448,2064,2059,2042,2071,2018,2047,1195
2159,1713842084587424007,2048,2058,2053,2033,2078,2053,1195
2160,1713842084597422397,2065,2052,2102,2084,2052,2057,1196
2161,1713842084607440034,2047,2058,2056,2036,2064,2057,1197
2162,1713842084617421771,2058,2034,2045,2069,2024,2049,1198
2163,1713842084627421704,2048,2060,2043,2039,2078,2057,1196
2164,1713842084637422038,2064,2040,2036,2068,2013,2053,1199
2165,1713842084647422281,2047,2073,2064,2047,2098,2056,1197
2166,1713842084657425870,2058,2030,2044,2070,2025,2056,1198
2167,1713842084667427116,2046,2072,2066,2044,2080,2054,1197
2168,1713842084677425225,2062,2042,2042,2061,2023,2056,1195
2169,1713842084687428564,2048,2065,2034,2045,2080,2056,1196
2170,1713842084697414640,2062,2044,2044,2102,2031,2053,1198
2171,1713842084707417949,2049,2054,2047,2042,2092,2057,1195
2172,1713842084717415607,2060,2047,2056,2068,2030,2054,1195
2173,1713842084727410631,2050,2057,2053,2036,2056,2054,1196
2174,1713842084737412688,2064,2050,2048,2041,2034,2052,1198
2175,1713842084747410676,2054,2049,2070,2055,2078,2052,1196
2176,1713842084757412794,2056,2072,2094,2047,2027,2059,1197
2177,1713842084767412395,2049,2048,2037,2045,2066,2051,1197
2178,1713842084777409272,2059,2048,2045,2067,2046,2053,1197
2179,1713842084787410788,2048,2060,2044,2069,2064,2055,1195
2180,1713842084797417394,2065,2078,2124,2064,2047,2055,1197
2181,1713842084807428157,2052,2056,2044,2053,2054,2055,1196
2182,1713842084817423952,2056,2045,2039,2061,2042,2054,1198
2183,1713842084827412102,2053,2066,2052,2053,2067,2055,1196
2184,1713842084837440428,2056,2066,2066,2054,2069,2054,1196
2185,1713842084847410224,2058,2059,2033,2038,2058,2050,1198
2186,1713842084857409415,2055,2048,2033,2053,2060,2052,1194
2187,1713842084867413024,2050,2046,2031,2044,2056,2050,1197
2188,1713842084877408399,2055,2053,2049,2068,2038,2056,1197
2189,1713842084887410376,2052,2060,2049,2051,2058,2052,1196
2190,1713842084897417982,2056,2049,2040,2044,2039,2054,1197
2191,1713842084907411834,2052,2050,2045,2052,2072,2052,1195
2192,1713842084917409282,2060,2064,2109,2057,2041,2056,1197
2193,1713842084927408042,2051,2040,2036,2050,2065,2053,1197
2194,1713842084937406462,2054,2049,2046,2077,2045,2055,1197
2195,1713842084947406976,2052,2064,2038,2051,2059,2051,1197
2196,1713842084957403531,2052,2053,2043,2056,2044,2053,1196
2197,1713842084967460694,2054,2052,2048,2050,2060,2053,1196
2198,1713842084977405662,2065,2073,2060,2054,2039,2052,1195
2199,1713842084987375156,2052,2051,2047,2046,2060,2050,1195
2200,1713842084997401199,2053,2061,2048,2052,2046,2054,1196
2201,1713842085007402103,2051,2053,2057,2034,2053,2056,1198
2202,1713842085017443955,2056,2045,2022,2057,2043,2052,1197
2203,1713842085027401888,2060,2072,2070,2043,2061,2052,1196
2204,1713842085037402362,2056,2043,2040,2071,2058,2053,1196
2205,1713842085047402334,2061,2061,2042,2048,2058,2049,1197
2206,1713842085057400604,2058,2060,2060,2067,2047,2052,1196
2207,1713842085067401028,2055,2051,2053,2061,2068,2056,1198
2208,1713842085077399147,2064,2072,2128,2053,2045,2053,1196
2209,1713842085087396795,2052,2052,2060,2069,2057,2052,1198
2210,1713842085097395967,2053,2049,2049,2070,2070,2057,1197
2211,1713842085107400818,2054,2054,2046,1998,2096,2053,1196
2212,1713842085117396092,2060,2056,2087,2069,2064,2058,1197
