202.0,1.7114378207551416e+18,0.47780678851174935,0.4235159817351598,0.33405405405405403,0.5018341892883346,0.6230769230769231,0.43902439024390244,1197.0
203.0,1.711437820765104e+18,0.47127937336814624,0.4098173515981735,0.3248648648648649,0.5077035950110051,0.6329670329670329,0.4373423044575273,1198.0
204.0,1.711437820775135e+18,0.4765013054830287,0.4155251141552511,0.32756756756756755,0.5006113964294449,0.6065934065934065,0.4339781328847771,1196.0
205.0,1.711437820785105e+18,0.47127937336814624,0.4121004566210046,0.33945945945945943,0.5006113964294449,0.6153846153846154,0.4415475189234651,1196.0
206.0,1.7114378207951552e+18,0.4725848563968668,0.4075342465753425,0.3302702702702703,0.5018341892883346,0.6285714285714286,0.43902439024390244,1198.0
207.0,1.7114378208051044e+18,0.47780678851174935,0.4223744292237443,0.3535135135135135,0.4986549278552213,0.6274725274725275,0.4575273338940286,1197.0
208.0,1.7114378208151355e+18,0.47127937336814624,0.4143835616438356,0.32594594594594595,0.5028124235754463,0.6406593406593407,0.4415475189234651,1195.0
209.0,1.7114378208251062e+18,0.4725848563968668,0.4063926940639269,0.32756756756756755,0.5023233064318905,0.6208791208791209,0.43313708999158956,1193.0
210.0,1.7114378208351357e+18,0.4765013054830287,0.4132420091324201,0.3362162162162162,0.5006113964294449,0.6186813186813187,0.4314550042052145,1194.0
211.0,1.7114378208451044e+18,0.4725848563968668,0.4063926940639269,0.33135135135135135,0.5047688921496698,0.6329670329670329,0.4381833473507149,1197.0
212.0,1.7114378208551352e+18,0.46866840731070497,0.4041095890410959,0.3237837837837838,0.5025678650036683,0.6230769230769231,0.43313708999158956,1195.0
213.0,1.7114378208651044e+18,0.4699738903394256,0.4052511415525114,0.32972972972972975,0.49938860357055515,0.6318681318681318,0.4432296047098402,1196.0
214.0,1.7114378208751352e+18,0.4804177545691906,0.432648401826484,0.3248648648648649,0.5025678650036683,0.6186813186813187,0.4415475189234651,1196.0
215.0,1.7114378208851052e+18,0.47127937336814624,0.4041095890410959,0.3324324324324324,0.5003668378576669,0.6252747252747253,0.43902439024390244,1197.0
216.0,1.711437820895135e+18,0.4830287206266319,0.430365296803653,0.33783783783783783,0.5035460992907801,0.6263736263736264,0.43902439024390244,1196.0
217.0,1.711437820905104e+18,0.47389033942558745,0.408675799086758,0.32594594594594595,0.5008559550012228,0.6274725274725275,0.43566021867115223,1197.0
218.0,1.711437820915135e+18,0.47780678851174935,0.4178082191780822,0.33513513513513515,0.5057471264367817,0.6593406593406593,0.4449116904962153,1197.0
219.0,1.7114378209251039e+18,0.4699738903394256,0.410958904109589,0.33405405405405403,0.5030569821472243,0.6472527472527473,0.4432296047098402,1197.0
220.0,1.7114378209351342e+18,0.4804177545691906,0.4189497716894977,0.3286486486486486,0.504035216434336,0.6395604395604395,0.4558452481076535,1195.0
221.0,1.7114378209451046e+18,0.47911227154047,0.4269406392694064,0.3535135135135135,0.5025678650036683,0.6307692307692307,0.4348191757779647,1196.0
222.0,1.7114378209551342e+18,0.47911227154047,0.4143835616438356,0.3302702702702703,0.5015896307165566,0.621978021978022,0.44238856181665265,1198.0
223.0,1.7114378209651628e+18,0.4725848563968668,0.408675799086758,0.32216216216216215,0.4969430178527757,0.6252747252747253,0.43566021867115223,1197.0
224.0,1.7114378209751613e+18,0.46475195822454307,0.4018264840182648,0.33135135135135135,0.5028124235754463,0.6208791208791209,0.4348191757779647,1197.0
225.0,1.7114378209851622e+18,0.4765013054830287,0.4155251141552511,0.32756756756756755,0.4986549278552213,0.6263736263736264,0.4373423044575273,1196.0
226.0,1.7114378209951908e+18,0.4765013054830287,0.4155251141552511,0.3389189189189189,0.5035460992907801,0.6318681318681318,0.43650126156433977,1197.0
227.0,1.711437821005187e+18,0.4751958224543081,0.4200913242009132,0.34162162162162163,0.5006113964294449,0.6362637362637362,0.44575273338940286,1196.0
228.0,1.7114378210151544e+18,0.4725848563968668,0.4155251141552511,0.3210810810810811,0.5015896307165566,0.6241758241758242,0.4280908326324643,1194.0
229.0,1.711437821025159e+18,0.4751958224543081,0.4178082191780822,0.3427027027027027,0.4971875764245537,0.6648351648351648,0.4381833473507149,1196.0
230.0,1.7114378210351562e+18,0.4751958224543081,0.4223744292237443,0.3335135135135135,0.5020787478601125,0.6175824175824176,0.4373423044575273,1198.0
231.0,1.7114378210451054e+18,0.4751958224543081,0.4098173515981735,0.3362162162162162,0.5015896307165566,0.6296703296703297,0.4381833473507149,1197.0
232.0,1.7114378210551565e+18,0.4765013054830287,0.410958904109589,0.33135135135135135,0.499877720714111,0.6263736263736264,0.4415475189234651,1196.0
233.0,1.7114378210651133e+18,0.4765013054830287,0.4098173515981735,0.33297297297297296,0.4986549278552213,0.6241758241758242,0.43650126156433977,1193.0
234.0,1.7114378210751506e+18,0.46866840731070497,0.4189497716894977,0.33135135135135135,0.5020787478601125,0.6197802197802198,0.43902439024390244,1195.0
235.0,1.7114378210851635e+18,0.4765013054830287,0.4440639269406393,0.3427027027027027,0.5003668378576669,0.6186813186813187,0.4381833473507149,1198.0
236.0,1.7114378210951421e+18,0.48433420365535246,0.4200913242009132,0.33135135135135135,0.5013450721447786,0.6098901098901099,0.4381833473507149,1196.0
237.0,1.7114378211051105e+18,0.4765013054830287,0.4075342465753425,0.33297297297297296,0.5015896307165566,0.6362637362637362,0.4381833473507149,1195.0
238.0,1.7114378211151514e+18,0.4804177545691906,0.4223744292237443,0.33135135135135135,0.4996331621423331,0.6230769230769231,0.44575273338940286,1196.0
239.0,1.7114378211251052e+18,0.48172323759791125,0.4292237442922374,0.36108108108108106,0.5008559550012228,0.6274725274725275,0.44070647603027757,1197.0
240.0,1.7114378211352102e+18,0.4751958224543081,0.4155251141552511,0.33405405405405403,0.5037906578625581,0.621978021978022,0.43566021867115223,1196.0
241.0,1.711437821145109e+18,0.47127937336814624,0.4178082191780822,0.34540540540540543,0.5018341892883346,0.6472527472527473,0.4575273338940286,1197.0
242.0,1.7114378211551457e+18,0.4765013054830287,0.3858447488584475,0.3254054054054054,0.4986549278552213,0.610989010989011,0.43986543313709,1197.0
243.0,1.7114378211651092e+18,0.47911227154047,0.4223744292237443,0.3464864864864865,0.5028124235754463,0.6318681318681318,0.43902439024390244,1195.0
244.0,1.711437821175141e+18,0.46866840731070497,0.4143835616438356,0.34216216216216216,0.5037906578625581,0.6230769230769231,0.4415475189234651,1198.0
245.0,1.7114378211851604e+18,0.4765013054830287,0.4052511415525114,0.3286486486486486,0.5025678650036683,0.6373626373626373,0.43902439024390244,1197.0
246.0,1.7114378211951383e+18,0.4765013054830287,0.4189497716894977,0.3362162162162162,0.5037906578625581,0.6230769230769231,0.43986543313709,1197.0
247.0,1.711437821205105e+18,0.4725848563968668,0.4121004566210046,0.3443243243243243,0.5015896307165566,0.6318681318681318,0.4415475189234651,1197.0
248.0,1.7114378212151363e+18,0.47389033942558745,0.4143835616438356,0.33135135135135135,0.5037906578625581,0.6296703296703297,0.44575273338940286,1197.0
249.0,1.7114378212251057e+18,0.47127937336814624,0.4155251141552511,0.3427027027027027,0.5015896307165566,0.6252747252747253,0.43902439024390244,1195.0
250.0,1.7114378212351375e+18,0.4725848563968668,0.4052511415525114,0.31675675675675674,0.5067253607238934,0.6164835164835165,0.43902439024390244,1196.0
251.0,1.7114378212451044e+18,0.47780678851174935,0.4200913242009132,0.3345945945945946,0.5020787478601125,0.6274725274725275,0.43902439024390244,1198.0
252.0,1.7114378212551347e+18,0.48172323759791125,0.4212328767123288,0.3372972972972973,0.5020787478601125,0.6186813186813187,0.4381833473507149,1196.0
253.0,1.7114378212651044e+18,0.4608355091383812,0.4041095890410959,0.3324324324324324,0.5001222792858889,0.6285714285714286,0.43986543313709,1196.0
254.0,1.7114378212751293e+18,0.47127937336814624,0.4063926940639269,0.32972972972972975,0.5008559550012228,0.6098901098901099,0.42977291841883936,1195.0
255.0,1.711437821285103e+18,0.4765013054830287,0.4235159817351598,0.36108108108108106,0.5008559550012228,0.6351648351648351,0.43902439024390244,1195.0
256.0,1.7114378212951345e+18,0.47911227154047,0.4155251141552511,0.33405405405405403,0.5006113964294449,0.6274725274725275,0.4440706476030278,1196.0
257.0,1.7114378213051064e+18,0.48825065274151436,0.4246575342465753,0.34378378378378377,0.49474199070677427,0.5967032967032967,0.44238856181665265,1198.0
258.0,1.711437821315129e+18,0.47780678851174935,0.4075342465753425,0.3216216216216216,0.49767669356810956,0.6120879120879121,0.4381833473507149,1196.0
259.0,1.7114378213251046e+18,0.4765013054830287,0.3949771689497717,0.32756756756756755,0.5006113964294449,0.6197802197802198,0.43650126156433977,1196.0
260.0,1.7114378213351665e+18,0.47127937336814624,0.4063926940639269,0.3308108108108108,0.5030569821472243,0.6208791208791209,0.43902439024390244,1196.0
261.0,1.711437821345175e+18,0.47127937336814624,0.408675799086758,0.3389189189189189,0.5006113964294449,0.6274725274725275,0.43902439024390244,1196.0
262.0,1.7114378213551255e+18,0.47911227154047,0.4223744292237443,0.33513513513513515,0.4996331621423331,0.6186813186813187,0.43986543313709,1197.0
263.0,1.7114378213651684e+18,0.46866840731070497,0.4132420091324201,0.3443243243243243,0.5006113964294449,0.6714285714285714,0.43902439024390244,1197.0
264.0,1.7114378213751273e+18,0.48433420365535246,0.4360730593607306,0.35081081081081084,0.5089263878698949,0.6582417582417582,0.44575273338940286,1197.0
265.0,1.7114378213851584e+18,0.46736292428198434,0.410958904109589,0.33297297297297296,0.5013450721447786,0.6131868131868132,0.4373423044575273,1197.0
266.0,1.7114378213951493e+18,0.47389033942558745,0.4121004566210046,0.33135135135135135,0.5020787478601125,0.6098901098901099,0.44238856181665265,1197.0
267.0,1.7114378214051064e+18,0.4751958224543081,0.4200913242009132,0.3572972972972973,0.4988994864269993,0.6230769230769231,0.43650126156433977,1195.0
268.0,1.7114378214151283e+18,0.4725848563968668,0.4121004566210046,0.33405405405405403,0.5006113964294449,0.6175824175824176,0.4381833473507149,1197.0
269.0,1.7114378214251057e+18,0.47911227154047,0.4143835616438356,0.3291891891891892,0.499877720714111,0.6373626373626373,0.4432296047098402,1195.0
270.0,1.7114378214351276e+18,0.4869451697127937,0.4269406392694064,0.33405405405405403,0.4996331621423331,0.6208791208791209,0.4415475189234651,1196.0
271.0,1.7114378214451095e+18,0.4725848563968668,0.4063926940639269,0.3308108108108108,0.49620934213744194,0.621978021978022,0.4415475189234651,1197.0
272.0,1.7114378214551283e+18,0.47127937336814624,0.4178082191780822,0.3335135135135135,0.5030569821472243,0.6285714285714286,0.44238856181665265,1193.0
273.0,1.7114378214651036e+18,0.48172323759791125,0.4063926940639269,0.33135135135135135,0.5001222792858889,0.6307692307692307,0.44575273338940286,1195.0
274.0,1.7114378214751521e+18,0.47780678851174935,0.408675799086758,0.3389189189189189,0.5020787478601125,0.6230769230769231,0.44070647603027757,1196.0
275.0,1.7114378214851228e+18,0.47911227154047,0.4143835616438356,0.34594594594594597,0.5067253607238934,0.6472527472527473,0.4415475189234651,1197.0
276.0,1.711437821495146e+18,0.47389033942558745,0.3904109589041096,0.32972972972972975,0.499877720714111,0.6065934065934065,0.43902439024390244,1197.0
277.0,1.711437821505106e+18,0.4751958224543081,0.3995433789954338,0.33135135135135135,0.5006113964294449,0.6241758241758242,0.4381833473507149,1198.0
278.0,1.7114378215151485e+18,0.4765013054830287,0.4200913242009132,0.34756756756756757,0.5020787478601125,0.6274725274725275,0.44070647603027757,1196.0
279.0,1.711437821525104e+18,0.47911227154047,0.4189497716894977,0.33783783783783783,0.5037906578625581,0.6428571428571429,0.43902439024390244,1196.0
280.0,1.711437821535145e+18,0.47911227154047,0.4132420091324201,0.3281081081081081,0.5030569821472243,0.6208791208791209,0.43313708999158956,1196.0
281.0,1.7114378215451054e+18,0.47127937336814624,0.410958904109589,0.33297297297297296,0.5035460992907801,0.6274725274725275,0.43313708999158956,1196.0
282.0,1.7114378215551432e+18,0.4908616187989556,0.4292237442922374,0.34378378378378377,0.5015896307165566,0.6252747252747253,0.44238856181665265,1197.0
283.0,1.711437821565106e+18,0.48172323759791125,0.4155251141552511,0.3362162162162162,0.5006113964294449,0.6175824175824176,0.43650126156433977,1198.0
284.0,1.7114378215751493e+18,0.4804177545691906,0.4509132420091324,0.3410810810810811,0.5020787478601125,0.6098901098901099,0.4415475189234651,1198.0
285.0,1.7114378215851064e+18,0.4765013054830287,0.410958904109589,0.33297297297297296,0.49938860357055515,0.6351648351648351,0.44238856181665265,1197.0
286.0,1.7114378215951465e+18,0.4765013054830287,0.4098173515981735,0.3324324324324324,0.5006113964294449,0.6120879120879121,0.4348191757779647,1195.0
287.0,1.711437821605104e+18,0.48172323759791125,0.4155251141552511,0.3318918918918919,0.5047688921496698,0.634065934065934,0.43650126156433977,1196.0
288.0,1.7114378216151424e+18,0.4765013054830287,0.4212328767123288,0.33783783783783783,0.5011005135730008,0.6329670329670329,0.4373423044575273,1196.0
289.0,1.7114378216251072e+18,0.4765013054830287,0.4143835616438356,0.3410810810810811,0.499877720714111,0.6329670329670329,0.4381833473507149,1198.0
290.0,1.7114378216351729e+18,0.4765013054830287,0.4178082191780822,0.3362162162162162,0.5020787478601125,0.6263736263736264,0.43986543313709,1196.0
291.0,1.7114378216451064e+18,0.4765013054830287,0.408675799086758,0.33405405405405403,0.5015896307165566,0.6516483516483517,0.4507989907485282,1197.0
292.0,1.7114378216551414e+18,0.47780678851174935,0.410958904109589,0.3286486486486486,0.5028124235754463,0.6318681318681318,0.4432296047098402,1197.0
293.0,1.7114378216651067e+18,0.4765013054830287,0.410958904109589,0.3308108108108108,0.5077035950110051,0.6681318681318681,0.43650126156433977,1193.0
294.0,1.7114378216751406e+18,0.4765013054830287,0.4132420091324201,0.33297297297297296,0.5050134507214478,0.6384615384615384,0.4449116904962153,1196.0
295.0,1.711437821685104e+18,0.4765013054830287,0.4132420091324201,0.3464864864864865,0.5020787478601125,0.6252747252747253,0.4381833473507149,1197.0
296.0,1.711437821695142e+18,0.4765013054830287,0.4178082191780822,0.33135135135135135,0.5001222792858889,0.6230769230769231,0.43986543313709,1196.0
297.0,1.7114378217051123e+18,0.47127937336814624,0.3744292237442922,0.327027027027027,0.5015896307165566,0.6274725274725275,0.4373423044575273,1197.0
298.0,1.7114378217151334e+18,0.48172323759791125,0.4178082191780822,0.3545945945945946,0.5084372707263389,0.6494505494505495,0.4415475189234651,1196.0
299.0,1.711437821725106e+18,0.46736292428198434,0.4143835616438356,0.3427027027027027,0.5015896307165566,0.6274725274725275,0.44070647603027757,1196.0
300.0,1.7114378217351409e+18,0.47911227154047,0.4315068493150685,0.3491891891891892,0.495720224993886,0.5945054945054945,0.43650126156433977,1197.0
301.0,1.711437821745109e+18,0.47127937336814624,0.3995433789954338,0.33135135135135135,0.5023233064318905,0.6494505494505495,0.4348191757779647,1195.0
302.0,1.7114378217551368e+18,0.47780678851174935,0.4143835616438356,0.33297297297297296,0.5028124235754463,0.6296703296703297,0.4440706476030278,1196.0
303.0,1.711437821765109e+18,0.4725848563968668,0.408675799086758,0.3362162162162162,0.49816581071166544,0.6362637362637362,0.4415475189234651,1196.0
304.0,1.7114378217751508e+18,0.48172323759791125,0.4223744292237443,0.3335135135135135,0.5037906578625581,0.6461538461538462,0.4449116904962153,1195.0
305.0,1.711437821785104e+18,0.47127937336814624,0.3858447488584475,0.33297297297297296,0.5015896307165566,0.6296703296703297,0.44575273338940286,1196.0
306.0,1.711437821795149e+18,0.4699738903394256,0.3858447488584475,0.3237837837837838,0.5006113964294449,0.6098901098901099,0.432296047098402,1193.0
307.0,1.7114378218051072e+18,0.4699738903394256,0.4006849315068493,0.32594594594594595,0.4986549278552213,0.6208791208791209,0.43566021867115223,1196.0
308.0,1.7114378218151393e+18,0.4765013054830287,0.4223744292237443,0.3345945945945946,0.4986549278552213,0.6175824175824176,0.43902439024390244,1195.0
309.0,1.711437821825106e+18,0.4765013054830287,0.410958904109589,0.3318918918918919,0.5028124235754463,0.6318681318681318,0.43986543313709,1196.0
310.0,1.7114378218351268e+18,0.47911227154047,0.4257990867579909,0.35135135135135137,0.5008559550012228,0.6230769230769231,0.4432296047098402,1194.0
311.0,1.7114378218451067e+18,0.47780678851174935,0.4121004566210046,0.3372972972972973,0.5047688921496698,0.6505494505494506,0.43986543313709,1196.0
312.0,1.7114378218551368e+18,0.4804177545691906,0.4474885844748858,0.33945945945945943,0.5023233064318905,0.6164835164835165,0.4415475189234651,1196.0
313.0,1.7114378218651103e+18,0.47127937336814624,0.3961187214611872,0.32216216216216215,0.5011005135730008,0.6274725274725275,0.43650126156433977,1194.0
314.0,1.71143782187515e+18,0.47911227154047,0.4257990867579909,0.34054054054054056,0.5028124235754463,0.6285714285714286,0.4415475189234651,1195.0
315.0,1.7114378218851064e+18,0.4765013054830287,0.4143835616438356,0.32594594594594595,0.5023233064318905,0.6252747252747253,0.4348191757779647,1197.0
316.0,1.7114378218951232e+18,0.4765013054830287,0.4292237442922374,0.3264864864864865,0.5011005135730008,0.6351648351648351,0.4381833473507149,1197.0
317.0,1.7114378219051057e+18,0.4725848563968668,0.4143835616438356,0.33513513513513515,0.504035216434336,0.6241758241758242,0.4440706476030278,1195.0
318.0,1.7114378219151258e+18,0.4660574412532637,0.4098173515981735,0.3545945945945946,0.5030569821472243,0.6230769230769231,0.44070647603027757,1194.0
319.0,1.7114378219251057e+18,0.46866840731070497,0.4063926940639269,0.3232432432432432,0.5006113964294449,0.6263736263736264,0.43566021867115223,1195.0
320.0,1.7114378219351455e+18,0.4765013054830287,0.4360730593607306,0.3443243243243243,0.4991440449987772,0.6098901098901099,0.4373423044575273,1194.0
321.0,1.7114378219451067e+18,0.47127937336814624,0.410958904109589,0.34702702702702704,0.4991440449987772,0.6197802197802198,0.4373423044575273,1194.0
322.0,1.711437821955124e+18,0.4804177545691906,0.4235159817351598,0.3291891891891892,0.5033015407190022,0.6241758241758242,0.4415475189234651,1194.0
323.0,1.7114378219651044e+18,0.4765013054830287,0.4075342465753425,0.32216216216216215,0.499877720714111,0.6318681318681318,0.43986543313709,1197.0
324.0,1.7114378219751245e+18,0.4765013054830287,0.4200913242009132,0.3389189189189189,0.5025678650036683,0.6263736263736264,0.4381833473507149,1198.0
325.0,1.7114378219851054e+18,0.4765013054830287,0.4269406392694064,0.3356756756756757,0.5015896307165566,0.6252747252747253,0.43650126156433977,1198.0
326.0,1.7114378219951424e+18,0.4765013054830287,0.4143835616438356,0.33405405405405403,0.5050134507214478,0.6131868131868132,0.44575273338940286,1196.0
327.0,1.7114378220051195e+18,0.47127937336814624,0.4098173515981735,0.3254054054054054,0.4969430178527757,0.6175824175824176,0.4381833473507149,1195.0
328.0,1.7114378220151304e+18,0.47780678851174935,0.4155251141552511,0.33513513513513515,0.5028124235754463,0.6296703296703297,0.4381833473507149,1195.0
329.0,1.711437822025105e+18,0.4725848563968668,0.4041095890410959,0.3345945945945946,0.4979212521398875,0.6153846153846154,0.4373423044575273,1196.0
330.0,1.711437822035127e+18,0.4830287206266319,0.4269406392694064,0.34702702702702704,0.5035460992907801,0.6373626373626373,0.4432296047098402,1196.0
331.0,1.7114378220451044e+18,0.4725848563968668,0.408675799086758,0.3345945945945946,0.5015896307165566,0.6450549450549451,0.4381833473507149,1197.0
332.0,1.7114378220551237e+18,0.47911227154047,0.4166666666666667,0.3308108108108108,0.4979212521398875,0.5967032967032967,0.43650126156433977,1196.0
333.0,1.7114378220651034e+18,0.48433420365535246,0.454337899543379,0.3518918918918919,0.49816581071166544,0.6065934065934065,0.4381833473507149,1194.0
334.0,1.711437822075125e+18,0.47911227154047,0.4223744292237443,0.3318918918918919,0.5018341892883346,0.6208791208791209,0.43986543313709,1196.0
335.0,1.711437822085105e+18,0.4830287206266319,0.430365296803653,0.3654054054054054,0.5025678650036683,0.6164835164835165,0.4348191757779647,1195.0
336.0,1.7114378220951452e+18,0.47127937336814624,0.4052511415525114,0.32594594594594595,0.5050134507214478,0.6373626373626373,0.43566021867115223,1197.0
337.0,1.7114378221051044e+18,0.48433420365535246,0.4178082191780822,0.3497297297297297,0.5008559550012228,0.6252747252747253,0.4415475189234651,1195.0
338.0,1.7114378221151283e+18,0.4660574412532637,0.4041095890410959,0.3286486486486486,0.4991440449987772,0.6098901098901099,0.4348191757779647,1196.0
339.0,1.7114378221251617e+18,0.47780678851174935,0.4212328767123288,0.35567567567567565,0.499877720714111,0.6384615384615384,0.4415475189234651,1195.0
340.0,1.7114378221351357e+18,0.4765013054830287,0.4006849315068493,0.34702702702702704,0.5015896307165566,0.6241758241758242,0.43986543313709,1196.0
341.0,1.7114378221451041e+18,0.47127937336814624,0.3938356164383562,0.3345945945945946,0.4986549278552213,0.6274725274725275,0.4432296047098402,1195.0
342.0,1.711437822155126e+18,0.47780678851174935,0.4269406392694064,0.34162162162162163,0.5035460992907801,0.6296703296703297,0.4381833473507149,1195.0
343.0,1.711437822165105e+18,0.47127937336814624,0.4018264840182648,0.3291891891891892,0.5035460992907801,0.6318681318681318,0.4381833473507149,1196.0
344.0,1.7114378221751662e+18,0.4765013054830287,0.4189497716894977,0.3345945945945946,0.5008559550012228,0.6142857142857143,0.43650126156433977,1197.0
345.0,1.711437822185105e+18,0.47127937336814624,0.4098173515981735,0.33405405405405403,0.5003668378576669,0.6263736263736264,0.43902439024390244,1195.0
346.0,1.7114378221951278e+18,0.47780678851174935,0.4041095890410959,0.34162162162162163,0.5057471264367817,0.6637362637362637,0.44238856181665265,1196.0
347.0,1.7114378222051052e+18,0.47911227154047,0.3995433789954338,0.33405405405405403,0.5025678650036683,0.6296703296703297,0.4348191757779647,1198.0
348.0,1.7114378222151437e+18,0.4725848563968668,0.4121004566210046,0.3286486486486486,0.4979212521398875,0.6175824175824176,0.43566021867115223,1196.0
349.0,1.7114378222251034e+18,0.4765013054830287,0.4178082191780822,0.33135135135135135,0.4986549278552213,0.6384615384615384,0.43986543313709,1197.0
350.0,1.7114378222351299e+18,0.4751958224543081,0.4212328767123288,0.34486486486486484,0.5006113964294449,0.6175824175824176,0.4432296047098402,1196.0
351.0,1.7114378222451057e+18,0.47389033942558745,0.4018264840182648,0.3216216216216216,0.4988994864269993,0.6208791208791209,0.43566021867115223,1196.0
352.0,1.7114378222551265e+18,0.4765013054830287,0.4269406392694064,0.34702702702702704,0.5028124235754463,0.6208791208791209,0.44238856181665265,1197.0
353.0,1.7114378222651044e+18,0.4751958224543081,0.408675799086758,0.33675675675675676,0.5011005135730008,0.6274725274725275,0.4381833473507149,1196.0
354.0,1.711437822275128e+18,0.4725848563968668,0.4132420091324201,0.3324324324324324,0.4991440449987772,0.621978021978022,0.4373423044575273,1196.0
355.0,1.7114378222851034e+18,0.47780678851174935,0.4360730593607306,0.34054054054054056,0.5028124235754463,0.656043956043956,0.4381833473507149,1196.0
356.0,1.7114378222951232e+18,0.48172323759791125,0.4189497716894977,0.3497297297297297,0.5003668378576669,0.6131868131868132,0.4348191757779647,1196.0
357.0,1.7114378223051036e+18,0.47911227154047,0.4178082191780822,0.32972972972972975,0.4986549278552213,0.6197802197802198,0.4449116904962153,1198.0
358.0,1.7114378223151288e+18,0.4765013054830287,0.4143835616438356,0.33135135135135135,0.5023233064318905,0.6197802197802198,0.4381833473507149,1195.0
359.0,1.7114378223251044e+18,0.47127937336814624,0.4052511415525114,0.3291891891891892,0.5011005135730008,0.6395604395604395,0.43650126156433977,1198.0
360.0,1.7114378223351316e+18,0.4765013054830287,0.4143835616438356,0.3335135135135135,0.5018341892883346,0.6208791208791209,0.4381833473507149,1196.0
361.0,1.7114378223451067e+18,0.47389033942558745,0.4121004566210046,0.33675675675675676,0.5035460992907801,0.6593406593406593,0.4381833473507149,1195.0
362.0,1.7114378223551662e+18,0.4725848563968668,0.4178082191780822,0.3254054054054054,0.5001222792858889,0.6,0.43650126156433977,1196.0
363.0,1.7114378223651054e+18,0.4725848563968668,0.4269406392694064,0.3345945945945946,0.49400831499144043,0.6230769230769231,0.4339781328847771,1194.0
364.0,1.711437822375134e+18,0.47780678851174935,0.4212328767123288,0.3491891891891892,0.5025678650036683,0.6208791208791209,0.44070647603027757,1198.0
365.0,1.7114378223851041e+18,0.47127937336814624,0.4041095890410959,0.32756756756756755,0.49816581071166544,0.6131868131868132,0.4449116904962153,1197.0
366.0,1.7114378223951188e+18,0.47780678851174935,0.4132420091324201,0.3264864864864865,0.5006113964294449,0.6098901098901099,0.43986543313709,1196.0
367.0,1.711437822405105e+18,0.4765013054830287,0.4143835616438356,0.34378378378378377,0.4988994864269993,0.6021978021978022,0.43313708999158956,1194.0
368.0,1.7114378224151526e+18,0.4725848563968668,0.4178082191780822,0.3237837837837838,0.5084372707263389,0.6252747252747253,0.4432296047098402,1197.0
369.0,1.711437822425106e+18,0.4765013054830287,0.4075342465753425,0.3286486486486486,0.5015896307165566,0.6252747252747253,0.4373423044575273,1196.0
370.0,1.7114378224351468e+18,0.4804177545691906,0.4235159817351598,0.3464864864864865,0.5037906578625581,0.6252747252747253,0.44070647603027757,1196.0
371.0,1.7114378224451046e+18,0.4830287206266319,0.4315068493150685,0.37135135135135133,0.5023233064318905,0.6318681318681318,0.4415475189234651,1199.0
372.0,1.7114378224551368e+18,0.47389033942558745,0.4166666666666667,0.3281081081081081,0.5025678650036683,0.6494505494505495,0.4415475189234651,1198.0
373.0,1.7114378224651036e+18,0.4725848563968668,0.4132420091324201,0.3362162162162162,0.5074590364392272,0.6582417582417582,0.4432296047098402,1195.0
374.0,1.7114378224751224e+18,0.4699738903394256,0.3835616438356164,0.32594594594594595,0.5020787478601125,0.6384615384615384,0.4415475189234651,1197.0
375.0,1.711437822485104e+18,0.4765013054830287,0.3995433789954338,0.3291891891891892,0.4966984592809978,0.6175824175824176,0.4348191757779647,1198.0
376.0,1.7114378224951365e+18,0.47911227154047,0.4383561643835616,0.3410810810810811,0.5030569821472243,0.6197802197802198,0.4440706476030278,1196.0
377.0,1.7114378225051036e+18,0.4765013054830287,0.4063926940639269,0.33837837837837836,0.5008559550012228,0.6230769230769231,0.43650126156433977,1195.0
378.0,1.711437822515138e+18,0.4765013054830287,0.4200913242009132,0.34216216216216216,0.5052580092932257,0.6307692307692307,0.4415475189234651,1195.0
379.0,1.7114378225251046e+18,0.4765013054830287,0.4143835616438356,0.3410810810810811,0.5008559550012228,0.6241758241758242,0.4373423044575273,1194.0
380.0,1.7114378225351255e+18,0.4765013054830287,0.4235159817351598,0.3302702702702703,0.5025678650036683,0.6208791208791209,0.4381833473507149,1196.0
381.0,1.7114378225451036e+18,0.4765013054830287,0.410958904109589,0.3308108108108108,0.5030569821472243,0.6318681318681318,0.43313708999158956,1194.0
382.0,1.7114378225551314e+18,0.47127937336814624,0.4098173515981735,0.3302702702702703,0.499877720714111,0.5923076923076923,0.4348191757779647,1196.0
383.0,1.711437822565104e+18,0.47911227154047,0.4143835616438356,0.33783783783783783,0.5001222792858889,0.6230769230769231,0.4381833473507149,1195.0
384.0,1.711437822575129e+18,0.4765013054830287,0.4132420091324201,0.33135135135135135,0.5047688921496698,0.621978021978022,0.44070647603027757,1197.0
385.0,1.7114378225851052e+18,0.47780678851174935,0.4178082191780822,0.3497297297297297,0.5047688921496698,0.6472527472527473,0.4415475189234651,1196.0
386.0,1.7114378225951357e+18,0.47127937336814624,0.3744292237442922,0.3264864864864865,0.5035460992907801,0.6285714285714286,0.44238856181665265,1193.0
387.0,1.7114378226051052e+18,0.48825065274151436,0.4223744292237443,0.3848648648648649,0.5035460992907801,0.6406593406593407,0.4440706476030278,1195.0
388.0,1.7114378226151345e+18,0.4765013054830287,0.3972602739726027,0.32594594594594595,0.5047688921496698,0.6175824175824176,0.4465937762825904,1199.0
389.0,1.7114378226251615e+18,0.47389033942558745,0.4098173515981735,0.3216216216216216,0.49816581071166544,0.6076923076923076,0.44070647603027757,1197.0
390.0,1.7114378226351404e+18,0.47911227154047,0.4143835616438356,0.33675675675675676,0.5001222792858889,0.6131868131868132,0.43566021867115223,1196.0
391.0,1.7114378226451638e+18,0.4751958224543081,0.410958904109589,0.32972972972972975,0.5015896307165566,0.6362637362637362,0.43650126156433977,1196.0
392.0,1.7114378226551345e+18,0.46866840731070497,0.410958904109589,0.3286486486486486,0.5072144778674492,0.634065934065934,0.4381833473507149,1194.0
393.0,1.7114378226651054e+18,0.48172323759791125,0.4463470319634703,0.3389189189189189,0.5020787478601125,0.6142857142857143,0.4415475189234651,1193.0
394.0,1.711437822675154e+18,0.4934725848563969,0.4589041095890411,0.37945945945945947,0.5037906578625581,0.6230769230769231,0.4415475189234651,1196.0
395.0,1.711437822685109e+18,0.4725848563968668,0.4075342465753425,0.3362162162162162,0.5018341892883346,0.6120879120879121,0.4415475189234651,1197.0
396.0,1.7114378226951585e+18,0.4516971279373368,0.4006849315068493,0.3302702702702703,0.5018341892883346,0.6208791208791209,0.4381833473507149,1197.0
397.0,1.7114378227051044e+18,0.5182767624020888,0.4520547945205479,0.3491891891891892,0.5006113964294449,0.6274725274725275,0.43902439024390244,1197.0
398.0,1.711437822715137e+18,0.4621409921671018,0.410958904109589,0.33297297297297296,0.5015896307165566,0.6208791208791209,0.43650126156433977,1197.0
399.0,1.71143782272516e+18,0.4725848563968668,0.3858447488584475,0.34486486486486484,0.5015896307165566,0.6274725274725275,0.4415475189234651,1196.0
400.0,1.7114378227351342e+18,0.47780678851174935,0.4052511415525114,0.3362162162162162,0.5025678650036683,0.6230769230769231,0.44238856181665265,1195.0
401.0,1.7114378227451046e+18,0.47389033942558745,0.4223744292237443,0.3535135135135135,0.5018341892883346,0.621978021978022,0.43986543313709,1197.0
402.0,1.7114378227551368e+18,0.4751958224543081,0.4166666666666667,0.32756756756756755,0.5001222792858889,0.6230769230769231,0.43902439024390244,1194.0
403.0,1.7114378227651046e+18,0.4765013054830287,0.4235159817351598,0.34324324324324323,0.495964783565664,0.6362637362637362,0.43650126156433977,1198.0
404.0,1.711437822775146e+18,0.4765013054830287,0.410958904109589,0.3345945945945946,0.5033015407190022,0.621978021978022,0.44238856181665265,1198.0
405.0,1.7114378227851044e+18,0.4804177545691906,0.4452054794520548,0.3389189189189189,0.5015896307165566,0.6307692307692307,0.4415475189234651,1195.0
406.0,1.7114378227951357e+18,0.47127937336814624,0.4178082191780822,0.33135135135135135,0.504279775006114,0.6175824175824176,0.43902439024390244,1197.0
407.0,1.7114378228051046e+18,0.47127937336814624,0.4041095890410959,0.33297297297297296,0.5020787478601125,0.6274725274725275,0.43986543313709,1196.0
408.0,1.7114378228151322e+18,0.4765013054830287,0.4178082191780822,0.32216216216216215,0.5050134507214478,0.6329670329670329,0.4432296047098402,1197.0
409.0,1.7114378228251087e+18,0.47389033942558745,0.4006849315068493,0.3210810810810811,0.5067253607238934,0.6428571428571429,0.4415475189234651,1198.0
410.0,1.711437822835133e+18,0.47127937336814624,0.4178082191780822,0.33837837837837836,0.5023233064318905,0.6120879120879121,0.43650126156433977,1196.0
411.0,1.7114378228451057e+18,0.4765013054830287,0.4200913242009132,0.3389189189189189,0.5015896307165566,0.6318681318681318,0.4432296047098402,1195.0
412.0,1.7114378228551357e+18,0.47127937336814624,0.3995433789954338,0.3232432432432432,0.5047688921496698,0.6857142857142857,0.4415475189234651,1197.0
413.0,1.711437822865104e+18,0.4725848563968668,0.4063926940639269,0.33837837837837836,0.5006113964294449,0.6274725274725275,0.4373423044575273,1192.0
414.0,1.711437822875132e+18,0.47780678851174935,0.4121004566210046,0.32432432432432434,0.5050134507214478,0.6318681318681318,0.44238856181665265,1195.0
415.0,1.7114378228851052e+18,0.47127937336814624,0.4029680365296804,0.3264864864864865,0.5035460992907801,0.6472527472527473,0.43313708999158956,1192.0
416.0,1.7114378228951355e+18,0.47911227154047,0.410958904109589,0.3248648648648649,0.5006113964294449,0.6153846153846154,0.4381833473507149,1195.0
417.0,1.7114378229051046e+18,0.4765013054830287,0.4075342465753425,0.3286486486486486,0.5006113964294449,0.6142857142857143,0.43566021867115223,1194.0
418.0,1.7114378229151342e+18,0.47127937336814624,0.4018264840182648,0.3232432432432432,0.5030569821472243,0.6175824175824176,0.4381833473507149,1196.0
419.0,1.7114378229251046e+18,0.47389033942558745,0.3926940639269406,0.3183783783783784,0.4991440449987772,0.6164835164835165,0.4381833473507149,1196.0
420.0,1.7114378229351373e+18,0.47780678851174935,0.4246575342465753,0.35621621621621624,0.5030569821472243,0.6230769230769231,0.44238856181665265,1196.0
421.0,1.7114378229451057e+18,0.4725848563968668,0.4041095890410959,0.32756756756756755,0.5059916850085595,0.6824175824175824,0.4465937762825904,1195.0
422.0,1.7114378229551375e+18,0.4765013054830287,0.4292237442922374,0.35081081081081084,0.5020787478601125,0.6406593406593407,0.44238856181665265,1196.0
423.0,1.7114378229651044e+18,0.4765013054830287,0.4132420091324201,0.33513513513513515,0.4966984592809978,0.6054945054945055,0.43650126156433977,1196.0
424.0,1.7114378229751485e+18,0.47911227154047,0.4098173515981735,0.3302702702702703,0.5015896307165566,0.6186813186813187,0.4381833473507149,1196.0
425.0,1.7114378229851028e+18,0.48172323759791125,0.4531963470319635,0.3410810810810811,0.5011005135730008,0.6373626373626373,0.4432296047098402,1195.0
426.0,1.7114378229951263e+18,0.48433420365535246,0.4280821917808219,0.3335135135135135,0.5023233064318905,0.6241758241758242,0.4432296047098402,1193.0
427.0,1.711437823005104e+18,0.4751958224543081,0.4063926940639269,0.33405405405405403,0.5015896307165566,0.6384615384615384,0.4415475189234651,1197.0
428.0,1.711437823015128e+18,0.48433420365535246,0.4246575342465753,0.3291891891891892,0.5006113964294449,0.6164835164835165,0.43902439024390244,1195.0
429.0,1.7114378230251653e+18,0.47389033942558745,0.410958904109589,0.3318918918918919,0.5008559550012228,0.6362637362637362,0.4348191757779647,1197.0
430.0,1.7114378230351278e+18,0.47911227154047,0.4200913242009132,0.34756756756756757,0.5028124235754463,0.6285714285714286,0.4432296047098402,1196.0
431.0,1.7114378230451034e+18,0.47911227154047,0.4143835616438356,0.33945945945945943,0.5037906578625581,0.6318681318681318,0.43902439024390244,1196.0
432.0,1.7114378230551334e+18,0.4830287206266319,0.4315068493150685,0.3335135135135135,0.5047688921496698,0.6406593406593407,0.4415475189234651,1195.0
433.0,1.7114378230651064e+18,0.4765013054830287,0.432648401826484,0.3362162162162162,0.5023233064318905,0.6373626373626373,0.43313708999158956,1191.0
434.0,1.7114378230751347e+18,0.47780678851174935,0.4143835616438356,0.3372972972972973,0.5015896307165566,0.6131868131868132,0.4415475189234651,1194.0
435.0,1.7114378230851054e+18,0.4725848563968668,0.4063926940639269,0.32756756756756755,0.5028124235754463,0.6483516483516484,0.4339781328847771,1193.0
436.0,1.7114378230951388e+18,0.4725848563968668,0.3961187214611872,0.3216216216216216,0.5011005135730008,0.6153846153846154,0.43902439024390244,1194.0
437.0,1.7114378231051046e+18,0.47780678851174935,0.4041095890410959,0.32,0.504524333577892,0.6307692307692307,0.4415475189234651,1196.0
438.0,1.7114378231151409e+18,0.4765013054830287,0.4292237442922374,0.33837837837837836,0.5025678650036683,0.6241758241758242,0.43902439024390244,1196.0
439.0,1.711437823125108e+18,0.47127937336814624,0.4041095890410959,0.3264864864864865,0.5006113964294449,0.6263736263736264,0.4373423044575273,1194.0
440.0,1.711437823135131e+18,0.48172323759791125,0.4315068493150685,0.34324324324324323,0.5035460992907801,0.6318681318681318,0.4415475189234651,1193.0
441.0,1.711437823145104e+18,0.47911227154047,0.4509132420091324,0.3410810810810811,0.5030569821472243,0.6516483516483517,0.43313708999158956,1192.0
442.0,1.7114378231551217e+18,0.4804177545691906,0.4132420091324201,0.31891891891891894,0.5025678650036683,0.6032967032967033,0.4314550042052145,1191.0
443.0,1.7114378231651044e+18,0.47127937336814624,0.4029680365296804,0.3237837837837838,0.5006113964294449,0.621978021978022,0.4432296047098402,1195.0
444.0,1.711437823175165e+18,0.4765013054830287,0.4166666666666667,0.3324324324324324,0.5023233064318905,0.6164835164835165,0.4415475189234651,1197.0
445.0,1.7114378231851041e+18,0.47127937336814624,0.4178082191780822,0.34486486486486484,0.5003668378576669,0.6252747252747253,0.4339781328847771,1194.0
446.0,1.7114378231951311e+18,0.4765013054830287,0.4178082191780822,0.35027027027027025,0.5030569821472243,0.6274725274725275,0.44238856181665265,1197.0
447.0,1.7114378232051057e+18,0.4830287206266319,0.432648401826484,0.35783783783783785,0.5020787478601125,0.6153846153846154,0.4348191757779647,1195.0
448.0,1.71143782321513e+18,0.47389033942558745,0.4121004566210046,0.32216216216216215,0.49938860357055515,0.6186813186813187,0.4507989907485282,1197.0
449.0,1.711437823225162e+18,0.4856396866840731,0.4337899543378995,0.3248648648648649,0.5015896307165566,0.6296703296703297,0.43902439024390244,1196.0
450.0,1.7114378232351252e+18,0.46344647519582244,0.4052511415525114,0.3145945945945946,0.5001222792858889,0.6263736263736264,0.43566021867115223,1196.0
451.0,1.7114378232451602e+18,0.46475195822454307,0.4132420091324201,0.3389189189189189,0.5037906578625581,0.6329670329670329,0.43902439024390244,1197.0
452.0,1.7114378232551342e+18,0.48433420365535246,0.4269406392694064,0.3551351351351351,0.5015896307165566,0.5978021978021978,0.4415475189234651,1195.0
453.0,1.7114378232651067e+18,0.4765013054830287,0.4121004566210046,0.3302702702702703,0.5015896307165566,0.6450549450549451,0.4415475189234651,1193.0
454.0,1.7114378232751263e+18,0.4765013054830287,0.4098173515981735,0.3264864864864865,0.5008559550012228,0.6241758241758242,0.4339781328847771,1193.0
455.0,1.7114378232851046e+18,0.4725848563968668,0.4212328767123288,0.33675675675675676,0.5020787478601125,0.6373626373626373,0.44238856181665265,1197.0
456.0,1.7114378232951273e+18,0.4725848563968668,0.4246575342465753,0.34540540540540543,0.5015896307165566,0.6153846153846154,0.4415475189234651,1196.0
457.0,1.7114378233051034e+18,0.4830287206266319,0.4577625570776256,0.34540540540540543,0.5047688921496698,0.6472527472527473,0.44575273338940286,1195.0
458.0,1.711437823315127e+18,0.48433420365535246,0.4223744292237443,0.3227027027027027,0.504279775006114,0.6263736263736264,0.4415475189234651,1196.0
459.0,1.711437823325104e+18,0.4765013054830287,0.410958904109589,0.32216216216216215,0.4988994864269993,0.6252747252747253,0.43986543313709,1194.0
460.0,1.711437823335133e+18,0.4765013054830287,0.3961187214611872,0.3264864864864865,0.5001222792858889,0.6142857142857143,0.43902439024390244,1195.0
461.0,1.7114378233451054e+18,0.47389033942558745,0.4212328767123288,0.33837837837837836,0.5077035950110051,0.6758241758241759,0.45164003364171573,1194.0
462.0,1.711437823355128e+18,0.48172323759791125,0.4474885844748858,0.3810810810810811,0.5018341892883346,0.6274725274725275,0.4373423044575273,1196.0
463.0,1.711437823365104e+18,0.46475195822454307,0.4052511415525114,0.3302702702702703,0.499877720714111,0.6274725274725275,0.4449116904962153,1197.0
464.0,1.7114378233751255e+18,0.4725848563968668,0.410958904109589,0.31891891891891894,0.5008559550012228,0.6285714285714286,0.43650126156433977,1198.0
465.0,1.7114378233851041e+18,0.46866840731070497,0.4429223744292237,0.3643243243243243,0.5025678650036683,0.6362637362637362,0.4415475189234651,1197.0
466.0,1.7114378233951252e+18,0.47127937336814624,0.4178082191780822,0.3254054054054054,0.5018341892883346,0.6197802197802198,0.4348191757779647,1196.0
467.0,1.7114378234051046e+18,0.48433420365535246,0.4132420091324201,0.3324324324324324,0.4954756664221081,0.5956043956043956,0.4348191757779647,1196.0
468.0,1.7114378234151245e+18,0.47911227154047,0.4223744292237443,0.34702702702702704,0.4971875764245537,0.6230769230769231,0.4306139613120269,1194.0
469.0,1.7114378234251041e+18,0.4725848563968668,0.3995433789954338,0.3237837837837838,0.49816581071166544,0.6153846153846154,0.4482758620689655,1197.0
470.0,1.7114378234351465e+18,0.44778067885117495,0.4155251141552511,0.33297297297297296,0.5028124235754463,0.6054945054945055,0.4381833473507149,1196.0
471.0,1.711437823445104e+18,0.49738903394255873,0.408675799086758,0.33783783783783783,0.5015896307165566,0.6120879120879121,0.4314550042052145,1193.0
472.0,1.7114378234551255e+18,0.47389033942558745,0.4178082191780822,0.32972972972972975,0.5020787478601125,0.6175824175824176,0.4381833473507149,1195.0
473.0,1.7114378234651044e+18,0.47780678851174935,0.4178082191780822,0.3345945945945946,0.5018341892883346,0.6296703296703297,0.4415475189234651,1194.0
474.0,1.7114378234751245e+18,0.4869451697127937,0.4200913242009132,0.33513513513513515,0.5035460992907801,0.6274725274725275,0.4415475189234651,1195.0
475.0,1.7114378234851057e+18,0.44386422976501305,0.4212328767123288,0.3227027027027027,0.499877720714111,0.6252747252747253,0.4314550042052145,1195.0
476.0,1.71143782349513e+18,0.47911227154047,0.4200913242009132,0.3318918918918919,0.5015896307165566,0.621978021978022,0.4432296047098402,1195.0
477.0,1.7114378235051046e+18,0.4621409921671018,0.4292237442922374,0.3302702702702703,0.5035460992907801,0.6714285714285714,0.4306139613120269,1193.0
478.0,1.7114378235151242e+18,0.46475195822454307,0.4189497716894977,0.34054054054054056,0.5015896307165566,0.589010989010989,0.43566021867115223,1197.0
479.0,1.7114378235251046e+18,0.4725848563968668,0.3995433789954338,0.31945945945945947,0.5028124235754463,0.6318681318681318,0.42640874684608915,1193.0
480.0,1.7114378235351288e+18,0.48172323759791125,0.4223744292237443,0.34594594594594597,0.5020787478601125,0.5769230769230769,0.40117746005046256,1194.0
481.0,1.7114378235451062e+18,0.46736292428198434,0.4075342465753425,0.3345945945945946,0.504524333577892,0.6461538461538462,0.47098402018502944,1197.0
482.0,1.711437823555123e+18,0.49477806788511747,0.4246575342465753,0.3518918918918919,0.5030569821472243,0.6527472527472528,0.45836837678721615,1197.0
483.0,1.7114378235651062e+18,0.46866840731070497,0.4075342465753425,0.33945945945945943,0.4979212521398875,0.5692307692307692,0.40370058873002523,1194.0
484.0,1.7114378235751258e+18,0.47127937336814624,0.4143835616438356,0.3345945945945946,0.4971875764245537,0.5923076923076923,0.407905803195963,1194.0
485.0,1.7114378235851054e+18,0.4608355091383812,0.4052511415525114,0.3308108108108108,0.4971875764245537,0.4967032967032967,0.40706476030277544,1192.0
486.0,1.7114378235951252e+18,0.47911227154047,0.4372146118721461,0.35243243243243244,0.504279775006114,0.7065934065934066,0.432296047098402,1193.0
487.0,1.7114378236051036e+18,0.4725848563968668,0.4360730593607306,0.3345945945945946,0.504524333577892,0.5978021978021978,0.4280908326324643,1194.0
488.0,1.7114378236151242e+18,0.47780678851174935,0.432648401826484,0.32756756756756755,0.504035216434336,0.6318681318681318,0.43902439024390244,1193.0
489.0,1.7114378236251046e+18,0.49216710182767626,0.4178082191780822,0.3675675675675676,0.4984103692834434,0.6021978021978022,0.43313708999158956,1194.0
490.0,1.7114378236351214e+18,0.4765013054830287,0.4098173515981735,0.3362162162162162,0.5020787478601125,0.6351648351648351,0.42304457527333894,1193.0
491.0,1.711437823645105e+18,0.4660574412532637,0.4063926940639269,0.3281081081081081,0.49816581071166544,0.6032967032967033,0.447434819175778,1193.0
492.0,1.7114378236551288e+18,0.4516971279373368,0.3824200913242009,0.3308108108108108,0.5018341892883346,0.6076923076923076,0.432296047098402,1194.0
493.0,1.7114378236651052e+18,0.47911227154047,0.4132420091324201,0.3605405405405405,0.5035460992907801,0.6472527472527473,0.46173254835996635,1194.0
494.0,1.7114378236751283e+18,0.4621409921671018,0.4052511415525114,0.32972972972972975,0.5033015407190022,0.6758241758241759,0.4751892346509672,1195.0
495.0,1.7114378236851028e+18,0.4608355091383812,0.408675799086758,0.3389189189189189,0.504279775006114,0.6373626373626373,0.4533221194280908,1193.0
496.0,1.7114378236951363e+18,0.4608355091383812,0.430365296803653,0.33513513513513515,0.5006113964294449,0.621978021978022,0.4432296047098402,1193.0
497.0,1.7114378237051077e+18,0.4804177545691906,0.4098173515981735,0.32,0.49938860357055515,0.6197802197802198,0.45836837678721615,1195.0
498.0,1.7114378237151286e+18,0.5,0.45662100456621,0.33783783783783783,0.5064808021521154,0.6417582417582418,0.4129520605550883,1193.0
499.0,1.71143782372518e+18,0.4765013054830287,0.4052511415525114,0.3291891891891892,0.5003668378576669,0.654945054945055,0.45164003364171573,1196.0
500.0,1.7114378237351286e+18,0.48172323759791125,0.4440639269406393,0.32054054054054054,0.5013450721447786,0.6197802197802198,0.44238856181665265,1197.0
501.0,1.7114378237451062e+18,0.4830287206266319,0.4178082191780822,0.35081081081081084,0.49938860357055515,0.6285714285714286,0.4533221194280908,1196.0
502.0,1.7114378237551311e+18,0.49216710182767626,0.4280821917808219,0.3372972972972973,0.5030569821472243,0.6329670329670329,0.4432296047098402,1193.0
503.0,1.7114378237651057e+18,0.48433420365535246,0.4063926940639269,0.3183783783783784,0.4988994864269993,0.6241758241758242,0.45500420521446594,1196.0
504.0,1.7114378237751578e+18,0.4804177545691906,0.4132420091324201,0.33837837837837836,0.504035216434336,0.6307692307692307,0.44911690496215306,1197.0
505.0,1.7114378237851062e+18,0.46736292428198434,0.4018264840182648,0.3302702702702703,0.4988994864269993,0.6186813186813187,0.43986543313709,1197.0
506.0,1.7114378237951286e+18,0.4621409921671018,0.3824200913242009,0.32216216216216215,0.5030569821472243,0.6252747252747253,0.415475189234651,1193.0
507.0,1.7114378238051052e+18,0.46736292428198434,0.4006849315068493,0.32432432432432434,0.5023233064318905,0.5901098901098901,0.4179983179142136,1194.0
508.0,1.7114378238151265e+18,0.46866840731070497,0.4098173515981735,0.3389189189189189,0.4991440449987772,0.6175824175824176,0.42640874684608915,1194.0
509.0,1.7114378238251546e+18,0.46736292428198434,0.4041095890410959,0.32432432432432434,0.4988994864269993,0.6175824175824176,0.4314550042052145,1194.0
510.0,1.711437823835129e+18,0.4804177545691906,0.4200913242009132,0.3318918918918919,0.5015896307165566,0.6208791208791209,0.4449116904962153,1195.0
511.0,1.7114378238451054e+18,0.4660574412532637,0.4200913242009132,0.33837837837837836,0.5023233064318905,0.6483516483516484,0.447434819175778,1195.0
512.0,1.711437823855126e+18,0.47389033942558745,0.4075342465753425,0.33837837837837836,0.5015896307165566,0.6230769230769231,0.4373423044575273,1196.0
513.0,1.7114378238651044e+18,0.4660574412532637,0.365296803652968,0.3227027027027027,0.4996331621423331,0.6131868131868132,0.46173254835996635,1196.0
514.0,1.711437823875123e+18,0.4725848563968668,0.3995433789954338,0.33297297297297296,0.4988994864269993,0.6186813186813187,0.45164003364171573,1195.0
515.0,1.7114378238851054e+18,0.47389033942558745,0.4178082191780822,0.34486486486486484,0.4996331621423331,0.6153846153846154,0.432296047098402,1194.0
516.0,1.7114378238951378e+18,0.4765013054830287,0.430365296803653,0.35027027027027025,0.49767669356810956,0.6197802197802198,0.4280908326324643,1194.0
517.0,1.711437823905107e+18,0.47911227154047,0.4132420091324201,0.33945945945945943,0.49816581071166544,0.6142857142857143,0.4188393608074012,1194.0
518.0,1.711437823915133e+18,0.46475195822454307,0.4041095890410959,0.3362162162162162,0.5015896307165566,0.6362637362637362,0.43986543313709,1198.0
519.0,1.7114378239251927e+18,0.4765013054830287,0.4041095890410959,0.3216216216216216,0.49938860357055515,0.6274725274725275,0.464255677039529,1197.0
520.0,1.711437823935128e+18,0.47911227154047,0.4189497716894977,0.3302702702702703,0.5003668378576669,0.6417582417582418,0.43650126156433977,1195.0
521.0,1.7114378239451085e+18,0.4804177545691906,0.4417808219178082,0.33837837837837836,0.49938860357055515,0.6153846153846154,0.43650126156433977,1195.0
522.0,1.711437823955131e+18,0.48825065274151436,0.4280821917808219,0.3291891891891892,0.5013450721447786,0.6362637362637362,0.43986543313709,1195.0
523.0,1.7114378239651062e+18,0.47127937336814624,0.4029680365296804,0.3232432432432432,0.5011005135730008,0.6175824175824176,0.4280908326324643,1194.0
524.0,1.711437823975125e+18,0.4765013054830287,0.4178082191780822,0.3481081081081081,0.4991440449987772,0.6131868131868132,0.43650126156433977,1198.0
525.0,1.7114378239851046e+18,0.47911227154047,0.4360730593607306,0.36162162162162165,0.5015896307165566,0.6263736263736264,0.4449116904962153,1194.0
526.0,1.7114378239951212e+18,0.47127937336814624,0.410958904109589,0.3302702702702703,0.5015896307165566,0.621978021978022,0.42977291841883936,1194.0
527.0,1.7114378240051044e+18,0.4725848563968668,0.4189497716894977,0.34864864864864864,0.5003668378576669,0.6274725274725275,0.4381833473507149,1197.0
528.0,1.71143782401512e+18,0.47911227154047,0.4474885844748858,0.3410810810810811,0.5035460992907801,0.6274725274725275,0.4465937762825904,1197.0
529.0,1.7114378240251036e+18,0.4699738903394256,0.4223744292237443,0.3254054054054054,0.4988994864269993,0.6274725274725275,0.4314550042052145,1192.0
530.0,1.7114378240351227e+18,0.4804177545691906,0.4212328767123288,0.33675675675675676,0.5025678650036683,0.6296703296703297,0.44238856181665265,1194.0
531.0,1.7114378240451057e+18,0.4765013054830287,0.4063926940639269,0.3427027027027027,0.4996331621423331,0.6175824175824176,0.4415475189234651,1196.0
532.0,1.7114378240551314e+18,0.47780678851174935,0.410958904109589,0.34756756756756757,0.5008559550012228,0.6241758241758242,0.432296047098402,1192.0
533.0,1.7114378240651052e+18,0.47127937336814624,0.4269406392694064,0.3362162162162162,0.5003668378576669,0.6274725274725275,0.4381833473507149,1195.0
534.0,1.7114378240751311e+18,0.4765013054830287,0.4132420091324201,0.3308108108108108,0.5015896307165566,0.6076923076923076,0.43902439024390244,1194.0
535.0,1.7114378240851039e+18,0.48172323759791125,0.4052511415525114,0.3264864864864865,0.4986549278552213,0.610989010989011,0.4247266610597141,1192.0
536.0,1.7114378240951314e+18,0.4830287206266319,0.4452054794520548,0.3572972972972973,0.504524333577892,0.6032967032967033,0.4247266610597141,1193.0
537.0,1.7114378241051041e+18,0.4765013054830287,0.4063926940639269,0.3281081081081081,0.4988994864269993,0.6131868131868132,0.4348191757779647,1196.0
538.0,1.7114378241151273e+18,0.47127937336814624,0.4155251141552511,0.3335135135135135,0.5028124235754463,0.6241758241758242,0.4415475189234651,1196.0
539.0,1.7114378241251052e+18,0.4765013054830287,0.410958904109589,0.3345945945945946,0.5003668378576669,0.6285714285714286,0.4373423044575273,1196.0
540.0,1.7114378241351434e+18,0.4765013054830287,0.4121004566210046,0.32594594594594595,0.5020787478601125,0.5901098901098901,0.4482758620689655,1192.0
541.0,1.7114378241451072e+18,0.47780678851174935,0.4200913242009132,0.35081081081081084,0.5028124235754463,0.6208791208791209,0.42977291841883936,1192.0
542.0,1.711437824155128e+18,0.4725848563968668,0.3904109589041096,0.32972972972972975,0.5008559550012228,0.621978021978022,0.432296047098402,1192.0
543.0,1.7114378241651052e+18,0.4830287206266319,0.4052511415525114,0.33135135135135135,0.5015896307165566,0.6274725274725275,0.4373423044575273,1194.0
544.0,1.7114378241751273e+18,0.4751958224543081,0.4166666666666667,0.3345945945945946,0.5015896307165566,0.6329670329670329,0.4381833473507149,1197.0
545.0,1.711437824185106e+18,0.4765013054830287,0.4098173515981735,0.32432432432432434,0.49620934213744194,0.6120879120879121,0.4415475189234651,1195.0
546.0,1.71143782419513e+18,0.47780678851174935,0.4178082191780822,0.3210810810810811,0.5008559550012228,0.6417582417582418,0.44238856181665265,1197.0
547.0,1.711437824205104e+18,0.46344647519582244,0.4098173515981735,0.34,0.4984103692834434,0.6164835164835165,0.4432296047098402,1194.0
548.0,1.711437824215125e+18,0.4869451697127937,0.4394977168949772,0.3535135135135135,0.5023233064318905,0.6197802197802198,0.4381833473507149,1195.0
549.0,1.7114378242251046e+18,0.47911227154047,0.4178082191780822,0.3497297297297297,0.5003668378576669,0.634065934065934,0.4381833473507149,1197.0
550.0,1.711437824235128e+18,0.47127937336814624,0.3904109589041096,0.33837837837837836,0.5006113964294449,0.6285714285714286,0.4213624894869638,1192.0
551.0,1.711437824245106e+18,0.47780678851174935,0.3755707762557078,0.3232432432432432,0.5008559550012228,0.621978021978022,0.4381833473507149,1193.0
552.0,1.7114378242551237e+18,0.46866840731070497,0.4098173515981735,0.3497297297297297,0.5079481535827831,0.6472527472527473,0.43986543313709,1196.0
553.0,1.7114378242651052e+18,0.47780678851174935,0.4098173515981735,0.33513513513513515,0.5011005135730008,0.6285714285714286,0.43566021867115223,1193.0
554.0,1.7114378242751224e+18,0.4765013054830287,0.4143835616438356,0.3345945945945946,0.5057471264367817,0.6098901098901099,0.45164003364171573,1194.0
555.0,1.7114378242851085e+18,0.4725848563968668,0.4098173515981735,0.32972972972972975,0.49938860357055515,0.6142857142857143,0.43566021867115223,1195.0
556.0,1.7114378242951288e+18,0.4869451697127937,0.4189497716894977,0.33135135135135135,0.5035460992907801,0.6285714285714286,0.432296047098402,1192.0
557.0,1.7114378243051054e+18,0.4765013054830287,0.408675799086758,0.32594594594594595,0.4979212521398875,0.6010989010989011,0.4280908326324643,1194.0
558.0,1.7114378243151311e+18,0.49216710182767626,0.432648401826484,0.33405405405405403,0.5013450721447786,0.6208791208791209,0.44575273338940286,1195.0
559.0,1.7114378243251098e+18,0.4765013054830287,0.4052511415525114,0.327027027027027,0.49816581071166544,0.6252747252747253,0.43566021867115223,1195.0
560.0,1.7114378243351273e+18,0.49216710182767626,0.4315068493150685,0.33837837837837836,0.5028124235754463,0.6175824175824176,0.44575273338940286,1196.0
561.0,1.7114378243451057e+18,0.45039164490861616,0.4052511415525114,0.32972972972972975,0.5006113964294449,0.6274725274725275,0.4255677039529016,1193.0
562.0,1.7114378243551299e+18,0.48825065274151436,0.4257990867579909,0.34486486486486484,0.5050134507214478,0.6362637362637362,0.4415475189234651,1196.0
563.0,1.711437824365104e+18,0.47127937336814624,0.4132420091324201,0.3362162162162162,0.5011005135730008,0.6175824175824176,0.4381833473507149,1197.0
564.0,1.711437824375132e+18,0.47389033942558745,0.4178082191780822,0.3345945945945946,0.5064808021521154,0.6417582417582418,0.4415475189234651,1198.0
565.0,1.7114378243851036e+18,0.47780678851174935,0.4372146118721461,0.3264864864864865,0.5015896307165566,0.6285714285714286,0.4348191757779647,1198.0
566.0,1.7114378243951148e+18,0.4830287206266319,0.4223744292237443,0.31513513513513514,0.5033015407190022,0.6296703296703297,0.43902439024390244,1195.0
567.0,1.7114378244051044e+18,0.46475195822454307,0.4063926940639269,0.33297297297297296,0.5037906578625581,0.6681318681318681,0.4432296047098402,1196.0
568.0,1.711437824415126e+18,0.4725848563968668,0.4143835616438356,0.3281081081081081,0.49938860357055515,0.6032967032967033,0.44911690496215306,1194.0
569.0,1.7114378244251041e+18,0.47389033942558745,0.4132420091324201,0.3491891891891892,0.5011005135730008,0.6494505494505495,0.4280908326324643,1194.0
570.0,1.7114378244351316e+18,0.4765013054830287,0.4132420091324201,0.34486486486486484,0.5050134507214478,0.6373626373626373,0.44238856181665265,1200.0
571.0,1.711437824445105e+18,0.4765013054830287,0.3915525114155251,0.33135135135135135,0.5015896307165566,0.6362637362637362,0.4432296047098402,1194.0
572.0,1.711437824455128e+18,0.47780678851174935,0.4235159817351598,0.3389189189189189,0.5047688921496698,0.6252747252747253,0.4348191757779647,1194.0
573.0,1.711437824465104e+18,0.4595300261096606,0.4269406392694064,0.3264864864864865,0.5035460992907801,0.6384615384615384,0.43986543313709,1196.0
574.0,1.7114378244751526e+18,0.4725848563968668,0.4155251141552511,0.3335135135135135,0.5020787478601125,0.6318681318681318,0.4415475189234651,1194.0
575.0,1.7114378244851085e+18,0.48172323759791125,0.410958904109589,0.3318918918918919,0.4986549278552213,0.610989010989011,0.4625735912531539,1196.0
576.0,1.7114378244951306e+18,0.47127937336814624,0.3835616438356164,0.3318918918918919,0.504524333577892,0.6274725274725275,0.4415475189234651,1197.0
577.0,1.7114378245051036e+18,0.47911227154047,0.4075342465753425,0.3675675675675676,0.5018341892883346,0.6296703296703297,0.45164003364171573,1196.0
578.0,1.7114378245151255e+18,0.4725848563968668,0.4121004566210046,0.3291891891891892,0.5020787478601125,0.6274725274725275,0.43650126156433977,1196.0
579.0,1.711437824525112e+18,0.48172323759791125,0.4178082191780822,0.32972972972972975,0.5001222792858889,0.6153846153846154,0.4280908326324643,1193.0
580.0,1.7114378245351296e+18,0.46475195822454307,0.4280821917808219,0.3286486486486486,0.4979212521398875,0.6,0.43566021867115223,1197.0
581.0,1.7114378245451075e+18,0.46344647519582244,0.4052511415525114,0.3145945945945946,0.5020787478601125,0.6384615384615384,0.4121110176619008,1194.0
582.0,1.7114378245551278e+18,0.48825065274151436,0.4577625570776256,0.33675675675675676,0.5015896307165566,0.6208791208791209,0.432296047098402,1192.0
583.0,1.711437824565104e+18,0.47911227154047,0.4178082191780822,0.3232432432432432,0.5077035950110051,0.6659340659340659,0.4499579478553406,1197.0
584.0,1.711437824575127e+18,0.4765013054830287,0.410958904109589,0.3308108108108108,0.5020787478601125,0.6197802197802198,0.4381833473507149,1196.0
585.0,1.7114378245851064e+18,0.4725848563968668,0.4155251141552511,0.3551351351351351,0.5001222792858889,0.6263736263736264,0.43902439024390244,1197.0
586.0,1.7114378245951296e+18,0.47389033942558745,0.4132420091324201,0.3248648648648649,0.499877720714111,0.6164835164835165,0.43986543313709,1196.0
587.0,1.7114378246051054e+18,0.47127937336814624,0.4155251141552511,0.3491891891891892,0.5037906578625581,0.634065934065934,0.4222035323801514,1193.0
588.0,1.7114378246151255e+18,0.48172323759791125,0.45662100456621,0.34864864864864864,0.5011005135730008,0.6142857142857143,0.43566021867115223,1198.0
589.0,1.7114378246251668e+18,0.46866840731070497,0.4006849315068493,0.32756756756756755,0.49938860357055515,0.6175824175824176,0.4381833473507149,1194.0
590.0,1.7114378246351153e+18,0.4556135770234987,0.4041095890410959,0.3308108108108108,0.5008559550012228,0.6241758241758242,0.4381833473507149,1196.0
591.0,1.7114378246451052e+18,0.47780678851174935,0.4360730593607306,0.36,0.5008559550012228,0.6329670329670329,0.4348191757779647,1198.0
592.0,1.7114378246551245e+18,0.47780678851174935,0.4132420091324201,0.32756756756756755,0.5025678650036683,0.6175824175824176,0.43986543313709,1196.0
593.0,1.711437824665107e+18,0.47127937336814624,0.4098173515981735,0.32756756756756755,0.4984103692834434,0.6076923076923076,0.4272497897392767,1189.0
594.0,1.7114378246751286e+18,0.45691906005221933,0.408675799086758,0.31027027027027027,0.5037906578625581,0.6164835164835165,0.4507989907485282,1194.0
595.0,1.7114378246851062e+18,0.489556135770235,0.430365296803653,0.37135135135135133,0.5050134507214478,0.6725274725274726,0.4449116904962153,1196.0
596.0,1.711437824695118e+18,0.47389033942558745,0.4098173515981735,0.32756756756756755,0.5015896307165566,0.6230769230769231,0.4339781328847771,1193.0
597.0,1.711437824705107e+18,0.47389033942558745,0.4121004566210046,0.3389189189189189,0.5015896307165566,0.6307692307692307,0.43986543313709,1196.0
598.0,1.7114378247151276e+18,0.47780678851174935,0.4452054794520548,0.3362162162162162,0.4969430178527757,0.5967032967032967,0.4415475189234651,1197.0
599.0,1.7114378247251077e+18,0.47780678851174935,0.4132420091324201,0.3286486486486486,0.4991440449987772,0.6120879120879121,0.43566021867115223,1196.0
600.0,1.7114378247351519e+18,0.48433420365535246,0.4098173515981735,0.3427027027027027,0.5028124235754463,0.6274725274725275,0.43902439024390244,1193.0
601.0,1.7114378247451057e+18,0.4725848563968668,0.4132420091324201,0.34486486486486484,0.4996331621423331,0.6450549450549451,0.4819175777964676,1196.0
602.0,1.711437824755135e+18,0.48172323759791125,0.4246575342465753,0.35135135135135137,0.4986549278552213,0.5912087912087912,0.4280908326324643,1192.0
603.0,1.7114378247651062e+18,0.46344647519582244,0.4018264840182648,0.3302702702702703,0.49938860357055515,0.6241758241758242,0.4415475189234651,1196.0
604.0,1.711437824775128e+18,0.4765013054830287,0.4178082191780822,0.3491891891891892,0.5025678650036683,0.6208791208791209,0.43986543313709,1197.0
605.0,1.7114378247851082e+18,0.4725848563968668,0.408675799086758,0.3410810810810811,0.4988994864269993,0.6230769230769231,0.43986543313709,1194.0
606.0,1.7114378247951258e+18,0.47127937336814624,0.4121004566210046,0.3302702702702703,0.5025678650036683,0.6186813186813187,0.4415475189234651,1194.0
607.0,1.7114378248051046e+18,0.47911227154047,0.4098173515981735,0.3335135135135135,0.4988994864269993,0.6252747252747253,0.4339781328847771,1192.0
608.0,1.7114378248151299e+18,0.489556135770235,0.4372146118721461,0.3302702702702703,0.5023233064318905,0.6076923076923076,0.45248107653490327,1195.0
609.0,1.7114378248251052e+18,0.4725848563968668,0.410958904109589,0.3535135135135135,0.5015896307165566,0.6384615384615384,0.43313708999158956,1193.0
610.0,1.7114378248351327e+18,0.4830287206266319,0.4143835616438356,0.33135135135135135,0.5028124235754463,0.6274725274725275,0.44911690496215306,1197.0
611.0,1.7114378248451072e+18,0.4908616187989556,0.4417808219178082,0.352972972972973,0.5015896307165566,0.6307692307692307,0.4415475189234651,1194.0
612.0,1.7114378248551255e+18,0.48825065274151436,0.3961187214611872,0.2951351351351351,0.499877720714111,0.6,0.4247266610597141,1194.0
613.0,1.7114378248651108e+18,0.4725848563968668,0.3858447488584475,0.32594594594594595,0.5006113964294449,0.6241758241758242,0.4381833473507149,1193.0
614.0,1.7114378248751255e+18,0.47911227154047,0.3972602739726027,0.3237837837837838,0.495720224993886,0.6054945054945055,0.44575273338940286,1194.0
615.0,1.7114378248851085e+18,0.4830287206266319,0.4474885844748858,0.35621621621621624,0.5020787478601125,0.6307692307692307,0.4558452481076535,1196.0
616.0,1.7114378248951255e+18,0.46866840731070497,0.4029680365296804,0.31405405405405407,0.5011005135730008,0.610989010989011,0.43650126156433977,1196.0
617.0,1.711437824905106e+18,0.47780678851174935,0.4178082191780822,0.33297297297297296,0.5013450721447786,0.6307692307692307,0.45248107653490327,1194.0
618.0,1.7114378249151258e+18,0.46736292428198434,0.4041095890410959,0.3210810810810811,0.5001222792858889,0.6230769230769231,0.43566021867115223,1194.0
619.0,1.7114378249251103e+18,0.5104438642297651,0.4554794520547945,0.39135135135135135,0.5035460992907801,0.6406593406593407,0.4373423044575273,1196.0
620.0,1.7114378249351322e+18,0.4869451697127937,0.4143835616438356,0.3254054054054054,0.4991440449987772,0.5934065934065934,0.4373423044575273,1195.0
621.0,1.711437824945106e+18,0.4412532637075718,0.4052511415525114,0.3491891891891892,0.5003668378576669,0.6175824175824176,0.432296047098402,1192.0
622.0,1.711437824955128e+18,0.5117493472584856,0.4098173515981735,0.35783783783783785,0.5011005135730008,0.6329670329670329,0.43566021867115223,1196.0
623.0,1.7114378249651057e+18,0.5182767624020888,0.4315068493150685,0.3783783783783784,0.4991440449987772,0.6186813186813187,0.4306139613120269,1192.0
624.0,1.7114378249751288e+18,0.48172323759791125,0.4018264840182648,0.3037837837837838,0.5003668378576669,0.6241758241758242,0.4247266610597141,1197.0
625.0,1.711437824985107e+18,0.4830287206266319,0.454337899543379,0.3945945945945946,0.5079481535827831,0.6813186813186813,0.45500420521446594,1194.0
626.0,1.7114378249951194e+18,0.5026109660574413,0.4121004566210046,0.3237837837837838,0.5011005135730008,0.6164835164835165,0.4381833473507149,1197.0
627.0,1.7114378250051092e+18,0.5078328981723238,0.4132420091324201,0.3286486486486486,0.5006113964294449,0.6362637362637362,0.43650126156433977,1196.0
628.0,1.71143782501513e+18,0.4360313315926893,0.3995433789954338,0.3286486486486486,0.5047688921496698,0.6626373626373626,0.43650126156433977,1196.0
629.0,1.7114378250251062e+18,0.4830287206266319,0.4121004566210046,0.3021621621621622,0.5003668378576669,0.6329670329670329,0.4785534062237174,1195.0
630.0,1.7114378250351214e+18,0.49216710182767626,0.4497716894977169,0.34162162162162163,0.5001222792858889,0.6274725274725275,0.4339781328847771,1193.0
631.0,1.711437825045106e+18,0.5091383812010444,0.3961187214611872,0.31567567567567567,0.5006113964294449,0.6252747252747253,0.4247266610597141,1192.0
632.0,1.7114378250551293e+18,0.45691906005221933,0.4143835616438356,0.33135135135135135,0.5015896307165566,0.6197802197802198,0.43566021867115223,1195.0
633.0,1.711437825065109e+18,0.46736292428198434,0.3995433789954338,0.3216216216216216,0.49938860357055515,0.6296703296703297,0.4415475189234651,1193.0
634.0,1.7114378250751286e+18,0.46866840731070497,0.4178082191780822,0.3216216216216216,0.5015896307165566,0.6175824175824176,0.43902439024390244,1197.0
635.0,1.711437825085106e+18,0.4765013054830287,0.4143835616438356,0.35405405405405405,0.5003668378576669,0.6197802197802198,0.44238856181665265,1195.0
636.0,1.7114378250951288e+18,0.48825065274151436,0.4200913242009132,0.31675675675675674,0.5013450721447786,0.6021978021978022,0.4280908326324643,1194.0
637.0,1.7114378251051062e+18,0.47911227154047,0.4075342465753425,0.3281081081081081,0.5006113964294449,0.6241758241758242,0.4306139613120269,1194.0
638.0,1.711437825115128e+18,0.4869451697127937,0.4178082191780822,0.3291891891891892,0.5025678650036683,0.6252747252747253,0.44238856181665265,1196.0
639.0,1.7114378251251044e+18,0.47780678851174935,0.4223744292237443,0.3345945945945946,0.5015896307165566,0.6285714285714286,0.4415475189234651,1195.0
640.0,1.7114378251351447e+18,0.46736292428198434,0.4121004566210046,0.32054054054054054,0.5015896307165566,0.6318681318681318,0.4852817493692178,1196.0
641.0,1.7114378251451075e+18,0.47780678851174935,0.4052511415525114,0.32432432432432434,0.4984103692834434,0.6230769230769231,0.43313708999158956,1194.0
642.0,1.711437825155124e+18,0.47389033942558745,0.4075342465753425,0.34216216216216216,0.4996331621423331,0.6208791208791209,0.4373423044575273,1195.0
643.0,1.7114378251651064e+18,0.4725848563968668,0.4029680365296804,0.3427027027027027,0.5015896307165566,0.6373626373626373,0.4381833473507149,1196.0
644.0,1.7114378251751265e+18,0.46344647519582244,0.4041095890410959,0.3308108108108108,0.5018341892883346,0.6274725274725275,0.4381833473507149,1196.0
645.0,1.7114378251851612e+18,0.4856396866840731,0.4349315068493151,0.35945945945945945,0.4988994864269993,0.6274725274725275,0.4465937762825904,1196.0
646.0,1.71143782519512e+18,0.47780678851174935,0.386986301369863,0.31675675675675674,0.4996331621423331,0.6186813186813187,0.44911690496215306,1196.0
647.0,1.7114378252051044e+18,0.4751958224543081,0.386986301369863,0.3183783783783784,0.5006113964294449,0.6274725274725275,0.46846089150546677,1197.0
648.0,1.7114378252151255e+18,0.4830287206266319,0.4212328767123288,0.3227027027027027,0.504035216434336,0.6373626373626373,0.4499579478553406,1196.0
649.0,1.711437825225111e+18,0.4699738903394256,0.408675799086758,0.33405405405405403,0.4996331621423331,0.6296703296703297,0.432296047098402,1193.0
650.0,1.711437825235137e+18,0.5026109660574413,0.432648401826484,0.34324324324324323,0.5035460992907801,0.6296703296703297,0.464255677039529,1195.0
651.0,1.711437825245105e+18,0.4725848563968668,0.410958904109589,0.3302702702702703,0.5006113964294449,0.6142857142857143,0.4449116904962153,1195.0
652.0,1.711437825255116e+18,0.47127937336814624,0.4315068493150685,0.3232432432432432,0.5023233064318905,0.634065934065934,0.4280908326324643,1193.0
653.0,1.7114378252651054e+18,0.46475195822454307,0.3687214611872146,0.307027027027027,0.49938860357055515,0.6285714285714286,0.4625735912531539,1195.0
654.0,1.711437825275147e+18,0.4869451697127937,0.432648401826484,0.3410810810810811,0.5030569821472243,0.6285714285714286,0.45500420521446594,1195.0
655.0,1.711437825285107e+18,0.48172323759791125,0.4189497716894977,0.35135135135135137,0.5025678650036683,0.6362637362637362,0.4415475189234651,1195.0
656.0,1.7114378252951396e+18,0.46736292428198434,0.4155251141552511,0.3254054054054054,0.4986549278552213,0.6021978021978022,0.42977291841883936,1193.0
657.0,1.7114378253051052e+18,0.4869451697127937,0.4315068493150685,0.3989189189189189,0.5089263878698949,0.6472527472527473,0.4449116904962153,1197.0
658.0,1.7114378253151237e+18,0.4699738903394256,0.4155251141552511,0.3345945945945946,0.5006113964294449,0.6208791208791209,0.43566021867115223,1196.0
659.0,1.7114378253251046e+18,0.47127937336814624,0.4143835616438356,0.3178378378378378,0.5015896307165566,0.6450549450549451,0.4415475189234651,1196.0
660.0,1.7114378253351268e+18,0.4765013054830287,0.4497716894977169,0.3389189189189189,0.5015896307165566,0.6285714285714286,0.43313708999158956,1195.0
661.0,1.711437825345105e+18,0.49216710182767626,0.4383561643835616,0.3237837837837838,0.5015896307165566,0.6329670329670329,0.4415475189234651,1196.0
662.0,1.7114378253551224e+18,0.47127937336814624,0.4132420091324201,0.3291891891891892,0.4971875764245537,0.5978021978021978,0.4348191757779647,1196.0
663.0,1.7114378253651044e+18,0.47389033942558745,0.4132420091324201,0.3362162162162162,0.49938860357055515,0.6197802197802198,0.43902439024390244,1196.0
664.0,1.711437825375144e+18,0.46866840731070497,0.4143835616438356,0.3345945945945946,0.5018341892883346,0.6142857142857143,0.4247266610597141,1194.0
665.0,1.7114378253851118e+18,0.47389033942558745,0.4360730593607306,0.38594594594594595,0.5033015407190022,0.6285714285714286,0.46173254835996635,1197.0
666.0,1.7114378253951316e+18,0.48433420365535246,0.4235159817351598,0.34216216216216216,0.5025678650036683,0.6164835164835165,0.4289318755256518,1195.0
667.0,1.7114378254051046e+18,0.47127937336814624,0.4132420091324201,0.3318918918918919,0.499877720714111,0.6274725274725275,0.432296047098402,1194.0
668.0,1.7114378254151258e+18,0.4765013054830287,0.4589041095890411,0.34162162162162163,0.5028124235754463,0.6197802197802198,0.43902439024390244,1197.0
669.0,1.7114378254251052e+18,0.48172323759791125,0.4246575342465753,0.3427027027027027,0.49938860357055515,0.6175824175824176,0.43566021867115223,1197.0
670.0,1.7114378254351631e+18,0.4869451697127937,0.4223744292237443,0.3481081081081081,0.5037906578625581,0.6472527472527473,0.4179983179142136,1194.0
671.0,1.7114378254451072e+18,0.49738903394255873,0.4223744292237443,0.34054054054054056,0.499877720714111,0.634065934065934,0.4667788057190917,1197.0
672.0,1.7114378254551265e+18,0.489556135770235,0.4189497716894977,0.3302702702702703,0.4996331621423331,0.5945054945054945,0.4339781328847771,1193.0
673.0,1.7114378254651036e+18,0.47127937336814624,0.4132420091324201,0.3362162162162162,0.499877720714111,0.6153846153846154,0.4348191757779647,1193.0
674.0,1.711437825475192e+18,0.47780678851174935,0.4611872146118721,0.34540540540540543,0.5025678650036683,0.621978021978022,0.43902439024390244,1196.0
675.0,1.7114378254851057e+18,0.47911227154047,0.4052511415525114,0.3248648648648649,0.499877720714111,0.6274725274725275,0.4381833473507149,1195.0
676.0,1.711437825495131e+18,0.4725848563968668,0.4189497716894977,0.3389189189189189,0.5018341892883346,0.6120879120879121,0.43650126156433977,1196.0
677.0,1.711437825505105e+18,0.47780678851174935,0.4223744292237443,0.32432432432432434,0.5003668378576669,0.621978021978022,0.43902439024390244,1195.0
678.0,1.7114378255151255e+18,0.4725848563968668,0.408675799086758,0.3362162162162162,0.5025678650036683,0.6472527472527473,0.4415475189234651,1196.0
679.0,1.711437825525165e+18,0.4725848563968668,0.4063926940639269,0.32432432432432434,0.5015896307165566,0.6362637362637362,0.4465937762825904,1195.0
680.0,1.7114378255351398e+18,0.46475195822454307,0.4235159817351598,0.3210810810810811,0.5059916850085595,0.6461538461538462,0.4482758620689655,1196.0
681.0,1.7114378255451041e+18,0.4725848563968668,0.4075342465753425,0.32432432432432434,0.49938860357055515,0.6296703296703297,0.4188393608074012,1193.0
682.0,1.711437825555124e+18,0.48172323759791125,0.4292237442922374,0.35783783783783785,0.5020787478601125,0.6241758241758242,0.43566021867115223,1196.0
683.0,1.7114378255651057e+18,0.47127937336814624,0.3961187214611872,0.32756756756756755,0.5006113964294449,0.6318681318681318,0.4415475189234651,1199.0
684.0,1.711437825575137e+18,0.4934725848563969,0.4360730593607306,0.35621621621621624,0.5030569821472243,0.6098901098901099,0.4381833473507149,1197.0
685.0,1.7114378255851026e+18,0.4804177545691906,0.4143835616438356,0.3362162162162162,0.4996331621423331,0.6252747252747253,0.432296047098402,1193.0
686.0,1.7114378255951222e+18,0.46344647519582244,0.4006849315068493,0.32,0.5035460992907801,0.6186813186813187,0.4634146341463415,1197.0
687.0,1.7114378256051052e+18,0.47911227154047,0.4155251141552511,0.3227027027027027,0.4991440449987772,0.610989010989011,0.4482758620689655,1197.0
688.0,1.7114378256151242e+18,0.4608355091383812,0.384703196347032,0.3248648648648649,0.5059916850085595,0.621978021978022,0.44911690496215306,1197.0
689.0,1.711437825625169e+18,0.46736292428198434,0.3915525114155251,0.32756756756756755,0.49816581071166544,0.6120879120879121,0.4339781328847771,1197.0
690.0,1.711437825635134e+18,0.47389033942558745,0.4098173515981735,0.3232432432432432,0.5025678650036683,0.6186813186813187,0.4449116904962153,1197.0
691.0,1.7114378256451039e+18,0.4765013054830287,0.4143835616438356,0.34540540540540543,0.5006113964294449,0.6230769230769231,0.43986543313709,1196.0
692.0,1.7114378256551334e+18,0.46475195822454307,0.4052511415525114,0.3372972972972973,0.5020787478601125,0.6450549450549451,0.4440706476030278,1196.0
693.0,1.7114378256651054e+18,0.4765013054830287,0.4052511415525114,0.32,0.4996331621423331,0.6,0.432296047098402,1192.0
694.0,1.7114378256751624e+18,0.48433420365535246,0.4531963470319635,0.33837837837837836,0.5020787478601125,0.6164835164835165,0.4348191757779647,1195.0
695.0,1.7114378256851046e+18,0.47780678851174935,0.4132420091324201,0.3335135135135135,0.5033015407190022,0.6582417582417582,0.45164003364171573,1196.0
696.0,1.7114378256951237e+18,0.48172323759791125,0.4200913242009132,0.3335135135135135,0.5052580092932257,0.6153846153846154,0.4373423044575273,1195.0
697.0,1.7114378257051052e+18,0.4804177545691906,0.4155251141552511,0.33297297297297296,0.49938860357055515,0.6032967032967033,0.4339781328847771,1193.0
698.0,1.711437825715123e+18,0.46344647519582244,0.410958904109589,0.3362162162162162,0.5003668378576669,0.6153846153846154,0.4339781328847771,1193.0
699.0,1.7114378257251039e+18,0.48172323759791125,0.4600456621004566,0.3978378378378378,0.5103937393005625,0.6296703296703297,0.447434819175778,1195.0
700.0,1.7114378257351378e+18,0.46736292428198434,0.4178082191780822,0.33135135135135135,0.5059916850085595,0.6384615384615384,0.432296047098402,1192.0
701.0,1.7114378257451044e+18,0.489556135770235,0.4121004566210046,0.32432432432432434,0.5011005135730008,0.6263736263736264,0.42977291841883936,1193.0
702.0,1.7114378257551273e+18,0.4804177545691906,0.4235159817351598,0.3497297297297297,0.5020787478601125,0.6274725274725275,0.4415475189234651,1197.0
703.0,1.7114378257651036e+18,0.46866840731070497,0.4098173515981735,0.3286486486486486,0.5023233064318905,0.621978021978022,0.4440706476030278,1196.0
704.0,1.7114378257751296e+18,0.4725848563968668,0.4178082191780822,0.3237837837837838,0.5015896307165566,0.6164835164835165,0.4432296047098402,1198.0
705.0,1.7114378257851064e+18,0.4595300261096606,0.4063926940639269,0.3291891891891892,0.49767669356810956,0.6186813186813187,0.43986543313709,1197.0
706.0,1.711437825795129e+18,0.48825065274151436,0.4280821917808219,0.3410810810810811,0.5094155050134507,0.6274725274725275,0.432296047098402,1195.0
707.0,1.7114378258051054e+18,0.4699738903394256,0.410958904109589,0.34324324324324323,0.4984103692834434,0.6208791208791209,0.4339781328847771,1193.0
708.0,1.7114378258151227e+18,0.46344647519582244,0.4383561643835616,0.33513513513513515,0.5008559550012228,0.6450549450549451,0.4314550042052145,1195.0
709.0,1.7114378258251064e+18,0.46736292428198434,0.410958904109589,0.31351351351351353,0.4996331621423331,0.6241758241758242,0.43902439024390244,1197.0
710.0,1.7114378258351345e+18,0.47911227154047,0.4269406392694064,0.3237837837837838,0.5020787478601125,0.6285714285714286,0.4600504625735913,1197.0
711.0,1.7114378258451044e+18,0.46736292428198434,0.4178082191780822,0.34,0.5035460992907801,0.6274725274725275,0.432296047098402,1194.0
712.0,1.7114378258551186e+18,0.49738903394255873,0.410958904109589,0.33405405405405403,0.504035216434336,0.6142857142857143,0.44575273338940286,1196.0
713.0,1.7114378258651044e+18,0.4804177545691906,0.4280821917808219,0.3410810810810811,0.499877720714111,0.6318681318681318,0.4348191757779647,1197.0
714.0,1.7114378258751183e+18,0.4765013054830287,0.4121004566210046,0.3410810810810811,0.5052580092932257,0.6483516483516484,0.45500420521446594,1195.0
715.0,1.7114378258851604e+18,0.46475195822454307,0.4041095890410959,0.33135135135135135,0.5015896307165566,0.6153846153846154,0.43313708999158956,1194.0
716.0,1.7114378258951286e+18,0.4751958224543081,0.4143835616438356,0.35945945945945945,0.5037906578625581,0.6230769230769231,0.4432296047098402,1193.0
717.0,1.7114378259051057e+18,0.47127937336814624,0.410958904109589,0.31675675675675674,0.5001222792858889,0.6197802197802198,0.4381833473507149,1196.0
718.0,1.7114378259151227e+18,0.47780678851174935,0.4132420091324201,0.33297297297297296,0.5018341892883346,0.6428571428571429,0.4415475189234651,1194.0
719.0,1.7114378259251046e+18,0.46866840731070497,0.3949771689497717,0.3318918918918919,0.5003668378576669,0.6175824175824176,0.4381833473507149,1198.0
720.0,1.7114378259351273e+18,0.4699738903394256,0.3949771689497717,0.3362162162162162,0.5023233064318905,0.634065934065934,0.4482758620689655,1196.0
721.0,1.7114378259451075e+18,0.4699738903394256,0.3995433789954338,0.32972972972972975,0.5035460992907801,0.6373626373626373,0.4482758620689655,1197.0
722.0,1.711437825955132e+18,0.4751958224543081,0.4280821917808219,0.352972972972973,0.5030569821472243,0.6164835164835165,0.4415475189234651,1195.0
723.0,1.7114378259651054e+18,0.4725848563968668,0.3949771689497717,0.31891891891891894,0.499877720714111,0.6241758241758242,0.4306139613120269,1195.0
724.0,1.7114378259751273e+18,0.4725848563968668,0.4143835616438356,0.33405405405405403,0.5006113964294449,0.6175824175824176,0.4348191757779647,1198.0
725.0,1.711437825985115e+18,0.4765013054830287,0.4200913242009132,0.352972972972973,0.5006113964294449,0.6153846153846154,0.4432296047098402,1196.0
726.0,1.7114378259951204e+18,0.489556135770235,0.4429223744292237,0.3362162162162162,0.5052580092932257,0.6483516483516484,0.45164003364171573,1197.0
727.0,1.7114378260051044e+18,0.47127937336814624,0.4006849315068493,0.3308108108108108,0.49938860357055515,0.6241758241758242,0.4339781328847771,1196.0
728.0,1.7114378260151237e+18,0.4830287206266319,0.4223744292237443,0.3286486486486486,0.5018341892883346,0.6208791208791209,0.4415475189234651,1195.0
729.0,1.7114378260251036e+18,0.45822454308093996,0.4121004566210046,0.33837837837837836,0.4996331621423331,0.6186813186813187,0.4280908326324643,1192.0
730.0,1.7114378260351283e+18,0.4765013054830287,0.4337899543378995,0.34,0.5015896307165566,0.6230769230769231,0.4449116904962153,1197.0
731.0,1.7114378260451046e+18,0.4765013054830287,0.432648401826484,0.3389189189189189,0.4996331621423331,0.6087912087912087,0.43313708999158956,1193.0
732.0,1.7114378260551268e+18,0.47780678851174935,0.4452054794520548,0.33135135135135135,0.5028124235754463,0.6417582417582418,0.45248107653490327,1196.0
733.0,1.711437826065107e+18,0.5026109660574413,0.4452054794520548,0.3237837837837838,0.5006113964294449,0.634065934065934,0.4432296047098402,1193.0
734.0,1.7114378260751299e+18,0.46475195822454307,0.4246575342465753,0.36702702702702705,0.5035460992907801,0.6241758241758242,0.45500420521446594,1194.0
735.0,1.7114378260851597e+18,0.4765013054830287,0.4132420091324201,0.3362162162162162,0.499877720714111,0.6285714285714286,0.4373423044575273,1197.0
736.0,1.7114378260951314e+18,0.48172323759791125,0.4269406392694064,0.32,0.5006113964294449,0.6318681318681318,0.4449116904962153,1195.0
737.0,1.711437826105107e+18,0.47127937336814624,0.4337899543378995,0.3659459459459459,0.5084372707263389,0.6417582417582418,0.45836837678721615,1195.0
738.0,1.7114378261151283e+18,0.47780678851174935,0.4474885844748858,0.3286486486486486,0.5037906578625581,0.6197802197802198,0.43650126156433977,1194.0
739.0,1.7114378261251077e+18,0.47780678851174935,0.4178082191780822,0.33405405405405403,0.5013450721447786,0.6252747252747253,0.43650126156433977,1194.0
740.0,1.7114378261351311e+18,0.48433420365535246,0.4189497716894977,0.33675675675675676,0.5030569821472243,0.6142857142857143,0.44238856181665265,1196.0
741.0,1.711437826145371e+18,0.48433420365535246,0.4223744292237443,0.3491891891891892,0.5018341892883346,0.6384615384615384,0.4625735912531539,1196.0
742.0,1.7114378261551022e+18,0.4765013054830287,0.4178082191780822,0.33405405405405403,0.5013450721447786,0.6296703296703297,0.4507989907485282,1196.0
743.0,1.7114378261651105e+18,0.48172323759791125,0.4315068493150685,0.372972972972973,0.5035460992907801,0.6362637362637362,0.44070647603027757,1195.0
744.0,1.7114378261751306e+18,0.47780678851174935,0.4132420091324201,0.3389189189189189,0.5011005135730008,0.6175824175824176,0.4381833473507149,1198.0
745.0,1.7114378261851062e+18,0.47127937336814624,0.4121004566210046,0.34054054054054056,0.4979212521398875,0.6153846153846154,0.4600504625735913,1197.0
746.0,1.7114378261951478e+18,0.47911227154047,0.4189497716894977,0.3583783783783784,0.5035460992907801,0.6252747252747253,0.43902439024390244,1196.0
747.0,1.711437826205112e+18,0.4765013054830287,0.4052511415525114,0.3232432432432432,0.49938860357055515,0.6230769230769231,0.43650126156433977,1198.0
748.0,1.711437826215152e+18,0.46736292428198434,0.408675799086758,0.32756756756756755,0.5015896307165566,0.6494505494505495,0.4339781328847771,1192.0
749.0,1.7114378262251182e+18,0.46866840731070497,0.410958904109589,0.33675675675675676,0.5033015407190022,0.6428571428571429,0.4339781328847771,1194.0
750.0,1.7114378262351562e+18,0.4765013054830287,0.4200913242009132,0.33837837837837836,0.5006113964294449,0.6175824175824176,0.4381833473507149,1196.0
751.0,1.7114378262451607e+18,0.4725848563968668,0.410958904109589,0.3345945945945946,0.499877720714111,0.6230769230769231,0.44911690496215306,1196.0
752.0,1.7114378262551514e+18,0.4725848563968668,0.4006849315068493,0.3318918918918919,0.5028124235754463,0.6230769230769231,0.4381833473507149,1195.0
753.0,1.7114378262651584e+18,0.4765013054830287,0.4143835616438356,0.3464864864864865,0.4996331621423331,0.6274725274725275,0.43902439024390244,1194.0
754.0,1.7114378262751488e+18,0.46736292428198434,0.4052511415525114,0.3281081081081081,0.5006113964294449,0.6098901098901099,0.4339781328847771,1194.0
755.0,1.711437826285161e+18,0.47911227154047,0.4269406392694064,0.37891891891891893,0.5011005135730008,0.5934065934065934,0.4247266610597141,1192.0
756.0,1.7114378262951524e+18,0.4751958224543081,0.4132420091324201,0.33135135135135135,0.5028124235754463,0.6230769230769231,0.44070647603027757,1196.0
757.0,1.7114378263051072e+18,0.5,0.4257990867579909,0.3410810810810811,0.5028124235754463,0.6153846153846154,0.4247266610597141,1193.0
758.0,1.7114378263151496e+18,0.46866840731070497,0.4006849315068493,0.3216216216216216,0.5015896307165566,0.6307692307692307,0.4499579478553406,1198.0
759.0,1.7114378263251615e+18,0.48825065274151436,0.4726027397260274,0.4427027027027027,0.5047688921496698,0.6483516483516484,0.44911690496215306,1196.0
760.0,1.7114378263351767e+18,0.47127937336814624,0.4121004566210046,0.32972972972972975,0.5015896307165566,0.621978021978022,0.4373423044575273,1194.0
761.0,1.7114378263451054e+18,0.4725848563968668,0.4178082191780822,0.34054054054054056,0.49938860357055515,0.6054945054945055,0.43650126156433977,1195.0
762.0,1.711437826355124e+18,0.47389033942558745,0.4166666666666667,0.3302702702702703,0.5025678650036683,0.6197802197802198,0.4482758620689655,1198.0
763.0,1.7114378263651054e+18,0.46866840731070497,0.4132420091324201,0.32756756756756755,0.5020787478601125,0.6098901098901099,0.432296047098402,1192.0
764.0,1.7114378263751273e+18,0.4830287206266319,0.4189497716894977,0.3551351351351351,0.5025678650036683,0.6120879120879121,0.43650126156433977,1198.0
765.0,1.711437826385105e+18,0.4765013054830287,0.4018264840182648,0.32972972972972975,0.5003668378576669,0.6329670329670329,0.43650126156433977,1198.0
766.0,1.711437826395128e+18,0.48172323759791125,0.4178082191780822,0.33405405405405403,0.5025678650036683,0.6285714285714286,0.4381833473507149,1196.0
767.0,1.7114378264051044e+18,0.4725848563968668,0.4132420091324201,0.33675675675675676,0.49767669356810956,0.6175824175824176,0.43902439024390244,1196.0
768.0,1.7114378264151803e+18,0.4725848563968668,0.4143835616438356,0.3324324324324324,0.5015896307165566,0.6175824175824176,0.4314550042052145,1194.0
769.0,1.7114378264251587e+18,0.45039164490861616,0.3995433789954338,0.31675675675675674,0.4979212521398875,0.6032967032967033,0.42052144659377627,1195.0
770.0,1.711437826435131e+18,0.5104438642297651,0.4349315068493151,0.312972972972973,0.5030569821472243,0.621978021978022,0.432296047098402,1194.0
771.0,1.711437826445104e+18,0.47127937336814624,0.4337899543378995,0.33297297297297296,0.5003668378576669,0.6230769230769231,0.4348191757779647,1197.0
772.0,1.711437826455127e+18,0.46736292428198434,0.4143835616438356,0.3291891891891892,0.5018341892883346,0.6230769230769231,0.4381833473507149,1197.0
773.0,1.7114378264651082e+18,0.4751958224543081,0.4006849315068493,0.3281081081081081,0.4966984592809978,0.6208791208791209,0.43566021867115223,1195.0
774.0,1.711437826475126e+18,0.4765013054830287,0.4006849315068493,0.3264864864864865,0.5008559550012228,0.634065934065934,0.44575273338940286,1199.0
775.0,1.7114378264851036e+18,0.4725848563968668,0.410958904109589,0.33135135135135135,0.495964783565664,0.6197802197802198,0.4381833473507149,1196.0
776.0,1.711437826495127e+18,0.4751958224543081,0.4235159817351598,0.3621621621621622,0.5037906578625581,0.6252747252747253,0.43650126156433977,1196.0
777.0,1.711437826505159e+18,0.4765013054830287,0.4280821917808219,0.33837837837837836,0.49938860357055515,0.6362637362637362,0.4373423044575273,1196.0
778.0,1.7114378265151283e+18,0.4621409921671018,0.4075342465753425,0.33297297297297296,0.5033015407190022,0.6384615384615384,0.4432296047098402,1199.0
779.0,1.7114378265251592e+18,0.49216710182767626,0.4178082191780822,0.32054054054054054,0.5064808021521154,0.6417582417582418,0.4465937762825904,1196.0
780.0,1.7114378265351212e+18,0.4751958224543081,0.4200913242009132,0.34486486486486484,0.5008559550012228,0.6274725274725275,0.4432296047098402,1197.0
781.0,1.7114378265451622e+18,0.47780678851174935,0.4075342465753425,0.35027027027027025,0.5003668378576669,0.610989010989011,0.4222035323801514,1194.0
782.0,1.7114378265551252e+18,0.48172323759791125,0.4178082191780822,0.3302702702702703,0.5020787478601125,0.6208791208791209,0.43650126156433977,1196.0
783.0,1.7114378265651569e+18,0.46736292428198434,0.4006849315068493,0.32432432432432434,0.4984103692834434,0.6230769230769231,0.432296047098402,1196.0
784.0,1.7114378265751424e+18,0.4660574412532637,0.4143835616438356,0.33297297297297296,0.5025678650036683,0.6010989010989011,0.43650126156433977,1198.0
785.0,1.7114378265851041e+18,0.47911227154047,0.4269406392694064,0.3362162162162162,0.5015896307165566,0.6241758241758242,0.4306139613120269,1194.0
786.0,1.711437826595123e+18,0.4908616187989556,0.4223744292237443,0.3362162162162162,0.5006113964294449,0.6175824175824176,0.4533221194280908,1196.0
787.0,1.7114378266051052e+18,0.47127937336814624,0.4223744292237443,0.3605405405405405,0.5025678650036683,0.6252747252747253,0.4415475189234651,1196.0
788.0,1.7114378266151424e+18,0.4804177545691906,0.4315068493150685,0.33405405405405403,0.5020787478601125,0.6318681318681318,0.4381833473507149,1198.0
789.0,1.7114378266251052e+18,0.48172323759791125,0.4269406392694064,0.35135135135135137,0.5020787478601125,0.6329670329670329,0.4415475189234651,1196.0
790.0,1.711437826635141e+18,0.47780678851174935,0.4052511415525114,0.3410810810810811,0.5015896307165566,0.6175824175824176,0.4415475189234651,1196.0
791.0,1.7114378266451054e+18,0.46866840731070497,0.4246575342465753,0.327027027027027,0.5059916850085595,0.6538461538461539,0.43650126156433977,1197.0
792.0,1.7114378266551409e+18,0.4765013054830287,0.4155251141552511,0.35027027027027025,0.5018341892883346,0.6296703296703297,0.44238856181665265,1195.0
793.0,1.711437826665105e+18,0.4725848563968668,0.4509132420091324,0.3324324324324324,0.4996331621423331,0.6164835164835165,0.4381833473507149,1194.0
794.0,1.7114378266751409e+18,0.4751958224543081,0.4041095890410959,0.3210810810810811,0.5064808021521154,0.6175824175824176,0.4381833473507149,1197.0
795.0,1.7114378266851638e+18,0.48172323759791125,0.4223744292237443,0.3324324324324324,0.4991440449987772,0.6098901098901099,0.43650126156433977,1197.0
796.0,1.7114378266951255e+18,0.46866840731070497,0.4018264840182648,0.3145945945945946,0.499877720714111,0.6197802197802198,0.4415475189234651,1195.0
797.0,1.7114378267051057e+18,0.47127937336814624,0.4143835616438356,0.34054054054054056,0.5008559550012228,0.6395604395604395,0.4415475189234651,1197.0
798.0,1.7114378267151404e+18,0.48172323759791125,0.4189497716894977,0.3318918918918919,0.5037906578625581,0.6395604395604395,0.4533221194280908,1197.0
799.0,1.7114378267251602e+18,0.47780678851174935,0.3984018264840183,0.3302702702702703,0.5028124235754463,0.6241758241758242,0.4381833473507149,1196.0
800.0,1.7114378267351414e+18,0.47389033942558745,0.4178082191780822,0.32,0.5140621178772316,0.667032967032967,0.4415475189234651,1196.0
801.0,1.7114378267451052e+18,0.47389033942558745,0.4200913242009132,0.35081081081081084,0.5037906578625581,0.634065934065934,0.4558452481076535,1195.0
802.0,1.711437826755122e+18,0.47780678851174935,0.4006849315068493,0.3302702702702703,0.5020787478601125,0.6186813186813187,0.4373423044575273,1197.0
803.0,1.711437826765159e+18,0.4660574412532637,0.408675799086758,0.32432432432432434,0.499877720714111,0.6208791208791209,0.432296047098402,1195.0
804.0,1.7114378267751388e+18,0.4830287206266319,0.4269406392694064,0.3545945945945946,0.5025678650036683,0.656043956043956,0.45836837678721615,1197.0
805.0,1.7114378267851072e+18,0.4621409921671018,0.4063926940639269,0.3318918918918919,0.4984103692834434,0.6142857142857143,0.43650126156433977,1199.0
806.0,1.71143782679514e+18,0.48172323759791125,0.4577625570776256,0.34324324324324323,0.49938860357055515,0.6098901098901099,0.4339781328847771,1194.0
807.0,1.711437826805158e+18,0.4869451697127937,0.4178082191780822,0.35243243243243244,0.5094155050134507,0.6802197802197802,0.43986543313709,1197.0
808.0,1.711437826815139e+18,0.4699738903394256,0.4063926940639269,0.3286486486486486,0.4969430178527757,0.621978021978022,0.4381833473507149,1197.0
809.0,1.711437826825106e+18,0.4830287206266319,0.4178082191780822,0.3324324324324324,0.4991440449987772,0.6307692307692307,0.4415475189234651,1197.0
810.0,1.711437826835143e+18,0.4621409921671018,0.4121004566210046,0.34378378378378377,0.5020787478601125,0.6307692307692307,0.43313708999158956,1196.0
811.0,1.711437826845106e+18,0.46736292428198434,0.3938356164383562,0.31351351351351353,0.4996331621423331,0.6307692307692307,0.432296047098402,1194.0
812.0,1.711437826855142e+18,0.46736292428198434,0.4063926940639269,0.3281081081081081,0.5011005135730008,0.6274725274725275,0.4415475189234651,1200.0
813.0,1.7114378268651064e+18,0.4869451697127937,0.4337899543378995,0.35243243243243244,0.5059916850085595,0.6417582417582418,0.4415475189234651,1193.0
814.0,1.711437826875139e+18,0.47127937336814624,0.3995433789954338,0.3389189189189189,0.49938860357055515,0.6120879120879121,0.4272497897392767,1193.0
815.0,1.7114378268851039e+18,0.47780678851174935,0.3949771689497717,0.3281081081081081,0.5028124235754463,0.6516483516483517,0.432296047098402,1195.0
816.0,1.7114378268951386e+18,0.46866840731070497,0.4041095890410959,0.31675675675675674,0.5050134507214478,0.6230769230769231,0.4482758620689655,1195.0
817.0,1.711437826905108e+18,0.4765013054830287,0.408675799086758,0.3232432432432432,0.5001222792858889,0.6307692307692307,0.4348191757779647,1196.0
818.0,1.7114378269151373e+18,0.4765013054830287,0.4143835616438356,0.33297297297297296,0.49938860357055515,0.6098901098901099,0.44575273338940286,1196.0
819.0,1.711437826925104e+18,0.47911227154047,0.4063926940639269,0.30594594594594593,0.5015896307165566,0.634065934065934,0.4482758620689655,1194.0
820.0,1.711437826935154e+18,0.47127937336814624,0.4212328767123288,0.33783783783783783,0.504035216434336,0.6274725274725275,0.4415475189234651,1197.0
821.0,1.7114378269451062e+18,0.47127937336814624,0.4052511415525114,0.3324324324324324,0.504279775006114,0.6054945054945055,0.4432296047098402,1197.0
822.0,1.7114378269551217e+18,0.4804177545691906,0.4315068493150685,0.3643243243243243,0.5050134507214478,0.643956043956044,0.4432296047098402,1197.0
823.0,1.7114378269651044e+18,0.4765013054830287,0.432648401826484,0.3643243243243243,0.5035460992907801,0.6538461538461539,0.43902439024390244,1200.0
824.0,1.7114378269751373e+18,0.46736292428198434,0.4052511415525114,0.32432432432432434,0.5023233064318905,0.6186813186813187,0.4339781328847771,1195.0
825.0,1.7114378269851548e+18,0.4765013054830287,0.4246575342465753,0.3491891891891892,0.4996331621423331,0.6252747252747253,0.43650126156433977,1197.0
826.0,1.7114378269951337e+18,0.46866840731070497,0.3778538812785388,0.3291891891891892,0.5035460992907801,0.6285714285714286,0.45500420521446594,1197.0
827.0,1.711437827005104e+18,0.4660574412532637,0.3938356164383562,0.3286486486486486,0.5015896307165566,0.6285714285714286,0.43986543313709,1196.0
828.0,1.7114378270151357e+18,0.47127937336814624,0.4041095890410959,0.31675675675675674,0.5072144778674492,0.6593406593406593,0.4348191757779647,1197.0
829.0,1.7114378270251046e+18,0.4660574412532637,0.4052511415525114,0.32216216216216215,0.5052580092932257,0.6516483516483517,0.4222035323801514,1195.0
830.0,1.7114378270351365e+18,0.47127937336814624,0.4063926940639269,0.31189189189189187,0.4991440449987772,0.6131868131868132,0.4280908326324643,1194.0
831.0,1.711437827045104e+18,0.48172323759791125,0.4178082191780822,0.31513513513513514,0.49938860357055515,0.6153846153846154,0.43902439024390244,1196.0
832.0,1.7114378270551165e+18,0.47389033942558745,0.4178082191780822,0.3356756756756757,0.5018341892883346,0.6362637362637362,0.4280908326324643,1194.0
833.0,1.7114378270651558e+18,0.47389033942558745,0.4143835616438356,0.3291891891891892,0.5047688921496698,0.6450549450549451,0.43902439024390244,1195.0
834.0,1.7114378270751165e+18,0.48172323759791125,0.4440639269406393,0.3324324324324324,0.5006113964294449,0.6054945054945055,0.43902439024390244,1196.0
835.0,1.7114378270851067e+18,0.47780678851174935,0.4189497716894977,0.34,0.4996331621423331,0.6208791208791209,0.43566021867115223,1197.0
836.0,1.7114378270951355e+18,0.48433420365535246,0.4246575342465753,0.33837837837837836,0.5011005135730008,0.6329670329670329,0.4381833473507149,1200.0
837.0,1.7114378271051044e+18,0.47127937336814624,0.4223744292237443,0.33405405405405403,0.5030569821472243,0.6417582417582418,0.432296047098402,1193.0
838.0,1.7114378271151347e+18,0.4830287206266319,0.4189497716894977,0.34324324324324323,0.5008559550012228,0.656043956043956,0.43313708999158956,1192.0
839.0,1.7114378271251044e+18,0.4765013054830287,0.4121004566210046,0.33135135135135135,0.49351919784788456,0.6021978021978022,0.4280908326324643,1193.0
840.0,1.7114378271351334e+18,0.46866840731070497,0.4041095890410959,0.32054054054054054,0.5015896307165566,0.6241758241758242,0.43986543313709,1196.0
841.0,1.7114378271451617e+18,0.4869451697127937,0.4406392694063927,0.35243243243243244,0.5025678650036683,0.6395604395604395,0.4482758620689655,1197.0
842.0,1.7114378271551396e+18,0.47127937336814624,0.4075342465753425,0.3308108108108108,0.5006113964294449,0.6153846153846154,0.4482758620689655,1197.0
843.0,1.7114378271651044e+18,0.489556135770235,0.4098173515981735,0.3227027027027027,0.4984103692834434,0.6010989010989011,0.43650126156433977,1198.0
844.0,1.7114378271751155e+18,0.4765013054830287,0.4075342465753425,0.3254054054054054,0.5015896307165566,0.6208791208791209,0.44070647603027757,1198.0
845.0,1.7114378271851566e+18,0.46736292428198434,0.4394977168949772,0.34486486486486484,0.5020787478601125,0.6010989010989011,0.44575273338940286,1196.0
846.0,1.7114378271951314e+18,0.49216710182767626,0.4292237442922374,0.32972972972972975,0.4979212521398875,0.5725274725274725,0.4449116904962153,1196.0
847.0,1.711437827205155e+18,0.47780678851174935,0.4280821917808219,0.32756756756756755,0.5015896307165566,0.634065934065934,0.4381833473507149,1196.0
848.0,1.7114378272151357e+18,0.47389033942558745,0.4155251141552511,0.3675675675675676,0.5025678650036683,0.634065934065934,0.4575273338940286,1195.0
849.0,1.711437827225106e+18,0.4765013054830287,0.4257990867579909,0.34486486486486484,0.5015896307165566,0.6274725274725275,0.4381833473507149,1197.0
850.0,1.7114378272351311e+18,0.47389033942558745,0.4098173515981735,0.3389189189189189,0.5006113964294449,0.6373626373626373,0.4415475189234651,1196.0
851.0,1.7114378272451126e+18,0.47127937336814624,0.4132420091324201,0.3389189189189189,0.49767669356810956,0.6010989010989011,0.4280908326324643,1195.0
852.0,1.7114378272551547e+18,0.48172323759791125,0.4257990867579909,0.3545945945945946,0.504524333577892,0.6516483516483517,0.43902439024390244,1195.0
853.0,1.7114378272651046e+18,0.46344647519582244,0.4235159817351598,0.3324324324324324,0.49645390070921985,0.6175824175824176,0.4381833473507149,1193.0
854.0,1.7114378272751337e+18,0.4765013054830287,0.4292237442922374,0.35027027027027025,0.5028124235754463,0.6329670329670329,0.464255677039529,1196.0
855.0,1.7114378272850883e+18,0.4621409921671018,0.4155251141552511,0.35135135135135137,0.49816581071166544,0.6010989010989011,0.42977291841883936,1194.0
856.0,1.711437827295133e+18,0.4464751958224543,0.3972602739726027,0.3172972972972973,0.5006113964294449,0.6318681318681318,0.4381833473507149,1196.0
857.0,1.711437827305104e+18,0.48172323759791125,0.4132420091324201,0.31675675675675674,0.5003668378576669,0.6241758241758242,0.4415475189234651,1197.0
858.0,1.7114378273151314e+18,0.4830287206266319,0.4269406392694064,0.35945945945945945,0.5074590364392272,0.6593406593406593,0.43650126156433977,1196.0
859.0,1.711437827325106e+18,0.46866840731070497,0.3926940639269406,0.31891891891891894,0.5003668378576669,0.6120879120879121,0.4348191757779647,1197.0
860.0,1.711437827335112e+18,0.4960835509138381,0.4143835616438356,0.3535135135135135,0.5018341892883346,0.6351648351648351,0.4449116904962153,1196.0
861.0,1.7114378273451062e+18,0.4830287206266319,0.4223744292237443,0.3621621621621622,0.49400831499144043,0.6131868131868132,0.45500420521446594,1196.0
862.0,1.7114378273551345e+18,0.4699738903394256,0.3984018264840183,0.3389189189189189,0.5006113964294449,0.6142857142857143,0.4314550042052145,1192.0
863.0,1.7114378273651046e+18,0.4765013054830287,0.4132420091324201,0.3286486486486486,0.4988994864269993,0.634065934065934,0.4465937762825904,1197.0
864.0,1.7114378273751342e+18,0.4869451697127937,0.4315068493150685,0.35405405405405405,0.5020787478601125,0.6241758241758242,0.4449116904962153,1197.0
865.0,1.711437827385106e+18,0.47911227154047,0.4132420091324201,0.3237837837837838,0.4991440449987772,0.6318681318681318,0.44238856181665265,1194.0
866.0,1.71143782739513e+18,0.4765013054830287,0.3949771689497717,0.32594594594594595,0.5008559550012228,0.6307692307692307,0.4373423044575273,1196.0
867.0,1.711437827405106e+18,0.4765013054830287,0.4006849315068493,0.3345945945945946,0.4988994864269993,0.6164835164835165,0.43986543313709,1196.0
868.0,1.7114378274151347e+18,0.48172323759791125,0.408675799086758,0.3345945945945946,0.495720224993886,0.6296703296703297,0.44070647603027757,1197.0
869.0,1.7114378274251054e+18,0.4765013054830287,0.4121004566210046,0.33675675675675676,0.5008559550012228,0.6208791208791209,0.42977291841883936,1193.0
870.0,1.711437827435133e+18,0.4765013054830287,0.4189497716894977,0.3362162162162162,0.4979212521398875,0.5989010989010989,0.42977291841883936,1196.0
871.0,1.7114378274451064e+18,0.45822454308093996,0.3995433789954338,0.32756756756756755,0.5008559550012228,0.6241758241758242,0.4432296047098402,1197.0
872.0,1.711437827455129e+18,0.47780678851174935,0.4178082191780822,0.32972972972972975,0.5015896307165566,0.6296703296703297,0.4381833473507149,1196.0
873.0,1.7114378274651057e+18,0.47780678851174935,0.4132420091324201,0.3362162162162162,0.49767669356810956,0.6010989010989011,0.4339781328847771,1192.0
874.0,1.7114378274751457e+18,0.48172323759791125,0.4052511415525114,0.32756756756756755,0.504524333577892,0.6428571428571429,0.4558452481076535,1197.0
875.0,1.7114378274851103e+18,0.49869451697127937,0.4874429223744292,0.3621621621621622,0.5030569821472243,0.6329670329670329,0.4449116904962153,1197.0
876.0,1.7114378274951327e+18,0.4830287206266319,0.4223744292237443,0.34594594594594597,0.5035460992907801,0.6186813186813187,0.4314550042052145,1194.0
877.0,1.711437827505106e+18,0.4856396866840731,0.4132420091324201,0.33297297297297296,0.49938860357055515,0.6098901098901099,0.4314550042052145,1193.0
878.0,1.7114378275151324e+18,0.47780678851174935,0.4018264840182648,0.32054054054054054,0.49816581071166544,0.5978021978021978,0.4289318755256518,1193.0
879.0,1.711437827525105e+18,0.4804177545691906,0.4212328767123288,0.3264864864864865,0.5050134507214478,0.6395604395604395,0.432296047098402,1194.0
880.0,1.711437827535138e+18,0.48433420365535246,0.4600456621004566,0.33513513513513515,0.5033015407190022,0.6285714285714286,0.4415475189234651,1197.0
881.0,1.7114378275451041e+18,0.47127937336814624,0.4052511415525114,0.32594594594594595,0.4984103692834434,0.6318681318681318,0.4314550042052145,1192.0
882.0,1.7114378275551304e+18,0.48172323759791125,0.4280821917808219,0.3810810810810811,0.5030569821472243,0.5879120879120879,0.43566021867115223,1196.0
883.0,1.7114378275651036e+18,0.46475195822454307,0.4269406392694064,0.33675675675675676,0.4991440449987772,0.6010989010989011,0.4381833473507149,1196.0
884.0,1.7114378275751299e+18,0.4765013054830287,0.4052511415525114,0.3124324324324324,0.5028124235754463,0.6296703296703297,0.4432296047098402,1200.0
885.0,1.7114378275851064e+18,0.4830287206266319,0.4223744292237443,0.3264864864864865,0.5015896307165566,0.6241758241758242,0.4693019343986543,1199.0
886.0,1.7114378275951314e+18,0.49216710182767626,0.4212328767123288,0.3362162162162162,0.5018341892883346,0.6197802197802198,0.43313708999158956,1193.0
887.0,1.7114378276051064e+18,0.4830287206266319,0.4486301369863014,0.34162162162162163,0.4971875764245537,0.6098901098901099,0.4247266610597141,1194.0
888.0,1.7114378276151296e+18,0.49216710182767626,0.4372146118721461,0.3643243243243243,0.5062362435803375,0.6538461538461539,0.43313708999158956,1195.0
889.0,1.711437827625107e+18,0.48172323759791125,0.4166666666666667,0.33837837837837836,0.5030569821472243,0.6241758241758242,0.43902439024390244,1199.0
890.0,1.7114378276351288e+18,0.4804177545691906,0.4292237442922374,0.3372972972972973,0.5025678650036683,0.6241758241758242,0.4465937762825904,1197.0
891.0,1.7114378276451072e+18,0.4804177545691906,0.4429223744292237,0.34540540540540543,0.5020787478601125,0.6505494505494506,0.4575273338940286,1197.0
892.0,1.7114378276551296e+18,0.48172323759791125,0.4235159817351598,0.33297297297297296,0.5008559550012228,0.6329670329670329,0.4381833473507149,1195.0
893.0,1.711437827665106e+18,0.49216710182767626,0.4200913242009132,0.3535135135135135,0.5015896307165566,0.6241758241758242,0.4432296047098402,1194.0
894.0,1.7114378276751296e+18,0.4725848563968668,0.3961187214611872,0.3264864864864865,0.4996331621423331,0.6252747252747253,0.44238856181665265,1195.0
895.0,1.7114378276851075e+18,0.4621409921671018,0.4075342465753425,0.32432432432432434,0.4974321349963316,0.6175824175824176,0.43650126156433977,1194.0
896.0,1.7114378276951324e+18,0.4869451697127937,0.4235159817351598,0.34486486486486484,0.5069699192956714,0.6329670329670329,0.4373423044575273,1196.0
897.0,1.711437827705105e+18,0.47389033942558745,0.4166666666666667,0.3362162162162162,0.49767669356810956,0.5945054945054945,0.4381833473507149,1196.0
898.0,1.7114378277151286e+18,0.47911227154047,0.4143835616438356,0.32216216216216215,0.5008559550012228,0.6208791208791209,0.4415475189234651,1196.0
899.0,1.7114378277251054e+18,0.47911227154047,0.4292237442922374,0.3491891891891892,0.5006113964294449,0.621978021978022,0.4432296047098402,1197.0
900.0,1.7114378277351393e+18,0.4765013054830287,0.410958904109589,0.34162162162162163,0.4996331621423331,0.643956043956044,0.44238856181665265,1196.0
901.0,1.711437827745106e+18,0.4830287206266319,0.3995433789954338,0.3362162162162162,0.499877720714111,0.6197802197802198,0.4381833473507149,1197.0
902.0,1.7114378277551276e+18,0.4765013054830287,0.408675799086758,0.33297297297297296,0.49938860357055515,0.6274725274725275,0.44238856181665265,1197.0
903.0,1.7114378277651052e+18,0.47127937336814624,0.410958904109589,0.3362162162162162,0.5023233064318905,0.6021978021978022,0.42977291841883936,1196.0
904.0,1.7114378277751273e+18,0.4765013054830287,0.4098173515981735,0.32972972972972975,0.5003668378576669,0.6208791208791209,0.4289318755256518,1196.0
905.0,1.7114378277851062e+18,0.47127937336814624,0.4189497716894977,0.31891891891891894,0.5003668378576669,0.6186813186813187,0.4348191757779647,1197.0
906.0,1.7114378277950876e+18,0.4869451697127937,0.4486301369863014,0.36486486486486486,0.5050134507214478,0.6362637362637362,0.4432296047098402,1197.0
907.0,1.7114378278051052e+18,0.46866840731070497,0.4063926940639269,0.3254054054054054,0.5050134507214478,0.6505494505494506,0.43566021867115223,1197.0
908.0,1.7114378278151276e+18,0.4765013054830287,0.4520547945205479,0.3324324324324324,0.499877720714111,0.6010989010989011,0.43566021867115223,1196.0
909.0,1.7114378278251041e+18,0.47389033942558745,0.4178082191780822,0.3291891891891892,0.5033015407190022,0.6098901098901099,0.4348191757779647,1197.0
910.0,1.7114378278351255e+18,0.4765013054830287,0.4178082191780822,0.3281081081081081,0.5037906578625581,0.6230769230769231,0.42977291841883936,1195.0
911.0,1.711437827845106e+18,0.47389033942558745,0.4178082191780822,0.3324324324324324,0.5001222792858889,0.6230769230769231,0.42977291841883936,1195.0
912.0,1.711437827855127e+18,0.4765013054830287,0.4098173515981735,0.3362162162162162,0.5020787478601125,0.6142857142857143,0.4415475189234651,1195.0
913.0,1.7114378278651054e+18,0.4856396866840731,0.4337899543378995,0.34324324324324323,0.5015896307165566,0.6186813186813187,0.43650126156433977,1193.0
914.0,1.7114378278751265e+18,0.4621409921671018,0.408675799086758,0.32,0.499877720714111,0.6362637362637362,0.4751892346509672,1197.0
915.0,1.7114378278851108e+18,0.4621409921671018,0.4178082191780822,0.3324324324324324,0.5020787478601125,0.6307692307692307,0.4272497897392767,1192.0
916.0,1.7114378278951153e+18,0.47127937336814624,0.410958904109589,0.3281081081081081,0.499877720714111,0.621978021978022,0.43566021867115223,1196.0
917.0,1.711437827905105e+18,0.47127937336814624,0.4132420091324201,0.3286486486486486,0.5001222792858889,0.6230769230769231,0.4373423044575273,1196.0
918.0,1.7114378279151258e+18,0.4869451697127937,0.4212328767123288,0.33297297297297296,0.5050134507214478,0.6362637362637362,0.4339781328847771,1192.0
919.0,1.7114378279251036e+18,0.4621409921671018,0.4121004566210046,0.32,0.5020787478601125,0.6142857142857143,0.4314550042052145,1193.0
920.0,1.711437827935134e+18,0.47780678851174935,0.4006849315068493,0.3124324324324324,0.5035460992907801,0.621978021978022,0.43986543313709,1196.0
921.0,1.711437827945105e+18,0.47911227154047,0.4029680365296804,0.3216216216216216,0.5006113964294449,0.6153846153846154,0.43902439024390244,1196.0
922.0,1.7114378279551268e+18,0.45691906005221933,0.4155251141552511,0.32756756756756755,0.5035460992907801,0.6285714285714286,0.43566021867115223,1194.0
923.0,1.711437827965103e+18,0.48433420365535246,0.432648401826484,0.34594594594594597,0.5025678650036683,0.6296703296703297,0.4280908326324643,1193.0
924.0,1.7114378279751258e+18,0.4699738903394256,0.4006849315068493,0.3216216216216216,0.5006113964294449,0.6241758241758242,0.4179983179142136,1195.0
925.0,1.71143782798511e+18,0.4660574412532637,0.4223744292237443,0.3345945945945946,0.4988994864269993,0.6032967032967033,0.4306139613120269,1193.0
926.0,1.7114378279951258e+18,0.47780678851174935,0.4178082191780822,0.33837837837837836,0.5018341892883346,0.6274725274725275,0.44070647603027757,1194.0
927.0,1.711437828005104e+18,0.46866840731070497,0.4052511415525114,0.31945945945945947,0.49938860357055515,0.610989010989011,0.4280908326324643,1193.0
928.0,1.711437828015124e+18,0.47911227154047,0.4440639269406393,0.33675675675675676,0.4996331621423331,0.6164835164835165,0.43650126156433977,1196.0
929.0,1.7114378280251041e+18,0.4725848563968668,0.4143835616438356,0.31027027027027027,0.5011005135730008,0.6120879120879121,0.43313708999158956,1194.0
930.0,1.71143782803513e+18,0.4765013054830287,0.4143835616438356,0.3545945945945946,0.5003668378576669,0.6164835164835165,0.46761984861227923,1196.0
931.0,1.7114378280451044e+18,0.4660574412532637,0.4212328767123288,0.3362162162162162,0.4996331621423331,0.6186813186813187,0.4255677039529016,1192.0
932.0,1.711437828055125e+18,0.489556135770235,0.4372146118721461,0.35621621621621624,0.5055025678650037,0.634065934065934,0.4449116904962153,1197.0
933.0,1.7114378280651046e+18,0.4725848563968668,0.4280821917808219,0.34864864864864864,0.5015896307165566,0.6659340659340659,0.46173254835996635,1194.0
934.0,1.7114378280751964e+18,0.4960835509138381,0.4292237442922374,0.3627027027027027,0.5064808021521154,0.6164835164835165,0.4634146341463415,1195.0
935.0,1.7114378280851256e+18,0.4869451697127937,0.4189497716894977,0.34054054054054056,0.5015896307165566,0.6417582417582418,0.45164003364171573,1197.0
936.0,1.7114378280951252e+18,0.4765013054830287,0.4075342465753425,0.32432432432432434,0.5037906578625581,0.6494505494505495,0.44238856181665265,1195.0
937.0,1.7114378281051067e+18,0.49216710182767626,0.3789954337899543,0.3216216216216216,0.5011005135730008,0.6230769230769231,0.4440706476030278,1196.0
938.0,1.711437828115129e+18,0.4765013054830287,0.3961187214611872,0.3621621621621622,0.5011005135730008,0.621978021978022,0.4482758620689655,1195.0
939.0,1.7114378281251653e+18,0.49216710182767626,0.4269406392694064,0.372972972972973,0.5008559550012228,0.6318681318681318,0.4499579478553406,1196.0
940.0,1.7114378281351232e+18,0.4725848563968668,0.4052511415525114,0.3286486486486486,0.5028124235754463,0.6538461538461539,0.43566021867115223,1197.0
941.0,1.7114378281451607e+18,0.47127937336814624,0.4223744292237443,0.3443243243243243,0.5006113964294449,0.6087912087912087,0.4373423044575273,1196.0
942.0,1.7114378281551258e+18,0.4869451697127937,0.4143835616438356,0.3237837837837838,0.5011005135730008,0.6131868131868132,0.43650126156433977,1197.0
943.0,1.7114378281651057e+18,0.4765013054830287,0.4189497716894977,0.3324324324324324,0.4974321349963316,0.6153846153846154,0.4373423044575273,1196.0
944.0,1.7114378281751258e+18,0.4765013054830287,0.4360730593607306,0.3248648648648649,0.5018341892883346,0.6450549450549451,0.4465937762825904,1197.0
945.0,1.7114378281851057e+18,0.4869451697127937,0.4269406392694064,0.3308108108108108,0.49938860357055515,0.6175824175824176,0.43313708999158956,1192.0
946.0,1.7114378281951365e+18,0.46736292428198434,0.4006849315068493,0.3237837837837838,0.5006113964294449,0.6230769230769231,0.43650126156433977,1197.0
947.0,1.7114378282051154e+18,0.47780678851174935,0.4132420091324201,0.3216216216216216,0.4966984592809978,0.6153846153846154,0.43566021867115223,1198.0
948.0,1.7114378282151304e+18,0.44778067885117495,0.4178082191780822,0.3681081081081081,0.5011005135730008,0.6142857142857143,0.43650126156433977,1196.0
949.0,1.711437828225116e+18,0.4621409921671018,0.4143835616438356,0.33837837837837836,0.5035460992907801,0.6142857142857143,0.432296047098402,1193.0
950.0,1.711437828235125e+18,0.48433420365535246,0.4098173515981735,0.3318918918918919,0.5035460992907801,0.6318681318681318,0.4381833473507149,1198.0
951.0,1.711437828245109e+18,0.45039164490861616,0.4178082191780822,0.3389189189189189,0.4988994864269993,0.6175824175824176,0.432296047098402,1192.0
952.0,1.7114378282551245e+18,0.4804177545691906,0.45662100456621,0.3345945945945946,0.5059916850085595,0.656043956043956,0.4348191757779647,1196.0
953.0,1.7114378282651044e+18,0.4751958224543081,0.4315068493150685,0.35027027027027025,0.5003668378576669,0.6142857142857143,0.432296047098402,1193.0
954.0,1.7114378282751237e+18,0.4765013054830287,0.4041095890410959,0.31891891891891894,0.4986549278552213,0.6032967032967033,0.4280908326324643,1192.0
955.0,1.7114378282851044e+18,0.4869451697127937,0.4406392694063927,0.36,0.5035460992907801,0.6307692307692307,0.43902439024390244,1196.0
956.0,1.711437828295163e+18,0.47780678851174935,0.4383561643835616,0.3356756756756757,0.5001222792858889,0.6241758241758242,0.4381833473507149,1196.0
957.0,1.7114378283051123e+18,0.47911227154047,0.3767123287671233,0.3291891891891892,0.4991440449987772,0.6362637362637362,0.4381833473507149,1197.0
958.0,1.7114378283151186e+18,0.4765013054830287,0.3961187214611872,0.34486486486486484,0.49645390070921985,0.6274725274725275,0.4592094196804037,1195.0
959.0,1.711437828325103e+18,0.45300261096605743,0.4041095890410959,0.33135135135135135,0.49816581071166544,0.6043956043956044,0.43986543313709,1195.0
960.0,1.711437828335115e+18,0.47127937336814624,0.408675799086758,0.33405405405405403,0.49938860357055515,0.6142857142857143,0.4314550042052145,1192.0
961.0,1.7114378283451064e+18,0.47127937336814624,0.4178082191780822,0.3427027027027027,0.504524333577892,0.6373626373626373,0.42977291841883936,1196.0
962.0,1.7114378283551406e+18,0.489556135770235,0.4315068493150685,0.35027027027027025,0.499877720714111,0.6010989010989011,0.42304457527333894,1195.0
963.0,1.7114378283651072e+18,0.46475195822454307,0.3778538812785388,0.3318918918918919,0.5003668378576669,0.6197802197802198,0.4348191757779647,1196.0
964.0,1.71143782837514e+18,0.4556135770234987,0.3858447488584475,0.3324324324324324,0.5015896307165566,0.6164835164835165,0.4280908326324643,1195.0
965.0,1.7114378283851057e+18,0.47127937336814624,0.3984018264840183,0.3210810810810811,0.4937637564196625,0.6032967032967033,0.4449116904962153,1197.0
966.0,1.7114378283951345e+18,0.4856396866840731,0.4098173515981735,0.34162162162162163,0.5011005135730008,0.6153846153846154,0.43902439024390244,1196.0
967.0,1.711437828405104e+18,0.47127937336814624,0.4143835616438356,0.34486486486486484,0.5001222792858889,0.6252747252747253,0.4348191757779647,1195.0
968.0,1.7114378284151273e+18,0.4725848563968668,0.410958904109589,0.32756756756756755,0.499877720714111,0.6153846153846154,0.4381833473507149,1198.0
969.0,1.7114378284251062e+18,0.49216710182767626,0.4200913242009132,0.3216216216216216,0.5035460992907801,0.643956043956044,0.43650126156433977,1197.0
970.0,1.711437828435142e+18,0.4804177545691906,0.478310502283105,0.3621621621621622,0.5011005135730008,0.6230769230769231,0.4381833473507149,1198.0
971.0,1.7114378284451062e+18,0.46866840731070497,0.4098173515981735,0.31945945945945947,0.5006113964294449,0.6197802197802198,0.4314550042052145,1192.0
972.0,1.7114378284551342e+18,0.46736292428198434,0.4075342465753425,0.3232432432432432,0.5020787478601125,0.6186813186813187,0.4339781328847771,1194.0
973.0,1.7114378284651057e+18,0.4660574412532637,0.4063926940639269,0.32756756756756755,0.5006113964294449,0.6230769230769231,0.4415475189234651,1195.0
974.0,1.7114378284751283e+18,0.489556135770235,0.410958904109589,0.3318918918918919,0.4988994864269993,0.6054945054945055,0.43902439024390244,1195.0
975.0,1.711437828485104e+18,0.48172323759791125,0.4052511415525114,0.35135135135135137,0.4986549278552213,0.6087912087912087,0.4339781328847771,1193.0
976.0,1.7114378284951283e+18,0.47911227154047,0.4075342465753425,0.3302702702702703,0.5025678650036683,0.6428571428571429,0.4482758620689655,1195.0
977.0,1.7114378285051057e+18,0.45822454308093996,0.3949771689497717,0.3178378378378378,0.4988994864269993,0.621978021978022,0.44070647603027757,1196.0
978.0,1.711437828515128e+18,0.47780678851174935,0.4052511415525114,0.3172972972972973,0.504279775006114,0.6241758241758242,0.4600504625735913,1196.0
979.0,1.7114378285251052e+18,0.48172323759791125,0.4041095890410959,0.34540540540540543,0.4974321349963316,0.6142857142857143,0.44575273338940286,1197.0
980.0,1.7114378285351299e+18,0.46736292428198434,0.4063926940639269,0.3248648648648649,0.5006113964294449,0.6241758241758242,0.4449116904962153,1195.0
981.0,1.711437828545106e+18,0.46736292428198434,0.4166666666666667,0.32972972972972975,0.4984103692834434,0.6131868131868132,0.44070647603027757,1197.0
982.0,1.7114378285551304e+18,0.47911227154047,0.408675799086758,0.3178378378378378,0.499877720714111,0.6230769230769231,0.43986543313709,1197.0
983.0,1.7114378285651052e+18,0.46736292428198434,0.4223744292237443,0.34054054054054056,0.5015896307165566,0.6307692307692307,0.44911690496215306,1197.0
984.0,1.7114378285751258e+18,0.4830287206266319,0.4337899543378995,0.35243243243243244,0.5037906578625581,0.6241758241758242,0.4339781328847771,1194.0
985.0,1.7114378285851046e+18,0.4725848563968668,0.4166666666666667,0.32972972972972975,0.5035460992907801,0.6329670329670329,0.43566021867115223,1197.0
986.0,1.711437828595116e+18,0.47780678851174935,0.4257990867579909,0.3567567567567568,0.5030569821472243,0.6516483516483517,0.4432296047098402,1195.0
987.0,1.711437828605108e+18,0.47127937336814624,0.4018264840182648,0.3291891891891892,0.4988994864269993,0.6164835164835165,0.4381833473507149,1198.0
988.0,1.7114378286151276e+18,0.46866840731070497,0.4280821917808219,0.3481081081081081,0.5008559550012228,0.6285714285714286,0.43650126156433977,1196.0
989.0,1.711437828625178e+18,0.47127937336814624,0.4029680365296804,0.33135135135135135,0.5028124235754463,0.6351648351648351,0.4482758620689655,1196.0
990.0,1.711437828635136e+18,0.4765013054830287,0.384703196347032,0.31513513513513514,0.5018341892883346,0.6208791208791209,0.4314550042052145,1194.0
991.0,1.7114378286451044e+18,0.4869451697127937,0.3972602739726027,0.31351351351351353,0.49938860357055515,0.6175824175824176,0.4306139613120269,1195.0
992.0,1.711437828655127e+18,0.47389033942558745,0.3995433789954338,0.3291891891891892,0.5015896307165566,0.6461538461538462,0.4381833473507149,1197.0
993.0,1.7114378286651041e+18,0.47389033942558745,0.4132420091324201,0.33837837837837836,0.4984103692834434,0.6164835164835165,0.42977291841883936,1192.0
994.0,1.711437828675129e+18,0.4765013054830287,0.4143835616438356,0.3372972972972973,0.5001222792858889,0.6065934065934065,0.4373423044575273,1197.0
995.0,1.7114378286851077e+18,0.47127937336814624,0.4075342465753425,0.32594594594594595,0.5050134507214478,0.6274725274725275,0.44911690496215306,1196.0
996.0,1.7114378286951286e+18,0.4660574412532637,0.386986301369863,0.32054054054054054,0.4996331621423331,0.6406593406593407,0.4499579478553406,1195.0
997.0,1.711437828705104e+18,0.47911227154047,0.3995433789954338,0.33513513513513515,0.5015896307165566,0.6175824175824176,0.43566021867115223,1193.0
998.0,1.711437828715124e+18,0.4765013054830287,0.4041095890410959,0.3248648648648649,0.5011005135730008,0.6230769230769231,0.43902439024390244,1195.0
999.0,1.7114378287251062e+18,0.46736292428198434,0.4029680365296804,0.3345945945945946,0.5006113964294449,0.6252747252747253,0.45248107653490327,1195.0
1000.0,1.7114378287351217e+18,0.47780678851174935,0.4280821917808219,0.3518918918918919,0.5035460992907801,0.6307692307692307,0.44070647603027757,1197.0
