202.0,1.71092129193444e+18,0.42950391644908614,0.2968036529680365,0.16648648648648648,0.49767669356810956,0.6450549450549451,0.4760302775441548,1196.0
203.0,1.710921291944433e+18,0.49738903394255873,0.365296803652968,0.35243243243243244,0.5143066764490095,0.6934065934065934,0.479394449116905,1195.0
204.0,1.7109212919544338e+18,0.47127937336814624,0.3744292237442922,0.27297297297297296,0.5037906578625581,0.6373626373626373,0.432296047098402,1192.0
205.0,1.7109212919644344e+18,0.4608355091383812,0.3698630136986301,0.2945945945945946,0.5067253607238934,0.6582417582417582,0.4558452481076535,1195.0
206.0,1.7109212919744338e+18,0.46475195822454307,0.3458904109589041,0.2648648648648649,0.5018341892883346,0.6076923076923076,0.4735071488645921,1196.0
207.0,1.7109212919844337e+18,0.47127937336814624,0.4417808219178082,0.30594594594594593,0.5001222792858889,0.6230769230769231,0.4348191757779647,1192.0
208.0,1.710921291994435e+18,0.49738903394255873,0.3515981735159817,0.2718918918918919,0.48226950354609927,0.6758241758241759,0.4701429772918419,1194.0
209.0,1.710921292004434e+18,0.4725848563968668,0.3219178082191781,0.30864864864864866,0.4925409635607728,0.6527472527472528,0.3952901597981497,1192.0
210.0,1.710921292014433e+18,0.45822454308093996,0.3721461187214612,0.2762162162162162,0.49767669356810956,0.6098901098901099,0.43313708999158956,1193.0
211.0,1.7109212920244334e+18,0.4869451697127937,0.3995433789954338,0.3389189189189189,0.49816581071166544,0.5395604395604395,0.4020185029436501,1192.0
212.0,1.7109212920344335e+18,0.5221932114882507,0.5045662100456622,0.3902702702702703,0.5023233064318905,0.6153846153846154,0.432296047098402,1193.0
213.0,1.7109212920444326e+18,0.45822454308093996,0.4006849315068493,0.32756756756756755,0.5015896307165566,0.6329670329670329,0.432296047098402,1193.0
214.0,1.7109212920544312e+18,0.5026109660574413,0.4360730593607306,0.37405405405405406,0.4969430178527757,0.4824175824175824,0.4314550042052145,1193.0
215.0,1.710921292064433e+18,0.4725848563968668,0.3858447488584475,0.28486486486486484,0.49474199070677427,0.6076923076923076,0.4693019343986543,1197.0
216.0,1.7109212920744333e+18,0.4908616187989556,0.4771689497716895,0.33135135135135135,0.4927855221325507,0.610989010989011,0.4129520605550883,1192.0
217.0,1.7109212920844337e+18,0.47780678851174935,0.3858447488584475,0.29621621621621624,0.5023233064318905,0.6626373626373626,0.415475189234651,1194.0
218.0,1.7109212920944333e+18,0.48172323759791125,0.4429223744292237,0.3362162162162162,0.4942528735632184,0.5593406593406594,0.4693019343986543,1196.0
219.0,1.710921292104466e+18,0.46344647519582244,0.454337899543379,0.37567567567567567,0.5077035950110051,0.6373626373626373,0.496215306980656,1195.0
220.0,1.7109212921144653e+18,0.48172323759791125,0.3710045662100457,0.3021621621621622,0.5018341892883346,0.6351648351648351,0.4247266610597141,1193.0
221.0,1.7109212921244664e+18,0.4556135770234987,0.4497716894977169,0.33945945945945943,0.512594766446564,0.6978021978021978,0.46173254835996635,1197.0
222.0,1.7109212921344635e+18,0.42036553524804177,0.4452054794520548,0.35027027027027025,0.49107361213010514,0.6450549450549451,0.43986543313709,1195.0
223.0,1.7109212921444332e+18,0.4464751958224543,0.3824200913242009,0.31135135135135134,0.4988994864269993,0.578021978021978,0.4306139613120269,1194.0
224.0,1.7109212921544635e+18,0.4934725848563969,0.4132420091324201,0.3324324324324324,0.5064808021521154,0.6516483516483517,0.46173254835996635,1194.0
225.0,1.7109212921644662e+18,0.45691906005221933,0.3493150684931507,0.2843243243243243,0.5133284421618978,0.6043956043956044,0.4381833473507149,1194.0
226.0,1.7109212921744658e+18,0.48172323759791125,0.4554794520547945,0.36324324324324325,0.5094155050134507,0.6197802197802198,0.4280908326324643,1192.0
227.0,1.7109212921844672e+18,0.49869451697127937,0.3984018264840183,0.28864864864864864,0.520665199315236,0.7087912087912088,0.43986543313709,1194.0
228.0,1.710921292194466e+18,0.4765013054830287,0.3573059360730594,0.312972972972973,0.49327463927610665,0.6417582417582418,0.46509671993271656,1195.0
229.0,1.7109212922044736e+18,0.49869451697127937,0.4018264840182648,0.3345945945945946,0.5152849107361213,0.6461538461538462,0.43986543313709,1196.0
230.0,1.7109212922144658e+18,0.47780678851174935,0.5136986301369864,0.3643243243243243,0.48813890926876985,0.6285714285714286,0.4280908326324643,1192.0
231.0,1.7109212922244698e+18,0.46866840731070497,0.3493150684931507,0.2875675675675676,0.49058449498654927,0.610989010989011,0.43566021867115223,1194.0
232.0,1.7109212922344684e+18,0.4490861618798956,0.4189497716894977,0.35783783783783785,0.495964783565664,0.5934065934065934,0.4289318755256518,1193.0
233.0,1.71092129224447e+18,0.5078328981723238,0.4235159817351598,0.32756756756756755,0.5201760821716801,0.6857142857142857,0.5029436501261564,1197.0
234.0,1.7109212922544707e+18,0.46736292428198434,0.3527397260273973,0.28864864864864864,0.499877720714111,0.6483516483516484,0.4213624894869638,1192.0
235.0,1.710921292264474e+18,0.39556135770234985,0.3721461187214612,0.3016216216216216,0.5064808021521154,0.6208791208791209,0.40706476030277544,1194.0
236.0,1.7109212922744694e+18,0.5117493472584856,0.5365296803652968,0.36648648648648646,0.49645390070921985,0.6010989010989011,0.4146341463414634,1193.0
237.0,1.7109212922844713e+18,0.4856396866840731,0.3687214611872146,0.3286486486486486,0.4771337735387625,0.5791208791208792,0.4112699747687132,1193.0
238.0,1.7109212922944763e+18,0.4516971279373368,0.4463470319634703,0.37567567567567567,0.5023233064318905,0.6285714285714286,0.4095878889823381,1193.0
239.0,1.7109212923052787e+18,0.5,0.4908675799086758,0.35135135135135137,0.508192712154561,0.689010989010989,0.4920100925147183,1197.0
240.0,1.710921292314442e+18,0.45822454308093996,0.4315068493150685,0.37567567567567567,0.49620934213744194,0.610989010989011,0.45164003364171573,1195.0
241.0,1.7109212923244068e+18,0.4556135770234987,0.4143835616438356,0.34702702702702704,0.5059916850085595,0.6648351648351648,0.4541631623212784,1195.0
242.0,1.7109212923344512e+18,0.4451697127937337,0.3721461187214612,0.29567567567567565,0.495720224993886,0.5901098901098901,0.4533221194280908,1197.0
243.0,1.7109212923444503e+18,0.5,0.4851598173515982,0.3145945945945946,0.5172413793103449,0.5945054945054945,0.4280908326324643,1194.0
244.0,1.710921292354453e+18,0.41906005221932113,0.408675799086758,0.3372972972972973,0.4974321349963316,0.5967032967032967,0.47771236333052985,1195.0
245.0,1.710921292364452e+18,0.4765013054830287,0.410958904109589,0.3918918918918919,0.5167522621667889,0.6648351648351648,0.4987384356602187,1194.0
246.0,1.710921292374453e+18,0.4412532637075718,0.4292237442922374,0.3481081081081081,0.4988994864269993,0.6362637362637362,0.3994953742640875,1192.0
247.0,1.7109212923844513e+18,0.4765013054830287,0.4052511415525114,0.36108108108108106,0.5057471264367817,0.6021978021978022,0.4247266610597141,1192.0
248.0,1.710921292394471e+18,0.49216710182767626,0.4269406392694064,0.3016216216216216,0.4988994864269993,0.5164835164835165,0.471825063078217,1193.0
249.0,1.71092129240445e+18,0.4308093994778068,0.4360730593607306,0.32756756756756755,0.5228662264612375,0.6494505494505495,0.4179983179142136,1194.0
250.0,1.7109212924144435e+18,0.45300261096605743,0.3835616438356164,0.34486486486486484,0.4937637564196625,0.5868131868131868,0.4095878889823381,1194.0
251.0,1.7109212924244398e+18,0.5300261096605744,0.4874429223744292,0.32594594594594595,0.5223771093176816,0.6978021978021978,0.5029436501261564,1196.0
252.0,1.7109212924344384e+18,0.43733681462140994,0.3127853881278539,0.3081081081081081,0.5028124235754463,0.5835164835164836,0.41379310344827586,1193.0
253.0,1.7109212924444403e+18,0.4830287206266319,0.4121004566210046,0.33945945945945943,0.5047688921496698,0.6318681318681318,0.4247266610597141,1190.0
254.0,1.71092129245444e+18,0.5234986945169713,0.4771689497716895,0.4,0.5077035950110051,0.6076923076923076,0.45248107653490327,1197.0
255.0,1.7109212924644398e+18,0.5091383812010444,0.5205479452054794,0.37135135135135133,0.5118610907312301,0.6318681318681318,0.43902439024390244,1195.0
256.0,1.710921292474438e+18,0.4281984334203655,0.3824200913242009,0.31945945945945947,0.4800684764000978,0.545054945054945,0.4020185029436501,1193.0
257.0,1.71092129248444e+18,0.49738903394255873,0.5011415525114156,0.33405405405405403,0.5059916850085595,0.6450549450549451,0.43566021867115223,1196.0
258.0,1.7109212924944366e+18,0.49477806788511747,0.4178082191780822,0.34540540540540543,0.49620934213744194,0.6186813186813187,0.45500420521446594,1197.0
259.0,1.7109212925044365e+18,0.4490861618798956,0.4075342465753425,0.3172972972972973,0.5099046221570066,0.6296703296703297,0.4339781328847771,1194.0
260.0,1.7109212925144374e+18,0.5757180156657964,0.6678082191780822,0.5659459459459459,0.5108828564441183,0.6802197802197802,0.503784693019344,1196.0
261.0,1.7109212925244357e+18,0.4804177545691906,0.4246575342465753,0.35135135135135137,0.5055025678650037,0.6406593406593407,0.44911690496215306,1197.0
262.0,1.710921292534437e+18,0.46736292428198434,0.4372146118721461,0.3254054054054054,0.49767669356810956,0.6450549450549451,0.4247266610597141,1191.0
263.0,1.7109212925444347e+18,0.47127937336814624,0.4006849315068493,0.3016216216216216,0.5086818292981169,0.610989010989011,0.479394449116905,1195.0
264.0,1.7109212925544315e+18,0.4451697127937337,0.386986301369863,0.31351351351351353,0.5001222792858889,0.6538461538461539,0.4121110176619008,1191.0
265.0,1.710921292564434e+18,0.45822454308093996,0.4132420091324201,0.36648648648648646,0.5064808021521154,0.6681318681318681,0.4348191757779647,1197.0
266.0,1.7109212925744325e+18,0.39295039164490864,0.3493150684931507,0.3356756756756757,0.5006113964294449,0.6021978021978022,0.3650126156433978,1193.0
267.0,1.710921292584424e+18,0.4621409921671018,0.4531963470319635,0.3491891891891892,0.4954756664221081,0.6296703296703297,0.44911690496215306,1194.0
268.0,1.7109212925944315e+18,0.4490861618798956,0.363013698630137,0.2756756756756757,0.5072144778674492,0.5824175824175825,0.40454163162321277,1192.0
269.0,1.710921292604441e+18,0.43733681462140994,0.365296803652968,0.31891891891891894,0.5231107850330154,0.6043956043956044,0.4465937762825904,1195.0
270.0,1.7109212926144356e+18,0.46736292428198434,0.3904109589041096,0.3545945945945946,0.4761555392516508,0.5846153846153846,0.4314550042052145,1190.0
271.0,1.7109212926244285e+18,0.4908616187989556,0.4052511415525114,0.3124324324324324,0.49474199070677427,0.6450549450549451,0.45164003364171573,1195.0
272.0,1.7109212926344246e+18,0.46736292428198434,0.432648401826484,0.3518918918918919,0.4930300807043287,0.5945054945054945,0.4533221194280908,1193.0
273.0,1.7109212926444362e+18,0.4595300261096606,0.430365296803653,0.3535135135135135,0.5108828564441183,0.6659340659340659,0.4339781328847771,1190.0
274.0,1.7109212926544284e+18,0.46866840731070497,0.4132420091324201,0.3335135135135135,0.4930300807043287,0.6351648351648351,0.44911690496215306,1194.0
275.0,1.710921292664431e+18,0.5221932114882507,0.5114155251141552,0.35783783783783785,0.4996331621423331,0.667032967032967,0.45500420521446594,1195.0
276.0,1.7109212926744812e+18,0.48825065274151436,0.5308219178082192,0.34702702702702704,0.5152849107361213,0.6406593406593407,0.4499579478553406,1196.0
277.0,1.7109212926844255e+18,0.4908616187989556,0.3984018264840183,0.3124324324324324,0.5091709464416728,0.6692307692307692,0.45500420521446594,1194.0
278.0,1.7109212926944648e+18,0.5091383812010444,0.4189497716894977,0.3881081081081081,0.4886280264123258,0.6054945054945055,0.4255677039529016,1192.0
279.0,1.710921292704443e+18,0.43733681462140994,0.363013698630137,0.3054054054054054,0.5155294693078992,0.6978021978021978,0.4121110176619008,1193.0
280.0,1.7109212927144676e+18,0.5026109660574413,0.4657534246575342,0.387027027027027,0.48691611640988014,0.6142857142857143,0.44575273338940286,1193.0
281.0,1.7109212927244667e+18,0.4856396866840731,0.4634703196347032,0.28054054054054056,0.5035460992907801,0.6318681318681318,0.4785534062237174,1195.0
282.0,1.7109212927344666e+18,0.4451697127937337,0.3789954337899543,0.2935135135135135,0.4839814135485449,0.5912087912087912,0.4213624894869638,1193.0
283.0,1.7109212927444667e+18,0.5600522193211488,0.4931506849315068,0.37243243243243246,0.5025678650036683,0.7285714285714285,0.5088309503784693,1195.0
284.0,1.7109212927544325e+18,0.5469973890339426,0.6084474885844748,0.4891891891891892,0.5086818292981169,0.6208791208791209,0.4558452481076535,1196.0
285.0,1.71092129276443e+18,0.48172323759791125,0.4600456621004566,0.34162162162162163,0.5118610907312301,0.6362637362637362,0.47434819175777965,1195.0
286.0,1.710921292774463e+18,0.4660574412532637,0.4611872146118721,0.4,0.49351919784788456,0.6010989010989011,0.4827586206896552,1196.0
287.0,1.7109212927844646e+18,0.48172323759791125,0.3995433789954338,0.32054054054054054,0.5008559550012228,0.6384615384615384,0.4499579478553406,1193.0
288.0,1.7109212927944602e+18,0.46866840731070497,0.4006849315068493,0.3227027027027027,0.4927855221325507,0.5791208791208792,0.4112699747687132,1192.0
289.0,1.7109212928044088e+18,0.45822454308093996,0.3835616438356164,0.31405405405405407,0.5162631450232331,0.667032967032967,0.45248107653490327,1194.0
290.0,1.71092129281446e+18,0.45691906005221933,0.3447488584474886,0.3016216216216216,0.5013450721447786,0.5912087912087912,0.415475189234651,1195.0
291.0,1.7109212928243863e+18,0.4556135770234987,0.3801369863013699,0.31675675675675674,0.5059916850085595,0.6450549450549451,0.4726661059714045,1196.0
292.0,1.710921292834421e+18,0.4464751958224543,0.3698630136986301,0.2967567567567568,0.48985081927121543,0.5571428571428572,0.4062237174095879,1195.0
293.0,1.7109212928444188e+18,0.49477806788511747,0.4383561643835616,0.3772972972972973,0.5250672536072389,0.6582417582417582,0.45164003364171573,1197.0
294.0,1.7109212928544195e+18,0.47911227154047,0.4178082191780822,0.3389189189189189,0.4815358278307655,0.6395604395604395,0.4255677039529016,1192.0
295.0,1.7109212928644221e+18,0.4464751958224543,0.4121004566210046,0.34702702702702704,0.4969430178527757,0.6681318681318681,0.4381833473507149,1198.0
296.0,1.7109212928744172e+18,0.4308093994778068,0.3835616438356164,0.34162162162162163,0.495964783565664,0.6285714285714286,0.4482758620689655,1194.0
297.0,1.7109212928844626e+18,0.4830287206266319,0.3926940639269406,0.3286486486486486,0.5116165321594522,0.6505494505494506,0.471825063078217,1196.0
298.0,1.7109212928944161e+18,0.4412532637075718,0.3755707762557078,0.3227027027027027,0.4966984592809978,0.6043956043956044,0.4112699747687132,1193.0
299.0,1.7109212929044508e+18,0.52088772845953,0.4440639269406393,0.34162162162162163,0.5182196135974566,0.6978021978021978,0.4432296047098402,1196.0
300.0,1.7109212929144233e+18,0.4360313315926893,0.4292237442922374,0.33513513513513515,0.4888725849841037,0.5747252747252747,0.4062237174095879,1192.0
301.0,1.7109212929244209e+18,0.5,0.4155251141552511,0.3302702702702703,0.5338713621912448,0.6120879120879121,0.4507989907485282,1196.0
302.0,1.7109212929344215e+18,0.45039164490861616,0.4417808219178082,0.34486486486486484,0.49767669356810956,0.6098901098901099,0.4112699747687132,1191.0
303.0,1.7109212929444198e+18,0.4556135770234987,0.3938356164383562,0.31891891891891894,0.5023233064318905,0.6406593406593407,0.4432296047098402,1197.0
304.0,1.7109212929544148e+18,0.4595300261096606,0.4223744292237443,0.37783783783783786,0.49205184641721694,0.6758241758241759,0.42304457527333894,1191.0
305.0,1.7109212929644234e+18,0.4869451697127937,0.432648401826484,0.3518918918918919,0.5035460992907801,0.6296703296703297,0.4255677039529016,1194.0
306.0,1.710921292974451e+18,0.5039164490861618,0.3801369863013699,0.3281081081081081,0.48740523355343607,0.5142857142857142,0.3936080740117746,1193.0
307.0,1.7109212929844526e+18,0.47389033942558745,0.410958904109589,0.3389189189189189,0.4783565663976522,0.5846153846153846,0.3793103448275862,1193.0
308.0,1.710921292994421e+18,0.48172323759791125,0.3938356164383562,0.32756756756756755,0.4883834678405478,0.6230769230769231,0.4533221194280908,1195.0
309.0,1.7109212930044526e+18,0.45691906005221933,0.3904109589041096,0.3362162162162162,0.5106382978723404,0.6857142857142857,0.45164003364171573,1197.0
310.0,1.710921293014453e+18,0.5574412532637075,0.5273972602739726,0.5254054054054054,0.491807287845439,0.6131868131868132,0.4726661059714045,1195.0
311.0,1.7109212930244186e+18,0.4255874673629243,0.3481735159817352,0.30864864864864866,0.5099046221570066,0.6725274725274726,0.4314550042052145,1192.0
312.0,1.7109212930344484e+18,0.4830287206266319,0.4337899543378995,0.33297297297297296,0.49474199070677427,0.6175824175824176,0.4280908326324643,1192.0
313.0,1.7109212930444526e+18,0.4934725848563969,0.4235159817351598,0.3037837837837838,0.5189532893127904,0.6923076923076923,0.5088309503784693,1194.0
314.0,1.7109212930544456e+18,0.48825065274151436,0.4463470319634703,0.35135135135135137,0.4969430178527757,0.5263736263736264,0.43650126156433977,1195.0
315.0,1.7109212930644508e+18,0.5104438642297651,0.4931506849315068,0.3956756756756757,0.5226216678894595,0.6505494505494506,0.45164003364171573,1194.0
316.0,1.7109212930744195e+18,0.45039164490861616,0.432648401826484,0.3902702702702703,0.4830031792614331,0.6142857142857143,0.4348191757779647,1196.0
317.0,1.7109212930844193e+18,0.4765013054830287,0.4726027397260274,0.38216216216216214,0.504279775006114,0.6230769230769231,0.43902439024390244,1197.0
318.0,1.710921293094442e+18,0.4869451697127937,0.4041095890410959,0.34162162162162163,0.4991440449987772,0.5714285714285714,0.43902439024390244,1197.0
319.0,1.7109212931044193e+18,0.5078328981723238,0.4463470319634703,0.3302702702702703,0.512594766446564,0.7153846153846154,0.4928511354079058,1200.0
320.0,1.7109212931144422e+18,0.4934725848563969,0.4874429223744292,0.3854054054054054,0.5018341892883346,0.5285714285714286,0.4280908326324643,1192.0
321.0,1.710921293124403e+18,0.4765013054830287,0.4440639269406393,0.3410810810810811,0.5069699192956714,0.6296703296703297,0.4533221194280908,1195.0
322.0,1.7109212931344507e+18,0.5143603133159269,0.4178082191780822,0.3443243243243243,0.491807287845439,0.5813186813186814,0.4121110176619008,1193.0
323.0,1.7109212931444419e+18,0.5026109660574413,0.430365296803653,0.37945945945945947,0.520665199315236,0.6692307692307692,0.45836837678721615,1197.0
324.0,1.710921293154423e+18,0.45039164490861616,0.3447488584474886,0.2616216216216216,0.4954756664221081,0.610989010989011,0.4255677039529016,1193.0
325.0,1.7109212931644173e+18,0.4151436031331593,0.3447488584474886,0.267027027027027,0.5270237221814624,0.6164835164835165,0.3919259882253995,1194.0
326.0,1.7109212931744228e+18,0.4608355091383812,0.4063926940639269,0.34756756756756757,0.4969430178527757,0.5813186813186814,0.4314550042052145,1193.0
327.0,1.7109212931844186e+18,0.45822454308093996,0.3584474885844749,0.31675675675675674,0.5138175593054537,0.6274725274725275,0.4659377628259041,1194.0
328.0,1.7109212931944026e+18,0.42950391644908614,0.4006849315068493,0.3286486486486486,0.49033993641477136,0.5934065934065934,0.40117746005046256,1192.0
329.0,1.7109212932044288e+18,0.45430809399477806,0.4600456621004566,0.3535135135135135,0.5172413793103449,0.6571428571428571,0.4751892346509672,1197.0
330.0,1.7109212932144174e+18,0.5248041775456919,0.4577625570776256,0.32756756756756755,0.49107361213010514,0.5527472527472528,0.42640874684608915,1192.0
331.0,1.710921293224412e+18,0.48433420365535246,0.3915525114155251,0.29405405405405405,0.5052580092932257,0.6241758241758242,0.46846089150546677,1195.0
332.0,1.710921293234426e+18,0.4751958224543081,0.4246575342465753,0.3216216216216216,0.48789435069699194,0.6054945054945055,0.4465937762825904,1194.0
333.0,1.710921293244434e+18,0.47780678851174935,0.365296803652968,0.3281081081081081,0.512594766446564,0.6527472527472528,0.4659377628259041,1195.0
334.0,1.7109212932544387e+18,0.46475195822454307,0.4737442922374429,0.38432432432432434,0.504035216434336,0.6120879120879121,0.4112699747687132,1193.0
335.0,1.7109212932644214e+18,0.5078328981723238,0.4554794520547945,0.39135135135135135,0.5196869650281243,0.6692307692307692,0.4819175777964676,1195.0
336.0,1.710921293274439e+18,0.47780678851174935,0.3812785388127854,0.29243243243243244,0.49082905355832723,0.6153846153846154,0.415475189234651,1192.0
337.0,1.7109212932844224e+18,0.5,0.3892694063926941,0.31891891891891894,0.5157740278796772,0.6428571428571429,0.4179983179142136,1193.0
338.0,1.7109212932944353e+18,0.4869451697127937,0.408675799086758,0.3324324324324324,0.495964783565664,0.6362637362637362,0.45500420521446594,1197.0
339.0,1.7109212933044283e+18,0.4595300261096606,0.4189497716894977,0.33783783783783783,0.4986549278552213,0.6285714285714286,0.44238856181665265,1195.0
340.0,1.7109212933144381e+18,0.4425587467362924,0.3835616438356164,0.32432432432432434,0.495720224993886,0.5956043956043956,0.4129520605550883,1194.0
341.0,1.7109212933244342e+18,0.5104438642297651,0.4509132420091324,0.32594594594594595,0.5079481535827831,0.6648351648351648,0.45836837678721615,1195.0
342.0,1.7109212933344328e+18,0.4386422976501306,0.3424657534246575,0.2864864864864865,0.48202494497432136,0.5538461538461539,0.4028595458368377,1193.0
343.0,1.710921293344431e+18,0.4621409921671018,0.4360730593607306,0.30972972972972973,0.5023233064318905,0.6362637362637362,0.42640874684608915,1194.0
344.0,1.7109212933544356e+18,0.4869451697127937,0.4509132420091324,0.32972972972972975,0.48936170212765956,0.6087912087912087,0.42640874684608915,1192.0
345.0,1.7109212933644303e+18,0.44386422976501305,0.3744292237442922,0.3005405405405405,0.5033015407190022,0.6450549450549451,0.4381833473507149,1196.0
346.0,1.7109212933744302e+18,0.43994778067885115,0.3675799086757991,0.3091891891891892,0.4942528735632184,0.6241758241758242,0.4533221194280908,1195.0
347.0,1.7109212933844232e+18,0.4556135770234987,0.4063926940639269,0.33405405405405403,0.5111274150158963,0.7175824175824176,0.4415475189234651,1194.0
348.0,1.7109212933944253e+18,0.54177545691906,0.6335616438356164,0.4983783783783784,0.4966984592809978,0.589010989010989,0.3969722455845248,1192.0
349.0,1.7109212934044183e+18,0.4608355091383812,0.3767123287671233,0.3491891891891892,0.5101491807287846,0.6120879120879121,0.4465937762825904,1194.0
350.0,1.710921293414425e+18,0.46344647519582244,0.4223744292237443,0.3302702702702703,0.504524333577892,0.6681318681318681,0.432296047098402,1191.0
351.0,1.710921293424426e+18,0.47911227154047,0.3938356164383562,0.3410810810810811,0.5116165321594522,0.6637362637362637,0.456686291000841,1197.0
352.0,1.7109212934344266e+18,0.5261096605744126,0.5799086757990868,0.36864864864864866,0.49400831499144043,0.6153846153846154,0.4608915054667788,1195.0
353.0,1.7109212934444273e+18,0.46736292428198434,0.3949771689497717,0.3172972972972973,0.512350207874786,0.6637362637362637,0.4449116904962153,1196.0
354.0,1.710921293454875e+18,0.5104438642297651,0.4200913242009132,0.33783783783783783,0.499877720714111,0.6164835164835165,0.456686291000841,1194.0
355.0,1.7109212934644257e+18,0.4451697127937337,0.384703196347032,0.2745945945945946,0.5143066764490095,0.710989010989011,0.4449116904962153,1193.0
356.0,1.7109212934744015e+18,0.47389033942558745,0.5136986301369864,0.33837837837837836,0.4927855221325507,0.5659340659340659,0.3969722455845248,1195.0
357.0,1.7109212934844431e+18,0.47389033942558745,0.410958904109589,0.34162162162162163,0.5047688921496698,0.6527472527472528,0.4861227922624054,1197.0
358.0,1.7109212934944056e+18,0.4451697127937337,0.3767123287671233,0.3497297297297297,0.4886280264123258,0.6153846153846154,0.4222035323801514,1193.0
359.0,1.7109212935044209e+18,0.40992167101827676,0.3287671232876712,0.2762162162162162,0.4969430178527757,0.6626373626373626,0.4247266610597141,1194.0
360.0,1.7109212935144166e+18,0.5156657963446475,0.4041095890410959,0.30594594594594593,0.4781120078258743,0.6153846153846154,0.44238856181665265,1193.0
361.0,1.7109212935244221e+18,0.5182767624020888,0.4417808219178082,0.38,0.5118610907312301,0.6626373626373626,0.45500420521446594,1194.0
362.0,1.71092129353442e+18,0.4281984334203655,0.363013698630137,0.30324324324324325,0.48936170212765956,0.6274725274725275,0.4280908326324643,1190.0
363.0,1.710921293544419e+18,0.47127937336814624,0.4509132420091324,0.33405405405405403,0.5089263878698949,0.6406593406593407,0.45836837678721615,1196.0
364.0,1.7109212935544246e+18,0.4464751958224543,0.3310502283105023,0.28378378378378377,0.504035216434336,0.5956043956043956,0.42640874684608915,1192.0
365.0,1.7109212935644232e+18,0.5052219321148825,0.4052511415525114,0.3302702702702703,0.5064808021521154,0.6802197802197802,0.46509671993271656,1195.0
366.0,1.7109212935744197e+18,0.4425587467362924,0.4212328767123288,0.3254054054054054,0.49620934213744194,0.6142857142857143,0.4095878889823381,1191.0
367.0,1.7109212935844332e+18,0.5065274151436031,0.3493150684931507,0.3627027027027027,0.5062362435803375,0.5417582417582417,0.49957947855340623,1193.0
368.0,1.710921293594443e+18,0.4699738903394256,0.3664383561643836,0.29081081081081084,0.48495964783565665,0.5516483516483517,0.4121110176619008,1194.0
369.0,1.7109212936044508e+18,0.44778067885117495,0.3687214611872146,0.29783783783783785,0.5011005135730008,0.6780219780219781,0.4415475189234651,1198.0
370.0,1.710921293614417e+18,0.4347258485639687,0.3881278538812785,0.29783783783783785,0.5069699192956714,0.6538461538461539,0.4121110176619008,1193.0
371.0,1.7109212936244204e+18,0.48825065274151436,0.4200913242009132,0.35135135135135137,0.5084372707263389,0.6428571428571429,0.44911690496215306,1196.0
372.0,1.7109212936344238e+18,0.43733681462140994,0.3607305936073059,0.29081081081081084,0.49327463927610665,0.5923076923076923,0.39781328847771236,1192.0
373.0,1.710921293644422e+18,0.47389033942558745,0.4280821917808219,0.31891891891891894,0.5113719735876743,0.6978021978021978,0.4827586206896552,1195.0
374.0,1.7109212936544264e+18,0.4451697127937337,0.363013698630137,0.2972972972972973,0.48202494497432136,0.5439560439560439,0.41379310344827586,1193.0
375.0,1.710921293664423e+18,0.4660574412532637,0.3949771689497717,0.28594594594594597,0.49400831499144043,0.5967032967032967,0.407905803195963,1192.0
376.0,1.7109212936744174e+18,0.52088772845953,0.5182648401826484,0.4918918918918919,0.491807287845439,0.634065934065934,0.4449116904962153,1196.0
377.0,1.7109212936844378e+18,0.489556135770235,0.4063926940639269,0.3216216216216216,0.5057471264367817,0.6329670329670329,0.4608915054667788,1197.0
378.0,1.7109212936944218e+18,0.4751958224543081,0.4143835616438356,0.3145945945945946,0.48985081927121543,0.5131868131868131,0.400336417157275,1194.0
379.0,1.7109212937044403e+18,0.4621409921671018,0.4337899543378995,0.31945945945945947,0.5145512350207875,0.6604395604395604,0.4558452481076535,1198.0
380.0,1.710921293714434e+18,0.4516971279373368,0.3995433789954338,0.3324324324324324,0.49107361213010514,0.5395604395604395,0.3952901597981497,1193.0
381.0,1.7109212937244321e+18,0.4804177545691906,0.4041095890410959,0.3216216216216216,0.5135730007336757,0.667032967032967,0.4482758620689655,1195.0
382.0,1.7109212937344328e+18,0.49216710182767626,0.4726027397260274,0.45513513513513515,0.4942528735632184,0.6010989010989011,0.488645920941968,1197.0
383.0,1.7109212937444324e+18,0.46475195822454307,0.3664383561643836,0.3021621621621622,0.516507703595011,0.6736263736263737,0.4634146341463415,1195.0
384.0,1.7109212937544236e+18,0.5326370757180157,0.5045662100456622,0.4243243243243243,0.49327463927610665,0.6131868131868132,0.4541631623212784,1196.0
385.0,1.7109212937644326e+18,0.42689295039164493,0.3607305936073059,0.2681081081081081,0.5077035950110051,0.6714285714285714,0.41968040370058873,1192.0
386.0,1.710921293774435e+18,0.45691906005221933,0.4178082191780822,0.33675675675675676,0.49400831499144043,0.6065934065934065,0.40706476030277544,1192.0
387.0,1.7109212937844434e+18,0.47780678851174935,0.4132420091324201,0.3356756756756757,0.4988994864269993,0.6153846153846154,0.4381833473507149,1193.0
388.0,1.7109212937944325e+18,0.4725848563968668,0.3858447488584475,0.32216216216216215,0.4925409635607728,0.6186813186813187,0.4381833473507149,1195.0
389.0,1.7109212938044324e+18,0.4451697127937337,0.3904109589041096,0.31405405405405407,0.5059916850085595,0.6692307692307692,0.4432296047098402,1196.0
390.0,1.710921293814435e+18,0.489556135770235,0.4657534246575342,0.37351351351351353,0.49033993641477136,0.6153846153846154,0.4306139613120269,1193.0
391.0,1.7109212938244365e+18,0.47127937336814624,0.3481735159817352,0.3410810810810811,0.512350207874786,0.6802197802197802,0.45836837678721615,1196.0
392.0,1.7109212938344504e+18,0.4386422976501306,0.3881278538812785,0.31891891891891894,0.48911714355588165,0.5428571428571428,0.39781328847771236,1191.0
393.0,1.710921293844477e+18,0.43994778067885115,0.3812785388127854,0.29621621621621624,0.5067253607238934,0.6373626373626373,0.42640874684608915,1193.0
394.0,1.710921293854435e+18,0.45822454308093996,0.3904109589041096,0.2756756756756757,0.46661775495231106,0.5164835164835165,0.3936080740117746,1191.0
395.0,1.7109212938644516e+18,0.5182767624020888,0.4360730593607306,0.37513513513513513,0.49620934213744194,0.6637362637362637,0.4608915054667788,1195.0
396.0,1.7109212938744212e+18,0.4725848563968668,0.4497716894977169,0.35135135135135137,0.5030569821472243,0.6318681318681318,0.43902439024390244,1196.0
397.0,1.710921293884728e+18,0.46866840731070497,0.3995433789954338,0.3372972972972973,0.5089263878698949,0.5571428571428572,0.4499579478553406,1195.0
398.0,1.7109212938944364e+18,0.43994778067885115,0.3527397260273973,0.3021621621621622,0.4937637564196625,0.5802197802197803,0.40706476030277544,1194.0
399.0,1.710921293904433e+18,0.45691906005221933,0.3584474885844749,0.3172972972972973,0.5062362435803375,0.6329670329670329,0.4348191757779647,1196.0
400.0,1.7109212939144364e+18,0.47911227154047,0.3858447488584475,0.3281081081081081,0.49327463927610665,0.6274725274725275,0.4381833473507149,1196.0
401.0,1.7109212939244296e+18,0.44778067885117495,0.4052511415525114,0.3254054054054054,0.5028124235754463,0.6351648351648351,0.42640874684608915,1193.0
402.0,1.7109212939344297e+18,0.5182767624020888,0.5057077625570776,0.3643243243243243,0.45512350207874785,0.5912087912087912,0.41715727502102606,1192.0
403.0,1.7109212939444541e+18,0.5339425587467362,0.3641552511415525,0.24972972972972973,0.5096600635852286,0.7395604395604396,0.4894869638351556,1197.0
404.0,1.7109212939544243e+18,0.4556135770234987,0.4166666666666667,0.3924324324324324,0.49058449498654927,0.5835164835164836,0.4146341463414634,1192.0
405.0,1.7109212939644257e+18,0.4804177545691906,0.4292237442922374,0.37945945945945947,0.5145512350207875,0.6098901098901099,0.4482758620689655,1195.0
406.0,1.7109212939744233e+18,0.4725848563968668,0.4052511415525114,0.3389189189189189,0.4944974321349963,0.6329670329670329,0.4314550042052145,1193.0
407.0,1.710921293984427e+18,0.4621409921671018,0.410958904109589,0.34054054054054056,0.5253118121790169,0.634065934065934,0.4600504625735913,1194.0
408.0,1.7109212939944136e+18,0.4608355091383812,0.3687214611872146,0.3016216216216216,0.49816581071166544,0.6384615384615384,0.4608915054667788,1195.0
409.0,1.7109212940044255e+18,0.4830287206266319,0.4063926940639269,0.31891891891891894,0.5157740278796772,0.6362637362637362,0.4415475189234651,1195.0
410.0,1.7109212940144228e+18,0.48172323759791125,0.3755707762557078,0.3232432432432432,0.47542186353631694,0.5417582417582417,0.4121110176619008,1192.0
411.0,1.710921294024424e+18,0.48433420365535246,0.4292237442922374,0.3237837837837838,0.5018341892883346,0.5659340659340659,0.432296047098402,1193.0
412.0,1.7109212940344233e+18,0.4595300261096606,0.3675799086757991,0.3237837837837838,0.49033993641477136,0.6241758241758242,0.3961312026913373,1192.0
413.0,1.7109212940444234e+18,0.46866840731070497,0.3755707762557078,0.32756756756756755,0.5226216678894595,0.6472527472527473,0.4339781328847771,1194.0
414.0,1.710921294054428e+18,0.4765013054830287,0.4589041095890411,0.3427027027027027,0.4913181707018831,0.6153846153846154,0.415475189234651,1192.0
415.0,1.7109212940644247e+18,0.43342036553524804,0.341324200913242,0.31405405405405407,0.49767669356810956,0.6241758241758242,0.4314550042052145,1194.0
416.0,1.7109212940744207e+18,0.5013054830287206,0.3732876712328767,0.32,0.48618244069454636,0.6505494505494506,0.41968040370058873,1194.0
417.0,1.7109212940844344e+18,0.5013054830287206,0.4041095890410959,0.3621621621621622,0.5194424064563463,0.6417582417582418,0.4482758620689655,1196.0
418.0,1.7109212940944218e+18,0.4464751958224543,0.4372146118721461,0.30648648648648646,0.4930300807043287,0.5725274725274725,0.4634146341463415,1194.0
419.0,1.7109212941044232e+18,0.42689295039164493,0.363013698630137,0.33405405405405403,0.5128393250183418,0.6428571428571429,0.43986543313709,1196.0
420.0,1.7109212941144187e+18,0.49738903394255873,0.3915525114155251,0.3902702702702703,0.48985081927121543,0.6153846153846154,0.46509671993271656,1195.0
421.0,1.7109212941244214e+18,0.4308093994778068,0.3447488584474886,0.29081081081081084,0.5028124235754463,0.6703296703296703,0.464255677039529,1193.0
422.0,1.710921294134419e+18,0.4699738903394256,0.3641552511415525,0.32,0.5064808021521154,0.521978021978022,0.38183347350714886,1193.0
423.0,1.7109212941444403e+18,0.5300261096605744,0.4874429223744292,0.4540540540540541,0.5199315235999021,0.7527472527472527,0.5416316232127838,1197.0
424.0,1.7109212941544212e+18,0.47389033942558745,0.4121004566210046,0.31675675675675674,0.48642699926632427,0.5934065934065934,0.4121110176619008,1193.0
425.0,1.7109212941644214e+18,0.5039164490861618,0.4178082191780822,0.3708108108108108,0.5145512350207875,0.6406593406593407,0.4499579478553406,1196.0
426.0,1.7109212941744515e+18,0.4830287206266319,0.365296803652968,0.3145945945945946,0.49327463927610665,0.6010989010989011,0.4314550042052145,1193.0
427.0,1.7109212941844426e+18,0.48172323759791125,0.3710045662100457,0.3572972972972973,0.5047688921496698,0.6384615384615384,0.447434819175778,1196.0
428.0,1.7109212941944182e+18,0.4934725848563969,0.4554794520547945,0.33675675675675676,0.5013450721447786,0.6274725274725275,0.4280908326324643,1191.0
429.0,1.71092129420442e+18,0.4725848563968668,0.3710045662100457,0.31567567567567567,0.4969430178527757,0.710989010989011,0.46509671993271656,1196.0
430.0,1.7109212942144174e+18,0.52088772845953,0.3892694063926941,0.32054054054054054,0.4812912692589875,0.5824175824175825,0.4415475189234651,1195.0
431.0,1.7109212942244196e+18,0.4412532637075718,0.3778538812785388,0.32054054054054054,0.49229640498899485,0.6351648351648351,0.432296047098402,1191.0
432.0,1.7109212942344184e+18,0.5052219321148825,0.4189497716894977,0.32054054054054054,0.4896062606994375,0.6406593406593407,0.4482758620689655,1196.0
433.0,1.7109212942444232e+18,0.46866840731070497,0.3995433789954338,0.34486486486486484,0.5253118121790169,0.6725274725274726,0.4558452481076535,1194.0
434.0,1.7109212942544228e+18,0.41383812010443866,0.3732876712328767,0.34054054054054056,0.49523110785033014,0.6538461538461539,0.38519764507989906,1193.0
435.0,1.7109212942644183e+18,0.4934725848563969,0.454337899543379,0.3335135135135135,0.5196869650281243,0.6714285714285714,0.46509671993271656,1197.0
436.0,1.710921294274418e+18,0.43994778067885115,0.3744292237442922,0.27783783783783783,0.495964783565664,0.5615384615384615,0.40454163162321277,1193.0
437.0,1.710921294284423e+18,0.4699738903394256,0.3881278538812785,0.34378378378378377,0.5059916850085595,0.6054945054945055,0.43566021867115223,1196.0
438.0,1.7109212942943839e+18,0.49869451697127937,0.5182648401826484,0.4237837837837838,0.4925409635607728,0.6065934065934065,0.4314550042052145,1192.0
439.0,1.7109212943044262e+18,0.47911227154047,0.4269406392694064,0.37513513513513513,0.5135730007336757,0.6758241758241759,0.4785534062237174,1196.0
440.0,1.7109212943144182e+18,0.45039164490861616,0.3972602739726027,0.3318918918918919,0.4991440449987772,0.5604395604395604,0.4163162321278385,1192.0
441.0,1.7109212943244393e+18,0.49477806788511747,0.4189497716894977,0.36486486486486486,0.5069699192956714,0.6208791208791209,0.45248107653490327,1197.0
442.0,1.71092129433442e+18,0.489556135770235,0.3687214611872146,0.2810810810810811,0.48789435069699194,0.6373626373626373,0.4415475189234651,1195.0
443.0,1.7109212943444224e+18,0.4608355091383812,0.4178082191780822,0.33675675675675676,0.504524333577892,0.6076923076923076,0.456686291000841,1195.0
444.0,1.7109212943544315e+18,0.45300261096605743,0.3732876712328767,0.3308108108108108,0.49107361213010514,0.6043956043956044,0.4785534062237174,1193.0
445.0,1.7109212943644006e+18,0.5026109660574413,0.4006849315068493,0.3027027027027027,0.4842259721203228,0.5714285714285714,0.4693019343986543,1196.0
446.0,1.7109212943744212e+18,0.4765013054830287,0.4817351598173516,0.3762162162162162,0.491807287845439,0.5615384615384615,0.4146341463414634,1192.0
447.0,1.7109212943844224e+18,0.4112271540469974,0.3356164383561644,0.23783783783783785,0.5030569821472243,0.6582417582417582,0.4222035323801514,1190.0
448.0,1.7109212943944248e+18,0.5026109660574413,0.5159817351598174,0.3675675675675676,0.48789435069699194,0.610989010989011,0.4415475189234651,1196.0
449.0,1.710921294404407e+18,0.45691906005221933,0.3926940639269406,0.3286486486486486,0.5238444607483492,0.6494505494505495,0.456686291000841,1196.0
450.0,1.7109212944144233e+18,0.4177545691906005,0.4041095890410959,0.36,0.4805575935436537,0.554945054945055,0.3843566021867115,1193.0
451.0,1.7109212944244224e+18,0.4608355091383812,0.4668949771689498,0.3972972972972973,0.4944974321349963,0.6604395604395604,0.4634146341463415,1193.0
452.0,1.710921294434423e+18,0.4608355091383812,0.3698630136986301,0.34864864864864864,0.49645390070921985,0.5967032967032967,0.4146341463414634,1192.0
453.0,1.710921294444425e+18,0.48172323759791125,0.4098173515981735,0.36864864864864866,0.5226216678894595,0.6263736263736264,0.5063078216989066,1196.0
454.0,1.7109212944544243e+18,0.4412532637075718,0.3458904109589041,0.3567567567567568,0.4854487649792125,0.5802197802197803,0.3919259882253995,1191.0
455.0,1.7109212944644242e+18,0.5026109660574413,0.4965753424657534,0.3637837837837838,0.5240890193201272,0.6417582417582418,0.4634146341463415,1195.0
456.0,1.7109212944744233e+18,0.4464751958224543,0.3915525114155251,0.34324324324324323,0.5020787478601125,0.6296703296703297,0.4314550042052145,1193.0
457.0,1.710921294484405e+18,0.46475195822454307,0.4463470319634703,0.32216216216216215,0.5077035950110051,0.6197802197802198,0.4415475189234651,1195.0
458.0,1.710921294494426e+18,0.4725848563968668,0.4257990867579909,0.3362162162162162,0.4984103692834434,0.5527472527472528,0.40454163162321277,1192.0
459.0,1.7109212945043958e+18,0.48433420365535246,0.4474885844748858,0.36864864864864866,0.5177304964539007,0.7054945054945055,0.4726661059714045,1196.0
460.0,1.7109212945144225e+18,0.4451697127937337,0.3801369863013699,0.3075675675675676,0.49229640498899485,0.5956043956043956,0.4163162321278385,1194.0
461.0,1.7109212945244273e+18,0.49216710182767626,0.3995433789954338,0.2637837837837838,0.5037906578625581,0.5967032967032967,0.4507989907485282,1196.0
462.0,1.7109212945344264e+18,0.4321148825065274,0.341324200913242,0.2789189189189189,0.4988994864269993,0.5626373626373626,0.39444911690496215,1195.0
463.0,1.7109212945444265e+18,0.45822454308093996,0.3698630136986301,0.3216216216216216,0.5106382978723404,0.6450549450549451,0.4415475189234651,1196.0
464.0,1.710921294554432e+18,0.5182767624020888,0.4520547945205479,0.3567567567567568,0.4896062606994375,0.578021978021978,0.4507989907485282,1195.0
465.0,1.7109212945644316e+18,0.4830287206266319,0.3995433789954338,0.3227027027027027,0.5145512350207875,0.6505494505494506,0.4592094196804037,1194.0
466.0,1.7109212945744274e+18,0.40339425587467365,0.3207762557077626,0.2735135135135135,0.4871606749816581,0.5868131868131868,0.3860386879730866,1193.0
467.0,1.7109212945844006e+18,0.4751958224543081,0.3915525114155251,0.34594594594594597,0.5145512350207875,0.7505494505494505,0.5306980656013457,1193.0
468.0,1.7109212945944259e+18,0.4308093994778068,0.3276255707762557,0.2897297297297297,0.48789435069699194,0.5758241758241758,0.4087468460891506,1190.0
469.0,1.7109212946044324e+18,0.49477806788511747,0.3264840182648402,0.15135135135135136,0.5096600635852286,0.5989010989010989,0.552565180824222,1197.0
470.0,1.71092129461443e+18,0.37597911227154046,0.3253424657534247,0.27837837837837837,0.47933480068476403,0.5417582417582417,0.2657695542472666,1192.0
471.0,1.7109212946244293e+18,0.49477806788511747,0.3515981735159817,0.34594594594594597,0.48642699926632427,0.49230769230769234,0.5121951219512195,1196.0
472.0,1.710921294634414e+18,0.489556135770235,0.3858447488584475,0.2913513513513514,0.4803130349718758,0.6285714285714286,0.4415475189234651,1193.0
473.0,1.710921294644431e+18,0.38903394255874674,0.3082191780821918,0.2827027027027027,0.5089263878698949,0.610989010989011,0.4465937762825904,1196.0
474.0,1.7109212946544317e+18,0.4660574412532637,0.2990867579908676,0.24486486486486486,0.48740523355343607,0.5395604395604395,0.4053826745164003,1192.0
475.0,1.7109212946644365e+18,0.5013054830287206,0.5091324200913242,0.37351351351351353,0.48985081927121543,0.6186813186813187,0.4440706476030278,1198.0
476.0,1.7109212946744323e+18,0.4425587467362924,0.3767123287671233,0.2918918918918919,0.48813890926876985,0.5967032967032967,0.42640874684608915,1193.0
477.0,1.7109212946844388e+18,0.5352480417754569,0.4817351598173516,0.3567567567567568,0.5282465150403521,0.5989010989010989,0.46761984861227923,1198.0
478.0,1.7109212946944325e+18,0.49738903394255873,0.3961187214611872,0.32594594594594595,0.4827586206896552,0.6395604395604395,0.4028595458368377,1194.0
479.0,1.7109212947044334e+18,0.46475195822454307,0.4486301369863014,0.35783783783783785,0.5172413793103449,0.667032967032967,0.44238856181665265,1196.0
480.0,1.7109212947144366e+18,0.47911227154047,0.3915525114155251,0.32756756756756755,0.491562729273661,0.5802197802197803,0.4163162321278385,1194.0
481.0,1.7109212947243917e+18,0.47911227154047,0.4589041095890411,0.34324324324324323,0.5133284421618978,0.6582417582417582,0.4339781328847771,1194.0
482.0,1.710921294734437e+18,0.49216710182767626,0.4178082191780822,0.3389189189189189,0.48911714355588165,0.5538461538461539,0.407905803195963,1193.0
483.0,1.710921294744439e+18,0.49216710182767626,0.4520547945205479,0.34702702702702704,0.5116165321594522,0.6494505494505495,0.4465937762825904,1194.0
484.0,1.7109212947544468e+18,0.4765013054830287,0.3824200913242009,0.3286486486486486,0.47786744925409635,0.5923076923076923,0.4238856181665265,1193.0
485.0,1.7109212947644175e+18,0.4046997389033943,0.319634703196347,0.31675675675675674,0.5162631450232331,0.667032967032967,0.4667788057190917,1196.0
486.0,1.7109212947744182e+18,0.49216710182767626,0.4223744292237443,0.34756756756756757,0.4798239178283199,0.5747252747252747,0.4280908326324643,1192.0
487.0,1.7109212947844209e+18,0.45822454308093996,0.4452054794520548,0.3427027027027027,0.5191978478845684,0.6736263736263737,0.45248107653490327,1193.0
488.0,1.7109212947944202e+18,0.4516971279373368,0.454337899543379,0.40324324324324323,0.491807287845439,0.5956043956043956,0.4499579478553406,1194.0
489.0,1.7109212948044206e+18,0.5339425587467362,0.4965753424657534,0.39297297297297296,0.5118610907312301,0.654945054945055,0.4432296047098402,1196.0
490.0,1.7109212948144174e+18,0.46736292428198434,0.4121004566210046,0.3345945945945946,0.4871606749816581,0.6065934065934065,0.4179983179142136,1194.0
491.0,1.7109212948244227e+18,0.5887728459530026,0.636986301369863,0.5367567567567567,0.5302029836145757,0.743956043956044,0.5618166526492852,1198.0
492.0,1.7109212948344238e+18,0.45430809399477806,0.4132420091324201,0.292972972972973,0.48373685497676694,0.5417582417582417,0.4062237174095879,1194.0
493.0,1.7109212948444513e+18,0.4608355091383812,0.4269406392694064,0.33513513513513515,0.5113719735876743,0.6362637362637362,0.432296047098402,1192.0
494.0,1.7109212948544287e+18,0.489556135770235,0.3984018264840183,0.29081081081081084,0.49498654927855223,0.6285714285714286,0.5441547518923465,1196.0
495.0,1.7109212948644232e+18,0.47127937336814624,0.4269406392694064,0.3583783783783784,0.5106382978723404,0.621978021978022,0.4381833473507149,1196.0
496.0,1.7109212948744228e+18,0.4765013054830287,0.3949771689497717,0.2891891891891892,0.48985081927121543,0.6087912087912087,0.4129520605550883,1194.0
497.0,1.7109212948844237e+18,0.4869451697127937,0.3664383561643836,0.252972972972973,0.5111274150158963,0.6626373626373626,0.4768713204373423,1195.0
498.0,1.710921294894457e+18,0.47127937336814624,0.3995433789954338,0.33297297297297296,0.49816581071166544,0.567032967032967,0.39781328847771236,1192.0
499.0,1.7109212949044183e+18,0.38642297650130547,0.3493150684931507,0.2875675675675676,0.504524333577892,0.6241758241758242,0.4188393608074012,1193.0
500.0,1.7109212949144253e+18,0.4451697127937337,0.4269406392694064,0.3589189189189189,0.4810467106872096,0.5494505494505495,0.3767872161480236,1192.0
501.0,1.7109212949244268e+18,0.4556135770234987,0.4041095890410959,0.37135135135135133,0.5111274150158963,0.6285714285714286,0.43313708999158956,1192.0
502.0,1.7109212949344458e+18,0.4556135770234987,0.4200913242009132,0.2967567567567568,0.4900953778429934,0.5593406593406594,0.43566021867115223,1193.0
503.0,1.7109212949444273e+18,0.5013054830287206,0.4908675799086758,0.35405405405405405,0.5196869650281243,0.7384615384615385,0.49032800672834315,1195.0
504.0,1.7109212949544223e+18,0.5039164490861618,0.4577625570776256,0.3643243243243243,0.48618244069454636,0.5571428571428572,0.4112699747687132,1192.0
505.0,1.710921294964425e+18,0.47127937336814624,0.4360730593607306,0.3589189189189189,0.5238444607483492,0.6780219780219781,0.4255677039529016,1192.0
506.0,1.710921294974424e+18,0.4412532637075718,0.3801369863013699,0.3021621621621622,0.5030569821472243,0.6054945054945055,0.4247266610597141,1192.0
507.0,1.7109212949844275e+18,0.5026109660574413,0.4200913242009132,0.3827027027027027,0.5140621178772316,0.656043956043956,0.46509671993271656,1192.0
508.0,1.7109212949944271e+18,0.5378590078328982,0.4246575342465753,0.3124324324324324,0.4944974321349963,0.6054945054945055,0.49032800672834315,1196.0
509.0,1.7109212950044257e+18,0.47780678851174935,0.4235159817351598,0.3345945945945946,0.5174859378821227,0.6648351648351648,0.456686291000841,1195.0
510.0,1.7109212950144287e+18,0.5731070496083551,0.4657534246575342,0.39513513513513515,0.49938860357055515,0.667032967032967,0.5323801513877208,1195.0
511.0,1.7109212950244268e+18,0.4086161879895561,0.3550228310502283,0.30594594594594593,0.5270237221814624,0.6450549450549451,0.42304457527333894,1191.0
512.0,1.7109212950344259e+18,0.4751958224543081,0.4006849315068493,0.29405405405405405,0.48251406211787723,0.567032967032967,0.4129520605550883,1192.0
513.0,1.7109212950444252e+18,0.4595300261096606,0.3276255707762557,0.2945945945945946,0.5077035950110051,0.6461538461538462,0.44575273338940286,1195.0
514.0,1.7109212950544225e+18,0.4869451697127937,0.3356164383561644,0.2610810810810811,0.4883834678405478,0.5615384615384615,0.42052144659377627,1192.0
515.0,1.7109212950644252e+18,0.5182767624020888,0.4406392694063927,0.32594594594594595,0.5103937393005625,0.6648351648351648,0.47434819175777965,1194.0
516.0,1.7109212950744228e+18,0.47127937336814624,0.3584474885844749,0.2983783783783784,0.48080215211543165,0.5472527472527473,0.407905803195963,1192.0
517.0,1.7109212950844273e+18,0.4699738903394256,0.3972602739726027,0.307027027027027,0.5094155050134507,0.6285714285714286,0.45164003364171573,1195.0
518.0,1.7109212950944243e+18,0.47389033942558745,0.4292237442922374,0.3054054054054054,0.4781120078258743,0.5769230769230769,0.4053826745164003,1194.0
519.0,1.7109212951044204e+18,0.5509138381201044,0.4851598173515982,0.34702702702702704,0.5187087307410124,0.7032967032967034,0.49032800672834315,1196.0
520.0,1.710921295114417e+18,0.4516971279373368,0.3858447488584475,0.3145945945945946,0.4930300807043287,0.5989010989010989,0.4053826745164003,1193.0
521.0,1.7109212951244196e+18,0.49738903394255873,0.4463470319634703,0.3248648648648649,0.5160185864514552,0.6505494505494506,0.4533221194280908,1196.0
522.0,1.7109212951344197e+18,0.4830287206266319,0.4235159817351598,0.4281081081081081,0.5172413793103449,0.6978021978021978,0.46173254835996635,1195.0
523.0,1.710921295144422e+18,0.4464751958224543,0.3573059360730594,0.29945945945945945,0.5243335778919052,0.6450549450549451,0.45164003364171573,1194.0
524.0,1.7109212951544146e+18,0.4765013054830287,0.3961187214611872,0.3178378378378378,0.4927855221325507,0.5791208791208792,0.41379310344827586,1193.0
525.0,1.7109212951644268e+18,0.44386422976501305,0.3162100456621005,0.2762162162162162,0.5111274150158963,0.6230769230769231,0.471825063078217,1196.0
526.0,1.710921295174423e+18,0.4765013054830287,0.3812785388127854,0.32216216216216215,0.47640009782342874,0.5593406593406594,0.3826745164003364,1192.0
527.0,1.7109212951844255e+18,0.4869451697127937,0.4600456621004566,0.3583783783783784,0.5152849107361213,0.6527472527472528,0.4499579478553406,1194.0
528.0,1.7109212951944192e+18,0.41383812010443866,0.2819634703196347,0.2518918918918919,0.48691611640988014,0.5978021978021978,0.383515559293524,1193.0
529.0,1.7109212952044244e+18,0.47780678851174935,0.4155251141552511,0.47675675675675677,0.5069699192956714,0.7054945054945055,0.4339781328847771,1193.0
530.0,1.710921295214415e+18,0.43733681462140994,0.3972602739726027,0.3081081081081081,0.4739545121056493,0.4912087912087912,0.3860386879730866,1193.0
531.0,1.7109212952244152e+18,0.43994778067885115,0.4292237442922374,0.33837837837837836,0.5086818292981169,0.6208791208791209,0.45164003364171573,1194.0
532.0,1.7109212952344138e+18,0.4765013054830287,0.3972602739726027,0.31945945945945947,0.48789435069699194,0.5967032967032967,0.41715727502102606,1191.0
533.0,1.7109212952444093e+18,0.49477806788511747,0.386986301369863,0.33405405405405403,0.512350207874786,0.6516483516483517,0.44575273338940286,1195.0
534.0,1.7109212952544084e+18,0.4765013054830287,0.3926940639269406,0.33135135135135135,0.48495964783565665,0.5967032967032967,0.4121110176619008,1193.0
535.0,1.7109212952644214e+18,0.4425587467362924,0.3538812785388128,0.34486486486486484,0.4900953778429934,0.6153846153846154,0.43650126156433977,1195.0
536.0,1.7109212952744192e+18,0.4425587467362924,0.3687214611872146,0.3248648648648649,0.49327463927610665,0.567032967032967,0.4020185029436501,1192.0
537.0,1.710921295284432e+18,0.47127937336814624,0.4292237442922374,0.3545945945945946,0.5077035950110051,0.6142857142857143,0.432296047098402,1194.0
538.0,1.7109212952944453e+18,0.4751958224543081,0.4474885844748858,0.3345945945945946,0.49327463927610665,0.6032967032967033,0.42304457527333894,1192.0
539.0,1.710921295304423e+18,0.4608355091383812,0.4360730593607306,0.33297297297297296,0.5055025678650037,0.6120879120879121,0.43902439024390244,1196.0
540.0,1.710921295314422e+18,0.4151436031331593,0.3949771689497717,0.23945945945945946,0.48226950354609927,0.545054945054945,0.4028595458368377,1192.0
541.0,1.710921295324421e+18,0.4725848563968668,0.4463470319634703,0.3427027027027027,0.5116165321594522,0.6714285714285714,0.43986543313709,1196.0
542.0,1.7109212953344184e+18,0.4490861618798956,0.3812785388127854,0.33513513513513515,0.495720224993886,0.5846153846153846,0.4020185029436501,1193.0
543.0,1.71092129534442e+18,0.45822454308093996,0.3767123287671233,0.29945945945945945,0.508192712154561,0.634065934065934,0.4659377628259041,1196.0
544.0,1.7109212953544364e+18,0.4660574412532637,0.4052511415525114,0.3016216216216216,0.5006113964294449,0.5989010989010989,0.4255677039529016,1192.0
545.0,1.7109212953644244e+18,0.5091383812010444,0.502283105022831,0.3924324324324324,0.5138175593054537,0.6934065934065934,0.5256518082422204,1196.0
546.0,1.7109212953744256e+18,0.48172323759791125,0.4223744292237443,0.33945945945945943,0.495720224993886,0.5857142857142857,0.4053826745164003,1192.0
547.0,1.7109212953844319e+18,0.4321148825065274,0.4006849315068493,0.31675675675675674,0.5108828564441183,0.656043956043956,0.4861227922624054,1194.0
548.0,1.7109212953944207e+18,0.4830287206266319,0.4897260273972603,0.3994594594594595,0.49474199070677427,0.6065934065934065,0.40117746005046256,1192.0
549.0,1.7109212954044252e+18,0.46736292428198434,0.4315068493150685,0.3162162162162162,0.5103937393005625,0.6505494505494506,0.4415475189234651,1196.0
550.0,1.710921295414425e+18,0.47911227154047,0.3984018264840183,0.3248648648648649,0.49767669356810956,0.6054945054945055,0.4381833473507149,1196.0
551.0,1.7109212954244157e+18,0.4360313315926893,0.4212328767123288,0.3308108108108108,0.5099046221570066,0.6626373626373626,0.4339781328847771,1192.0
552.0,1.7109212954344177e+18,0.45691906005221933,0.3915525114155251,0.32054054054054054,0.4839814135485449,0.5791208791208792,0.38772077375946173,1193.0
553.0,1.7109212954444232e+18,0.4765013054830287,0.4657534246575342,0.3389189189189189,0.504524333577892,0.6604395604395604,0.4634146341463415,1196.0
554.0,1.7109212954544243e+18,0.45039164490861616,0.4200913242009132,0.34486486486486484,0.4761555392516508,0.6032967032967033,0.4608915054667788,1196.0
555.0,1.7109212954644196e+18,0.46866840731070497,0.4132420091324201,0.3362162162162162,0.5064808021521154,0.6428571428571429,0.447434819175778,1196.0
556.0,1.7109212954744215e+18,0.45430809399477806,0.3995433789954338,0.31567567567567567,0.49400831499144043,0.5593406593406594,0.4188393608074012,1192.0
557.0,1.7109212954844196e+18,0.47127937336814624,0.4360730593607306,0.34216216216216216,0.5072144778674492,0.6637362637362637,0.45500420521446594,1196.0
558.0,1.7109212954944248e+18,0.48433420365535246,0.3778538812785388,0.3108108108108108,0.47909024211298606,0.5945054945054945,0.4188393608074012,1194.0
559.0,1.7109212955044173e+18,0.45822454308093996,0.3812785388127854,0.31135135135135134,0.504035216434336,0.6846153846153846,0.44911690496215306,1198.0
560.0,1.7109212955144212e+18,0.4660574412532637,0.365296803652968,0.35945945945945945,0.4969430178527757,0.6505494505494506,0.41042893187552565,1192.0
561.0,1.7109212955244303e+18,0.45822454308093996,0.339041095890411,0.3654054054054054,0.5157740278796772,0.6692307692307692,0.5046257359125316,1193.0
562.0,1.7109212955344218e+18,0.49869451697127937,0.4223744292237443,0.34486486486486484,0.4896062606994375,0.5945054945054945,0.4129520605550883,1192.0
563.0,1.7109212955444157e+18,0.48433420365535246,0.4178082191780822,0.34486486486486484,0.504035216434336,0.6197802197802198,0.4255677039529016,1192.0
564.0,1.7109212955544156e+18,0.5195822454308094,0.4589041095890411,0.3891891891891892,0.4744436292492052,0.5747252747252747,0.4339781328847771,1192.0
565.0,1.710921295564419e+18,0.5248041775456919,0.4657534246575342,0.36486486486486486,0.5074590364392272,0.6494505494505495,0.46846089150546677,1196.0
566.0,1.7109212955744228e+18,0.46475195822454307,0.3938356164383562,0.37945945945945947,0.48324773783321107,0.5175824175824176,0.40370058873002523,1193.0
567.0,1.7109212955844472e+18,0.45300261096605743,0.4383561643835616,0.34864864864864864,0.5267791636096845,0.6648351648351648,0.45164003364171573,1194.0
568.0,1.7109212955944236e+18,0.4934725848563969,0.4714611872146119,0.3637837837837838,0.4888725849841037,0.6252747252747253,0.4432296047098402,1194.0
569.0,1.7109212956044227e+18,0.4725848563968668,0.3892694063926941,0.3216216216216216,0.5059916850085595,0.6373626373626373,0.4465937762825904,1195.0
570.0,1.7109212956144184e+18,0.4725848563968668,0.4041095890410959,0.3227027027027027,0.491807287845439,0.6296703296703297,0.432296047098402,1192.0
571.0,1.710921295624431e+18,0.47127937336814624,0.4691780821917808,0.3021621621621622,0.5106382978723404,0.6450549450549451,0.4625735912531539,1198.0
572.0,1.7109212956344166e+18,0.43994778067885115,0.4052511415525114,0.35027027027027025,0.49229640498899485,0.6230769230769231,0.4146341463414634,1192.0
573.0,1.710921295644422e+18,0.49477806788511747,0.4931506849315068,0.34756756756756757,0.5116165321594522,0.6912087912087912,0.4592094196804037,1196.0
574.0,1.7109212956544284e+18,0.4660574412532637,0.3824200913242009,0.3210810810810811,0.4798239178283199,0.6208791208791209,0.4028595458368377,1192.0
575.0,1.7109212956644188e+18,0.48825065274151436,0.3892694063926941,0.3021621621621622,0.5182196135974566,0.6450549450549451,0.456686291000841,1196.0
576.0,1.7109212956744207e+18,0.46866840731070497,0.4006849315068493,0.3091891891891892,0.4839814135485449,0.5934065934065934,0.4247266610597141,1192.0
577.0,1.7109212956844183e+18,0.44386422976501305,0.3698630136986301,0.34162162162162163,0.5091709464416728,0.6461538461538462,0.4558452481076535,1195.0
578.0,1.7109212956944228e+18,0.4308093994778068,0.3687214611872146,0.29783783783783785,0.483492296404989,0.5824175824175825,0.4129520605550883,1192.0
579.0,1.7109212957044178e+18,0.46344647519582244,0.3299086757990868,0.32216216216216215,0.5084372707263389,0.7076923076923077,0.456686291000841,1196.0
580.0,1.7109212957144259e+18,0.4490861618798956,0.3675799086757991,0.3216216216216216,0.4830031792614331,0.5923076923076923,0.3809924306139613,1192.0
581.0,1.7109212957244431e+18,0.5065274151436031,0.5342465753424658,0.4875675675675676,0.5035460992907801,0.5802197802197803,0.4827586206896552,1196.0
582.0,1.7109212957344192e+18,0.46344647519582244,0.3904109589041096,0.34216216216216216,0.4871606749816581,0.5967032967032967,0.41968040370058873,1193.0
583.0,1.7109212957444221e+18,0.45691906005221933,0.4132420091324201,0.33675675675675676,0.5174859378821227,0.6637362637362637,0.4575273338940286,1193.0
584.0,1.710921295754421e+18,0.5352480417754569,0.4908675799086758,0.34324324324324323,0.49400831499144043,0.6043956043956044,0.4188393608074012,1192.0
585.0,1.7109212957644214e+18,0.4751958224543081,0.3892694063926941,0.2989189189189189,0.5128393250183418,0.6593406593406593,0.4339781328847771,1193.0
586.0,1.710921295774422e+18,0.5156657963446475,0.4954337899543379,0.33405405405405403,0.48911714355588165,0.5923076923076923,0.4213624894869638,1192.0
587.0,1.7109212957844224e+18,0.5026109660574413,0.363013698630137,0.3021621621621622,0.504035216434336,0.610989010989011,0.4499579478553406,1192.0
588.0,1.710921295794414e+18,0.48172323759791125,0.4292237442922374,0.35027027027027025,0.49082905355832723,0.589010989010989,0.4222035323801514,1192.0
589.0,1.7109212958044244e+18,0.47911227154047,0.4223744292237443,0.33837837837837836,0.512350207874786,0.6186813186813187,0.45248107653490327,1192.0
590.0,1.710921295814424e+18,0.5078328981723238,0.4029680365296804,0.3178378378378378,0.49033993641477136,0.6076923076923076,0.4768713204373423,1197.0
591.0,1.7109212958244247e+18,0.5274151436031331,0.4851598173515982,0.447027027027027,0.5108828564441183,0.689010989010989,0.4928511354079058,1196.0
592.0,1.7109212958344243e+18,0.4464751958224543,0.3721461187214612,0.3054054054054054,0.4830031792614331,0.5703296703296703,0.41042893187552565,1193.0
593.0,1.710921295844426e+18,0.4765013054830287,0.3812785388127854,0.33675675675675676,0.5101491807287846,0.5802197802197803,0.4339781328847771,1193.0
594.0,1.710921295854426e+18,0.5365535248041775,0.5308219178082192,0.40540540540540543,0.4859378821227684,0.6582417582417582,0.4465937762825904,1196.0
595.0,1.710921295864427e+18,0.5078328981723238,0.408675799086758,0.3362162162162162,0.5121056493030081,0.6131868131868132,0.45248107653490327,1195.0
596.0,1.7109212958744271e+18,0.44386422976501305,0.3881278538812785,0.32216216216216215,0.4900953778429934,0.610989010989011,0.40117746005046256,1191.0
597.0,1.7109212958844324e+18,0.47911227154047,0.4646118721461187,0.40378378378378377,0.5035460992907801,0.43846153846153846,0.46846089150546677,1196.0
598.0,1.710921295894435e+18,0.4451697127937337,0.3127853881278539,0.28864864864864864,0.49058449498654927,0.5868131868131868,0.4087468460891506,1194.0
599.0,1.7109212959044283e+18,0.4556135770234987,0.3995433789954338,0.33837837837837836,0.5072144778674492,0.6318681318681318,0.4440706476030278,1197.0
600.0,1.7109212959144264e+18,0.5509138381201044,0.4269406392694064,0.35405405405405405,0.4888725849841037,0.6318681318681318,0.4760302775441548,1196.0
601.0,1.7109212959244303e+18,0.44386422976501305,0.363013698630137,0.32756756756756755,0.504524333577892,0.6516483516483517,0.4415475189234651,1196.0
602.0,1.7109212959344287e+18,0.4765013054830287,0.3938356164383562,0.3232432432432432,0.49474199070677427,0.5879120879120879,0.4121110176619008,1192.0
603.0,1.7109212959444285e+18,0.5039164490861618,0.4429223744292237,0.3308108108108108,0.5086818292981169,0.6362637362637362,0.43566021867115223,1194.0
604.0,1.710921295954428e+18,0.5195822454308094,0.4360730593607306,0.3362162162162162,0.4788456835412081,0.5725274725274725,0.4255677039529016,1192.0
605.0,1.7109212959644306e+18,0.47780678851174935,0.4360730593607306,0.3427027027027027,0.5133284421618978,0.6483516483516484,0.45500420521446594,1194.0
606.0,1.7109212959744297e+18,0.4751958224543081,0.4360730593607306,0.3210810810810811,0.499877720714111,0.5857142857142857,0.4028595458368377,1192.0
607.0,1.7109212959844303e+18,0.5234986945169713,0.5970319634703196,0.38324324324324327,0.5152849107361213,0.6659340659340659,0.4953742640874685,1195.0
608.0,1.7109212959944307e+18,0.4451697127937337,0.3493150684931507,0.3216216216216216,0.49229640498899485,0.5824175824175825,0.41042893187552565,1192.0
609.0,1.7109212960044347e+18,0.4621409921671018,0.3949771689497717,0.33297297297297296,0.5191978478845684,0.654945054945055,0.45164003364171573,1196.0
610.0,1.7109212960144315e+18,0.47389033942558745,0.4223744292237443,0.32756756756756755,0.49938860357055515,0.6406593406593407,0.4222035323801514,1193.0
611.0,1.7109212960244326e+18,0.4556135770234987,0.3915525114155251,0.33405405405405403,0.5118610907312301,0.6274725274725275,0.4499579478553406,1195.0
612.0,1.710921296034432e+18,0.4725848563968668,0.386986301369863,0.32,0.49498654927855223,0.5978021978021978,0.41968040370058873,1193.0
613.0,1.7109212960444352e+18,0.47780678851174935,0.4166666666666667,0.35783783783783785,0.5121056493030081,0.6648351648351648,0.4625735912531539,1197.0
614.0,1.7109212960544338e+18,0.4830287206266319,0.4006849315068493,0.3654054054054054,0.4888725849841037,0.5659340659340659,0.4146341463414634,1192.0
615.0,1.7109212960644347e+18,0.4699738903394256,0.365296803652968,0.3308108108108108,0.5108828564441183,0.643956043956044,0.46509671993271656,1197.0
616.0,1.7109212960744338e+18,0.49738903394255873,0.3767123287671233,0.33135135135135135,0.4859378821227684,0.5285714285714286,0.43566021867115223,1194.0
617.0,1.7109212960844367e+18,0.45430809399477806,0.3835616438356164,0.3237837837837838,0.5143066764490095,0.634065934065934,0.4373423044575273,1197.0
618.0,1.7109212960944187e+18,0.4595300261096606,0.3767123287671233,0.30972972972972973,0.4859378821227684,0.5978021978021978,0.4163162321278385,1192.0
619.0,1.7109212961044298e+18,0.4934725848563969,0.4646118721461187,0.37405405405405406,0.5055025678650037,0.6428571428571429,0.4558452481076535,1196.0
620.0,1.7109212961144346e+18,0.4830287206266319,0.4372146118721461,0.3318918918918919,0.48789435069699194,0.5835164835164836,0.4222035323801514,1195.0
621.0,1.7109212961244206e+18,0.4412532637075718,0.3812785388127854,0.3237837837837838,0.5128393250183418,0.6582417582417582,0.4659377628259041,1194.0
622.0,1.7109212961344161e+18,0.4830287206266319,0.4474885844748858,0.32432432432432434,0.49082905355832723,0.6054945054945055,0.4339781328847771,1193.0
623.0,1.7109212961444178e+18,0.5052219321148825,0.4143835616438356,0.3291891891891892,0.5152849107361213,0.654945054945055,0.4600504625735913,1193.0
624.0,1.710921296154424e+18,0.4699738903394256,0.363013698630137,0.31405405405405407,0.49205184641721694,0.5769230769230769,0.4213624894869638,1192.0
625.0,1.7109212961644372e+18,0.4765013054830287,0.4703196347031963,0.3291891891891892,0.5099046221570066,0.6472527472527473,0.4415475189234651,1194.0
626.0,1.7109212961744205e+18,0.4608355091383812,0.3915525114155251,0.3286486486486486,0.4859378821227684,0.5868131868131868,0.41968040370058873,1192.0
627.0,1.7109212961844232e+18,0.4308093994778068,0.4143835616438356,0.32,0.5319148936170213,0.6912087912087912,0.4592094196804037,1194.0
628.0,1.7109212961944228e+18,0.45039164490861616,0.3824200913242009,0.30972972972972973,0.47224260210320373,0.5769230769230769,0.4163162321278385,1192.0
629.0,1.7109212962044227e+18,0.46866840731070497,0.4121004566210046,0.33837837837837836,0.5162631450232331,0.6472527472527473,0.4499579478553406,1196.0
630.0,1.7109212962144236e+18,0.48825065274151436,0.4006849315068493,0.3345945945945946,0.4896062606994375,0.6032967032967033,0.4179983179142136,1192.0
631.0,1.7109212962244227e+18,0.46344647519582244,0.4235159817351598,0.33675675675675676,0.5086818292981169,0.6362637362637362,0.4533221194280908,1194.0
632.0,1.7109212962344192e+18,0.4699738903394256,0.3573059360730594,0.31027027027027027,0.48691611640988014,0.5835164835164836,0.40370058873002523,1192.0
633.0,1.7109212962444221e+18,0.47127937336814624,0.384703196347032,0.32972972972972975,0.5094155050134507,0.6505494505494506,0.4558452481076535,1197.0
634.0,1.7109212962544202e+18,0.4751958224543081,0.3926940639269406,0.34594594594594597,0.49351919784788456,0.6208791208791209,0.4280908326324643,1192.0
635.0,1.7109212962644196e+18,0.48825065274151436,0.4223744292237443,0.3372972972972973,0.5079481535827831,0.6461538461538462,0.4482758620689655,1192.0
636.0,1.7109212962744184e+18,0.4699738903394256,0.408675799086758,0.3254054054054054,0.48813890926876985,0.5637362637362637,0.4146341463414634,1193.0
637.0,1.7109212962844265e+18,0.4595300261096606,0.384703196347032,0.29945945945945945,0.5162631450232331,0.6780219780219781,0.4827586206896552,1196.0
638.0,1.7109212962944512e+18,0.45691906005221933,0.4155251141552511,0.3081081081081081,0.5059916850085595,0.5967032967032967,0.4129520605550883,1193.0
639.0,1.710921296304426e+18,0.4556135770234987,0.4041095890410959,0.3324324324324324,0.5013450721447786,0.6428571428571429,0.4575273338940286,1195.0
640.0,1.7109212963144346e+18,0.47389033942558745,0.4372146118721461,0.32756756756756755,0.49058449498654927,0.6032967032967033,0.4213624894869638,1192.0
641.0,1.7109212963244216e+18,0.4216710182767624,0.3835616438356164,0.3264864864864865,0.5099046221570066,0.6472527472527473,0.456686291000841,1194.0
642.0,1.710921296334419e+18,0.5039164490861618,0.3995433789954338,0.32972972972972975,0.4944974321349963,0.6065934065934065,0.42304457527333894,1192.0
643.0,1.7109212963444242e+18,0.4869451697127937,0.4360730593607306,0.42702702702702705,0.5089263878698949,0.6329670329670329,0.4634146341463415,1195.0
644.0,1.7109212963544195e+18,0.4869451697127937,0.4646118721461187,0.32,0.49767669356810956,0.5901098901098901,0.41968040370058873,1193.0
645.0,1.7109212963644224e+18,0.46866840731070497,0.4737442922374429,0.35243243243243244,0.5096600635852286,0.6450549450549451,0.4482758620689655,1194.0
646.0,1.7109212963744207e+18,0.4360313315926893,0.3744292237442922,0.31189189189189187,0.49620934213744194,0.5791208791208792,0.4062237174095879,1192.0
647.0,1.7109212963844206e+18,0.45691906005221933,0.4246575342465753,0.3551351351351351,0.5037906578625581,0.6175824175824176,0.4465937762825904,1193.0
648.0,1.7109212963944236e+18,0.49738903394255873,0.4041095890410959,0.3291891891891892,0.48642699926632427,0.6021978021978022,0.4213624894869638,1193.0
649.0,1.7109212964044626e+18,0.45039164490861616,0.3904109589041096,0.33297297297297296,0.512350207874786,0.6516483516483517,0.45248107653490327,1196.0
650.0,1.710921296414422e+18,0.49477806788511747,0.3789954337899543,0.3016216216216216,0.4927855221325507,0.6098901098901099,0.4381833473507149,1194.0
651.0,1.7109212964244145e+18,0.47389033942558745,0.4269406392694064,0.3356756756756757,0.5096600635852286,0.6824175824175824,0.45500420521446594,1193.0
652.0,1.710921296434419e+18,0.46736292428198434,0.3812785388127854,0.31567567567567567,0.495964783565664,0.5934065934065934,0.4163162321278385,1190.0
653.0,1.7109212964444193e+18,0.48433420365535246,0.3938356164383562,0.32756756756756755,0.5086818292981169,0.6384615384615384,0.44911690496215306,1196.0
654.0,1.7109212964544223e+18,0.4725848563968668,0.3972602739726027,0.32,0.48911714355588165,0.6120879120879121,0.42640874684608915,1193.0
655.0,1.7109212964644227e+18,0.4765013054830287,0.4600456621004566,0.33837837837837836,0.5191978478845684,0.6703296703296703,0.45836837678721615,1195.0
656.0,1.7109212964744236e+18,0.48825065274151436,0.4041095890410959,0.32972972972972975,0.4842259721203228,0.567032967032967,0.3952901597981497,1193.0
657.0,1.7109212964844457e+18,0.4869451697127937,0.4189497716894977,0.3302702702702703,0.5064808021521154,0.6571428571428571,0.464255677039529,1194.0
658.0,1.710921296494424e+18,0.47780678851174935,0.4178082191780822,0.3481081081081081,0.495964783565664,0.6098901098901099,0.4289318755256518,1193.0
659.0,1.710921296504422e+18,0.4856396866840731,0.4235159817351598,0.33783783783783783,0.5103937393005625,0.6450549450549451,0.4541631623212784,1198.0
660.0,1.7109212965144187e+18,0.48172323759791125,0.4280821917808219,0.33135135135135135,0.5011005135730008,0.6098901098901099,0.4129520605550883,1193.0
661.0,1.7109212965244198e+18,0.49477806788511747,0.4737442922374429,0.41405405405405404,0.5079481535827831,0.654945054945055,0.45836837678721615,1195.0
662.0,1.710921296534418e+18,0.48172323759791125,0.4075342465753425,0.32972972972972975,0.48740523355343607,0.610989010989011,0.415475189234651,1192.0
663.0,1.710921296544419e+18,0.4621409921671018,0.3995433789954338,0.3264864864864865,0.5074590364392272,0.6153846153846154,0.44911690496215306,1196.0
664.0,1.710921296554419e+18,0.5261096605744126,0.5662100456621004,0.44,0.4969430178527757,0.6098901098901099,0.4465937762825904,1194.0
665.0,1.7109212965644372e+18,0.45691906005221933,0.3767123287671233,0.32594594594594595,0.5077035950110051,0.6230769230769231,0.447434819175778,1195.0
666.0,1.7109212965744205e+18,0.4660574412532637,0.4223744292237443,0.32972972972972975,0.491562729273661,0.5868131868131868,0.4255677039529016,1192.0
667.0,1.7109212965844237e+18,0.4934725848563969,0.4611872146118721,0.42702702702702705,0.5133284421618978,0.7153846153846154,0.5029436501261564,1194.0
668.0,1.7109212965944177e+18,0.4804177545691906,0.3835616438356164,0.3172972972972973,0.48911714355588165,0.6175824175824176,0.4280908326324643,1192.0
669.0,1.7109212966044242e+18,0.45822454308093996,0.4315068493150685,0.35567567567567565,0.5006113964294449,0.6384615384615384,0.45500420521446594,1196.0
670.0,1.7109212966144284e+18,0.49738903394255873,0.4337899543378995,0.3335135135135135,0.48202494497432136,0.5791208791208792,0.4213624894869638,1191.0
671.0,1.7109212966244214e+18,0.46344647519582244,0.386986301369863,0.3308108108108108,0.5138175593054537,0.6725274725274726,0.45836837678721615,1194.0
672.0,1.7109212966344246e+18,0.5013054830287206,0.4121004566210046,0.31891891891891894,0.4974321349963316,0.578021978021978,0.4222035323801514,1192.0
673.0,1.71092129664442e+18,0.46475195822454307,0.3858447488584475,0.3372972972972973,0.512350207874786,0.6582417582417582,0.4575273338940286,1196.0
674.0,1.7109212966544197e+18,0.45822454308093996,0.3767123287671233,0.3254054054054054,0.4913181707018831,0.5835164835164836,0.4112699747687132,1192.0
675.0,1.7109212966644234e+18,0.45822454308093996,0.4269406392694064,0.3362162162162162,0.5108828564441183,0.6472527472527473,0.4449116904962153,1194.0
676.0,1.710921296674422e+18,0.46344647519582244,0.3835616438356164,0.33135135135135135,0.48789435069699194,0.5967032967032967,0.42052144659377627,1190.0
677.0,1.7109212966844193e+18,0.43994778067885115,0.3904109589041096,0.33297297297297296,0.5067253607238934,0.6307692307692307,0.4499579478553406,1196.0
678.0,1.710921296694419e+18,0.5234986945169713,0.4497716894977169,0.3308108108108108,0.48911714355588165,0.6,0.42304457527333894,1193.0
679.0,1.710921296704421e+18,0.4830287206266319,0.4200913242009132,0.33675675675675676,0.5089263878698949,0.654945054945055,0.45500420521446594,1196.0
680.0,1.710921296714438e+18,0.46866840731070497,0.3789954337899543,0.3232432432432432,0.5055025678650037,0.6,0.4179983179142136,1192.0
681.0,1.7109212967244083e+18,0.45039164490861616,0.4098173515981735,0.34378378378378377,0.512350207874786,0.634065934065934,0.46173254835996635,1194.0
682.0,1.710921296734432e+18,0.45691906005221933,0.3835616438356164,0.3210810810810811,0.491562729273661,0.5989010989010989,0.4146341463414634,1192.0
683.0,1.7109212967444234e+18,0.4765013054830287,0.4235159817351598,0.34162162162162163,0.5152849107361213,0.689010989010989,0.4600504625735913,1194.0
684.0,1.7109212967544182e+18,0.4660574412532637,0.3721461187214612,0.32432432432432434,0.49400831499144043,0.5945054945054945,0.41968040370058873,1191.0
685.0,1.7109212967644237e+18,0.47127937336814624,0.4178082191780822,0.3518918918918919,0.5140621178772316,0.6648351648351648,0.4558452481076535,1194.0
686.0,1.7109212967744038e+18,0.47780678851174935,0.454337899543379,0.33405405405405403,0.4942528735632184,0.6065934065934065,0.4255677039529016,1192.0
687.0,1.7109212967844157e+18,0.45822454308093996,0.4223744292237443,0.33945945945945943,0.516507703595011,0.6406593406593407,0.4608915054667788,1192.0
688.0,1.7109212967944182e+18,0.48433420365535246,0.4132420091324201,0.32,0.49400831499144043,0.5901098901098901,0.42052144659377627,1191.0
689.0,1.7109212968044188e+18,0.46475195822454307,0.3881278538812785,0.32972972972972975,0.5116165321594522,0.6582417582417582,0.45836837678721615,1197.0
690.0,1.7109212968144307e+18,0.48433420365535246,0.4497716894977169,0.3264864864864865,0.4888725849841037,0.5923076923076923,0.4129520605550883,1194.0
691.0,1.7109212968244168e+18,0.46736292428198434,0.4075342465753425,0.32972972972972975,0.5057471264367817,0.654945054945055,0.45248107653490327,1197.0
692.0,1.7109212968344238e+18,0.4934725848563969,0.4337899543378995,0.3227027027027027,0.4871606749816581,0.5934065934065934,0.4179983179142136,1192.0
693.0,1.7109212968444308e+18,0.46475195822454307,0.4063926940639269,0.3210810810810811,0.5113719735876743,0.6307692307692307,0.45500420521446594,1196.0
694.0,1.7109212968544192e+18,0.48433420365535246,0.3835616438356164,0.312972972972973,0.4888725849841037,0.6032967032967033,0.42052144659377627,1192.0
695.0,1.7109212968644234e+18,0.4412532637075718,0.3949771689497717,0.33135135135135135,0.5116165321594522,0.6516483516483517,0.4558452481076535,1194.0
696.0,1.7109212968744159e+18,0.46475195822454307,0.3767123287671233,0.3172972972972973,0.4900953778429934,0.589010989010989,0.4188393608074012,1192.0
697.0,1.7109212968844316e+18,0.4516971279373368,0.4200913242009132,0.312972972972973,0.5155294693078992,0.6626373626373626,0.46173254835996635,1196.0
698.0,1.7109212968944202e+18,0.45039164490861616,0.3938356164383562,0.32216216216216215,0.4854487649792125,0.5934065934065934,0.4179983179142136,1193.0
699.0,1.7109212969044214e+18,0.4830287206266319,0.478310502283105,0.3481081081081081,0.5143066764490095,0.6472527472527473,0.46173254835996635,1194.0
700.0,1.710921296914417e+18,0.4830287206266319,0.4452054794520548,0.32594594594594595,0.4871606749816581,0.6054945054945055,0.41968040370058873,1191.0
701.0,1.7109212969244255e+18,0.4386422976501306,0.386986301369863,0.3372972972972973,0.5057471264367817,0.656043956043956,0.45164003364171573,1194.0
702.0,1.7109212969344197e+18,0.4765013054830287,0.3675799086757991,0.3210810810810811,0.48251406211787723,0.5791208791208792,0.4146341463414634,1192.0
703.0,1.7109212969444247e+18,0.489556135770235,0.4132420091324201,0.33405405405405403,0.512350207874786,0.6538461538461539,0.4592094196804037,1194.0
704.0,1.7109212969544202e+18,0.5391644908616188,0.4703196347031963,0.3816216216216216,0.491562729273661,0.5923076923076923,0.4280908326324643,1195.0
705.0,1.7109212969644204e+18,0.4516971279373368,0.4440639269406393,0.33405405405405403,0.5084372707263389,0.6538461538461539,0.4625735912531539,1196.0
706.0,1.7109212969743782e+18,0.4347258485639687,0.3698630136986301,0.3237837837837838,0.4871606749816581,0.5923076923076923,0.4213624894869638,1192.0
707.0,1.7109212969843748e+18,0.4934725848563969,0.4269406392694064,0.34324324324324323,0.5147957935925654,0.6417582417582418,0.45836837678721615,1196.0
708.0,1.710921296994437e+18,0.4765013054830287,0.4178082191780822,0.33135135135135135,0.48936170212765956,0.5967032967032967,0.41715727502102606,1194.0
709.0,1.7109212970044145e+18,0.4451697127937337,0.4155251141552511,0.34054054054054056,0.5094155050134507,0.6362637362637362,0.45836837678721615,1194.0
710.0,1.7109212970144205e+18,0.49738903394255873,0.410958904109589,0.32756756756756755,0.48985081927121543,0.5956043956043956,0.4272497897392767,1193.0
711.0,1.71092129702442e+18,0.48825065274151436,0.4189497716894977,0.3362162162162162,0.5116165321594522,0.6593406593406593,0.4600504625735913,1195.0
712.0,1.7109212970344195e+18,0.4725848563968668,0.4189497716894977,0.33297297297297296,0.49107361213010514,0.5934065934065934,0.4238856181665265,1193.0
713.0,1.7109212970444237e+18,0.46344647519582244,0.4280821917808219,0.31513513513513514,0.512350207874786,0.654945054945055,0.46173254835996635,1195.0
714.0,1.7109212970544264e+18,0.5052219321148825,0.4337899543378995,0.32594594594594595,0.48813890926876985,0.5923076923076923,0.41715727502102606,1194.0
715.0,1.7109212970644234e+18,0.46736292428198434,0.4132420091324201,0.34594594594594597,0.512350207874786,0.6494505494505495,0.456686291000841,1195.0
716.0,1.710921297074422e+18,0.45039164490861616,0.3972602739726027,0.3162162162162162,0.49082905355832723,0.5934065934065934,0.4280908326324643,1192.0
717.0,1.7109212970844321e+18,0.42036553524804177,0.3824200913242009,0.3362162162162162,0.5157740278796772,0.6505494505494506,0.4558452481076535,1195.0
718.0,1.7109212970944302e+18,0.5,0.4623287671232877,0.3254054054054054,0.48740523355343607,0.5879120879120879,0.4146341463414634,1192.0
719.0,1.7109212971044206e+18,0.4556135770234987,0.3926940639269406,0.33837837837837836,0.5138175593054537,0.6461538461538462,0.456686291000841,1197.0
720.0,1.7109212971144307e+18,0.49477806788511747,0.4006849315068493,0.32,0.48740523355343607,0.5956043956043956,0.43986543313709,1196.0
721.0,1.7109212971244224e+18,0.4621409921671018,0.4063926940639269,0.33675675675675676,0.5086818292981169,0.6307692307692307,0.44911690496215306,1193.0
722.0,1.7109212971344256e+18,0.5052219321148825,0.3892694063926941,0.32,0.48985081927121543,0.5967032967032967,0.4179983179142136,1192.0
723.0,1.7109212971444268e+18,0.4621409921671018,0.3801369863013699,0.33297297297297296,0.5113719735876743,0.6538461538461539,0.46173254835996635,1195.0
724.0,1.710921297154449e+18,0.49216710182767626,0.4840182648401826,0.3410810810810811,0.48936170212765956,0.5967032967032967,0.4213624894869638,1191.0
725.0,1.710921297164414e+18,0.4464751958224543,0.3824200913242009,0.3227027027027027,0.5116165321594522,0.6197802197802198,0.4440706476030278,1194.0
726.0,1.7109212971744248e+18,0.5326370757180157,0.4315068493150685,0.41081081081081083,0.49767669356810956,0.6318681318681318,0.4768713204373423,1194.0
727.0,1.7109212971844278e+18,0.4360313315926893,0.363013698630137,0.3227027027027027,0.5099046221570066,0.6373626373626373,0.4381833473507149,1193.0
728.0,1.710921297194426e+18,0.45300261096605743,0.4668949771689498,0.33837837837837836,0.4888725849841037,0.5769230769230769,0.3927670311185871,1191.0
729.0,1.710921297204424e+18,0.5,0.4063926940639269,0.34054054054054056,0.512594766446564,0.6835164835164835,0.5105130361648444,1193.0
730.0,1.7109212972143816e+18,0.4281984334203655,0.3550228310502283,0.31135135135135134,0.49107361213010514,0.5714285714285714,0.39781328847771236,1191.0
731.0,1.7109212972244168e+18,0.48433420365535246,0.4212328767123288,0.27837837837837837,0.5064808021521154,0.6142857142857143,0.49032800672834315,1195.0
732.0,1.7109212972344343e+18,0.4869451697127937,0.3515981735159817,0.307027027027027,0.4883834678405478,0.5769230769230769,0.4314550042052145,1190.0
733.0,1.7109212972444324e+18,0.45822454308093996,0.3515981735159817,0.28216216216216217,0.5094155050134507,0.6516483516483517,0.44238856181665265,1196.0
734.0,1.710921297254426e+18,0.47127937336814624,0.3675799086757991,0.2648648648648649,0.49327463927610665,0.6076923076923076,0.4213624894869638,1194.0
735.0,1.7109212972644247e+18,0.45822454308093996,0.410958904109589,0.32594594594594595,0.512594766446564,0.7032967032967034,0.4600504625735913,1194.0
736.0,1.7109212972744218e+18,0.4516971279373368,0.3401826484018265,0.28864864864864864,0.48080215211543165,0.5989010989010989,0.41968040370058873,1193.0
737.0,1.7109212972845617e+18,0.4765013054830287,0.4063926940639269,0.3237837837837838,0.5194424064563463,0.654945054945055,0.45500420521446594,1194.0
738.0,1.7109212972944338e+18,0.4608355091383812,0.4041095890410959,0.34054054054054056,0.48985081927121543,0.6010989010989011,0.3894028595458368,1194.0
739.0,1.710921297304436e+18,0.4516971279373368,0.3984018264840183,0.33405405405405403,0.5113719735876743,0.6472527472527473,0.4381833473507149,1195.0
740.0,1.7109212973144264e+18,0.5182767624020888,0.4018264840182648,0.2827027027027027,0.4886280264123258,0.5824175824175825,0.40117746005046256,1194.0
741.0,1.7109212973244332e+18,0.5143603133159269,0.5570776255707762,0.3621621621621622,0.512350207874786,0.6736263736263737,0.4314550042052145,1193.0
742.0,1.7109212973344456e+18,0.4804177545691906,0.3995433789954338,0.31351351351351353,0.4900953778429934,0.5846153846153846,0.3952901597981497,1193.0
743.0,1.7109212973444398e+18,0.4660574412532637,0.4394977168949772,0.31945945945945947,0.5121056493030081,0.6835164835164835,0.45164003364171573,1197.0
744.0,1.7109212973544246e+18,0.4725848563968668,0.4018264840182648,0.31351351351351353,0.4925409635607728,0.6120879120879121,0.4213624894869638,1192.0
745.0,1.710921297364432e+18,0.47389033942558745,0.4452054794520548,0.3410810810810811,0.5240890193201272,0.6296703296703297,0.45500420521446594,1194.0
746.0,1.7109212973744236e+18,0.489556135770235,0.4052511415525114,0.3227027027027027,0.4900953778429934,0.621978021978022,0.40706476030277544,1192.0
747.0,1.7109212973844562e+18,0.49216710182767626,0.4703196347031963,0.46378378378378377,0.504035216434336,0.667032967032967,0.4667788057190917,1193.0
748.0,1.710921297394433e+18,0.5182767624020888,0.3904109589041096,0.3216216216216216,0.48618244069454636,0.5923076923076923,0.415475189234651,1193.0
749.0,1.7109212974044316e+18,0.4556135770234987,0.3961187214611872,0.3362162162162162,0.5069699192956714,0.6736263736263737,0.4482758620689655,1194.0
750.0,1.7109212974144192e+18,0.4608355091383812,0.4200913242009132,0.3210810810810811,0.49474199070677427,0.6648351648351648,0.4238856181665265,1190.0
751.0,1.7109212974244224e+18,0.5195822454308094,0.5205479452054794,0.37513513513513513,0.5118610907312301,0.6527472527472528,0.4575273338940286,1193.0
752.0,1.710921297434423e+18,0.4869451697127937,0.4075342465753425,0.3281081081081081,0.495964783565664,0.5846153846153846,0.4179983179142136,1192.0
753.0,1.7109212974444667e+18,0.4556135770234987,0.4029680365296804,0.3324324324324324,0.4971875764245537,0.6516483516483517,0.4701429772918419,1194.0
754.0,1.7109212974544197e+18,0.4751958224543081,0.4223744292237443,0.3535135135135135,0.49082905355832723,0.5736263736263736,0.4062237174095879,1192.0
755.0,1.7109212974644337e+18,0.48433420365535246,0.4235159817351598,0.31405405405405407,0.504524333577892,0.6428571428571429,0.4634146341463415,1196.0
756.0,1.7109212974744317e+18,0.47911227154047,0.4200913242009132,0.31513513513513514,0.48985081927121543,0.6175824175824176,0.4188393608074012,1193.0
757.0,1.7109212974844344e+18,0.5313315926892951,0.4497716894977169,0.35945945945945945,0.5111274150158963,0.6571428571428571,0.45164003364171573,1195.0
758.0,1.7109212974944353e+18,0.46344647519582244,0.3664383561643836,0.27675675675675676,0.48789435069699194,0.6054945054945055,0.3969722455845248,1193.0
759.0,1.7109212975044157e+18,0.489556135770235,0.4349315068493151,0.41081081081081083,0.49816581071166544,0.6274725274725275,0.43986543313709,1195.0
760.0,1.710921297514423e+18,0.489556135770235,0.4394977168949772,0.34324324324324323,0.4859378821227684,0.5791208791208792,0.4112699747687132,1192.0
761.0,1.7109212975244224e+18,0.48825065274151436,0.5045662100456622,0.3902702702702703,0.5059916850085595,0.6516483516483517,0.5105130361648444,1195.0
762.0,1.7109212975344205e+18,0.47780678851174935,0.410958904109589,0.3210810810810811,0.4988994864269993,0.6032967032967033,0.4129520605550883,1193.0
763.0,1.710921297544423e+18,0.45822454308093996,0.4200913242009132,0.34378378378378377,0.5084372707263389,0.6505494505494506,0.42640874684608915,1192.0
764.0,1.7109212975544238e+18,0.5496083550913838,0.4680365296803653,0.37891891891891893,0.495720224993886,0.6241758241758242,0.46846089150546677,1193.0
765.0,1.7109212975644188e+18,0.46475195822454307,0.4360730593607306,0.34594594594594597,0.5069699192956714,0.656043956043956,0.43566021867115223,1195.0
766.0,1.7109212975744182e+18,0.5,0.363013698630137,0.3178378378378378,0.4974321349963316,0.6010989010989011,0.42977291841883936,1192.0
767.0,1.7109212975844303e+18,0.4699738903394256,0.410958904109589,0.3210810810810811,0.4984103692834434,0.6681318681318681,0.5222876366694701,1192.0
768.0,1.710921297594442e+18,0.45039164490861616,0.3710045662100457,0.32054054054054054,0.4871606749816581,0.5945054945054945,0.415475189234651,1194.0
769.0,1.710921297604422e+18,0.47127937336814624,0.408675799086758,0.33783783783783783,0.5162631450232331,0.6604395604395604,0.4592094196804037,1194.0
770.0,1.7109212976144515e+18,0.5182767624020888,0.4463470319634703,0.3908108108108108,0.4996331621423331,0.6087912087912087,0.42640874684608915,1189.0
771.0,1.7109212976244242e+18,0.45691906005221933,0.4200913242009132,0.31189189189189187,0.504524333577892,0.5857142857142857,0.4381833473507149,1195.0
772.0,1.710921297634424e+18,0.45691906005221933,0.4006849315068493,0.30972972972972973,0.487649792125214,0.6318681318681318,0.4247266610597141,1192.0
773.0,1.710921297644421e+18,0.49738903394255873,0.5502283105022832,0.34486486486486484,0.5103937393005625,0.6758241758241759,0.4432296047098402,1194.0
774.0,1.7109212976544366e+18,0.46736292428198434,0.3595890410958904,0.327027027027027,0.49767669356810956,0.6120879120879121,0.4112699747687132,1195.0
775.0,1.7109212976644298e+18,0.4856396866840731,0.4052511415525114,0.33135135135135135,0.5201760821716801,0.634065934065934,0.4625735912531539,1196.0
776.0,1.7109212976744302e+18,0.45300261096605743,0.3915525114155251,0.3681081081081081,0.49327463927610665,0.5989010989010989,0.4129520605550883,1193.0
777.0,1.7109212976844483e+18,0.48825065274151436,0.432648401826484,0.31567567567567567,0.5116165321594522,0.7032967032967034,0.4701429772918419,1198.0
778.0,1.710921297694515e+18,0.4516971279373368,0.4703196347031963,0.31027027027027027,0.48985081927121543,0.5824175824175825,0.407905803195963,1192.0
779.0,1.7109212977044431e+18,0.45300261096605743,0.3595890410958904,0.3016216216216216,0.5033015407190022,0.5978021978021978,0.4348191757779647,1195.0
780.0,1.710921297714429e+18,0.4595300261096606,0.3755707762557078,0.2983783783783784,0.48911714355588165,0.5846153846153846,0.4482758620689655,1197.0
781.0,1.7109212977244288e+18,0.52088772845953,0.408675799086758,0.3027027027027027,0.5074590364392272,0.6494505494505495,0.4499579478553406,1192.0
782.0,1.710921297734428e+18,0.4856396866840731,0.4280821917808219,0.3567567567567568,0.5116165321594522,0.6076923076923076,0.4222035323801514,1193.0
783.0,1.7109212977444362e+18,0.4595300261096606,0.3915525114155251,0.28162162162162163,0.5079481535827831,0.6010989010989011,0.4163162321278385,1195.0
784.0,1.710921297754438e+18,0.4308093994778068,0.3538812785388128,0.2724324324324324,0.4800684764000978,0.5912087912087912,0.3919259882253995,1192.0
785.0,1.7109212977644398e+18,0.46344647519582244,0.4006849315068493,0.33297297297297296,0.5030569821472243,0.6703296703296703,0.45248107653490327,1193.0
786.0,1.710921297774434e+18,0.45039164490861616,0.3812785388127854,0.34756756756756757,0.48495964783565665,0.6021978021978022,0.4381833473507149,1196.0
787.0,1.7109212977844316e+18,0.46866840731070497,0.4235159817351598,0.32972972972972975,0.520909757887014,0.7296703296703296,0.5088309503784693,1193.0
788.0,1.7109212977944428e+18,0.46344647519582244,0.3698630136986301,0.3081081081081081,0.49107361213010514,0.5967032967032967,0.4112699747687132,1192.0
789.0,1.710921297804461e+18,0.4699738903394256,0.4554794520547945,0.27945945945945944,0.49498654927855223,0.6153846153846154,0.43986543313709,1196.0
790.0,1.710921297814428e+18,0.5091383812010444,0.4509132420091324,0.3902702702702703,0.491562729273661,0.5868131868131868,0.4348191757779647,1196.0
791.0,1.7109212978244283e+18,0.44386422976501305,0.3995433789954338,0.3043243243243243,0.5069699192956714,0.6274725274725275,0.4432296047098402,1196.0
792.0,1.7109212978344284e+18,0.4830287206266319,0.410958904109589,0.3254054054054054,0.4805575935436537,0.5879120879120879,0.4213624894869638,1192.0
793.0,1.7109212978444344e+18,0.49477806788511747,0.4349315068493151,0.3464864864864865,0.4991440449987772,0.6659340659340659,0.496215306980656,1194.0
794.0,1.7109212978544325e+18,0.4725848563968668,0.3926940639269406,0.30486486486486486,0.4812912692589875,0.610989010989011,0.4280908326324643,1190.0
795.0,1.7109212978644342e+18,0.4556135770234987,0.4052511415525114,0.33945945945945943,0.5118610907312301,0.6538461538461539,0.45248107653490327,1196.0
796.0,1.710921297874432e+18,0.4934725848563969,0.3904109589041096,0.31567567567567567,0.5006113964294449,0.6021978021978022,0.4188393608074012,1193.0
797.0,1.7109212978844334e+18,0.41383812010443866,0.3550228310502283,0.34162162162162163,0.5101491807287846,0.6318681318681318,0.43650126156433977,1198.0
798.0,1.7109212978944596e+18,0.4490861618798956,0.4178082191780822,0.34486486486486484,0.4913181707018831,0.6230769230769231,0.4415475189234651,1193.0
799.0,1.710921297904454e+18,0.49216710182767626,0.4166666666666667,0.32,0.5191978478845684,0.6472527472527473,0.45500420521446594,1197.0
800.0,1.7109212979144763e+18,0.5313315926892951,0.386986301369863,0.2951351351351351,0.49082905355832723,0.5989010989010989,0.4381833473507149,1195.0
801.0,1.710921297924443e+18,0.4869451697127937,0.4497716894977169,0.3362162162162162,0.5253118121790169,0.6428571428571429,0.4819175777964676,1195.0
802.0,1.710921297934436e+18,0.47911227154047,0.4212328767123288,0.3232432432432432,0.491807287845439,0.6010989010989011,0.42304457527333894,1192.0
803.0,1.7109212979444393e+18,0.45300261096605743,0.4646118721461187,0.3535135135135135,0.5145512350207875,0.6626373626373626,0.4280908326324643,1193.0
804.0,1.7109212979544369e+18,0.5261096605744126,0.4680365296803653,0.3708108108108108,0.4974321349963316,0.6098901098901099,0.4592094196804037,1195.0
805.0,1.710921297964474e+18,0.4595300261096606,0.4646118721461187,0.3286486486486486,0.5094155050134507,0.6450549450549451,0.45248107653490327,1196.0
806.0,1.7109212979744384e+18,0.48433420365535246,0.4063926940639269,0.32432432432432434,0.49523110785033014,0.6043956043956044,0.4238856181665265,1192.0
807.0,1.7109212979844385e+18,0.46344647519582244,0.3972602739726027,0.32594594594594595,0.5184641721692346,0.589010989010989,0.4314550042052145,1192.0
808.0,1.7109212979944387e+18,0.5234986945169713,0.5273972602739726,0.41783783783783784,0.4944974321349963,0.6571428571428571,0.4339781328847771,1192.0
809.0,1.7109212980044462e+18,0.4425587467362924,0.3789954337899543,0.31675675675675674,0.5064808021521154,0.6417582417582418,0.4482758620689655,1196.0
810.0,1.7109212980144425e+18,0.4804177545691906,0.4121004566210046,0.34486486486486484,0.4966984592809978,0.5846153846153846,0.4247266610597141,1192.0
811.0,1.7109212980244403e+18,0.4556135770234987,0.3915525114155251,0.32054054054054054,0.5103937393005625,0.6472527472527473,0.45500420521446594,1194.0
812.0,1.71092129803444e+18,0.5104438642297651,0.4223744292237443,0.31891891891891894,0.5128393250183418,0.554945054945055,0.40454163162321277,1191.0
813.0,1.7109212980444183e+18,0.4490861618798956,0.3926940639269406,0.31405405405405407,0.5035460992907801,0.5923076923076923,0.432296047098402,1192.0
814.0,1.7109212980544177e+18,0.4765013054830287,0.3995433789954338,0.32432432432432434,0.4944974321349963,0.6065934065934065,0.40706476030277544,1193.0
815.0,1.710921298064417e+18,0.47911227154047,0.4474885844748858,0.36972972972972973,0.512350207874786,0.6637362637362637,0.4558452481076535,1195.0
816.0,1.7109212980744474e+18,0.49216710182767626,0.454337899543379,0.3681081081081081,0.49229640498899485,0.5901098901098901,0.4146341463414634,1192.0
817.0,1.7109212980844214e+18,0.4516971279373368,0.3881278538812785,0.31405405405405407,0.5091709464416728,0.6120879120879121,0.4735071488645921,1196.0
818.0,1.7109212980944202e+18,0.5300261096605744,0.523972602739726,0.4097297297297297,0.5008559550012228,0.6208791208791209,0.41715727502102606,1193.0
819.0,1.71092129810442e+18,0.4308093994778068,0.3025114155251142,0.33945945945945943,0.5250672536072389,0.6626373626373626,0.4146341463414634,1195.0
820.0,1.7109212981144187e+18,0.489556135770235,0.4920091324200913,0.3286486486486486,0.4883834678405478,0.5956043956043956,0.42977291841883936,1193.0
821.0,1.710921298124422e+18,0.4177545691906005,0.3801369863013699,0.28054054054054056,0.5221325507459036,0.6307692307692307,0.4432296047098402,1194.0
822.0,1.710921298134416e+18,0.49216710182767626,0.3538812785388128,0.31027027027027027,0.4966984592809978,0.6043956043956044,0.4238856181665265,1193.0
823.0,1.710921298144416e+18,0.46344647519582244,0.3881278538812785,0.3324324324324324,0.5106382978723404,0.6505494505494506,0.447434819175778,1196.0
824.0,1.7109212981544177e+18,0.48172323759791125,0.4041095890410959,0.34594594594594597,0.48985081927121543,0.5703296703296703,0.4213624894869638,1192.0
825.0,1.7109212981644206e+18,0.43342036553524804,0.4029680365296804,0.31027027027027027,0.5072144778674492,0.6373626373626373,0.4558452481076535,1197.0
826.0,1.7109212981744202e+18,0.46475195822454307,0.4577625570776256,0.3318918918918919,0.4830031792614331,0.6186813186813187,0.4449116904962153,1195.0
827.0,1.7109212981844188e+18,0.4765013054830287,0.4372146118721461,0.35567567567567565,0.5059916850085595,0.6406593406593407,0.4432296047098402,1196.0
828.0,1.7109212981944253e+18,0.4869451697127937,0.3778538812785388,0.3286486486486486,0.49205184641721694,0.6164835164835165,0.4179983179142136,1191.0
829.0,1.7109212982044268e+18,0.4765013054830287,0.4474885844748858,0.3567567567567568,0.5174859378821227,0.6714285714285714,0.45164003364171573,1195.0
830.0,1.7109212982144494e+18,0.4830287206266319,0.3835616438356164,0.292972972972973,0.4944974321349963,0.5967032967032967,0.41379310344827586,1191.0
831.0,1.7109212982244232e+18,0.4621409921671018,0.4006849315068493,0.32054054054054054,0.5094155050134507,0.6648351648351648,0.4440706476030278,1194.0
832.0,1.7109212982344233e+18,0.4699738903394256,0.3949771689497717,0.32756756756756755,0.49816581071166544,0.6142857142857143,0.42304457527333894,1193.0
833.0,1.710921298244421e+18,0.4869451697127937,0.3995433789954338,0.3216216216216216,0.5059916850085595,0.6351648351648351,0.43566021867115223,1196.0
834.0,1.710921298254439e+18,0.4934725848563969,0.3835616438356164,0.29243243243243244,0.5106382978723404,0.6208791208791209,0.43566021867115223,1195.0
835.0,1.7109212982644175e+18,0.4595300261096606,0.4292237442922374,0.3881081081081081,0.5084372707263389,0.6142857142857143,0.4507989907485282,1197.0
836.0,1.7109212982744202e+18,0.4804177545691906,0.3458904109589041,0.33837837837837836,0.4969430178527757,0.6087912087912087,0.4348191757779647,1197.0
837.0,1.7109212982844232e+18,0.4725848563968668,0.4908675799086758,0.39297297297297296,0.5055025678650037,0.6417582417582418,0.4415475189234651,1198.0
838.0,1.7109212982944128e+18,0.49216710182767626,0.3858447488584475,0.32756756756756755,0.4781120078258743,0.5791208791208792,0.4306139613120269,1195.0
839.0,1.7109212983044175e+18,0.4608355091383812,0.4178082191780822,0.31891891891891894,0.5062362435803375,0.6098901098901099,0.43902439024390244,1198.0
840.0,1.7109212983144148e+18,0.5091383812010444,0.4223744292237443,0.3210810810810811,0.4969430178527757,0.6098901098901099,0.43313708999158956,1191.0
841.0,1.710921298324421e+18,0.5182767624020888,0.4155251141552511,0.35567567567567565,0.5089263878698949,0.6494505494505495,0.44238856181665265,1196.0
842.0,1.710921298334434e+18,0.4086161879895561,0.3253424657534247,0.31405405405405407,0.48911714355588165,0.6164835164835165,0.4053826745164003,1194.0
843.0,1.710921298344424e+18,0.4908616187989556,0.4680365296803653,0.31891891891891894,0.5084372707263389,0.6571428571428571,0.46173254835996635,1197.0
844.0,1.7109212983544207e+18,0.5391644908616188,0.4189497716894977,0.32432432432432434,0.4781120078258743,0.6208791208791209,0.4255677039529016,1194.0
845.0,1.7109212983644216e+18,0.47780678851174935,0.4497716894977169,0.3518918918918919,0.5008559550012228,0.6593406593406593,0.4600504625735913,1196.0
846.0,1.7109212983744197e+18,0.5143603133159269,0.454337899543379,0.3491891891891892,0.504524333577892,0.6538461538461539,0.4659377628259041,1197.0
847.0,1.7109212983844198e+18,0.46475195822454307,0.4223744292237443,0.31891891891891894,0.5191978478845684,0.6241758241758242,0.4558452481076535,1195.0
848.0,1.7109212983944297e+18,0.45691906005221933,0.3744292237442922,0.31945945945945947,0.4913181707018831,0.6054945054945055,0.42640874684608915,1192.0
849.0,1.7109212984044224e+18,0.5,0.3812785388127854,0.33513513513513515,0.5103937393005625,0.6593406593406593,0.4928511354079058,1196.0
850.0,1.7109212984144197e+18,0.4804177545691906,0.3915525114155251,0.3345945945945946,0.49767669356810956,0.5956043956043956,0.40454163162321277,1194.0
851.0,1.7109212984244147e+18,0.4608355091383812,0.386986301369863,0.34486486486486484,0.5025678650036683,0.6252747252747253,0.4415475189234651,1194.0
852.0,1.7109212984344177e+18,0.4908616187989556,0.3995433789954338,0.3227027027027027,0.5118610907312301,0.6087912087912087,0.4314550042052145,1192.0
853.0,1.7109212984444285e+18,0.44778067885117495,0.4041095890410959,0.3145945945945946,0.504524333577892,0.654945054945055,0.456686291000841,1194.0
854.0,1.710921298454427e+18,0.4725848563968668,0.4406392694063927,0.33405405405405403,0.4913181707018831,0.6021978021978022,0.4280908326324643,1194.0
855.0,1.7109212984644065e+18,0.4608355091383812,0.386986301369863,0.32216216216216215,0.5147957935925654,0.6637362637362637,0.4482758620689655,1196.0
856.0,1.7109212984744238e+18,0.5078328981723238,0.4269406392694064,0.312972972972973,0.49229640498899485,0.589010989010989,0.415475189234651,1193.0
857.0,1.7109212984844206e+18,0.43733681462140994,0.4006849315068493,0.3091891891891892,0.504524333577892,0.6538461538461539,0.4449116904962153,1196.0
858.0,1.710921298494421e+18,0.4869451697127937,0.4509132420091324,0.3881081081081081,0.48985081927121543,0.6098901098901099,0.4247266610597141,1192.0
859.0,1.7109212985044175e+18,0.45822454308093996,0.4406392694063927,0.36162162162162165,0.5113719735876743,0.6461538461538462,0.4507989907485282,1197.0
860.0,1.7109212985144225e+18,0.47389033942558745,0.4029680365296804,0.3237837837837838,0.4969430178527757,0.5879120879120879,0.42304457527333894,1195.0
861.0,1.7109212985244227e+18,0.5195822454308094,0.5365296803652968,0.37567567567567567,0.5086818292981169,0.654945054945055,0.46509671993271656,1198.0
862.0,1.7109212985344187e+18,0.47911227154047,0.4052511415525114,0.3216216216216216,0.48911714355588165,0.6021978021978022,0.4238856181665265,1194.0
863.0,1.7109212985444178e+18,0.4386422976501306,0.3995433789954338,0.3308108108108108,0.5055025678650037,0.6164835164835165,0.43566021867115223,1197.0
864.0,1.7109212985544205e+18,0.47127937336814624,0.4634703196347032,0.32432432432432434,0.49400831499144043,0.5967032967032967,0.41968040370058873,1192.0
865.0,1.7109212985644188e+18,0.4660574412532637,0.4212328767123288,0.3237837837837838,0.5089263878698949,0.6384615384615384,0.45500420521446594,1197.0
866.0,1.7109212985744187e+18,0.45822454308093996,0.3561643835616438,0.312972972972973,0.48520420640743456,0.5714285714285714,0.4095878889823381,1195.0
867.0,1.7109212985844408e+18,0.5195822454308094,0.4600456621004566,0.3837837837837838,0.5094155050134507,0.654945054945055,0.4945332211942809,1192.0
868.0,1.710921298594423e+18,0.4856396866840731,0.3835616438356164,0.3227027027027027,0.48985081927121543,0.6032967032967033,0.4188393608074012,1193.0
869.0,1.7109212986044275e+18,0.4608355091383812,0.4394977168949772,0.3362162162162162,0.5064808021521154,0.6494505494505495,0.45164003364171573,1194.0
870.0,1.7109212986144266e+18,0.47127937336814624,0.4589041095890411,0.3091891891891892,0.5001222792858889,0.6054945054945055,0.432296047098402,1192.0
871.0,1.7109212986244234e+18,0.43733681462140994,0.384703196347032,0.35783783783783785,0.5001222792858889,0.6329670329670329,0.42977291841883936,1192.0
872.0,1.7109212986344228e+18,0.4621409921671018,0.365296803652968,0.3281081081081081,0.49498654927855223,0.6120879120879121,0.432296047098402,1192.0
873.0,1.710921298644425e+18,0.47127937336814624,0.4143835616438356,0.3427027027027027,0.5067253607238934,0.6362637362637362,0.44911690496215306,1197.0
874.0,1.7109212986544233e+18,0.46866840731070497,0.3732876712328767,0.3535135135135135,0.49327463927610665,0.6010989010989011,0.4280908326324643,1192.0
875.0,1.710921298664451e+18,0.4255874673629243,0.3892694063926941,0.2935135135135135,0.5035460992907801,0.6494505494505495,0.4819175777964676,1194.0
876.0,1.710921298674429e+18,0.4765013054830287,0.4509132420091324,0.36486486486486486,0.491807287845439,0.5956043956043956,0.41968040370058873,1194.0
877.0,1.7109212986844242e+18,0.4765013054830287,0.3972602739726027,0.3210810810810811,0.5074590364392272,0.6054945054945055,0.4465937762825904,1196.0
878.0,1.7109212986944407e+18,0.5104438642297651,0.5365296803652968,0.4681081081081081,0.48985081927121543,0.6197802197802198,0.456686291000841,1197.0
879.0,1.7109212987044078e+18,0.489556135770235,0.3687214611872146,0.32432432432432434,0.4991440449987772,0.6307692307692307,0.4415475189234651,1195.0
880.0,1.7109212987144015e+18,0.48172323759791125,0.363013698630137,0.3318918918918919,0.4966984592809978,0.6230769230769231,0.42977291841883936,1192.0
881.0,1.7109212987244116e+18,0.45822454308093996,0.4440639269406393,0.35945945945945945,0.5074590364392272,0.6450549450549451,0.42977291841883936,1192.0
882.0,1.7109212987344128e+18,0.4765013054830287,0.4063926940639269,0.36972972972972973,0.5001222792858889,0.6362637362637362,0.4129520605550883,1193.0
883.0,1.7109212987444408e+18,0.4451697127937337,0.4212328767123288,0.3178378378378378,0.5077035950110051,0.6307692307692307,0.4440706476030278,1196.0
884.0,1.710921298754425e+18,0.5313315926892951,0.430365296803653,0.34702702702702704,0.49107361213010514,0.6142857142857143,0.4280908326324643,1192.0
885.0,1.7109212987644288e+18,0.4621409921671018,0.4280821917808219,0.33783783783783783,0.5047688921496698,0.6857142857142857,0.4751892346509672,1196.0
886.0,1.7109212987744202e+18,0.48172323759791125,0.4029680365296804,0.32972972972972975,0.499877720714111,0.6065934065934065,0.42304457527333894,1193.0
887.0,1.7109212987844255e+18,0.48172323759791125,0.4269406392694064,0.32972972972972975,0.5162631450232331,0.721978021978022,0.48444070647603027,1194.0
888.0,1.7109212987944233e+18,0.48433420365535246,0.3858447488584475,0.34378378378378377,0.48618244069454636,0.5846153846153846,0.4163162321278385,1191.0
889.0,1.7109212988044198e+18,0.48433420365535246,0.4680365296803653,0.3762162162162162,0.5135730007336757,0.6351648351648351,0.4432296047098402,1196.0
890.0,1.710921298814424e+18,0.5,0.4897260273972603,0.3772972972972973,0.4937637564196625,0.6417582417582418,0.4432296047098402,1197.0
891.0,1.7109212988244237e+18,0.4751958224543081,0.4349315068493151,0.3427027027027027,0.512594766446564,0.6494505494505495,0.44911690496215306,1197.0
892.0,1.7109212988344253e+18,0.52088772845953,0.4691780821917808,0.3627027027027027,0.5003668378576669,0.6164835164835165,0.4415475189234651,1194.0
893.0,1.7109212988444196e+18,0.402088772845953,0.3926940639269406,0.34486486486486484,0.5067253607238934,0.6406593406593407,0.4465937762825904,1195.0
894.0,1.7109212988544696e+18,0.5796344647519582,0.5079908675799086,0.4167567567567568,0.4979212521398875,0.6406593406593407,0.4499579478553406,1195.0
895.0,1.7109212988644436e+18,0.47389033942558745,0.3812785388127854,0.32756756756756755,0.5074590364392272,0.6494505494505495,0.4507989907485282,1195.0
896.0,1.7109212988744212e+18,0.4765013054830287,0.3904109589041096,0.3318918918918919,0.49523110785033014,0.6010989010989011,0.4280908326324643,1194.0
897.0,1.7109212988844457e+18,0.4386422976501306,0.4052511415525114,0.3286486486486486,0.5055025678650037,0.6307692307692307,0.42640874684608915,1192.0
898.0,1.7109212988944225e+18,0.42036553524804177,0.3926940639269406,0.30864864864864866,0.4974321349963316,0.5912087912087912,0.4020185029436501,1194.0
899.0,1.710921298904425e+18,0.45300261096605743,0.4315068493150685,0.34162162162162163,0.5067253607238934,0.6428571428571429,0.43986543313709,1196.0
900.0,1.7109212989144225e+18,0.52088772845953,0.4509132420091324,0.3572972972972973,0.4937637564196625,0.6175824175824176,0.45500420521446594,1197.0
901.0,1.7109212989244116e+18,0.43994778067885115,0.3835616438356164,0.31135135135135134,0.5062362435803375,0.6461538461538462,0.45248107653490327,1196.0
902.0,1.710921298934426e+18,0.45039164490861616,0.4018264840182648,0.31513513513513514,0.48618244069454636,0.5945054945054945,0.42640874684608915,1193.0
903.0,1.7109212989444237e+18,0.45822454308093996,0.4531963470319635,0.34378378378378377,0.5074590364392272,0.6384615384615384,0.4499579478553406,1196.0
904.0,1.7109212989544207e+18,0.47780678851174935,0.4577625570776256,0.3356756756756757,0.49620934213744194,0.610989010989011,0.4339781328847771,1192.0
905.0,1.7109212989644321e+18,0.43994778067885115,0.4052511415525114,0.33783783783783783,0.5172413793103449,0.6494505494505495,0.44911690496215306,1196.0
906.0,1.710921298974425e+18,0.4830287206266319,0.4280821917808219,0.3232432432432432,0.4937637564196625,0.6098901098901099,0.4280908326324643,1192.0
907.0,1.7109212989844214e+18,0.46866840731070497,0.3915525114155251,0.3286486486486486,0.5059916850085595,0.6120879120879121,0.4507989907485282,1194.0
908.0,1.7109212989944294e+18,0.4960835509138381,0.4098173515981735,0.3162162162162162,0.4913181707018831,0.6285714285714286,0.4314550042052145,1194.0
909.0,1.7109212990044462e+18,0.4830287206266319,0.4200913242009132,0.3183783783783784,0.5028124235754463,0.6384615384615384,0.4575273338940286,1196.0
910.0,1.7109212990144397e+18,0.4621409921671018,0.3984018264840183,0.3708108108108108,0.48813890926876985,0.6164835164835165,0.4146341463414634,1190.0
911.0,1.710921299024423e+18,0.45822454308093996,0.4360730593607306,0.3816216216216216,0.5113719735876743,0.6637362637362637,0.4381833473507149,1193.0
912.0,1.7109212990344297e+18,0.5013054830287206,0.4006849315068493,0.3345945945945946,0.49400831499144043,0.5802197802197803,0.4053826745164003,1192.0
913.0,1.7109212990444237e+18,0.42428198433420367,0.363013698630137,0.32972972972972975,0.5106382978723404,0.6494505494505495,0.4558452481076535,1194.0
914.0,1.7109212990544238e+18,0.49477806788511747,0.4280821917808219,0.3124324324324324,0.5030569821472243,0.6032967032967033,0.43986543313709,1193.0
915.0,1.7109212990644242e+18,0.4765013054830287,0.3721461187214612,0.3254054054054054,0.5069699192956714,0.6450549450549451,0.45836837678721615,1196.0
916.0,1.7109212990744243e+18,0.4516971279373368,0.3949771689497717,0.3248648648648649,0.49107361213010514,0.6098901098901099,0.4222035323801514,1192.0
917.0,1.710921299084422e+18,0.45691906005221933,0.4748858447488584,0.3302702702702703,0.5143066764490095,0.6538461538461539,0.4482758620689655,1196.0
918.0,1.7109212990944246e+18,0.47911227154047,0.4589041095890411,0.34054054054054056,0.4974321349963316,0.6351648351648351,0.432296047098402,1192.0
919.0,1.7109212991044257e+18,0.5065274151436031,0.4703196347031963,0.34486486486486484,0.5118610907312301,0.6758241758241759,0.45248107653490327,1197.0
920.0,1.7109212991144238e+18,0.47389033942558745,0.4200913242009132,0.3237837837837838,0.4944974321349963,0.6142857142857143,0.41379310344827586,1194.0
921.0,1.7109212991244214e+18,0.44778067885117495,0.4041095890410959,0.33135135135135135,0.5050134507214478,0.6472527472527473,0.43313708999158956,1196.0
922.0,1.7109212991344266e+18,0.5130548302872062,0.3972602739726027,0.3108108108108108,0.49400831499144043,0.6120879120879121,0.43650126156433977,1194.0
923.0,1.7109212991444268e+18,0.47780678851174935,0.3915525114155251,0.3264864864864865,0.5145512350207875,0.6802197802197802,0.4608915054667788,1195.0
924.0,1.710921299154428e+18,0.45039164490861616,0.3812785388127854,0.35027027027027025,0.4966984592809978,0.6527472527472528,0.4381833473507149,1196.0
925.0,1.7109212991644314e+18,0.4725848563968668,0.3995433789954338,0.38324324324324327,0.4969430178527757,0.6593406593406593,0.4592094196804037,1194.0
926.0,1.7109212991744323e+18,0.4908616187989556,0.4212328767123288,0.34054054054054056,0.4847150892638787,0.5978021978021978,0.44575273338940286,1195.0
927.0,1.7109212991844283e+18,0.4412532637075718,0.3824200913242009,0.3324324324324324,0.5094155050134507,0.6406593406593407,0.45836837678721615,1194.0
928.0,1.710921299194431e+18,0.47127937336814624,0.3904109589041096,0.32756756756756755,0.4991440449987772,0.6153846153846154,0.4306139613120269,1192.0
929.0,1.710921299204429e+18,0.4490861618798956,0.4178082191780822,0.34324324324324323,0.5050134507214478,0.6153846153846154,0.45248107653490327,1196.0
930.0,1.710921299214433e+18,0.47127937336814624,0.430365296803653,0.34216216216216216,0.4979212521398875,0.5945054945054945,0.4163162321278385,1192.0
931.0,1.710921299224437e+18,0.46736292428198434,0.4977168949771689,0.34702702702702704,0.5079481535827831,0.6296703296703297,0.4449116904962153,1198.0
932.0,1.71092129923443e+18,0.4308093994778068,0.3687214611872146,0.292972972972973,0.4942528735632184,0.5945054945054945,0.4129520605550883,1192.0
933.0,1.71092129924443e+18,0.42689295039164493,0.4143835616438356,0.3216216216216216,0.5074590364392272,0.6483516483516484,0.4465937762825904,1194.0
934.0,1.7109212992544307e+18,0.48433420365535246,0.386986301369863,0.31891891891891894,0.4942528735632184,0.6010989010989011,0.4238856181665265,1193.0
935.0,1.7109212992644306e+18,0.4934725848563969,0.4497716894977169,0.33837837837837836,0.5084372707263389,0.6582417582417582,0.48359966358284273,1196.0
936.0,1.7109212992744394e+18,0.4516971279373368,0.3675799086757991,0.31567567567567567,0.48936170212765956,0.5747252747252747,0.4255677039529016,1192.0
937.0,1.7109212992844503e+18,0.43342036553524804,0.3904109589041096,0.33837837837837836,0.504524333577892,0.6329670329670329,0.44238856181665265,1197.0
938.0,1.710921299294432e+18,0.5169712793733682,0.3824200913242009,0.3372972972972973,0.49938860357055515,0.6076923076923076,0.4280908326324643,1194.0
939.0,1.7109212993044344e+18,0.4621409921671018,0.3961187214611872,0.3291891891891892,0.5113719735876743,0.6406593406593407,0.45500420521446594,1194.0
940.0,1.7109212993144617e+18,0.47389033942558745,0.3664383561643836,0.29567567567567565,0.5011005135730008,0.6120879120879121,0.4432296047098402,1196.0
941.0,1.7109212993244334e+18,0.4308093994778068,0.3687214611872146,0.32432432432432434,0.5223771093176816,0.6505494505494506,0.45164003364171573,1196.0
942.0,1.710921299334436e+18,0.5443864229765013,0.4589041095890411,0.34324324324324323,0.49229640498899485,0.5967032967032967,0.4238856181665265,1194.0
943.0,1.7109212993444273e+18,0.4934725848563969,0.4292237442922374,0.3908108108108108,0.5025678650036683,0.6450549450549451,0.4701429772918419,1196.0
944.0,1.7109212993544343e+18,0.5,0.4246575342465753,0.3237837837837838,0.49205184641721694,0.6032967032967033,0.4255677039529016,1192.0
945.0,1.710921299364419e+18,0.4830287206266319,0.4132420091324201,0.3372972972972973,0.5140621178772316,0.6483516483516484,0.4482758620689655,1196.0
946.0,1.710921299374419e+18,0.4699738903394256,0.4269406392694064,0.33405405405405403,0.495964783565664,0.5659340659340659,0.42977291841883936,1192.0
947.0,1.7109212993844196e+18,0.489556135770235,0.4497716894977169,0.3335135135135135,0.5059916850085595,0.6428571428571429,0.45500420521446594,1193.0
948.0,1.710921299394423e+18,0.49216710182767626,0.4223744292237443,0.34378378378378377,0.5057471264367817,0.634065934065934,0.4693019343986543,1193.0
949.0,1.710921299404421e+18,0.45039164490861616,0.3732876712328767,0.32972972972972975,0.504279775006114,0.6285714285714286,0.4348191757779647,1194.0
950.0,1.7109212994144335e+18,0.4804177545691906,0.4075342465753425,0.3497297297297297,0.4969430178527757,0.6241758241758242,0.43902439024390244,1194.0
951.0,1.7109212994244372e+18,0.4556135770234987,0.3995433789954338,0.3345945945945946,0.5074590364392272,0.6406593406593407,0.4701429772918419,1194.0
952.0,1.7109212994344238e+18,0.54177545691906,0.3641552511415525,0.32054054054054054,0.4930300807043287,0.6043956043956044,0.4314550042052145,1193.0
953.0,1.7109212994444221e+18,0.5078328981723238,0.4337899543378995,0.34162162162162163,0.5196869650281243,0.6307692307692307,0.45164003364171573,1195.0
954.0,1.7109212994544202e+18,0.5313315926892951,0.5273972602739726,0.4205405405405405,0.5001222792858889,0.6153846153846154,0.4339781328847771,1196.0
955.0,1.7109212994644196e+18,0.4765013054830287,0.4189497716894977,0.3264864864864865,0.512350207874786,0.6406593406593407,0.4482758620689655,1194.0
956.0,1.7109212994744205e+18,0.4765013054830287,0.3915525114155251,0.3281081081081081,0.4942528735632184,0.6,0.42304457527333894,1191.0
957.0,1.7109212994844396e+18,0.4556135770234987,0.4189497716894977,0.34540540540540543,0.512350207874786,0.6626373626373626,0.45500420521446594,1197.0
958.0,1.710921299494423e+18,0.5248041775456919,0.3881278538812785,0.31891891891891894,0.4944974321349963,0.6120879120879121,0.42977291841883936,1193.0
959.0,1.710921299504419e+18,0.5391644908616188,0.410958904109589,0.3308108108108108,0.5138175593054537,0.6428571428571429,0.47434819175777965,1197.0
960.0,1.7109212995144192e+18,0.5404699738903395,0.5057077625570776,0.35567567567567565,0.499877720714111,0.5923076923076923,0.4238856181665265,1194.0
961.0,1.7109212995244234e+18,0.4464751958224543,0.4337899543378995,0.33405405405405403,0.5155294693078992,0.6450549450549451,0.447434819175778,1194.0
962.0,1.7109212995344387e+18,0.5078328981723238,0.3287671232876712,0.31945945945945947,0.4913181707018831,0.5736263736263736,0.4222035323801514,1192.0
963.0,1.7109212995444252e+18,0.41906005221932113,0.4417808219178082,0.3264864864864865,0.5152849107361213,0.6494505494505495,0.45836837678721615,1196.0
964.0,1.710921299554421e+18,0.4216710182767624,0.2648401826484018,0.28054054054054056,0.4900953778429934,0.6054945054945055,0.4213624894869638,1193.0
965.0,1.710921299564419e+18,0.45300261096605743,0.319634703196347,0.29945945945945945,0.5143066764490095,0.6395604395604395,0.4533221194280908,1196.0
966.0,1.710921299574421e+18,0.5391644908616188,0.339041095890411,0.3172972972972973,0.49400831499144043,0.6362637362637362,0.4213624894869638,1192.0
967.0,1.7109212995844198e+18,0.43994778067885115,0.3561643835616438,0.3372972972972973,0.5162631450232331,0.6571428571428571,0.46173254835996635,1192.0
968.0,1.710921299594438e+18,0.48825065274151436,0.3618721461187215,0.3216216216216216,0.4937637564196625,0.5934065934065934,0.42052144659377627,1193.0
969.0,1.7109212996044285e+18,0.45039164490861616,0.3458904109589041,0.31945945945945947,0.5059916850085595,0.6406593406593407,0.44575273338940286,1194.0
970.0,1.710921299614424e+18,0.44778067885117495,0.408675799086758,0.3081081081081081,0.49523110785033014,0.6296703296703297,0.41715727502102606,1192.0
971.0,1.710921299624419e+18,0.4516971279373368,0.4178082191780822,0.34378378378378377,0.5094155050134507,0.6593406593406593,0.456686291000841,1194.0
972.0,1.7109212996344225e+18,0.45300261096605743,0.3904109589041096,0.31675675675675674,0.4847150892638787,0.5956043956043956,0.42052144659377627,1194.0
973.0,1.710921299644425e+18,0.43733681462140994,0.4200913242009132,0.31945945945945947,0.5135730007336757,0.6582417582417582,0.44575273338940286,1196.0
974.0,1.7109212996544212e+18,0.5143603133159269,0.4931506849315068,0.35621621621621624,0.49400831499144043,0.6362637362637362,0.45500420521446594,1194.0
975.0,1.7109212996644183e+18,0.49216710182767626,0.4589041095890411,0.35621621621621624,0.5064808021521154,0.656043956043956,0.456686291000841,1194.0
976.0,1.7109212996744182e+18,0.46475195822454307,0.4497716894977169,0.3281081081081081,0.491562729273661,0.5967032967032967,0.4255677039529016,1194.0
977.0,1.710921299684421e+18,0.4908616187989556,0.454337899543379,0.40216216216216216,0.5094155050134507,0.6076923076923076,0.46509671993271656,1196.0
978.0,1.7109212996944233e+18,0.5156657963446475,0.363013698630137,0.327027027027027,0.5006113964294449,0.6197802197802198,0.43986543313709,1196.0
979.0,1.7109212997044193e+18,0.4621409921671018,0.4474885844748858,0.3589189189189189,0.5069699192956714,0.6329670329670329,0.4449116904962153,1195.0
980.0,1.7109212997144195e+18,0.4556135770234987,0.3219178082191781,0.3216216216216216,0.4942528735632184,0.6098901098901099,0.42640874684608915,1190.0
981.0,1.7109212997244196e+18,0.4960835509138381,0.5034246575342466,0.32432432432432434,0.512594766446564,0.6648351648351648,0.456686291000841,1194.0
982.0,1.7109212997344212e+18,0.4725848563968668,0.3470319634703196,0.32594594594594595,0.495720224993886,0.6098901098901099,0.41968040370058873,1194.0
983.0,1.710921299744443e+18,0.4765013054830287,0.3995433789954338,0.3427027027027027,0.5103937393005625,0.6406593406593407,0.4432296047098402,1197.0
984.0,1.710921299754419e+18,0.5966057441253264,0.432648401826484,0.3345945945945946,0.49400831499144043,0.6120879120879121,0.4280908326324643,1193.0
985.0,1.7109212997644196e+18,0.40992167101827676,0.384703196347032,0.3362162162162162,0.5047688921496698,0.6461538461538462,0.432296047098402,1193.0
986.0,1.7109212997744192e+18,0.4869451697127937,0.3858447488584475,0.3481081081081081,0.491562729273661,0.6186813186813187,0.4247266610597141,1192.0
987.0,1.710921299784423e+18,0.4556135770234987,0.4200913242009132,0.35135135135135137,0.5072144778674492,0.6076923076923076,0.4533221194280908,1193.0
988.0,1.710921299794417e+18,0.4765013054830287,0.4155251141552511,0.3427027027027027,0.49498654927855223,0.5978021978021978,0.4255677039529016,1194.0
989.0,1.7109212998044147e+18,0.5078328981723238,0.4863013698630137,0.34486486486486484,0.5064808021521154,0.5967032967032967,0.4440706476030278,1193.0
990.0,1.710921299814413e+18,0.52088772845953,0.4257990867579909,0.34324324324324323,0.5089263878698949,0.6175824175824176,0.4348191757779647,1193.0
991.0,1.7109212998244137e+18,0.4425587467362924,0.4166666666666667,0.3389189189189189,0.5096600635852286,0.6527472527472528,0.45836837678721615,1192.0
992.0,1.7109212998344115e+18,0.4725848563968668,0.3036529680365297,0.327027027027027,0.49327463927610665,0.6021978021978022,0.4247266610597141,1192.0
993.0,1.7109212998444224e+18,0.4112271540469974,0.4041095890410959,0.3491891891891892,0.5072144778674492,0.6252747252747253,0.4482758620689655,1194.0
994.0,1.7109212998544233e+18,0.5234986945169713,0.4509132420091324,0.35027027027027025,0.48642699926632427,0.643956043956044,0.45164003364171573,1194.0
995.0,1.7109212998644206e+18,0.42297650130548303,0.3641552511415525,0.3081081081081081,0.504035216434336,0.6494505494505495,0.45248107653490327,1193.0
996.0,1.7109212998744184e+18,0.44778067885117495,0.3732876712328767,0.3443243243243243,0.48911714355588165,0.5835164835164836,0.4146341463414634,1192.0
997.0,1.7109212998844383e+18,0.46866840731070497,0.4520547945205479,0.34702702702702704,0.5167522621667889,0.6791208791208792,0.4558452481076535,1194.0
998.0,1.7109212998944243e+18,0.47911227154047,0.4337899543378995,0.3124324324324324,0.4913181707018831,0.6208791208791209,0.41715727502102606,1192.0
999.0,1.7109212999044326e+18,0.4164490861618799,0.4246575342465753,0.3172972972972973,0.5133284421618978,0.656043956043956,0.4499579478553406,1197.0
1000.0,1.71092129991442e+18,0.4464751958224543,0.3767123287671233,0.30324324324324325,0.4937637564196625,0.589010989010989,0.4179983179142136,1193.0
