202.0,1.710921947292281e+18,0.4830287206266319,0.4429223744292237,0.3372972972972973,0.5084372707263389,0.6472527472527473,0.43986543313709,1195.0
203.0,1.7109219473022892e+18,0.4765013054830287,0.3938356164383562,0.32594594594594595,0.4969430178527757,0.6274725274725275,0.44238856181665265,1194.0
204.0,1.7109219473122967e+18,0.4660574412532637,0.3949771689497717,0.3308108108108108,0.5067253607238934,0.6197802197802198,0.4381833473507149,1196.0
205.0,1.7109219473222858e+18,0.4621409921671018,0.3904109589041096,0.3302702702702703,0.5050134507214478,0.6285714285714286,0.4415475189234651,1196.0
206.0,1.7109219473322806e+18,0.49869451697127937,0.4429223744292237,0.33837837837837836,0.5023233064318905,0.6142857142857143,0.44070647603027757,1196.0
207.0,1.7109219473422804e+18,0.48433420365535246,0.4052511415525114,0.3324324324324324,0.5018341892883346,0.6197802197802198,0.4381833473507149,1196.0
208.0,1.710921947352283e+18,0.45691906005221933,0.4075342465753425,0.3335135135135135,0.4986549278552213,0.5923076923076923,0.43650126156433977,1196.0
209.0,1.7109219473622822e+18,0.47127937336814624,0.4018264840182648,0.33405405405405403,0.49498654927855223,0.6043956043956044,0.43902439024390244,1196.0
210.0,1.7109219473722806e+18,0.4830287206266319,0.432648401826484,0.3345945945945946,0.4984103692834434,0.5967032967032967,0.4381833473507149,1196.0
211.0,1.7109219473822856e+18,0.46344647519582244,0.3812785388127854,0.31945945945945947,0.5033015407190022,0.6329670329670329,0.4634146341463415,1196.0
212.0,1.7109219473922883e+18,0.47127937336814624,0.408675799086758,0.3410810810810811,0.5001222792858889,0.6241758241758242,0.43566021867115223,1197.0
213.0,1.7109219474022845e+18,0.4725848563968668,0.4235159817351598,0.34324324324324323,0.5035460992907801,0.6274725274725275,0.4415475189234651,1195.0
214.0,1.7109219474122888e+18,0.4516971279373368,0.3904109589041096,0.3237837837837838,0.4979212521398875,0.6186813186813187,0.4381833473507149,1195.0
215.0,1.7109219474222838e+18,0.4490861618798956,0.4223744292237443,0.3324324324324324,0.5020787478601125,0.6516483516483517,0.4558452481076535,1195.0
216.0,1.7109219474322808e+18,0.47780678851174935,0.4383561643835616,0.34216216216216216,0.49938860357055515,0.6120879120879121,0.4432296047098402,1197.0
217.0,1.71092194744228e+18,0.4608355091383812,0.3961187214611872,0.3210810810810811,0.4974321349963316,0.5989010989010989,0.4381833473507149,1194.0
218.0,1.7109219474522824e+18,0.47911227154047,0.4474885844748858,0.3491891891891892,0.5023233064318905,0.6142857142857143,0.48696383515559294,1196.0
219.0,1.7109219474622797e+18,0.48172323759791125,0.4098173515981735,0.32756756756756755,0.4971875764245537,0.6197802197802198,0.44238856181665265,1197.0
220.0,1.7109219474722785e+18,0.43342036553524804,0.3767123287671233,0.3362162162162162,0.5055025678650037,0.5846153846153846,0.3137089991589571,1191.0
221.0,1.7109219474822815e+18,0.4412532637075718,0.3972602739726027,0.3281081081081081,0.49498654927855223,0.610989010989011,0.4179983179142136,1195.0
222.0,1.7109219474922788e+18,0.49477806788511747,0.3915525114155251,0.32432432432432434,0.5030569821472243,0.6967032967032967,0.5021026072329688,1197.0
223.0,1.7109219475022843e+18,0.47780678851174935,0.3949771689497717,0.3302702702702703,0.4979212521398875,0.621978021978022,0.3793103448275862,1193.0
224.0,1.7109219475122862e+18,0.4660574412532637,0.3904109589041096,0.32594594594594595,0.5077035950110051,0.7813186813186813,0.5121951219512195,1197.0
225.0,1.7109219475222797e+18,0.47911227154047,0.4178082191780822,0.31567567567567567,0.504524333577892,0.6175824175824176,0.45500420521446594,1195.0
226.0,1.7109219475323013e+18,0.48172323759791125,0.4406392694063927,0.34486486486486484,0.5064808021521154,0.6329670329670329,0.43566021867115223,1195.0
227.0,1.710921947542281e+18,0.48172323759791125,0.4577625570776256,0.32756756756756755,0.49498654927855223,0.6164835164835165,0.4415475189234651,1194.0
228.0,1.710921947552306e+18,0.4321148825065274,0.3595890410958904,0.31945945945945947,0.48985081927121543,0.6054945054945055,0.4280908326324643,1193.0
229.0,1.7109219475622876e+18,0.5469973890339426,0.6472602739726028,0.3708108108108108,0.5037906578625581,0.6824175824175824,0.44575273338940286,1196.0
230.0,1.7109219475722847e+18,0.48433420365535246,0.4315068493150685,0.34486486486486484,0.504524333577892,0.6626373626373626,0.43986543313709,1195.0
231.0,1.7109219475822843e+18,0.47127937336814624,0.410958904109589,0.3248648648648649,0.5094155050134507,0.6626373626373626,0.4499579478553406,1196.0
232.0,1.710921947592297e+18,0.49216710182767626,0.4360730593607306,0.32594594594594595,0.49400831499144043,0.6615384615384615,0.45500420521446594,1196.0
233.0,1.7109219476022907e+18,0.4660574412532637,0.4223744292237443,0.33945945945945943,0.5028124235754463,0.6758241758241759,0.4381833473507149,1194.0
234.0,1.7109219476122708e+18,0.4608355091383812,0.3915525114155251,0.3210810810810811,0.5025678650036683,0.5637362637362637,0.4255677039529016,1195.0
235.0,1.7109219476222807e+18,0.4804177545691906,0.4383561643835616,0.3497297297297297,0.5018341892883346,0.5538461538461539,0.4238856181665265,1192.0
236.0,1.7109219476322783e+18,0.4608355091383812,0.4075342465753425,0.33297297297297296,0.5035460992907801,0.621978021978022,0.4415475189234651,1196.0
237.0,1.7109219476422817e+18,0.42950391644908614,0.3778538812785388,0.30648648648648646,0.49523110785033014,0.6043956043956044,0.4449116904962153,1197.0
238.0,1.710921947652299e+18,0.52088772845953,0.4817351598173516,0.3837837837837838,0.5059916850085595,0.676923076923077,0.4693019343986543,1195.0
239.0,1.7109219476622866e+18,0.4425587467362924,0.3641552511415525,0.3108108108108108,0.4954756664221081,0.5296703296703297,0.4381833473507149,1196.0
240.0,1.7109219476722824e+18,0.47780678851174935,0.4018264840182648,0.3389189189189189,0.5011005135730008,0.6274725274725275,0.4348191757779647,1194.0
241.0,1.710921947682283e+18,0.4856396866840731,0.4292237442922374,0.35027027027027025,0.504035216434336,0.6285714285714286,0.4381833473507149,1194.0
242.0,1.7109219476923139e+18,0.48825065274151436,0.4178082191780822,0.3362162162162162,0.499877720714111,0.6846153846153846,0.43902439024390244,1194.0
243.0,1.7109219477022866e+18,0.45822454308093996,0.4075342465753425,0.3318918918918919,0.5062362435803375,0.6098901098901099,0.4280908326324643,1192.0
244.0,1.7109219477122862e+18,0.45430809399477806,0.4132420091324201,0.33837837837837836,0.5006113964294449,0.6021978021978022,0.43650126156433977,1196.0
245.0,1.7109219477222817e+18,0.45822454308093996,0.4212328767123288,0.3372972972972973,0.5008559550012228,0.6527472527472528,0.45500420521446594,1196.0
246.0,1.7109219477322816e+18,0.4556135770234987,0.4132420091324201,0.3324324324324324,0.4971875764245537,0.5967032967032967,0.4306139613120269,1194.0
247.0,1.710921947742286e+18,0.46736292428198434,0.3995433789954338,0.33135135135135135,0.5018341892883346,0.6230769230769231,0.4415475189234651,1194.0
248.0,1.710921947752299e+18,0.48825065274151436,0.3995433789954338,0.3291891891891892,0.5047688921496698,0.6142857142857143,0.44911690496215306,1196.0
249.0,1.710921947762301e+18,0.46344647519582244,0.4257990867579909,0.35567567567567565,0.4974321349963316,0.6351648351648351,0.4381833473507149,1196.0
250.0,1.710921947772282e+18,0.4699738903394256,0.4235159817351598,0.33945945945945943,0.4996331621423331,0.6175824175824176,0.4381833473507149,1198.0
251.0,1.7109219477822766e+18,0.4830287206266319,0.4178082191780822,0.36648648648648646,0.5047688921496698,0.5923076923076923,0.4306139613120269,1192.0
252.0,1.710921947792278e+18,0.4765013054830287,0.4063926940639269,0.3318918918918919,0.5008559550012228,0.6153846153846154,0.42977291841883936,1196.0
253.0,1.7109219478022833e+18,0.45822454308093996,0.3915525114155251,0.32216216216216215,0.5025678650036683,0.6406593406593407,0.4373423044575273,1196.0
254.0,1.7109219478122798e+18,0.46475195822454307,0.4235159817351598,0.30324324324324325,0.5001222792858889,0.6274725274725275,0.4432296047098402,1195.0
255.0,1.7109219478222822e+18,0.47127937336814624,0.4166666666666667,0.3281081081081081,0.5015896307165566,0.6406593406593407,0.4314550042052145,1193.0
256.0,1.710921947832284e+18,0.4621409921671018,0.4052511415525114,0.33135135135135135,0.4974321349963316,0.5010989010989011,0.4247266610597141,1196.0
257.0,1.7109219478422825e+18,0.4934725848563969,0.3949771689497717,0.3345945945945946,0.5008559550012228,0.6098901098901099,0.4558452481076535,1197.0
258.0,1.7109219478522844e+18,0.48433420365535246,0.4200913242009132,0.3443243243243243,0.4996331621423331,0.6153846153846154,0.4280908326324643,1194.0
259.0,1.7109219478622802e+18,0.45822454308093996,0.3926940639269406,0.3308108108108108,0.512350207874786,0.6285714285714286,0.43650126156433977,1196.0
260.0,1.7109219478722844e+18,0.49216710182767626,0.4132420091324201,0.3356756756756757,0.5047688921496698,0.6384615384615384,0.4415475189234651,1194.0
261.0,1.7109219478822886e+18,0.47911227154047,0.4018264840182648,0.33513513513513515,0.5020787478601125,0.6373626373626373,0.4449116904962153,1195.0
262.0,1.710921947892284e+18,0.4830287206266319,0.4041095890410959,0.3324324324324324,0.4991440449987772,0.6714285714285714,0.4482758620689655,1196.0
263.0,1.7109219479022866e+18,0.46736292428198434,0.4178082191780822,0.32756756756756755,0.4937637564196625,0.5978021978021978,0.432296047098402,1193.0
264.0,1.7109219479122854e+18,0.48825065274151436,0.4178082191780822,0.33945945945945943,0.5025678650036683,0.6329670329670329,0.4482758620689655,1197.0
265.0,1.710921947922288e+18,0.49216710182767626,0.4132420091324201,0.3362162162162162,0.5062362435803375,0.6373626373626373,0.4415475189234651,1196.0
266.0,1.7109219479322816e+18,0.4804177545691906,0.4075342465753425,0.33405405405405403,0.4986549278552213,0.5791208791208792,0.432296047098402,1194.0
267.0,1.710921947942281e+18,0.4464751958224543,0.4132420091324201,0.33945945945945943,0.5020787478601125,0.6406593406593407,0.42977291841883936,1193.0
268.0,1.710921947952287e+18,0.4621409921671018,0.4337899543378995,0.35405405405405405,0.4986549278552213,0.6175824175824176,0.4222035323801514,1193.0
269.0,1.710921947962285e+18,0.47127937336814624,0.3915525114155251,0.3335135135135135,0.5001222792858889,0.6241758241758242,0.4381833473507149,1195.0
270.0,1.710921947972312e+18,0.4765013054830287,0.4098173515981735,0.33405405405405403,0.5074590364392272,0.6274725274725275,0.4381833473507149,1197.0
271.0,1.7109219479822833e+18,0.46475195822454307,0.4063926940639269,0.3308108108108108,0.5055025678650037,0.6230769230769231,0.4314550042052145,1192.0
272.0,1.7109219479922885e+18,0.4869451697127937,0.4600456621004566,0.35135135135135137,0.5062362435803375,0.6175824175824176,0.45500420521446594,1196.0
273.0,1.7109219480022845e+18,0.4869451697127937,0.4143835616438356,0.33405405405405403,0.5006113964294449,0.6164835164835165,0.4280908326324643,1194.0
274.0,1.710921948012288e+18,0.4869451697127937,0.430365296803653,0.3308108108108108,0.5006113964294449,0.6230769230769231,0.44238856181665265,1196.0
275.0,1.7109219480222986e+18,0.46866840731070497,0.4178082191780822,0.3324324324324324,0.5037906578625581,0.6417582417582418,0.4432296047098402,1196.0
276.0,1.7109219480322995e+18,0.4595300261096606,0.4018264840182648,0.3291891891891892,0.4988994864269993,0.5923076923076923,0.44070647603027757,1196.0
277.0,1.7109219480423227e+18,0.48172323759791125,0.4452054794520548,0.3362162162162162,0.4991440449987772,0.6758241758241759,0.45500420521446594,1197.0
278.0,1.7109219480522877e+18,0.46866840731070497,0.3995433789954338,0.34594594594594597,0.5011005135730008,0.6197802197802198,0.43566021867115223,1196.0
279.0,1.710921948062288e+18,0.49869451697127937,0.4132420091324201,0.33837837837837836,0.5028124235754463,0.6274725274725275,0.43650126156433977,1197.0
280.0,1.710921948072288e+18,0.46475195822454307,0.4132420091324201,0.3308108108108108,0.4954756664221081,0.6538461538461539,0.43902439024390244,1195.0
281.0,1.7109219480823137e+18,0.49216710182767626,0.4600456621004566,0.36324324324324325,0.5037906578625581,0.6450549450549451,0.447434819175778,1196.0
282.0,1.7109219480922872e+18,0.47389033942558745,0.408675799086758,0.33513513513513515,0.5035460992907801,0.6428571428571429,0.43902439024390244,1196.0
283.0,1.7109219481022912e+18,0.47127937336814624,0.4223744292237443,0.3356756756756757,0.5047688921496698,0.6318681318681318,0.44238856181665265,1197.0
284.0,1.7109219481122906e+18,0.46736292428198434,0.3995433789954338,0.33405405405405403,0.5001222792858889,0.6175824175824176,0.4381833473507149,1195.0
285.0,1.710921948122294e+18,0.46475195822454307,0.3835616438356164,0.3237837837837838,0.5001222792858889,0.621978021978022,0.4306139613120269,1193.0
286.0,1.7109219481322798e+18,0.47127937336814624,0.4063926940639269,0.3389189189189189,0.49767669356810956,0.6241758241758242,0.4432296047098402,1195.0
287.0,1.7109219481422884e+18,0.46866840731070497,0.4143835616438356,0.3335135135135135,0.5074590364392272,0.6318681318681318,0.43986543313709,1195.0
288.0,1.7109219481522944e+18,0.47127937336814624,0.4121004566210046,0.3345945945945946,0.5015896307165566,0.6241758241758242,0.44911690496215306,1197.0
289.0,1.710921948162293e+18,0.4765013054830287,0.3961187214611872,0.3324324324324324,0.5035460992907801,0.6241758241758242,0.43902439024390244,1194.0
290.0,1.7109219481722929e+18,0.47127937336814624,0.4178082191780822,0.3345945945945946,0.4988994864269993,0.6230769230769231,0.4373423044575273,1198.0
291.0,1.7109219481823063e+18,0.46344647519582244,0.4098173515981735,0.34486486486486484,0.5018341892883346,0.6230769230769231,0.43902439024390244,1197.0
292.0,1.7109219481922972e+18,0.4934725848563969,0.454337899543379,0.3535135135135135,0.5015896307165566,0.6582417582417582,0.4415475189234651,1198.0
293.0,1.7109219482022973e+18,0.47127937336814624,0.410958904109589,0.3318918918918919,0.49816581071166544,0.6175824175824176,0.43313708999158956,1195.0
294.0,1.710921948212281e+18,0.4725848563968668,0.4246575342465753,0.3356756756756757,0.5001222792858889,0.6153846153846154,0.43566021867115223,1194.0
295.0,1.710921948222283e+18,0.46475195822454307,0.4006849315068493,0.33405405405405403,0.5011005135730008,0.6296703296703297,0.44070647603027757,1194.0
296.0,1.7109219482322862e+18,0.4595300261096606,0.4018264840182648,0.3216216216216216,0.4996331621423331,0.6010989010989011,0.4238856181665265,1193.0
297.0,1.71092194824228e+18,0.52088772845953,0.45662100456621,0.3389189189189189,0.5074590364392272,0.7065934065934066,0.47098402018502944,1198.0
298.0,1.710921948252281e+18,0.4556135770234987,0.3904109589041096,0.33297297297297296,0.4913181707018831,0.6384615384615384,0.43650126156433977,1197.0
299.0,1.710921948262248e+18,0.4869451697127937,0.3995433789954338,0.3302702702702703,0.5030569821472243,0.6274725274725275,0.4381833473507149,1196.0
300.0,1.7109219482722834e+18,0.4725848563968668,0.454337899543379,0.3605405405405405,0.5035460992907801,0.6802197802197802,0.4465937762825904,1194.0
301.0,1.7109219482823043e+18,0.4908616187989556,0.432648401826484,0.3491891891891892,0.5015896307165566,0.6527472527472528,0.4634146341463415,1197.0
302.0,1.710921948292287e+18,0.47389033942558745,0.4052511415525114,0.3308108108108108,0.5023233064318905,0.6274725274725275,0.4381833473507149,1194.0
303.0,1.7109219483022495e+18,0.46344647519582244,0.3904109589041096,0.3362162162162162,0.5018341892883346,0.6384615384615384,0.4449116904962153,1197.0
304.0,1.7109219483122888e+18,0.44386422976501305,0.3881278538812785,0.33297297297297296,0.49938860357055515,0.6142857142857143,0.4339781328847771,1193.0
305.0,1.7109219483222815e+18,0.47780678851174935,0.4075342465753425,0.33513513513513515,0.5011005135730008,0.6153846153846154,0.43902439024390244,1196.0
306.0,1.7109219483322982e+18,0.47780678851174935,0.4200913242009132,0.3356756756756757,0.5020787478601125,0.6461538461538462,0.43902439024390244,1196.0
307.0,1.710921948342289e+18,0.4699738903394256,0.4132420091324201,0.33297297297297296,0.5018341892883346,0.6373626373626373,0.43986543313709,1195.0
308.0,1.710921948352284e+18,0.4660574412532637,0.4178082191780822,0.3345945945945946,0.5011005135730008,0.6329670329670329,0.43902439024390244,1195.0
309.0,1.7109219483622812e+18,0.47127937336814624,0.410958904109589,0.33945945945945943,0.5011005135730008,0.6362637362637362,0.44911690496215306,1196.0
310.0,1.710921948372283e+18,0.47389033942558745,0.4452054794520548,0.3443243243243243,0.4986549278552213,0.6175824175824176,0.432296047098402,1192.0
311.0,1.7109219483822848e+18,0.49869451697127937,0.4452054794520548,0.35945945945945945,0.5077035950110051,0.6714285714285714,0.4600504625735913,1193.0
312.0,1.7109219483922726e+18,0.4660574412532637,0.4041095890410959,0.3281081081081081,0.4971875764245537,0.6186813186813187,0.43986543313709,1198.0
313.0,1.7109219484022835e+18,0.47127937336814624,0.4143835616438356,0.32972972972972975,0.49767669356810956,0.6197802197802198,0.42977291841883936,1193.0
314.0,1.7109219484122834e+18,0.4751958224543081,0.4417808219178082,0.37891891891891893,0.4988994864269993,0.6142857142857143,0.43566021867115223,1194.0
315.0,1.7109219484222848e+18,0.4660574412532637,0.4029680365296804,0.3324324324324324,0.4988994864269993,0.6131868131868132,0.43566021867115223,1195.0
316.0,1.710921948432296e+18,0.4595300261096606,0.4246575342465753,0.33405405405405403,0.5015896307165566,0.6538461538461539,0.42977291841883936,1194.0
317.0,1.710921948442276e+18,0.5026109660574413,0.4212328767123288,0.34162162162162163,0.5015896307165566,0.6329670329670329,0.44911690496215306,1195.0
318.0,1.710921948452306e+18,0.44386422976501305,0.3584474885844749,0.2935135135135135,0.49816581071166544,0.6307692307692307,0.43650126156433977,1196.0
319.0,1.710921948462278e+18,0.4608355091383812,0.4029680365296804,0.3362162162162162,0.4988994864269993,0.6021978021978022,0.4381833473507149,1195.0
320.0,1.7109219484722803e+18,0.48172323759791125,0.4280821917808219,0.3443243243243243,0.5001222792858889,0.6384615384615384,0.45164003364171573,1194.0
321.0,1.710921948482298e+18,0.48172323759791125,0.4189497716894977,0.33513513513513515,0.5025678650036683,0.6406593406593407,0.4415475189234651,1197.0
322.0,1.7109219484922813e+18,0.4516971279373368,0.3812785388127854,0.30594594594594593,0.5055025678650037,0.5736263736263736,0.4314550042052145,1192.0
323.0,1.7109219485022835e+18,0.45822454308093996,0.3835616438356164,0.31567567567567567,0.5199315235999021,0.6626373626373626,0.4482758620689655,1194.0
324.0,1.710921948512281e+18,0.47127937336814624,0.4280821917808219,0.3362162162162162,0.504035216434336,0.6131868131868132,0.4146341463414634,1192.0
325.0,1.7109219485223516e+18,0.5091383812010444,0.4200913242009132,0.3908108108108108,0.5079481535827831,0.5307692307692308,0.45164003364171573,1196.0
326.0,1.710921948532288e+18,0.4699738903394256,0.3789954337899543,0.34054054054054056,0.4966984592809978,0.5758241758241758,0.432296047098402,1193.0
327.0,1.7109219485422482e+18,0.46736292428198434,0.3938356164383562,0.3178378378378378,0.5077035950110051,0.6241758241758242,0.44070647603027757,1195.0
328.0,1.7109219485522857e+18,0.4660574412532637,0.4075342465753425,0.3178378378378378,0.5077035950110051,0.610989010989011,0.43566021867115223,1195.0
329.0,1.7109219485622874e+18,0.47127937336814624,0.4143835616438356,0.3324324324324324,0.4991440449987772,0.6131868131868132,0.4381833473507149,1194.0
330.0,1.7109219485722834e+18,0.47911227154047,0.4063926940639269,0.3324324324324324,0.49645390070921985,0.6241758241758242,0.4440706476030278,1197.0
331.0,1.7109219485822812e+18,0.47780678851174935,0.3995433789954338,0.3162162162162162,0.487649792125214,0.5395604395604395,0.4028595458368377,1193.0
332.0,1.710921948592301e+18,0.46866840731070497,0.3767123287671233,0.3210810810810811,0.49816581071166544,0.6681318681318681,0.4247266610597141,1195.0
333.0,1.710921948602282e+18,0.4934725848563969,0.4280821917808219,0.34756756756756757,0.5057471264367817,0.6065934065934065,0.43313708999158956,1193.0
334.0,1.7109219486122816e+18,0.4360313315926893,0.3904109589041096,0.34054054054054056,0.5057471264367817,0.5956043956043956,0.41379310344827586,1193.0
335.0,1.7109219486222994e+18,0.4908616187989556,0.4977168949771689,0.4183783783783784,0.5064808021521154,0.6362637362637362,0.4592094196804037,1197.0
336.0,1.710921948632299e+18,0.4751958224543081,0.4018264840182648,0.35405405405405405,0.5018341892883346,0.6593406593406593,0.4415475189234651,1197.0
337.0,1.7109219486422835e+18,0.45822454308093996,0.3721461187214612,0.31567567567567567,0.5003668378576669,0.5626373626373626,0.4289318755256518,1193.0
338.0,1.7109219486522724e+18,0.4556135770234987,0.3938356164383562,0.3389189189189189,0.5037906578625581,0.5978021978021978,0.4188393608074012,1193.0
339.0,1.7109219486622817e+18,0.4830287206266319,0.4212328767123288,0.33675675675675676,0.4979212521398875,0.6318681318681318,0.4339781328847771,1193.0
340.0,1.710921948672281e+18,0.5182767624020888,0.454337899543379,0.3621621621621622,0.5172413793103449,0.6384615384615384,0.46173254835996635,1193.0
341.0,1.7109219486822472e+18,0.48172323759791125,0.4417808219178082,0.3345945945945946,0.5096600635852286,0.6725274725274726,0.4314550042052145,1193.0
342.0,1.7109219486922831e+18,0.4556135770234987,0.3881278538812785,0.31945945945945947,0.4937637564196625,0.5945054945054945,0.4213624894869638,1192.0
343.0,1.7109219487022817e+18,0.49216710182767626,0.3915525114155251,0.32756756756756755,0.495720224993886,0.6626373626373626,0.4449116904962153,1196.0
344.0,1.710921948712284e+18,0.46866840731070497,0.410958904109589,0.3605405405405405,0.4969430178527757,0.6736263736263737,0.4440706476030278,1194.0
345.0,1.7109219487222843e+18,0.4556135770234987,0.4029680365296804,0.33135135135135135,0.4930300807043287,0.5956043956043956,0.42977291841883936,1193.0
346.0,1.710921948732283e+18,0.47127937336814624,0.4360730593607306,0.35081081081081084,0.5018341892883346,0.6230769230769231,0.4482758620689655,1196.0
347.0,1.7109219487422932e+18,0.4869451697127937,0.4497716894977169,0.31891891891891894,0.4979212521398875,0.6142857142857143,0.432296047098402,1194.0
348.0,1.7109219487522796e+18,0.48172323759791125,0.432648401826484,0.3291891891891892,0.5013450721447786,0.6065934065934065,0.42977291841883936,1193.0
349.0,1.7109219487622838e+18,0.4725848563968668,0.3949771689497717,0.3016216216216216,0.5003668378576669,0.621978021978022,0.4306139613120269,1190.0
350.0,1.7109219487722808e+18,0.43733681462140994,0.3938356164383562,0.28864864864864864,0.5020787478601125,0.6120879120879121,0.43902439024390244,1198.0
351.0,1.7109219487823237e+18,0.46866840731070497,0.3995433789954338,0.3210810810810811,0.4927855221325507,0.6527472527472528,0.4314550042052145,1193.0
352.0,1.710921948792289e+18,0.46344647519582244,0.4200913242009132,0.28702702702702704,0.49938860357055515,0.6197802197802198,0.42640874684608915,1193.0
353.0,1.7109219488022876e+18,0.4556135770234987,0.3812785388127854,0.31135135135135134,0.5086818292981169,0.6384615384615384,0.4306139613120269,1193.0
354.0,1.710921948812282e+18,0.4516971279373368,0.4132420091324201,0.34540540540540543,0.4991440449987772,0.5967032967032967,0.4314550042052145,1194.0
355.0,1.7109219488222807e+18,0.49869451697127937,0.4668949771689498,0.4010810810810811,0.4984103692834434,0.6538461538461539,0.45164003364171573,1196.0
356.0,1.710921948832283e+18,0.45691906005221933,0.4121004566210046,0.34486486486486484,0.504035216434336,0.6230769230769231,0.43902439024390244,1195.0
357.0,1.7109219488422863e+18,0.46475195822454307,0.4041095890410959,0.34378378378378377,0.5106382978723404,0.6593406593406593,0.4608915054667788,1196.0
358.0,1.7109219488522813e+18,0.47127937336814624,0.4235159817351598,0.34702702702702704,0.4937637564196625,0.6197802197802198,0.4247266610597141,1193.0
359.0,1.710921948862279e+18,0.5117493472584856,0.4726027397260274,0.33945945945945943,0.5001222792858889,0.6131868131868132,0.4432296047098402,1197.0
360.0,1.7109219488722865e+18,0.4765013054830287,0.3961187214611872,0.33837837837837836,0.5011005135730008,0.6241758241758242,0.4558452481076535,1194.0
361.0,1.7109219488822812e+18,0.4765013054830287,0.4200913242009132,0.3124324324324324,0.5152849107361213,0.6626373626373626,0.4415475189234651,1196.0
362.0,1.7109219488922985e+18,0.4804177545691906,0.4463470319634703,0.32,0.5003668378576669,0.6208791208791209,0.43986543313709,1196.0
363.0,1.7109219489022817e+18,0.4725848563968668,0.3972602739726027,0.31945945945945947,0.5062362435803375,0.6582417582417582,0.4339781328847771,1192.0
364.0,1.7109219489122816e+18,0.4608355091383812,0.3949771689497717,0.32756756756756755,0.5008559550012228,0.5923076923076923,0.42977291841883936,1197.0
365.0,1.7109219489222866e+18,0.4765013054830287,0.3824200913242009,0.35027027027027025,0.4930300807043287,0.6131868131868132,0.43566021867115223,1196.0
366.0,1.7109219489322972e+18,0.4725848563968668,0.3926940639269406,0.3054054054054054,0.49645390070921985,0.6450549450549451,0.42640874684608915,1193.0
367.0,1.7109219489422835e+18,0.47911227154047,0.4440639269406393,0.34054054054054056,0.4984103692834434,0.6197802197802198,0.43566021867115223,1195.0
368.0,1.7109219489522844e+18,0.5143603133159269,0.4223744292237443,0.3372972972972973,0.499877720714111,0.6054945054945055,0.4449116904962153,1194.0
369.0,1.7109219489622792e+18,0.46475195822454307,0.4372146118721461,0.2951351351351351,0.5035460992907801,0.6175824175824176,0.42977291841883936,1193.0
370.0,1.7109219489722854e+18,0.47127937336814624,0.3892694063926941,0.3254054054054054,0.4979212521398875,0.6010989010989011,0.4482758620689655,1197.0
371.0,1.7109219489822838e+18,0.45691906005221933,0.3812785388127854,0.3254054054054054,0.5086818292981169,0.6164835164835165,0.4339781328847771,1193.0
372.0,1.7109219489922772e+18,0.4660574412532637,0.4155251141552511,0.33297297297297296,0.5055025678650037,0.6648351648351648,0.4415475189234651,1197.0
373.0,1.7109219490022822e+18,0.4908616187989556,0.4178082191780822,0.3372972972972973,0.49938860357055515,0.6637362637362637,0.4499579478553406,1197.0
374.0,1.7109219490122893e+18,0.4765013054830287,0.4646118721461187,0.3708108108108108,0.49816581071166544,0.6351648351648351,0.43902439024390244,1196.0
375.0,1.710921949022282e+18,0.4595300261096606,0.4075342465753425,0.36972972972972973,0.5035460992907801,0.6032967032967033,0.4381833473507149,1196.0
376.0,1.7109219490322883e+18,0.46475195822454307,0.4132420091324201,0.3681081081081081,0.504524333577892,0.589010989010989,0.43986543313709,1197.0
377.0,1.7109219490422574e+18,0.49869451697127937,0.408675799086758,0.34540540540540543,0.5006113964294449,0.6406593406593407,0.45164003364171573,1198.0
378.0,1.710921949052286e+18,0.47911227154047,0.4132420091324201,0.33513513513513515,0.495964783565664,0.6472527472527473,0.43313708999158956,1194.0
379.0,1.7109219490622815e+18,0.49738903394255873,0.432648401826484,0.3659459459459459,0.49767669356810956,0.6373626373626373,0.4381833473507149,1197.0
380.0,1.7109219490722862e+18,0.4660574412532637,0.3881278538812785,0.2913513513513514,0.5050134507214478,0.6582417582417582,0.432296047098402,1193.0
381.0,1.7109219490822884e+18,0.4765013054830287,0.4246575342465753,0.36648648648648646,0.5064808021521154,0.6813186813186813,0.4608915054667788,1195.0
382.0,1.710921949092283e+18,0.46475195822454307,0.3767123287671233,0.33135135135135135,0.5015896307165566,0.6626373626373626,0.432296047098402,1193.0
383.0,1.7109219491022828e+18,0.5195822454308094,0.4474885844748858,0.3389189189189189,0.5055025678650037,0.6714285714285714,0.4558452481076535,1195.0
384.0,1.7109219491122819e+18,0.4660574412532637,0.3972602739726027,0.32432432432432434,0.5113719735876743,0.6010989010989011,0.44238856181665265,1196.0
385.0,1.710921949122301e+18,0.46344647519582244,0.3835616438356164,0.3227027027027027,0.5006113964294449,0.6186813186813187,0.4373423044575273,1194.0
386.0,1.7109219491322762e+18,0.4934725848563969,0.4417808219178082,0.31675675675675674,0.4937637564196625,0.5879120879120879,0.456686291000841,1197.0
387.0,1.710921949142285e+18,0.4725848563968668,0.4178082191780822,0.27837837837837837,0.5047688921496698,0.6681318681318681,0.4482758620689655,1194.0
388.0,1.7109219491522836e+18,0.5130548302872062,0.4942922374429224,0.38432432432432434,0.5028124235754463,0.756043956043956,0.4625735912531539,1196.0
389.0,1.7109219491622812e+18,0.47780678851174935,0.4520547945205479,0.3816216216216216,0.5008559550012228,0.6010989010989011,0.4373423044575273,1197.0
390.0,1.7109219491722854e+18,0.4830287206266319,0.4257990867579909,0.3410810810810811,0.5025678650036683,0.6329670329670329,0.45836837678721615,1197.0
391.0,1.7109219491822828e+18,0.46736292428198434,0.4223744292237443,0.3443243243243243,0.5182196135974566,0.6615384615384615,0.4348191757779647,1194.0
392.0,1.7109219491922913e+18,0.4725848563968668,0.4280821917808219,0.31675675675675674,0.49767669356810956,0.6626373626373626,0.44575273338940286,1196.0
393.0,1.7109219492022863e+18,0.45300261096605743,0.3972602739726027,0.30486486486486486,0.491562729273661,0.6692307692307692,0.4188393608074012,1193.0
394.0,1.7109219492122831e+18,0.45039164490861616,0.3584474885844749,0.31567567567567567,0.4996331621423331,0.6274725274725275,0.4449116904962153,1197.0
395.0,1.7109219492222948e+18,0.45300261096605743,0.3858447488584475,0.3372972972972973,0.5059916850085595,0.6241758241758242,0.4289318755256518,1195.0
396.0,1.7109219492322906e+18,0.47127937336814624,0.4075342465753425,0.3232432432432432,0.48789435069699194,0.6010989010989011,0.4314550042052145,1195.0
397.0,1.7109219492422845e+18,0.4699738903394256,0.4121004566210046,0.34162162162162163,0.5008559550012228,0.6032967032967033,0.4179983179142136,1193.0
398.0,1.7109219492522836e+18,0.45039164490861616,0.3835616438356164,0.3302702702702703,0.5006113964294449,0.6736263736263737,0.4255677039529016,1193.0
399.0,1.7109219492622843e+18,0.4765013054830287,0.4098173515981735,0.312972972972973,0.5099046221570066,0.6296703296703297,0.4415475189234651,1196.0
400.0,1.7109219492722836e+18,0.45039164490861616,0.3972602739726027,0.34054054054054056,0.5008559550012228,0.6175824175824176,0.44070647603027757,1194.0
401.0,1.7109219492823104e+18,0.4934725848563969,0.4006849315068493,0.30648648648648646,0.5050134507214478,0.6395604395604395,0.432296047098402,1194.0
402.0,1.7109219492922803e+18,0.4556135770234987,0.3949771689497717,0.3075675675675676,0.4988994864269993,0.5879120879120879,0.4255677039529016,1193.0
403.0,1.7109219493022385e+18,0.5195822454308094,0.4417808219178082,0.3389189189189189,0.4991440449987772,0.5879120879120879,0.43566021867115223,1195.0
404.0,1.7109219493122918e+18,0.4908616187989556,0.4006849315068493,0.3308108108108108,0.512594766446564,0.6461538461538462,0.43902439024390244,1195.0
405.0,1.7109219493222973e+18,0.45691906005221933,0.3915525114155251,0.32972972972972975,0.5035460992907801,0.6032967032967033,0.4289318755256518,1194.0
406.0,1.710921949332291e+18,0.5026109660574413,0.4178082191780822,0.31513513513513514,0.4991440449987772,0.5439560439560439,0.43650126156433977,1197.0
407.0,1.7109219493422674e+18,0.4556135770234987,0.3995433789954338,0.30594594594594593,0.5018341892883346,0.643956043956044,0.4381833473507149,1197.0
408.0,1.7109219493522826e+18,0.5,0.430365296803653,0.3281081081081081,0.504524333577892,0.6417582417582418,0.4440706476030278,1195.0
409.0,1.7109219493622845e+18,0.4908616187989556,0.4280821917808219,0.33945945945945943,0.5240890193201272,0.6197802197802198,0.43566021867115223,1195.0
410.0,1.7109219493722824e+18,0.46344647519582244,0.3961187214611872,0.3237837837837838,0.5055025678650037,0.6329670329670329,0.4449116904962153,1194.0
411.0,1.7109219493822884e+18,0.47389033942558745,0.3995433789954338,0.31675675675675674,0.5035460992907801,0.6604395604395604,0.4247266610597141,1195.0
412.0,1.710921949392278e+18,0.4725848563968668,0.478310502283105,0.35027027027027025,0.49816581071166544,0.689010989010989,0.44911690496215306,1195.0
413.0,1.710921949402285e+18,0.4908616187989556,0.408675799086758,0.3318918918918919,0.4966984592809978,0.6098901098901099,0.4381833473507149,1196.0
414.0,1.710921949412291e+18,0.4621409921671018,0.4315068493150685,0.3302702702702703,0.4966984592809978,0.5989010989010989,0.4381833473507149,1197.0
415.0,1.7109219494222843e+18,0.47389033942558745,0.408675799086758,0.3324324324324324,0.4900953778429934,0.5956043956043956,0.4339781328847771,1194.0
416.0,1.7109219494323044e+18,0.49869451697127937,0.4280821917808219,0.3389189189189189,0.4979212521398875,0.6230769230769231,0.4415475189234651,1196.0
417.0,1.710921949442272e+18,0.48825065274151436,0.4315068493150685,0.33783783783783783,0.5011005135730008,0.5879120879120879,0.4373423044575273,1196.0
418.0,1.7109219494522796e+18,0.4751958224543081,0.4452054794520548,0.33675675675675676,0.4966984592809978,0.5923076923076923,0.43650126156433977,1193.0
419.0,1.7109219494622804e+18,0.45300261096605743,0.3801369863013699,0.3248648648648649,0.499877720714111,0.6472527472527473,0.4465937762825904,1196.0
420.0,1.7109219494722486e+18,0.44778067885117495,0.432648401826484,0.34324324324324323,0.5006113964294449,0.5824175824175825,0.4289318755256518,1191.0
421.0,1.7109219494822948e+18,0.47127937336814624,0.3915525114155251,0.3248648648648649,0.5011005135730008,0.6351648351648351,0.43650126156433977,1197.0
422.0,1.710921949492293e+18,0.45822454308093996,0.4041095890410959,0.3178378378378378,0.5006113964294449,0.6417582417582418,0.43650126156433977,1195.0
423.0,1.7109219495022764e+18,0.45822454308093996,0.4018264840182648,0.3372972972972973,0.5074590364392272,0.512087912087912,0.4289318755256518,1190.0
424.0,1.7109219495122836e+18,0.5052219321148825,0.4509132420091324,0.372972972972973,0.5015896307165566,0.6164835164835165,0.4465937762825904,1195.0
425.0,1.7109219495222845e+18,0.48433420365535246,0.3926940639269406,0.34054054054054056,0.499877720714111,0.6307692307692307,0.42977291841883936,1194.0
426.0,1.7109219495323384e+18,0.4699738903394256,0.3926940639269406,0.3286486486486486,0.4971875764245537,0.6010989010989011,0.44238856181665265,1197.0
427.0,1.7109219495422794e+18,0.49738903394255873,0.4383561643835616,0.3545945945945946,0.504279775006114,0.634065934065934,0.4575273338940286,1194.0
428.0,1.7109219495522775e+18,0.4725848563968668,0.3926940639269406,0.3172972972972973,0.4954756664221081,0.6,0.43650126156433977,1194.0
429.0,1.710921949562279e+18,0.48433420365535246,0.4075342465753425,0.32594594594594595,0.4966984592809978,0.5340659340659341,0.42977291841883936,1191.0
430.0,1.7109219495722803e+18,0.45691906005221933,0.3892694063926941,0.2897297297297297,0.4988994864269993,0.6428571428571429,0.43650126156433977,1195.0
431.0,1.710921949582336e+18,0.48825065274151436,0.4052511415525114,0.3291891891891892,0.5020787478601125,0.610989010989011,0.432296047098402,1192.0
432.0,1.7109219495922798e+18,0.4660574412532637,0.4200913242009132,0.3491891891891892,0.504035216434336,0.6318681318681318,0.4373423044575273,1196.0
433.0,1.7109219496022787e+18,0.46475195822454307,0.4098173515981735,0.3464864864864865,0.5079481535827831,0.6538461538461539,0.4482758620689655,1197.0
434.0,1.7109219496122798e+18,0.4725848563968668,0.4292237442922374,0.3281081081081081,0.5001222792858889,0.7043956043956044,0.4415475189234651,1196.0
435.0,1.7109219496222822e+18,0.4725848563968668,0.4155251141552511,0.33837837837837836,0.5023233064318905,0.6153846153846154,0.4415475189234651,1195.0
436.0,1.7109219496323356e+18,0.47911227154047,0.4121004566210046,0.3362162162162162,0.5020787478601125,0.6054945054945055,0.4222035323801514,1193.0
437.0,1.7109219496422863e+18,0.4699738903394256,0.4452054794520548,0.35621621621621624,0.5008559550012228,0.6197802197802198,0.43650126156433977,1196.0
438.0,1.7109219496522834e+18,0.5,0.3881278538812785,0.3291891891891892,0.5015896307165566,0.6142857142857143,0.4440706476030278,1195.0
439.0,1.7109219496622792e+18,0.45822454308093996,0.3995433789954338,0.3318918918918919,0.5074590364392272,0.6318681318681318,0.44238856181665265,1197.0
440.0,1.7109219496722813e+18,0.47780678851174935,0.3915525114155251,0.26756756756756755,0.5011005135730008,0.6076923076923076,0.4280908326324643,1192.0
441.0,1.7109219496822979e+18,0.5013054830287206,0.4257990867579909,0.30108108108108106,0.5035460992907801,0.6626373626373626,0.4415475189234651,1194.0
442.0,1.7109219496922744e+18,0.4451697127937337,0.4006849315068493,0.3324324324324324,0.4974321349963316,0.6252747252747253,0.43566021867115223,1197.0
443.0,1.7109219497022876e+18,0.45822454308093996,0.4018264840182648,0.32756756756756755,0.5020787478601125,0.6230769230769231,0.4348191757779647,1195.0
444.0,1.710921949712287e+18,0.49738903394255873,0.4235159817351598,0.34540540540540543,0.4988994864269993,0.6395604395604395,0.4348191757779647,1197.0
445.0,1.7109219497222879e+18,0.45691906005221933,0.4200913242009132,0.33945945945945943,0.49400831499144043,0.6175824175824176,0.4163162321278385,1192.0
446.0,1.7109219497322964e+18,0.46866840731070497,0.4041095890410959,0.3308108108108108,0.4986549278552213,0.589010989010989,0.43313708999158956,1193.0
447.0,1.7109219497422876e+18,0.4595300261096606,0.3995433789954338,0.3308108108108108,0.5006113964294449,0.6186813186813187,0.4348191757779647,1195.0
448.0,1.71092194975228e+18,0.46866840731070497,0.3984018264840183,0.38594594594594595,0.49620934213744194,0.6098901098901099,0.4449116904962153,1195.0
449.0,1.710921949762286e+18,0.46344647519582244,0.3995433789954338,0.3248648648648649,0.5064808021521154,0.6098901098901099,0.43566021867115223,1196.0
450.0,1.7109219497722844e+18,0.47911227154047,0.4155251141552511,0.3362162162162162,0.4996331621423331,0.6120879120879121,0.4280908326324643,1195.0
451.0,1.7109219497822996e+18,0.47780678851174935,0.4474885844748858,0.3389189189189189,0.5015896307165566,0.6098901098901099,0.43986543313709,1197.0
452.0,1.7109219497922995e+18,0.47389033942558745,0.432648401826484,0.35405405405405405,0.5006113964294449,0.6208791208791209,0.4314550042052145,1194.0
453.0,1.7109219498022843e+18,0.4804177545691906,0.4018264840182648,0.3345945945945946,0.5084372707263389,0.6175824175824176,0.4314550042052145,1192.0
454.0,1.71092194981228e+18,0.45822454308093996,0.4063926940639269,0.3389189189189189,0.5006113964294449,0.6230769230769231,0.4465937762825904,1196.0
455.0,1.7109219498222812e+18,0.4765013054830287,0.4041095890410959,0.3124324324324324,0.5003668378576669,0.643956043956044,0.4415475189234651,1193.0
456.0,1.7109219498322842e+18,0.4869451697127937,0.4006849315068493,0.32432432432432434,0.5035460992907801,0.6373626373626373,0.4533221194280908,1197.0
457.0,1.710921949842298e+18,0.4608355091383812,0.3812785388127854,0.32756756756756755,0.5064808021521154,0.6285714285714286,0.43313708999158956,1193.0
458.0,1.7109219498522798e+18,0.44778067885117495,0.3687214611872146,0.3108108108108108,0.499877720714111,0.6076923076923076,0.4179983179142136,1194.0
459.0,1.710921949862283e+18,0.4804177545691906,0.3904109589041096,0.32756756756756755,0.5015896307165566,0.6120879120879121,0.45836837678721615,1196.0
460.0,1.7109219498722813e+18,0.45300261096605743,0.3949771689497717,0.3362162162162162,0.5008559550012228,0.6274725274725275,0.43566021867115223,1194.0
461.0,1.710921949882284e+18,0.46475195822454307,0.4029680365296804,0.34216216216216216,0.5055025678650037,0.6373626373626373,0.43986543313709,1196.0
462.0,1.7109219498922885e+18,0.4751958224543081,0.4235159817351598,0.3172972972972973,0.504279775006114,0.6164835164835165,0.44238856181665265,1196.0
463.0,1.7109219499022863e+18,0.5078328981723238,0.4748858447488584,0.35621621621621624,0.5011005135730008,0.6846153846153846,0.4482758620689655,1195.0
464.0,1.7109219499122452e+18,0.4595300261096606,0.3778538812785388,0.3621621621621622,0.5033015407190022,0.6252747252747253,0.44070647603027757,1197.0
465.0,1.7109219499223017e+18,0.47389033942558745,0.3949771689497717,0.29945945945945945,0.5074590364392272,0.6252747252747253,0.447434819175778,1197.0
466.0,1.710921949932285e+18,0.4621409921671018,0.3675799086757991,0.3145945945945946,0.4984103692834434,0.6252747252747253,0.4280908326324643,1189.0
467.0,1.710921949942289e+18,0.4765013054830287,0.4029680365296804,0.32054054054054054,0.5059916850085595,0.6505494505494506,0.43986543313709,1197.0
468.0,1.7109219499522836e+18,0.46344647519582244,0.4121004566210046,0.3254054054054054,0.5008559550012228,0.6703296703296703,0.45248107653490327,1196.0
469.0,1.7109219499622848e+18,0.5052219321148825,0.5045662100456622,0.36,0.4991440449987772,0.5989010989010989,0.44238856181665265,1194.0
470.0,1.7109219499722854e+18,0.46736292428198434,0.4372146118721461,0.3302702702702703,0.499877720714111,0.5879120879120879,0.4280908326324643,1195.0
471.0,1.7109219499822904e+18,0.49738903394255873,0.5125570776255708,0.4172972972972973,0.5059916850085595,0.6461538461538462,0.4449116904962153,1195.0
472.0,1.7109219499922985e+18,0.47389033942558745,0.4063926940639269,0.34324324324324323,0.504035216434336,0.6494505494505495,0.4381833473507149,1195.0
473.0,1.7109219500022902e+18,0.4608355091383812,0.3858447488584475,0.32972972972972975,0.5050134507214478,0.6406593406593407,0.4381833473507149,1195.0
474.0,1.7109219500122847e+18,0.4490861618798956,0.4132420091324201,0.34540540540540543,0.4991440449987772,0.5714285714285714,0.44575273338940286,1197.0
475.0,1.7109219500222863e+18,0.4621409921671018,0.4200913242009132,0.33135135135135135,0.5011005135730008,0.6010989010989011,0.43902439024390244,1195.0
476.0,1.7109219500322867e+18,0.47127937336814624,0.3995433789954338,0.32432432432432434,0.499877720714111,0.6208791208791209,0.4381833473507149,1196.0
477.0,1.7109219500422932e+18,0.4765013054830287,0.410958904109589,0.33675675675675676,0.504279775006114,0.6175824175824176,0.4440706476030278,1195.0
478.0,1.7109219500522883e+18,0.4934725848563969,0.4280821917808219,0.34594594594594597,0.5050134507214478,0.5923076923076923,0.4415475189234651,1196.0
479.0,1.710921950062288e+18,0.49738903394255873,0.4269406392694064,0.34540540540540543,0.508192712154561,0.6021978021978022,0.43566021867115223,1196.0
480.0,1.7109219500722888e+18,0.47911227154047,0.4589041095890411,0.3621621621621622,0.5008559550012228,0.6472527472527473,0.4348191757779647,1195.0
481.0,1.7109219500822886e+18,0.46736292428198434,0.3926940639269406,0.31945945945945947,0.5001222792858889,0.6186813186813187,0.43650126156433977,1196.0
482.0,1.7109219500922964e+18,0.49477806788511747,0.4394977168949772,0.32432432432432434,0.499877720714111,0.7373626373626374,0.4558452481076535,1196.0
483.0,1.7109219501022935e+18,0.4699738903394256,0.4132420091324201,0.3216216216216216,0.5003668378576669,0.6054945054945055,0.4432296047098402,1197.0
484.0,1.7109219501122678e+18,0.4660574412532637,0.4098173515981735,0.3318918918918919,0.4991440449987772,0.5989010989010989,0.432296047098402,1193.0
485.0,1.7109219501222712e+18,0.4725848563968668,0.4486301369863014,0.36,0.5013450721447786,0.6329670329670329,0.43313708999158956,1192.0
486.0,1.7109219501322826e+18,0.46736292428198434,0.4018264840182648,0.3281081081081081,0.499877720714111,0.5846153846153846,0.4314550042052145,1195.0
487.0,1.7109219501422986e+18,0.49869451697127937,0.4611872146118721,0.4189189189189189,0.504279775006114,0.7263736263736263,0.4911690496215307,1198.0
488.0,1.7109219501522698e+18,0.4725848563968668,0.4394977168949772,0.41027027027027024,0.5084372707263389,0.6065934065934065,0.4247266610597141,1193.0
489.0,1.7109219501623017e+18,0.45039164490861616,0.386986301369863,0.327027027027027,0.4984103692834434,0.6780219780219781,0.4432296047098402,1196.0
490.0,1.7109219501722924e+18,0.49738903394255873,0.410958904109589,0.32594594594594595,0.5003668378576669,0.6318681318681318,0.44575273338940286,1196.0
491.0,1.7109219501822758e+18,0.47127937336814624,0.4257990867579909,0.36108108108108106,0.5020787478601125,0.6076923076923076,0.43566021867115223,1196.0
492.0,1.710921950192295e+18,0.46475195822454307,0.3767123287671233,0.31027027027027027,0.5035460992907801,0.6142857142857143,0.43313708999158956,1194.0
493.0,1.7109219502022968e+18,0.4360313315926893,0.3812785388127854,0.3210810810810811,0.504035216434336,0.6384615384615384,0.4314550042052145,1194.0
494.0,1.7109219502122934e+18,0.46344647519582244,0.3664383561643836,0.3172972972972973,0.5025678650036683,0.5912087912087912,0.4314550042052145,1193.0
495.0,1.7109219502222948e+18,0.4490861618798956,0.3995433789954338,0.3345945945945946,0.4954756664221081,0.5967032967032967,0.4348191757779647,1195.0
496.0,1.7109219502322527e+18,0.4765013054830287,0.3949771689497717,0.36702702702702705,0.5067253607238934,0.6714285714285714,0.4432296047098402,1197.0
497.0,1.7109219502422843e+18,0.4869451697127937,0.4452054794520548,0.3518918918918919,0.4996331621423331,0.6021978021978022,0.43313708999158956,1193.0
498.0,1.7109219502522964e+18,0.46344647519582244,0.4098173515981735,0.33297297297297296,0.5074590364392272,0.5934065934065934,0.4339781328847771,1194.0
499.0,1.7109219502622984e+18,0.49738903394255873,0.4452054794520548,0.35081081081081084,0.5072144778674492,0.621978021978022,0.4373423044575273,1193.0
500.0,1.71092195027228e+18,0.4765013054830287,0.4520547945205479,0.34216216216216216,0.5006113964294449,0.6384615384615384,0.43566021867115223,1193.0
501.0,1.7109219502822794e+18,0.47911227154047,0.4178082191780822,0.33837837837837836,0.5030569821472243,0.6395604395604395,0.44575273338940286,1196.0
502.0,1.7109219502923064e+18,0.45039164490861616,0.4315068493150685,0.30486486486486486,0.4991440449987772,0.6,0.4280908326324643,1193.0
503.0,1.7109219503023076e+18,0.4830287206266319,0.4440639269406393,0.3535135135135135,0.5057471264367817,0.6329670329670329,0.4659377628259041,1196.0
504.0,1.7109219503122952e+18,0.4765013054830287,0.3858447488584475,0.3264864864864865,0.5067253607238934,0.610989010989011,0.4314550042052145,1192.0
505.0,1.7109219503222769e+18,0.4960835509138381,0.4429223744292237,0.33837837837837836,0.499877720714111,0.6604395604395604,0.4482758620689655,1195.0
506.0,1.71092195033227e+18,0.4490861618798956,0.3767123287671233,0.307027027027027,0.5035460992907801,0.6098901098901099,0.4238856181665265,1193.0
507.0,1.7109219503422756e+18,0.4765013054830287,0.4006849315068493,0.3081081081081081,0.49645390070921985,0.6186813186813187,0.43650126156433977,1197.0
508.0,1.7109219503522865e+18,0.47389033942558745,0.410958904109589,0.3427027027027027,0.4996331621423331,0.6538461538461539,0.432296047098402,1193.0
509.0,1.7109219503622717e+18,0.47911227154047,0.4269406392694064,0.33513513513513515,0.49938860357055515,0.5879120879120879,0.4432296047098402,1194.0
510.0,1.710921950372264e+18,0.47911227154047,0.410958904109589,0.3216216216216216,0.49498654927855223,0.6714285714285714,0.4541631623212784,1195.0
511.0,1.7109219503822671e+18,0.48433420365535246,0.4554794520547945,0.3172972972972973,0.4927855221325507,0.6153846153846154,0.45248107653490327,1196.0
512.0,1.710921950392305e+18,0.4595300261096606,0.4178082191780822,0.33675675675675676,0.5025678650036683,0.6175824175824176,0.432296047098402,1194.0
513.0,1.7109219504023002e+18,0.4751958224543081,0.4360730593607306,0.33675675675675676,0.49400831499144043,0.5340659340659341,0.43986543313709,1196.0
514.0,1.710921950412304e+18,0.46866840731070497,0.4200913242009132,0.33405405405405403,0.49327463927610665,0.5879120879120879,0.4289318755256518,1194.0
515.0,1.7109219504222853e+18,0.47127937336814624,0.3949771689497717,0.29945945945945945,0.4988994864269993,0.5846153846153846,0.43566021867115223,1196.0
516.0,1.710921950432282e+18,0.556135770234987,0.5114155251141552,0.3281081081081081,0.5057471264367817,0.621978021978022,0.432296047098402,1192.0
517.0,1.710921950442309e+18,0.4660574412532637,0.3961187214611872,0.3227027027027027,0.4991440449987772,0.6208791208791209,0.43902439024390244,1197.0
518.0,1.7109219504523108e+18,0.4516971279373368,0.4178082191780822,0.32756756756756755,0.5035460992907801,0.689010989010989,0.4381833473507149,1195.0
519.0,1.7109219504622881e+18,0.4556135770234987,0.3767123287671233,0.3227027027027027,0.5113719735876743,0.6538461538461539,0.4415475189234651,1195.0
520.0,1.710921950472286e+18,0.46736292428198434,0.4018264840182648,0.31891891891891894,0.5015896307165566,0.6351648351648351,0.4432296047098402,1193.0
521.0,1.710921950482289e+18,0.49738903394255873,0.4394977168949772,0.3772972972972973,0.5055025678650037,0.6626373626373626,0.4381833473507149,1196.0
522.0,1.7109219504923123e+18,0.4621409921671018,0.4509132420091324,0.40324324324324323,0.49816581071166544,0.5923076923076923,0.432296047098402,1194.0
523.0,1.7109219505022848e+18,0.4908616187989556,0.4600456621004566,0.3681081081081081,0.5033015407190022,0.6197802197802198,0.45248107653490327,1195.0
524.0,1.7109219505122788e+18,0.4464751958224543,0.386986301369863,0.3232432432432432,0.5015896307165566,0.6274725274725275,0.4339781328847771,1192.0
525.0,1.7109219505222828e+18,0.46475195822454307,0.3904109589041096,0.34324324324324323,0.5006113964294449,0.5824175824175825,0.4306139613120269,1194.0
526.0,1.710921950532278e+18,0.4464751958224543,0.3755707762557078,0.33405405405405403,0.5152849107361213,0.6505494505494506,0.41715727502102606,1192.0
527.0,1.7109219505422853e+18,0.4856396866840731,0.4143835616438356,0.33837837837837836,0.5015896307165566,0.6494505494505495,0.4558452481076535,1195.0
528.0,1.7109219505522875e+18,0.45430809399477806,0.4315068493150685,0.34540540540540543,0.5006113964294449,0.6307692307692307,0.4306139613120269,1190.0
529.0,1.7109219505622856e+18,0.5026109660574413,0.4680365296803653,0.36972972972972973,0.4988994864269993,0.6120879120879121,0.4449116904962153,1195.0
530.0,1.7109219505722852e+18,0.49477806788511747,0.4292237442922374,0.33135135135135135,0.5015896307165566,0.6142857142857143,0.4415475189234651,1196.0
531.0,1.7109219505823145e+18,0.4451697127937337,0.3858447488584475,0.3281081081081081,0.49938860357055515,0.6142857142857143,0.43566021867115223,1194.0
532.0,1.7109219505923167e+18,0.4856396866840731,0.4132420091324201,0.33405405405405403,0.4942528735632184,0.532967032967033,0.432296047098402,1193.0
533.0,1.7109219506023114e+18,0.48433420365535246,0.3812785388127854,0.3043243243243243,0.5018341892883346,0.6010989010989011,0.4373423044575273,1193.0
534.0,1.7109219506122808e+18,0.48172323759791125,0.432648401826484,0.34,0.5015896307165566,0.6142857142857143,0.4348191757779647,1194.0
535.0,1.7109219506222781e+18,0.4595300261096606,0.3926940639269406,0.3172972972972973,0.5030569821472243,0.6461538461538462,0.44575273338940286,1195.0
536.0,1.71092195063228e+18,0.47127937336814624,0.4257990867579909,0.32972972972972975,0.5011005135730008,0.6329670329670329,0.4314550042052145,1193.0
537.0,1.7109219506422781e+18,0.4699738903394256,0.4052511415525114,0.33405405405405403,0.5037906578625581,0.6373626373626373,0.43986543313709,1196.0
538.0,1.7109219506522857e+18,0.47780678851174935,0.4178082191780822,0.3291891891891892,0.5025678650036683,0.6450549450549451,0.43566021867115223,1196.0
539.0,1.7109219506622858e+18,0.5026109660574413,0.4189497716894977,0.3264864864864865,0.5057471264367817,0.6175824175824176,0.4449116904962153,1192.0
540.0,1.710921950672284e+18,0.5065274151436031,0.4063926940639269,0.32054054054054054,0.4986549278552213,0.5835164835164836,0.43313708999158956,1191.0
541.0,1.7109219506822994e+18,0.489556135770235,0.4246575342465753,0.37513513513513513,0.504035216434336,0.6626373626373626,0.45164003364171573,1195.0
542.0,1.7109219506922852e+18,0.49738903394255873,0.4497716894977169,0.3583783783783784,0.49938860357055515,0.6153846153846154,0.4280908326324643,1193.0
543.0,1.710921950702284e+18,0.47127937336814624,0.4223744292237443,0.31567567567567567,0.4991440449987772,0.6098901098901099,0.4255677039529016,1192.0
544.0,1.710921950712276e+18,0.5130548302872062,0.4372146118721461,0.35027027027027025,0.49938860357055515,0.6901098901098901,0.4348191757779647,1195.0
545.0,1.7109219507222707e+18,0.4608355091383812,0.4200913242009132,0.33405405405405403,0.49474199070677427,0.6318681318681318,0.4575273338940286,1196.0
546.0,1.7109219507322703e+18,0.4765013054830287,0.3938356164383562,0.36108108108108106,0.49400831499144043,0.5923076923076923,0.4381833473507149,1196.0
547.0,1.710921950742278e+18,0.48825065274151436,0.4383561643835616,0.3464864864864865,0.5091709464416728,0.6098901098901099,0.42304457527333894,1193.0
548.0,1.710921950752279e+18,0.45691906005221933,0.4212328767123288,0.3427027027027027,0.4988994864269993,0.6087912087912087,0.4381833473507149,1194.0
549.0,1.710921950762271e+18,0.489556135770235,0.4018264840182648,0.3389189189189189,0.504279775006114,0.6197802197802198,0.44575273338940286,1194.0
550.0,1.7109219507722688e+18,0.4765013054830287,0.454337899543379,0.3497297297297297,0.4979212521398875,0.6241758241758242,0.44911690496215306,1194.0
551.0,1.710921950782271e+18,0.47911227154047,0.3972602739726027,0.3427027027027027,0.49938860357055515,0.5846153846153846,0.4415475189234651,1196.0
552.0,1.71092195079228e+18,0.4490861618798956,0.3824200913242009,0.3183783783783784,0.4988994864269993,0.6230769230769231,0.4373423044575273,1195.0
553.0,1.7109219508022784e+18,0.49477806788511747,0.4235159817351598,0.33135135135135135,0.504279775006114,0.6626373626373626,0.45164003364171573,1197.0
554.0,1.7109219508122765e+18,0.5039164490861618,0.4897260273972603,0.3237837837837838,0.5025678650036683,0.7296703296703296,0.4449116904962153,1194.0
555.0,1.7109219508222781e+18,0.4621409921671018,0.3995433789954338,0.3324324324324324,0.5018341892883346,0.6307692307692307,0.4432296047098402,1196.0
556.0,1.7109219508322732e+18,0.4451697127937337,0.4041095890410959,0.3335135135135135,0.49938860357055515,0.6758241758241759,0.4432296047098402,1195.0
557.0,1.7109219508422776e+18,0.46736292428198434,0.3824200913242009,0.3232432432432432,0.5006113964294449,0.6098901098901099,0.4348191757779647,1195.0
558.0,1.7109219508522967e+18,0.4464751958224543,0.3915525114155251,0.3302702702702703,0.5035460992907801,0.6538461538461539,0.4348191757779647,1196.0
559.0,1.7109219508622838e+18,0.45691906005221933,0.4041095890410959,0.3535135135135135,0.5018341892883346,0.689010989010989,0.43650126156433977,1196.0
560.0,1.7109219508722685e+18,0.46736292428198434,0.4006849315068493,0.3232432432432432,0.4979212521398875,0.6307692307692307,0.43986543313709,1193.0
561.0,1.7109219508822715e+18,0.49477806788511747,0.4817351598173516,0.3567567567567568,0.5064808021521154,0.6153846153846154,0.4415475189234651,1195.0
562.0,1.71092195089229e+18,0.45822454308093996,0.3926940639269406,0.3324324324324324,0.499877720714111,0.5813186813186814,0.4255677039529016,1193.0
563.0,1.7109219509022817e+18,0.46344647519582244,0.3892694063926941,0.3335135135135135,0.4996331621423331,0.6230769230769231,0.4255677039529016,1193.0
564.0,1.71092195091228e+18,0.48825065274151436,0.4063926940639269,0.33135135135135135,0.5084372707263389,0.6241758241758242,0.44911690496215306,1195.0
565.0,1.7109219509222784e+18,0.4451697127937337,0.3915525114155251,0.3264864864864865,0.495720224993886,0.5879120879120879,0.43313708999158956,1192.0
566.0,1.7109219509322734e+18,0.4765013054830287,0.3995433789954338,0.3091891891891892,0.5001222792858889,0.6241758241758242,0.43902439024390244,1195.0
567.0,1.7109219509422707e+18,0.4908616187989556,0.4805936073059361,0.3675675675675676,0.5062362435803375,0.6956043956043956,0.4592094196804037,1198.0
568.0,1.7109219509522767e+18,0.4595300261096606,0.4726027397260274,0.3427027027027027,0.4979212521398875,0.6142857142857143,0.4306139613120269,1192.0
569.0,1.7109219509622728e+18,0.46736292428198434,0.3767123287671233,0.3281081081081081,0.4986549278552213,0.5593406593406594,0.4348191757779647,1196.0
570.0,1.710921950972273e+18,0.47389033942558745,0.4006849315068493,0.3254054054054054,0.5013450721447786,0.6098901098901099,0.4348191757779647,1197.0
571.0,1.7109219509822717e+18,0.4869451697127937,0.4383561643835616,0.32756756756756755,0.5064808021521154,0.6461538461538462,0.4449116904962153,1195.0
572.0,1.7109219509922732e+18,0.4765013054830287,0.4200913242009132,0.3491891891891892,0.49645390070921985,0.6098901098901099,0.456686291000841,1198.0
573.0,1.7109219510022743e+18,0.5026109660574413,0.4634703196347032,0.37513513513513513,0.5064808021521154,0.654945054945055,0.44575273338940286,1196.0
574.0,1.7109219510122652e+18,0.45300261096605743,0.3949771689497717,0.33945945945945943,0.5025678650036683,0.6989010989010989,0.4415475189234651,1196.0
575.0,1.7109219510222815e+18,0.47127937336814624,0.3698630136986301,0.3335135135135135,0.504035216434336,0.6175824175824176,0.44575273338940286,1197.0
576.0,1.710921951032274e+18,0.4556135770234987,0.3447488584474886,0.32432432432432434,0.49327463927610665,0.5934065934065934,0.42640874684608915,1193.0
577.0,1.7109219510422725e+18,0.47780678851174935,0.3949771689497717,0.32054054054054054,0.49351919784788456,0.6120879120879121,0.4482758620689655,1196.0
578.0,1.710921951052275e+18,0.48172323759791125,0.432648401826484,0.35243243243243244,0.5064808021521154,0.6538461538461539,0.4381833473507149,1197.0
579.0,1.7109219510622876e+18,0.47127937336814624,0.3778538812785388,0.3124324324324324,0.5028124235754463,0.6802197802197802,0.4415475189234651,1196.0
580.0,1.7109219510722831e+18,0.46475195822454307,0.386986301369863,0.32594594594594595,0.5008559550012228,0.6406593406593407,0.4432296047098402,1194.0
581.0,1.7109219510822735e+18,0.48825065274151436,0.4383561643835616,0.35567567567567565,0.5035460992907801,0.6626373626373626,0.4558452481076535,1194.0
582.0,1.7109219510922816e+18,0.47780678851174935,0.4509132420091324,0.3410810810810811,0.499877720714111,0.6241758241758242,0.432296047098402,1192.0
583.0,1.710921951102279e+18,0.4725848563968668,0.3892694063926941,0.32756756756756755,0.5003668378576669,0.6516483516483517,0.4373423044575273,1196.0
584.0,1.710921951112279e+18,0.5091383812010444,0.4075342465753425,0.33675675675675676,0.5055025678650037,0.6241758241758242,0.4348191757779647,1196.0
585.0,1.7109219511222464e+18,0.489556135770235,0.4280821917808219,0.3481081081081081,0.5079481535827831,0.5879120879120879,0.4381833473507149,1195.0
586.0,1.710921951132274e+18,0.47780678851174935,0.4520547945205479,0.3551351351351351,0.5008559550012228,0.6263736263736264,0.4339781328847771,1193.0
587.0,1.710921951142274e+18,0.4608355091383812,0.4029680365296804,0.33837837837837836,0.499877720714111,0.610989010989011,0.4306139613120269,1193.0
588.0,1.7109219511522747e+18,0.46475195822454307,0.3881278538812785,0.3216216216216216,0.49816581071166544,0.6175824175824176,0.45164003364171573,1197.0
589.0,1.7109219511622738e+18,0.4830287206266319,0.4349315068493151,0.3372972972972973,0.5001222792858889,0.6428571428571429,0.44575273338940286,1195.0
590.0,1.7109219511722836e+18,0.49738903394255873,0.4280821917808219,0.312972972972973,0.5023233064318905,0.5505494505494506,0.43986543313709,1196.0
591.0,1.7109219511822802e+18,0.47389033942558745,0.4029680365296804,0.33405405405405403,0.5015896307165566,0.6505494505494506,0.43650126156433977,1196.0
592.0,1.7109219511922816e+18,0.47389033942558745,0.4200913242009132,0.31891891891891894,0.4888725849841037,0.521978021978022,0.4255677039529016,1194.0
593.0,1.7109219512022912e+18,0.5052219321148825,0.4406392694063927,0.3362162162162162,0.5028124235754463,0.6329670329670329,0.45164003364171573,1196.0
594.0,1.71092195121228e+18,0.49216710182767626,0.4235159817351598,0.34756756756756757,0.5015896307165566,0.5989010989010989,0.44575273338940286,1195.0
595.0,1.7109219512222758e+18,0.49477806788511747,0.4246575342465753,0.3345945945945946,0.5008559550012228,0.6450549450549451,0.4449116904962153,1196.0
596.0,1.7109219512322767e+18,0.47780678851174935,0.410958904109589,0.32756756756756755,0.4966984592809978,0.6065934065934065,0.45164003364171573,1196.0
597.0,1.7109219512422766e+18,0.4608355091383812,0.4280821917808219,0.34486486486486484,0.5003668378576669,0.6054945054945055,0.4381833473507149,1196.0
598.0,1.7109219512522322e+18,0.4556135770234987,0.4315068493150685,0.3491891891891892,0.5008559550012228,0.6362637362637362,0.43313708999158956,1194.0
599.0,1.710921951262277e+18,0.48172323759791125,0.410958904109589,0.3237837837837838,0.5035460992907801,0.6538461538461539,0.4592094196804037,1198.0
600.0,1.7109219512722857e+18,0.47389033942558745,0.476027397260274,0.3643243243243243,0.4988994864269993,0.6318681318681318,0.4306139613120269,1189.0
601.0,1.710921951282274e+18,0.5026109660574413,0.4691780821917808,0.372972972972973,0.5011005135730008,0.6142857142857143,0.4465937762825904,1194.0
602.0,1.7109219512922816e+18,0.45822454308093996,0.3824200913242009,0.3145945945945946,0.49767669356810956,0.5934065934065934,0.4432296047098402,1197.0
603.0,1.7109219513022802e+18,0.4725848563968668,0.4280821917808219,0.33837837837837836,0.4991440449987772,0.6846153846153846,0.44911690496215306,1196.0
604.0,1.7109219513122985e+18,0.4425587467362924,0.4052511415525114,0.34486486486486484,0.5067253607238934,0.6648351648351648,0.4499579478553406,1196.0
605.0,1.7109219513222802e+18,0.4869451697127937,0.4863013698630137,0.3675675675675676,0.5057471264367817,0.6406593406593407,0.4499579478553406,1195.0
606.0,1.710921951332281e+18,0.489556135770235,0.45662100456621,0.3345945945945946,0.5003668378576669,0.6362637362637362,0.44575273338940286,1195.0
607.0,1.7109219513422781e+18,0.5026109660574413,0.4383561643835616,0.33945945945945943,0.5037906578625581,0.634065934065934,0.45164003364171573,1194.0
608.0,1.7109219513522783e+18,0.4765013054830287,0.4063926940639269,0.3210810810810811,0.5086818292981169,0.6175824175824176,0.43902439024390244,1195.0
609.0,1.7109219513622794e+18,0.47127937336814624,0.4143835616438356,0.33297297297297296,0.504035216434336,0.6285714285714286,0.43650126156433977,1195.0
610.0,1.7109219513722831e+18,0.47911227154047,0.3995433789954338,0.32756756756756755,0.49816581071166544,0.6021978021978022,0.4339781328847771,1195.0
611.0,1.7109219513822838e+18,0.4595300261096606,0.3812785388127854,0.31945945945945947,0.49400831499144043,0.6230769230769231,0.43566021867115223,1197.0
612.0,1.7109219513923013e+18,0.47911227154047,0.4292237442922374,0.3254054054054054,0.5008559550012228,0.6406593406593407,0.44911690496215306,1196.0
613.0,1.7109219514022843e+18,0.46475195822454307,0.4132420091324201,0.3291891891891892,0.5025678650036683,0.610989010989011,0.4381833473507149,1195.0
614.0,1.7109219514122893e+18,0.49477806788511747,0.4189497716894977,0.3248648648648649,0.4991440449987772,0.5956043956043956,0.4272497897392767,1193.0
615.0,1.7109219514222815e+18,0.4765013054830287,0.478310502283105,0.37351351351351353,0.5025678650036683,0.6076923076923076,0.43566021867115223,1196.0
616.0,1.710921951432287e+18,0.48433420365535246,0.4063926940639269,0.33405405405405403,0.49816581071166544,0.5538461538461539,0.43313708999158956,1194.0
617.0,1.7109219514422979e+18,0.46866840731070497,0.3972602739726027,0.3237837837837838,0.49767669356810956,0.6208791208791209,0.43566021867115223,1196.0
618.0,1.7109219514522857e+18,0.5,0.4611872146118721,0.3491891891891892,0.5035460992907801,0.6087912087912087,0.42640874684608915,1191.0
619.0,1.7109219514622845e+18,0.47780678851174935,0.3926940639269406,0.3227027027027027,0.5030569821472243,0.5923076923076923,0.4289318755256518,1193.0
620.0,1.710921951472269e+18,0.48825065274151436,0.4075342465753425,0.3281081081081081,0.5006113964294449,0.5989010989010989,0.4348191757779647,1194.0
621.0,1.7109219514822848e+18,0.45430809399477806,0.4360730593607306,0.34324324324324323,0.49474199070677427,0.6032967032967033,0.43313708999158956,1194.0
622.0,1.7109219514922865e+18,0.4621409921671018,0.410958904109589,0.31891891891891894,0.49767669356810956,0.5747252747252747,0.4339781328847771,1191.0
623.0,1.7109219515022769e+18,0.49477806788511747,0.4657534246575342,0.33135135135135135,0.5008559550012228,0.6527472527472528,0.4415475189234651,1196.0
624.0,1.7109219515122716e+18,0.4725848563968668,0.3984018264840183,0.32216216216216215,0.5011005135730008,0.5835164835164836,0.44238856181665265,1197.0
625.0,1.710921951522269e+18,0.4804177545691906,0.3995433789954338,0.3178378378378378,0.5020787478601125,0.6274725274725275,0.44070647603027757,1195.0
626.0,1.7109219515322724e+18,0.46736292428198434,0.4052511415525114,0.3362162162162162,0.5020787478601125,0.6483516483516484,0.4373423044575273,1195.0
627.0,1.7109219515422717e+18,0.4869451697127937,0.4497716894977169,0.3372972972972973,0.5006113964294449,0.6417582417582418,0.432296047098402,1192.0
628.0,1.7109219515522685e+18,0.4725848563968668,0.4075342465753425,0.33405405405405403,0.5030569821472243,0.656043956043956,0.4415475189234651,1197.0
629.0,1.710921951562266e+18,0.5078328981723238,0.4486301369863014,0.37189189189189187,0.5072144778674492,0.6472527472527473,0.4507989907485282,1195.0
630.0,1.71092195157227e+18,0.4556135770234987,0.3995433789954338,0.3248648648648649,0.5086818292981169,0.6175824175824176,0.43902439024390244,1196.0
631.0,1.7109219515822676e+18,0.4556135770234987,0.4235159817351598,0.3372972972972973,0.49082905355832723,0.6076923076923076,0.44238856181665265,1195.0
632.0,1.710921951592282e+18,0.49477806788511747,0.4337899543378995,0.3583783783783784,0.5006113964294449,0.6296703296703297,0.432296047098402,1193.0
633.0,1.7109219516022863e+18,0.49216710182767626,0.4269406392694064,0.34054054054054056,0.504279775006114,0.6098901098901099,0.447434819175778,1195.0
634.0,1.7109219516122775e+18,0.46344647519582244,0.4189497716894977,0.32594594594594595,0.5015896307165566,0.6329670329670329,0.4381833473507149,1197.0
635.0,1.7109219516222372e+18,0.47780678851174935,0.4383561643835616,0.3545945945945946,0.5008559550012228,0.5934065934065934,0.4432296047098402,1196.0
636.0,1.7109219516322716e+18,0.5234986945169713,0.4726027397260274,0.35405405405405405,0.5052580092932257,0.6175824175824176,0.43566021867115223,1194.0
637.0,1.7109219516422781e+18,0.4660574412532637,0.4006849315068493,0.3362162162162162,0.4996331621423331,0.7263736263736263,0.4533221194280908,1194.0
638.0,1.7109219516523162e+18,0.47389033942558745,0.4178082191780822,0.3427027027027027,0.5020787478601125,0.6835164835164835,0.4575273338940286,1197.0
639.0,1.7109219516622902e+18,0.4765013054830287,0.4189497716894977,0.3345945945945946,0.5020787478601125,0.6186813186813187,0.44238856181665265,1197.0
640.0,1.7109219516722819e+18,0.4908616187989556,0.430365296803653,0.33837837837837836,0.5003668378576669,0.6230769230769231,0.43902439024390244,1194.0
641.0,1.7109219516822807e+18,0.4856396866840731,0.4406392694063927,0.34054054054054056,0.504035216434336,0.6351648351648351,0.43986543313709,1196.0
642.0,1.7109219516922941e+18,0.4608355091383812,0.3892694063926941,0.31513513513513514,0.5006113964294449,0.6263736263736264,0.4381833473507149,1194.0
643.0,1.7109219517022774e+18,0.4725848563968668,0.4132420091324201,0.32972972972972975,0.5050134507214478,0.6494505494505495,0.44911690496215306,1196.0
644.0,1.7109219517122834e+18,0.47780678851174935,0.4155251141552511,0.3308108108108108,0.504035216434336,0.6351648351648351,0.44575273338940286,1196.0
645.0,1.7109219517222838e+18,0.4516971279373368,0.4121004566210046,0.33675675675675676,0.5008559550012228,0.6351648351648351,0.4348191757779647,1198.0
646.0,1.710921951732285e+18,0.4608355091383812,0.3995433789954338,0.33405405405405403,0.5062362435803375,0.6384615384615384,0.432296047098402,1194.0
647.0,1.7109219517422848e+18,0.48172323759791125,0.4383561643835616,0.3605405405405405,0.5182196135974566,0.6615384615384615,0.4449116904962153,1196.0
648.0,1.7109219517522929e+18,0.46344647519582244,0.3824200913242009,0.32,0.4988994864269993,0.6208791208791209,0.41968040370058873,1195.0
649.0,1.710921951762276e+18,0.47127937336814624,0.410958904109589,0.34486486486486484,0.5025678650036683,0.6263736263736264,0.4415475189234651,1194.0
650.0,1.7109219517722732e+18,0.46736292428198434,0.4166666666666667,0.3464864864864865,0.4937637564196625,0.6098901098901099,0.432296047098402,1195.0
651.0,1.7109219517822784e+18,0.5039164490861618,0.4554794520547945,0.36864864864864866,0.5015896307165566,0.6868131868131868,0.45500420521446594,1197.0
652.0,1.7109219517922747e+18,0.4725848563968668,0.4041095890410959,0.3254054054054054,0.5028124235754463,0.6362637362637362,0.44070647603027757,1197.0
653.0,1.7109219518022712e+18,0.47127937336814624,0.408675799086758,0.3254054054054054,0.4969430178527757,0.5978021978021978,0.4339781328847771,1193.0
654.0,1.7109219518122757e+18,0.47127937336814624,0.3835616438356164,0.31027027027027027,0.49523110785033014,0.621978021978022,0.41968040370058873,1195.0
655.0,1.7109219518222733e+18,0.49738903394255873,0.4349315068493151,0.34054054054054056,0.499877720714111,0.6186813186813187,0.4339781328847771,1193.0
656.0,1.7109219518322732e+18,0.46866840731070497,0.3995433789954338,0.3254054054054054,0.49816581071166544,0.6373626373626373,0.43986543313709,1194.0
657.0,1.7109219518422715e+18,0.4765013054830287,0.3858447488584475,0.3410810810810811,0.5015896307165566,0.6120879120879121,0.4381833473507149,1196.0
658.0,1.710921951852276e+18,0.48433420365535246,0.4052511415525114,0.33405405405405403,0.4944974321349963,0.6307692307692307,0.4280908326324643,1193.0
659.0,1.7109219518622725e+18,0.45822454308093996,0.3995433789954338,0.32054054054054054,0.499877720714111,0.6274725274725275,0.42977291841883936,1196.0
660.0,1.7109219518722703e+18,0.4725848563968668,0.4805936073059361,0.33513513513513515,0.5020787478601125,0.7065934065934066,0.44070647603027757,1194.0
661.0,1.7109219518822756e+18,0.46736292428198434,0.3915525114155251,0.3237837837837838,0.5077035950110051,0.6230769230769231,0.44238856181665265,1195.0
662.0,1.710921951892265e+18,0.4830287206266319,0.3995433789954338,0.3227027027027027,0.4991440449987772,0.6384615384615384,0.4348191757779647,1194.0
663.0,1.7109219519023017e+18,0.46475195822454307,0.4075342465753425,0.32756756756756755,0.49816581071166544,0.6461538461538462,0.44575273338940286,1196.0
664.0,1.7109219519122683e+18,0.4621409921671018,0.4143835616438356,0.3362162162162162,0.5025678650036683,0.6274725274725275,0.43650126156433977,1196.0
665.0,1.710921951922276e+18,0.5078328981723238,0.4006849315068493,0.3254054054054054,0.5013450721447786,0.6450549450549451,0.43902439024390244,1195.0
666.0,1.7109219519322788e+18,0.4869451697127937,0.3926940639269406,0.32972972972972975,0.4966984592809978,0.6362637362637362,0.4373423044575273,1195.0
667.0,1.7109219519422712e+18,0.46344647519582244,0.4052511415525114,0.32,0.4954756664221081,0.6076923076923076,0.432296047098402,1193.0
668.0,1.7109219519522737e+18,0.4765013054830287,0.410958904109589,0.3356756756756757,0.5055025678650037,0.6791208791208792,0.43313708999158956,1192.0
669.0,1.7109219519622781e+18,0.4699738903394256,0.4406392694063927,0.3324324324324324,0.5011005135730008,0.6076923076923076,0.43313708999158956,1195.0
670.0,1.7109219519722696e+18,0.49216710182767626,0.3938356164383562,0.3318918918918919,0.4883834678405478,0.5846153846153846,0.43650126156433977,1195.0
671.0,1.710921951982277e+18,0.4765013054830287,0.4292237442922374,0.32432432432432434,0.5047688921496698,0.6846153846153846,0.432296047098402,1194.0
672.0,1.7109219519923013e+18,0.4608355091383812,0.4132420091324201,0.31891891891891894,0.5055025678650037,0.6978021978021978,0.4432296047098402,1195.0
673.0,1.7109219520022728e+18,0.4699738903394256,0.4018264840182648,0.3227027027027027,0.5006113964294449,0.589010989010989,0.42977291841883936,1193.0
674.0,1.710921952012294e+18,0.47127937336814624,0.3995433789954338,0.3254054054054054,0.49938860357055515,0.6274725274725275,0.44238856181665265,1195.0
675.0,1.710921952022274e+18,0.49869451697127937,0.4292237442922374,0.3335135135135135,0.5030569821472243,0.6472527472527473,0.4465937762825904,1194.0
676.0,1.7109219520322744e+18,0.5300261096605744,0.4383561643835616,0.3302702702702703,0.5030569821472243,0.5659340659340659,0.43650126156433977,1197.0
677.0,1.7109219520422735e+18,0.4451697127937337,0.3812785388127854,0.31405405405405407,0.495964783565664,0.5945054945054945,0.4339781328847771,1192.0
678.0,1.710921952052276e+18,0.48825065274151436,0.4497716894977169,0.37513513513513513,0.5018341892883346,0.6241758241758242,0.43650126156433977,1196.0
679.0,1.7109219520622756e+18,0.4725848563968668,0.4360730593607306,0.33675675675675676,0.5001222792858889,0.5703296703296703,0.43650126156433977,1197.0
680.0,1.710921952072273e+18,0.45822454308093996,0.4052511415525114,0.3318918918918919,0.49229640498899485,0.6032967032967033,0.4280908326324643,1193.0
681.0,1.7109219520822715e+18,0.47127937336814624,0.4200913242009132,0.3372972972972973,0.4954756664221081,0.5692307692307692,0.43566021867115223,1194.0
682.0,1.7109219520922772e+18,0.5078328981723238,0.4646118721461187,0.34756756756756757,0.5035460992907801,0.6538461538461539,0.4381833473507149,1196.0
683.0,1.7109219521023165e+18,0.5052219321148825,0.4372146118721461,0.3264864864864865,0.49938860357055515,0.6692307692307692,0.4507989907485282,1197.0
684.0,1.7109219521122644e+18,0.46344647519582244,0.3972602739726027,0.34702702702702704,0.4991440449987772,0.6197802197802198,0.4415475189234651,1197.0
685.0,1.7109219521222712e+18,0.4490861618798956,0.3835616438356164,0.3254054054054054,0.49938860357055515,0.710989010989011,0.4415475189234651,1196.0
686.0,1.710921952132274e+18,0.49216710182767626,0.4098173515981735,0.31945945945945947,0.4986549278552213,0.6186813186813187,0.43313708999158956,1194.0
687.0,1.7109219521422902e+18,0.43342036553524804,0.3835616438356164,0.33675675675675676,0.5006113964294449,0.6241758241758242,0.43313708999158956,1194.0
688.0,1.7109219521522752e+18,0.4725848563968668,0.4155251141552511,0.3264864864864865,0.5020787478601125,0.6186813186813187,0.43650126156433977,1195.0
689.0,1.7109219521622753e+18,0.48172323759791125,0.4360730593607306,0.35567567567567565,0.504524333577892,0.6450549450549451,0.4440706476030278,1199.0
690.0,1.7109219521722719e+18,0.48172323759791125,0.3995433789954338,0.3248648648648649,0.48985081927121543,0.6813186813186813,0.44575273338940286,1196.0
691.0,1.7109219521822707e+18,0.44778067885117495,0.386986301369863,0.3232432432432432,0.4988994864269993,0.6010989010989011,0.4280908326324643,1193.0
692.0,1.7109219521922819e+18,0.45822454308093996,0.3961187214611872,0.34324324324324323,0.4988994864269993,0.6274725274725275,0.4373423044575273,1197.0
693.0,1.7109219522022812e+18,0.4765013054830287,0.408675799086758,0.33405405405405403,0.49816581071166544,0.6065934065934065,0.432296047098402,1195.0
694.0,1.710921952212261e+18,0.47780678851174935,0.4143835616438356,0.3372972972972973,0.5018341892883346,0.6186813186813187,0.43986543313709,1194.0
695.0,1.7109219522222687e+18,0.45039164490861616,0.3961187214611872,0.3345945945945946,0.5001222792858889,0.621978021978022,0.4348191757779647,1196.0
696.0,1.710921952232267e+18,0.4725848563968668,0.4634703196347032,0.3881081081081081,0.5001222792858889,0.6703296703296703,0.44070647603027757,1196.0
697.0,1.7109219522422694e+18,0.4660574412532637,0.3767123287671233,0.31891891891891894,0.5001222792858889,0.6054945054945055,0.43566021867115223,1196.0
698.0,1.7109219522522755e+18,0.4830287206266319,0.4280821917808219,0.3362162162162162,0.49107361213010514,0.6362637362637362,0.4440706476030278,1197.0
699.0,1.710921952262278e+18,0.46344647519582244,0.4029680365296804,0.3286486486486486,0.4986549278552213,0.6098901098901099,0.4339781328847771,1196.0
700.0,1.7109219522722744e+18,0.4660574412532637,0.3949771689497717,0.3237837837837838,0.4988994864269993,0.6527472527472528,0.4499579478553406,1196.0
701.0,1.7109219522822756e+18,0.4725848563968668,0.4394977168949772,0.33405405405405403,0.5064808021521154,0.6208791208791209,0.4348191757779647,1195.0
702.0,1.7109219522922926e+18,0.46344647519582244,0.386986301369863,0.33405405405405403,0.5018341892883346,0.6153846153846154,0.43902439024390244,1195.0
703.0,1.710921952302295e+18,0.47780678851174935,0.410958904109589,0.3308108108108108,0.5033015407190022,0.6626373626373626,0.45164003364171573,1195.0
704.0,1.7109219523122836e+18,0.47911227154047,0.4155251141552511,0.33837837837837836,0.5008559550012228,0.6406593406593407,0.44238856181665265,1195.0
705.0,1.7109219523222738e+18,0.4765013054830287,0.4178082191780822,0.34162162162162163,0.5015896307165566,0.5802197802197803,0.45164003364171573,1196.0
706.0,1.7109219523322737e+18,0.4856396866840731,0.432648401826484,0.32594594594594595,0.4988994864269993,0.5659340659340659,0.4238856181665265,1192.0
707.0,1.7109219523422735e+18,0.4804177545691906,0.3995433789954338,0.31351351351351353,0.5015896307165566,0.5725274725274725,0.43313708999158956,1193.0
708.0,1.7109219523522755e+18,0.4556135770234987,0.4052511415525114,0.3124324324324324,0.5069699192956714,0.6791208791208792,0.4415475189234651,1197.0
709.0,1.7109219523622753e+18,0.5039164490861618,0.478310502283105,0.3286486486486486,0.504035216434336,0.5923076923076923,0.44575273338940286,1196.0
710.0,1.7109219523722703e+18,0.49477806788511747,0.4280821917808219,0.3427027027027027,0.5050134507214478,0.6274725274725275,0.4465937762825904,1198.0
711.0,1.71092195238227e+18,0.4725848563968668,0.4052511415525114,0.34162162162162163,0.49327463927610665,0.5901098901098901,0.43650126156433977,1196.0
712.0,1.7109219523922993e+18,0.4869451697127937,0.4680365296803653,0.3567567567567568,0.504524333577892,0.6505494505494506,0.4381833473507149,1196.0
713.0,1.7109219524022748e+18,0.46344647519582244,0.4121004566210046,0.31675675675675674,0.4937637564196625,0.5615384615384615,0.4339781328847771,1193.0
714.0,1.7109219524122696e+18,0.4608355091383812,0.4063926940639269,0.3627027027027027,0.5072144778674492,0.6703296703296703,0.4449116904962153,1196.0
715.0,1.7109219524222702e+18,0.4804177545691906,0.4360730593607306,0.38054054054054054,0.5030569821472243,0.6153846153846154,0.4449116904962153,1196.0
716.0,1.7109219524322732e+18,0.47127937336814624,0.4075342465753425,0.32756756756756755,0.49938860357055515,0.621978021978022,0.4339781328847771,1194.0
717.0,1.7109219524422746e+18,0.46736292428198434,0.4041095890410959,0.3324324324324324,0.5057471264367817,0.6241758241758242,0.4381833473507149,1197.0
718.0,1.7109219524522941e+18,0.4699738903394256,0.4006849315068493,0.34540540540540543,0.5015896307165566,0.5945054945054945,0.4415475189234651,1196.0
719.0,1.7109219524622702e+18,0.46866840731070497,0.4143835616438356,0.33135135135135135,0.5025678650036683,0.6274725274725275,0.43313708999158956,1194.0
720.0,1.7109219524722688e+18,0.4621409921671018,0.4257990867579909,0.3324324324324324,0.495720224993886,0.6230769230769231,0.4348191757779647,1194.0
721.0,1.7109219524822733e+18,0.4556135770234987,0.3824200913242009,0.3264864864864865,0.4996331621423331,0.6461538461538462,0.4449116904962153,1194.0
722.0,1.7109219524922813e+18,0.4516971279373368,0.432648401826484,0.35027027027027025,0.5055025678650037,0.6274725274725275,0.4373423044575273,1195.0
723.0,1.7109219525022723e+18,0.46736292428198434,0.4235159817351598,0.35135135135135137,0.504279775006114,0.6857142857142857,0.4482758620689655,1194.0
724.0,1.7109219525122624e+18,0.46736292428198434,0.408675799086758,0.3281081081081081,0.5055025678650037,0.6373626373626373,0.4381833473507149,1198.0
725.0,1.7109219525222774e+18,0.48172323759791125,0.4292237442922374,0.33405405405405403,0.5062362435803375,0.689010989010989,0.4415475189234651,1194.0
726.0,1.7109219525322708e+18,0.47389033942558745,0.4292237442922374,0.34054054054054056,0.5035460992907801,0.610989010989011,0.42977291841883936,1192.0
727.0,1.7109219525422748e+18,0.4765013054830287,0.4383561643835616,0.34594594594594597,0.4944974321349963,0.6307692307692307,0.44911690496215306,1196.0
728.0,1.7109219525522772e+18,0.4765013054830287,0.4200913242009132,0.33675675675675676,0.4979212521398875,0.6329670329670329,0.43566021867115223,1195.0
729.0,1.710921952562276e+18,0.45691906005221933,0.3858447488584475,0.31891891891891894,0.5018341892883346,0.6417582417582418,0.4289318755256518,1192.0
730.0,1.7109219525722693e+18,0.48433420365535246,0.45662100456621,0.3254054054054054,0.5023233064318905,0.6164835164835165,0.43650126156433977,1197.0
731.0,1.7109219525822697e+18,0.49738903394255873,0.4143835616438356,0.33405405405405403,0.5030569821472243,0.6450549450549451,0.43986543313709,1195.0
732.0,1.710921952592419e+18,0.5104438642297651,0.3972602739726027,0.3286486486486486,0.49523110785033014,0.6274725274725275,0.4146341463414634,1191.0
733.0,1.7109219526022938e+18,0.45691906005221933,0.432648401826484,0.3481081081081081,0.4974321349963316,0.589010989010989,0.43313708999158956,1193.0
734.0,1.7109219526122783e+18,0.4660574412532637,0.4029680365296804,0.33135135135135135,0.5003668378576669,0.6098901098901099,0.4247266610597141,1193.0
735.0,1.7109219526222723e+18,0.4869451697127937,0.4589041095890411,0.3497297297297297,0.5143066764490095,0.6428571428571429,0.43650126156433977,1195.0
736.0,1.7109219526322737e+18,0.45691906005221933,0.4337899543378995,0.35135135135135137,0.49938860357055515,0.6252747252747253,0.4280908326324643,1192.0
737.0,1.710921952642274e+18,0.48433420365535246,0.4075342465753425,0.3583783783783784,0.5069699192956714,0.7021978021978021,0.45164003364171573,1196.0
738.0,1.7109219526522716e+18,0.47389033942558745,0.408675799086758,0.35621621621621624,0.4966984592809978,0.589010989010989,0.4373423044575273,1197.0
739.0,1.7109219526622769e+18,0.4765013054830287,0.4246575342465753,0.33675675675675676,0.5023233064318905,0.578021978021978,0.4449116904962153,1197.0
740.0,1.710921952672276e+18,0.4451697127937337,0.3835616438356164,0.31891891891891894,0.4988994864269993,0.6725274725274726,0.4449116904962153,1196.0
741.0,1.7109219526822725e+18,0.49216710182767626,0.4600456621004566,0.35405405405405405,0.5006113964294449,0.6241758241758242,0.44238856181665265,1193.0
742.0,1.7109219526922386e+18,0.4934725848563969,0.4212328767123288,0.372972972972973,0.4986549278552213,0.5989010989010989,0.43313708999158956,1192.0
743.0,1.7109219527022866e+18,0.49216710182767626,0.4497716894977169,0.3518918918918919,0.5011005135730008,0.6153846153846154,0.4432296047098402,1195.0
744.0,1.7109219527122772e+18,0.43733681462140994,0.4223744292237443,0.33405405405405403,0.5096600635852286,0.7,0.4507989907485282,1197.0
745.0,1.7109219527222717e+18,0.45822454308093996,0.4189497716894977,0.3362162162162162,0.5001222792858889,0.6417582417582418,0.4339781328847771,1193.0
746.0,1.710921952732274e+18,0.4856396866840731,0.3401826484018265,0.32054054054054054,0.5013450721447786,0.6527472527472528,0.46509671993271656,1196.0
747.0,1.7109219527422907e+18,0.4830287206266319,0.4851598173515982,0.3881081081081081,0.5055025678650037,0.6043956043956044,0.4280908326324643,1193.0
748.0,1.7109219527522747e+18,0.48433420365535246,0.3607305936073059,0.3535135135135135,0.5001222792858889,0.5351648351648352,0.43313708999158956,1192.0
749.0,1.7109219527622723e+18,0.4660574412532637,0.4223744292237443,0.3302702702702703,0.504279775006114,0.5912087912087912,0.4381833473507149,1196.0
750.0,1.7109219527722698e+18,0.489556135770235,0.4155251141552511,0.3291891891891892,0.49498654927855223,0.5846153846153846,0.4415475189234651,1196.0
751.0,1.7109219527822728e+18,0.4660574412532637,0.4018264840182648,0.3335135135135135,0.49620934213744194,0.643956043956044,0.4415475189234651,1195.0
752.0,1.7109219527922798e+18,0.5026109660574413,0.4680365296803653,0.3772972972972973,0.499877720714111,0.7054945054945055,0.4693019343986543,1196.0
753.0,1.7109219528022687e+18,0.4464751958224543,0.3812785388127854,0.3302702702702703,0.5055025678650037,0.6010989010989011,0.43313708999158956,1192.0
754.0,1.710921952812275e+18,0.4621409921671018,0.4178082191780822,0.3291891891891892,0.5015896307165566,0.6274725274725275,0.43313708999158956,1192.0
755.0,1.7109219528222712e+18,0.43733681462140994,0.386986301369863,0.3005405405405405,0.5001222792858889,0.6120879120879121,0.43902439024390244,1194.0
756.0,1.7109219528322726e+18,0.4608355091383812,0.4121004566210046,0.3362162162162162,0.499877720714111,0.6362637362637362,0.44238856181665265,1196.0
757.0,1.7109219528422886e+18,0.47780678851174935,0.4474885844748858,0.3427027027027027,0.499877720714111,0.6252747252747253,0.4415475189234651,1195.0
758.0,1.7109219528522767e+18,0.48172323759791125,0.4006849315068493,0.3427027027027027,0.5015896307165566,0.5802197802197803,0.4247266610597141,1192.0
759.0,1.7109219528622682e+18,0.4425587467362924,0.3892694063926941,0.33135135135135135,0.5055025678650037,0.5978021978021978,0.43566021867115223,1195.0
760.0,1.710921952872271e+18,0.4830287206266319,0.4235159817351598,0.33675675675675676,0.49082905355832723,0.6131868131868132,0.4373423044575273,1194.0
761.0,1.7109219528822733e+18,0.49738903394255873,0.5034246575342466,0.37189189189189187,0.504524333577892,0.6296703296703297,0.4499579478553406,1195.0
762.0,1.7109219528922793e+18,0.4451697127937337,0.3824200913242009,0.3264864864864865,0.5074590364392272,0.6274725274725275,0.432296047098402,1192.0
763.0,1.7109219529022797e+18,0.46866840731070497,0.3789954337899543,0.3016216216216216,0.5015896307165566,0.6010989010989011,0.4339781328847771,1193.0
764.0,1.7109219529122796e+18,0.4556135770234987,0.3710045662100457,0.31675675675675674,0.4969430178527757,0.5923076923076923,0.43650126156433977,1195.0
765.0,1.7109219529222715e+18,0.46866840731070497,0.4143835616438356,0.34540540540540543,0.499877720714111,0.6252747252747253,0.44238856181665265,1197.0
766.0,1.710921952932273e+18,0.46736292428198434,0.3755707762557078,0.3286486486486486,0.4979212521398875,0.6098901098901099,0.45164003364171573,1195.0
767.0,1.710921952942282e+18,0.4608355091383812,0.3812785388127854,0.31945945945945947,0.49938860357055515,0.6274725274725275,0.4415475189234651,1196.0
768.0,1.7109219529522767e+18,0.4765013054830287,0.3778538812785388,0.3172972972972973,0.5001222792858889,0.5703296703296703,0.42977291841883936,1192.0
769.0,1.7109219529622735e+18,0.5,0.4098173515981735,0.3264864864864865,0.504279775006114,0.6538461538461539,0.44575273338940286,1195.0
770.0,1.710921952972272e+18,0.4556135770234987,0.4029680365296804,0.33837837837837836,0.4986549278552213,0.6098901098901099,0.43313708999158956,1192.0
771.0,1.7109219529822717e+18,0.4516971279373368,0.4006849315068493,0.34216216216216216,0.49767669356810956,0.5703296703296703,0.4272497897392767,1196.0
772.0,1.71092195299228e+18,0.49477806788511747,0.4315068493150685,0.34162162162162163,0.4979212521398875,0.6131868131868132,0.4373423044575273,1194.0
773.0,1.7109219530023078e+18,0.4608355091383812,0.4052511415525114,0.34540540540540543,0.4991440449987772,0.5879120879120879,0.43313708999158956,1192.0
774.0,1.7109219530122683e+18,0.49216710182767626,0.4315068493150685,0.34756756756756757,0.4991440449987772,0.6208791208791209,0.43902439024390244,1195.0
775.0,1.7109219530222712e+18,0.48825065274151436,0.4589041095890411,0.3324324324324324,0.5028124235754463,0.5758241758241758,0.43986543313709,1196.0
776.0,1.7109219530322716e+18,0.5026109660574413,0.4246575342465753,0.33405405405405403,0.49938860357055515,0.6318681318681318,0.43902439024390244,1194.0
777.0,1.7109219530422838e+18,0.4464751958224543,0.3949771689497717,0.3308108108108108,0.499877720714111,0.6318681318681318,0.43902439024390244,1196.0
778.0,1.7109219530522783e+18,0.4699738903394256,0.4166666666666667,0.33135135135135135,0.4969430178527757,0.5615384615384615,0.432296047098402,1194.0
779.0,1.7109219530622774e+18,0.47127937336814624,0.3984018264840183,0.2951351351351351,0.5008559550012228,0.6043956043956044,0.43650126156433977,1195.0
780.0,1.7109219530722788e+18,0.4699738903394256,0.3972602739726027,0.3302702702702703,0.49938860357055515,0.6076923076923076,0.43313708999158956,1190.0
781.0,1.7109219530822748e+18,0.4765013054830287,0.4269406392694064,0.3481081081081081,0.5106382978723404,0.6208791208791209,0.43986543313709,1194.0
782.0,1.710921953092276e+18,0.4869451697127937,0.4531963470319635,0.35081081081081084,0.5037906578625581,0.6857142857142857,0.4541631623212784,1197.0
783.0,1.7109219531022922e+18,0.4556135770234987,0.3824200913242009,0.3302702702702703,0.504035216434336,0.6428571428571429,0.4449116904962153,1196.0
784.0,1.710921953112274e+18,0.5,0.4143835616438356,0.3335135135135135,0.4996331621423331,0.6098901098901099,0.44238856181665265,1195.0
785.0,1.710921953122276e+18,0.4595300261096606,0.3904109589041096,0.30864864864864866,0.4996331621423331,0.6153846153846154,0.43650126156433977,1195.0
786.0,1.7109219531322767e+18,0.4464751958224543,0.4063926940639269,0.307027027027027,0.49498654927855223,0.5824175824175825,0.43313708999158956,1192.0
787.0,1.7109219531422715e+18,0.4556135770234987,0.4440639269406393,0.3302702702702703,0.5015896307165566,0.6076923076923076,0.4314550042052145,1192.0
788.0,1.710921953152508e+18,0.4556135770234987,0.4018264840182648,0.33297297297297296,0.49620934213744194,0.6032967032967033,0.4280908326324643,1193.0
789.0,1.7109219531622769e+18,0.4595300261096606,0.3961187214611872,0.3254054054054054,0.5050134507214478,0.6659340659340659,0.4280908326324643,1192.0
790.0,1.710921953172285e+18,0.5078328981723238,0.4714611872146119,0.3643243243243243,0.5035460992907801,0.7021978021978021,0.4482758620689655,1195.0
791.0,1.7109219531822792e+18,0.4660574412532637,0.3778538812785388,0.3286486486486486,0.5023233064318905,0.6406593406593407,0.4415475189234651,1194.0
792.0,1.7109219531923026e+18,0.4660574412532637,0.3995433789954338,0.33405405405405403,0.5003668378576669,0.6054945054945055,0.43566021867115223,1196.0
793.0,1.7109219532022922e+18,0.4516971279373368,0.3744292237442922,0.29945945945945945,0.5001222792858889,0.6296703296703297,0.44070647603027757,1194.0
794.0,1.7109219532122842e+18,0.4765013054830287,0.4452054794520548,0.32432432432432434,0.5006113964294449,0.6362637362637362,0.4188393608074012,1192.0
795.0,1.710921953222281e+18,0.4321148825065274,0.339041095890411,0.327027027027027,0.5025678650036683,0.6252747252747253,0.4314550042052145,1194.0
796.0,1.710921953232282e+18,0.5287206266318538,0.45662100456621,0.33945945945945943,0.5008559550012228,0.6153846153846154,0.4432296047098402,1196.0
797.0,1.7109219532422838e+18,0.45039164490861616,0.4600456621004566,0.3637837837837838,0.5052580092932257,0.6494505494505495,0.432296047098402,1191.0
798.0,1.710921953252282e+18,0.4608355091383812,0.4143835616438356,0.3081081081081081,0.5001222792858889,0.5846153846153846,0.43650126156433977,1195.0
799.0,1.7109219532622866e+18,0.5039164490861618,0.4121004566210046,0.3216216216216216,0.5094155050134507,0.6164835164835165,0.44911690496215306,1194.0
800.0,1.7109219532722831e+18,0.48825065274151436,0.4520547945205479,0.3324324324324324,0.5006113964294449,0.6263736263736264,0.43566021867115223,1193.0
801.0,1.7109219532822825e+18,0.4451697127937337,0.3447488584474886,0.32,0.5033015407190022,0.634065934065934,0.4449116904962153,1194.0
802.0,1.710921953292288e+18,0.49738903394255873,0.4360730593607306,0.3518918918918919,0.4966984592809978,0.6164835164835165,0.45164003364171573,1193.0
803.0,1.710921953302279e+18,0.4765013054830287,0.3995433789954338,0.3318918918918919,0.49816581071166544,0.6681318681318681,0.44575273338940286,1196.0
804.0,1.710921953312284e+18,0.47911227154047,0.4657534246575342,0.34702702702702704,0.5037906578625581,0.667032967032967,0.43650126156433977,1196.0
805.0,1.7109219533222848e+18,0.5339425587467362,0.4794520547945205,0.36486486486486486,0.5015896307165566,0.6197802197802198,0.4482758620689655,1196.0
806.0,1.7109219533322852e+18,0.4464751958224543,0.3892694063926941,0.31567567567567567,0.5030569821472243,0.6362637362637362,0.4449116904962153,1195.0
807.0,1.7109219533422848e+18,0.48825065274151436,0.5308219178082192,0.3216216216216216,0.5035460992907801,0.6450549450549451,0.45500420521446594,1199.0
808.0,1.7109219533522844e+18,0.4934725848563969,0.317351598173516,0.31027027027027027,0.5001222792858889,0.634065934065934,0.44911690496215306,1194.0
809.0,1.7109219533622838e+18,0.46475195822454307,0.3789954337899543,0.3497297297297297,0.5006113964294449,0.6362637362637362,0.43650126156433977,1197.0
810.0,1.710921953372266e+18,0.4451697127937337,0.3995433789954338,0.3232432432432432,0.5001222792858889,0.6252747252747253,0.43313708999158956,1193.0
811.0,1.7109219533822666e+18,0.49477806788511747,0.5114155251141552,0.3254054054054054,0.5015896307165566,0.5835164835164836,0.4432296047098402,1195.0
812.0,1.7109219533923008e+18,0.49869451697127937,0.3573059360730594,0.29783783783783785,0.49767669356810956,0.610989010989011,0.4415475189234651,1193.0
813.0,1.7109219534022838e+18,0.5182767624020888,0.4417808219178082,0.35027027027027025,0.4988994864269993,0.6241758241758242,0.4499579478553406,1194.0
814.0,1.7109219534122657e+18,0.4660574412532637,0.3721461187214612,0.36486486486486486,0.516507703595011,0.6538461538461539,0.4440706476030278,1194.0
815.0,1.7109219534222684e+18,0.4621409921671018,0.4178082191780822,0.35135135135135137,0.5067253607238934,0.6208791208791209,0.4415475189234651,1195.0
816.0,1.7109219534322696e+18,0.4699738903394256,0.4052511415525114,0.3210810810810811,0.5028124235754463,0.5736263736263736,0.44575273338940286,1196.0
817.0,1.71092195344227e+18,0.46344647519582244,0.4006849315068493,0.3145945945945946,0.4984103692834434,0.6318681318681318,0.43566021867115223,1196.0
818.0,1.710921953452305e+18,0.48172323759791125,0.384703196347032,0.31189189189189187,0.495720224993886,0.6384615384615384,0.4339781328847771,1194.0
819.0,1.710921953462271e+18,0.4725848563968668,0.4212328767123288,0.32972972972972975,0.4986549278552213,0.5967032967032967,0.4415475189234651,1196.0
820.0,1.710921953472271e+18,0.4725848563968668,0.5559360730593608,0.4145945945945946,0.5003668378576669,0.6142857142857143,0.4339781328847771,1190.0
821.0,1.7109219534822717e+18,0.46866840731070497,0.4006849315068493,0.32594594594594595,0.5094155050134507,0.6230769230769231,0.4306139613120269,1189.0
822.0,1.7109219534922435e+18,0.489556135770235,0.4121004566210046,0.3124324324324324,0.504524333577892,0.6450549450549451,0.43902439024390244,1196.0
823.0,1.7109219535022715e+18,0.4556135770234987,0.3904109589041096,0.34216216216216216,0.5018341892883346,0.6472527472527473,0.43902439024390244,1195.0
824.0,1.7109219535122655e+18,0.5261096605744126,0.4463470319634703,0.34054054054054056,0.5035460992907801,0.5725274725274725,0.4415475189234651,1196.0
825.0,1.7109219535222712e+18,0.4765013054830287,0.4280821917808219,0.3248648648648649,0.4986549278552213,0.5934065934065934,0.4280908326324643,1194.0
826.0,1.7109219535322693e+18,0.5039164490861618,0.454337899543379,0.3567567567567568,0.5025678650036683,0.667032967032967,0.44070647603027757,1195.0
827.0,1.710921953542275e+18,0.45691906005221933,0.3698630136986301,0.3372972972972973,0.5015896307165566,0.6307692307692307,0.4373423044575273,1193.0
828.0,1.7109219535522716e+18,0.49216710182767626,0.4075342465753425,0.3816216216216216,0.5008559550012228,0.6153846153846154,0.43650126156433977,1195.0
829.0,1.7109219535622723e+18,0.46344647519582244,0.3938356164383562,0.31027027027027027,0.49523110785033014,0.6274725274725275,0.4449116904962153,1196.0
830.0,1.7109219535722698e+18,0.4516971279373368,0.4041095890410959,0.33783783783783783,0.49816581071166544,0.6274725274725275,0.43986543313709,1195.0
831.0,1.7109219535822725e+18,0.49216710182767626,0.4041095890410959,0.3264864864864865,0.504524333577892,0.667032967032967,0.43902439024390244,1194.0
832.0,1.710921953592302e+18,0.47911227154047,0.408675799086758,0.32,0.5015896307165566,0.6197802197802198,0.4314550042052145,1192.0
833.0,1.710921953602299e+18,0.4464751958224543,0.4292237442922374,0.3335135135135135,0.4996331621423331,0.589010989010989,0.43313708999158956,1192.0
834.0,1.7109219536122747e+18,0.4830287206266319,0.3938356164383562,0.32,0.4979212521398875,0.6164835164835165,0.4289318755256518,1192.0
835.0,1.7109219536222728e+18,0.4804177545691906,0.3995433789954338,0.32432432432432434,0.4996331621423331,0.6076923076923076,0.4449116904962153,1196.0
836.0,1.7109219536322698e+18,0.4490861618798956,0.4634703196347032,0.32972972972972975,0.499877720714111,0.6153846153846154,0.43650126156433977,1194.0
837.0,1.7109219536422712e+18,0.5130548302872062,0.5171232876712328,0.37243243243243246,0.5028124235754463,0.6714285714285714,0.44575273338940286,1195.0
838.0,1.710921953652275e+18,0.45039164490861616,0.4029680365296804,0.3654054054054054,0.49767669356810956,0.5846153846153846,0.432296047098402,1193.0
839.0,1.7109219536622702e+18,0.5287206266318538,0.4851598173515982,0.35405405405405405,0.5008559550012228,0.6406593406593407,0.4541631623212784,1195.0
840.0,1.7109219536722716e+18,0.45039164490861616,0.3732876712328767,0.3037837837837838,0.4971875764245537,0.6142857142857143,0.4247266610597141,1190.0
841.0,1.7109219536822712e+18,0.49477806788511747,0.4200913242009132,0.32216216216216215,0.5015896307165566,0.6373626373626373,0.4432296047098402,1196.0
842.0,1.7109219536922798e+18,0.5052219321148825,0.386986301369863,0.327027027027027,0.5055025678650037,0.6692307692307692,0.4449116904962153,1195.0
843.0,1.7109219537022776e+18,0.4621409921671018,0.3036529680365297,0.3248648648648649,0.5037906578625581,0.6703296703296703,0.43902439024390244,1194.0
844.0,1.7109219537122685e+18,0.47389033942558745,0.3584474885844749,0.3372972972972973,0.5025678650036683,0.6450549450549451,0.4415475189234651,1195.0
845.0,1.7109219537222725e+18,0.4699738903394256,0.4212328767123288,0.3291891891891892,0.4984103692834434,0.6461538461538462,0.43566021867115223,1196.0
846.0,1.7109219537322757e+18,0.4765013054830287,0.4269406392694064,0.3410810810810811,0.4991440449987772,0.5747252747252747,0.42977291841883936,1193.0
847.0,1.7109219537423004e+18,0.52088772845953,0.4908675799086758,0.3362162162162162,0.49767669356810956,0.6285714285714286,0.43902439024390244,1194.0
848.0,1.7109219537522744e+18,0.4425587467362924,0.4246575342465753,0.35405405405405405,0.4988994864269993,0.5868131868131868,0.4280908326324643,1193.0
849.0,1.7109219537622738e+18,0.5026109660574413,0.545662100456621,0.40540540540540543,0.5155294693078992,0.6681318681318681,0.4482758620689655,1195.0
850.0,1.7109219537722685e+18,0.4856396866840731,0.4006849315068493,0.30864864864864866,0.495720224993886,0.6329670329670329,0.4381833473507149,1196.0
851.0,1.7109219537822748e+18,0.4608355091383812,0.3755707762557078,0.34864864864864864,0.499877720714111,0.6131868131868132,0.4415475189234651,1196.0
852.0,1.710921953792276e+18,0.4621409921671018,0.4235159817351598,0.39675675675675676,0.5035460992907801,0.6417582417582418,0.4314550042052145,1194.0
853.0,1.710921953802274e+18,0.45300261096605743,0.454337899543379,0.3621621621621622,0.5050134507214478,0.6285714285714286,0.44575273338940286,1195.0
854.0,1.7109219538122706e+18,0.4216710182767624,0.3493150684931507,0.31567567567567567,0.4979212521398875,0.6307692307692307,0.4339781328847771,1193.0
855.0,1.710921953822271e+18,0.46866840731070497,0.5102739726027398,0.35567567567567565,0.504524333577892,0.6406593406593407,0.46509671993271656,1195.0
856.0,1.7109219538322714e+18,0.49477806788511747,0.3230593607305936,0.31027027027027027,0.4984103692834434,0.6131868131868132,0.44911690496215306,1194.0
857.0,1.710921953842292e+18,0.4451697127937337,0.3333333333333333,0.3372972972972973,0.499877720714111,0.6274725274725275,0.4381833473507149,1196.0
858.0,1.7109219538522683e+18,0.5939947780678851,0.5205479452054794,0.35567567567567565,0.499877720714111,0.6252747252747253,0.4381833473507149,1194.0
859.0,1.7109219538622848e+18,0.4516971279373368,0.3721461187214612,0.3324324324324324,0.4984103692834434,0.5846153846153846,0.43313708999158956,1193.0
860.0,1.710921953872272e+18,0.45691906005221933,0.4075342465753425,0.33513513513513515,0.49816581071166544,0.6483516483516484,0.4432296047098402,1195.0
861.0,1.7109219538822907e+18,0.42689295039164493,0.2762557077625571,0.35243243243243244,0.49938860357055515,0.5923076923076923,0.43650126156433977,1195.0
862.0,1.710921953892278e+18,0.5339425587467362,0.5422374429223744,0.3291891891891892,0.4966984592809978,0.6142857142857143,0.43566021867115223,1195.0
863.0,1.7109219539022822e+18,0.5600522193211488,0.7191780821917808,0.35783783783783785,0.5028124235754463,0.6010989010989011,0.4432296047098402,1194.0
864.0,1.7109219539122785e+18,0.39033942558746737,0.2682648401826484,0.35621621621621624,0.5001222792858889,0.6329670329670329,0.42640874684608915,1192.0
865.0,1.7109219539222712e+18,0.5913838120104439,0.5776255707762558,0.3708108108108108,0.5096600635852286,0.6472527472527473,0.4432296047098402,1196.0
866.0,1.710921953932271e+18,0.4869451697127937,0.3995433789954338,0.33837837837837836,0.5084372707263389,0.6296703296703297,0.4280908326324643,1193.0
867.0,1.7109219539423089e+18,0.47911227154047,0.4372146118721461,0.36324324324324325,0.49816581071166544,0.6054945054945055,0.44911690496215306,1196.0
868.0,1.710921953952277e+18,0.49477806788511747,0.4280821917808219,0.34054054054054056,0.5018341892883346,0.6252747252747253,0.43986543313709,1194.0
869.0,1.7109219539622769e+18,0.4556135770234987,0.3904109589041096,0.3227027027027027,0.4984103692834434,0.6164835164835165,0.4289318755256518,1193.0
870.0,1.710921953972271e+18,0.5052219321148825,0.3744292237442922,0.2897297297297297,0.495964783565664,0.5439560439560439,0.43313708999158956,1193.0
871.0,1.7109219539822876e+18,0.41906005221932113,0.3219178082191781,0.31513513513513514,0.5035460992907801,0.6362637362637362,0.4247266610597141,1194.0
872.0,1.7109219539923167e+18,0.48825065274151436,0.4840182648401826,0.3410810810810811,0.5050134507214478,0.6417582417582418,0.4339781328847771,1193.0
873.0,1.710921954002297e+18,0.49477806788511747,0.5205479452054794,0.32,0.5035460992907801,0.6230769230769231,0.43986543313709,1196.0
874.0,1.7109219540122693e+18,0.5026109660574413,0.5148401826484018,0.34702702702702704,0.4966984592809978,0.6274725274725275,0.4339781328847771,1192.0
875.0,1.7109219540222748e+18,0.4765013054830287,0.3698630136986301,0.3567567567567568,0.49645390070921985,0.5714285714285714,0.4373423044575273,1194.0
876.0,1.7109219540322732e+18,0.52088772845953,0.386986301369863,0.33297297297297296,0.5064808021521154,0.6593406593406593,0.43902439024390244,1193.0
877.0,1.7109219540422723e+18,0.48172323759791125,0.4337899543378995,0.3362162162162162,0.5130838835901198,0.6373626373626373,0.4348191757779647,1195.0
878.0,1.7109219540523146e+18,0.43733681462140994,0.384703196347032,0.32756756756756755,0.49938860357055515,0.5846153846153846,0.4314550042052145,1193.0
879.0,1.7109219540622753e+18,0.47127937336814624,0.386986301369863,0.31513513513513514,0.5003668378576669,0.6274725274725275,0.4415475189234651,1193.0
880.0,1.710921954072274e+18,0.49738903394255873,0.4075342465753425,0.3286486486486486,0.5020787478601125,0.6153846153846154,0.4289318755256518,1190.0
881.0,1.710921954082281e+18,0.49738903394255873,0.3276255707762557,0.31675675675675674,0.5015896307165566,0.5758241758241758,0.4465937762825904,1193.0
882.0,1.7109219540922747e+18,0.42950391644908614,0.408675799086758,0.34,0.5030569821472243,0.6043956043956044,0.42977291841883936,1192.0
883.0,1.7109219541022674e+18,0.43994778067885115,0.3824200913242009,0.3389189189189189,0.5050134507214478,0.5945054945054945,0.4339781328847771,1192.0
884.0,1.7109219541122373e+18,0.45300261096605743,0.3812785388127854,0.30972972972972973,0.504279775006114,0.6131868131868132,0.42977291841883936,1192.0
885.0,1.7109219541222694e+18,0.4660574412532637,0.4417808219178082,0.33297297297297296,0.5057471264367817,0.6373626373626373,0.43902439024390244,1195.0
886.0,1.7109219541322724e+18,0.4308093994778068,0.363013698630137,0.312972972972973,0.5025678650036683,0.6538461538461539,0.4348191757779647,1194.0
887.0,1.710921954142271e+18,0.5496083550913838,0.5422374429223744,0.3227027027027027,0.5015896307165566,0.6329670329670329,0.4533221194280908,1194.0
888.0,1.7109219541522836e+18,0.49869451697127937,0.3675799086757991,0.3254054054054054,0.5011005135730008,0.589010989010989,0.42640874684608915,1192.0
889.0,1.71092195416227e+18,0.48172323759791125,0.4817351598173516,0.3232432432432432,0.5025678650036683,0.6505494505494506,0.43986543313709,1195.0
890.0,1.7109219541722675e+18,0.42950391644908614,0.2888127853881279,0.31027027027027027,0.5008559550012228,0.6417582417582418,0.43902439024390244,1196.0
891.0,1.710921954182282e+18,0.4451697127937337,0.4018264840182648,0.3291891891891892,0.5015896307165566,0.621978021978022,0.4415475189234651,1196.0
892.0,1.710921954192278e+18,0.4608355091383812,0.4406392694063927,0.32432432432432434,0.5020787478601125,0.5879120879120879,0.4339781328847771,1193.0
893.0,1.7109219542022781e+18,0.49738903394255873,0.4863013698630137,0.34864864864864864,0.4988994864269993,0.6362637362637362,0.44070647603027757,1194.0
894.0,1.7109219542122783e+18,0.49477806788511747,0.3778538812785388,0.32756756756756755,0.5011005135730008,0.6450549450549451,0.43566021867115223,1195.0
895.0,1.7109219542222725e+18,0.4281984334203655,0.5662100456621004,0.34540540540540543,0.499877720714111,0.621978021978022,0.4339781328847771,1193.0
896.0,1.7109219542322742e+18,0.5026109660574413,0.4155251141552511,0.34054054054054056,0.4991440449987772,0.6428571428571429,0.43566021867115223,1193.0
897.0,1.7109219542422733e+18,0.46475195822454307,0.3721461187214612,0.2935135135135135,0.5064808021521154,0.6626373626373626,0.44238856181665265,1196.0
898.0,1.7109219542522734e+18,0.42950391644908614,0.317351598173516,0.31405405405405407,0.49498654927855223,0.6098901098901099,0.43902439024390244,1194.0
899.0,1.710921954262274e+18,0.5039164490861618,0.3139269406392694,0.33297297297297296,0.4988994864269993,0.6131868131868132,0.44070647603027757,1195.0
900.0,1.710921954272269e+18,0.45039164490861616,0.3721461187214612,0.31567567567567567,0.5015896307165566,0.6241758241758242,0.4339781328847771,1192.0
901.0,1.7109219542822781e+18,0.4556135770234987,0.5091324200913242,0.34486486486486484,0.4930300807043287,0.5714285714285714,0.4415475189234651,1195.0
902.0,1.710921954292268e+18,0.45822454308093996,0.4863013698630137,0.33945945945945943,0.5025678650036683,0.6395604395604395,0.45500420521446594,1194.0
903.0,1.7109219543022886e+18,0.44778067885117495,0.4691780821917808,0.3497297297297297,0.5006113964294449,0.6450549450549451,0.4348191757779647,1195.0
904.0,1.7109219543122573e+18,0.5861618798955613,0.541095890410959,0.3545945945945946,0.5025678650036683,0.6285714285714286,0.4449116904962153,1197.0
905.0,1.7109219543222556e+18,0.4751958224543081,0.4063926940639269,0.34216216216216216,0.495720224993886,0.6384615384615384,0.4339781328847771,1194.0
906.0,1.7109219543322737e+18,0.49738903394255873,0.502283105022831,0.4081081081081081,0.495964783565664,0.6186813186813187,0.4507989907485282,1194.0
907.0,1.7109219543422723e+18,0.47780678851174935,0.4235159817351598,0.33783783783783783,0.4991440449987772,0.5967032967032967,0.43566021867115223,1196.0
908.0,1.7109219543522721e+18,0.48825065274151436,0.4931506849315068,0.35027027027027025,0.5015896307165566,0.6274725274725275,0.42977291841883936,1192.0
909.0,1.7109219543622728e+18,0.4464751958224543,0.3584474885844749,0.3237837837837838,0.504035216434336,0.6263736263736264,0.4449116904962153,1194.0
910.0,1.7109219543722803e+18,0.52088772845953,0.4874429223744292,0.34702702702702704,0.5028124235754463,0.6582417582417582,0.4667788057190917,1198.0
911.0,1.7109219543822792e+18,0.4347258485639687,0.271689497716895,0.3091891891891892,0.4966984592809978,0.5978021978021978,0.447434819175778,1196.0
912.0,1.710921954392279e+18,0.5143603133159269,0.4908675799086758,0.33837837837837836,0.504524333577892,0.6494505494505495,0.4415475189234651,1196.0
913.0,1.7109219544022733e+18,0.5026109660574413,0.4908675799086758,0.38756756756756755,0.4991440449987772,0.6131868131868132,0.4381833473507149,1197.0
914.0,1.710921954412269e+18,0.4725848563968668,0.5525114155251142,0.3372972972972973,0.48691611640988014,0.5010989010989011,0.44238856181665265,1196.0
915.0,1.7109219544222705e+18,0.47911227154047,0.4143835616438356,0.3302702702702703,0.499877720714111,0.6164835164835165,0.42977291841883936,1193.0
916.0,1.710921954432273e+18,0.4556135770234987,0.410958904109589,0.3643243243243243,0.5028124235754463,0.6274725274725275,0.4415475189234651,1195.0
917.0,1.7109219544422728e+18,0.49216710182767626,0.4189497716894977,0.34162162162162163,0.5023233064318905,0.5538461538461539,0.4381833473507149,1195.0
918.0,1.7109219544522883e+18,0.4804177545691906,0.4474885844748858,0.33945945945945943,0.504035216434336,0.6857142857142857,0.43986543313709,1197.0
919.0,1.7109219544622735e+18,0.4595300261096606,0.4680365296803653,0.33837837837837836,0.5020787478601125,0.6252747252747253,0.4348191757779647,1197.0
920.0,1.7109219544722732e+18,0.46475195822454307,0.45662100456621,0.34378378378378377,0.5047688921496698,0.6582417582417582,0.4507989907485282,1194.0
921.0,1.7109219544822774e+18,0.42689295039164493,0.3812785388127854,0.3372972972972973,0.5020787478601125,0.667032967032967,0.44238856181665265,1193.0
922.0,1.7109219544922752e+18,0.5456919060052219,0.4863013698630137,0.31513513513513514,0.5037906578625581,0.6582417582417582,0.4432296047098402,1196.0
923.0,1.7109219545022746e+18,0.4464751958224543,0.4337899543378995,0.3481081081081081,0.5077035950110051,0.6373626373626373,0.4289318755256518,1194.0
924.0,1.7109219545122783e+18,0.45691906005221933,0.5136986301369864,0.3210810810810811,0.4937637564196625,0.5648351648351648,0.4373423044575273,1197.0
925.0,1.7109219545222756e+18,0.45300261096605743,0.4417808219178082,0.31891891891891894,0.4930300807043287,0.5362637362637362,0.4348191757779647,1196.0
926.0,1.7109219545322726e+18,0.5613577023498695,0.684931506849315,0.3691891891891892,0.5037906578625581,0.6406593406593407,0.4432296047098402,1196.0
927.0,1.7109219545422733e+18,0.5039164490861618,0.3881278538812785,0.3216216216216216,0.5025678650036683,0.6296703296703297,0.44238856181665265,1195.0
928.0,1.710921954552271e+18,0.41383812010443866,0.2271689497716895,0.3254054054054054,0.5011005135730008,0.7021978021978021,0.4440706476030278,1195.0
929.0,1.7109219545622728e+18,0.49477806788511747,0.3721461187214612,0.32756756756756755,0.48985081927121543,0.6285714285714286,0.4339781328847771,1194.0
930.0,1.710921954572277e+18,0.4255874673629243,0.3493150684931507,0.2972972972972973,0.4925409635607728,0.6329670329670329,0.4314550042052145,1191.0
931.0,1.7109219545822876e+18,0.43733681462140994,0.3755707762557078,0.31135135135135134,0.5096600635852286,0.6263736263736264,0.42640874684608915,1193.0
932.0,1.7109219545922906e+18,0.4451697127937337,0.4954337899543379,0.34702702702702704,0.5074590364392272,0.6472527472527473,0.43986543313709,1197.0
933.0,1.7109219546022856e+18,0.45691906005221933,0.3835616438356164,0.3281081081081081,0.4984103692834434,0.6131868131868132,0.43650126156433977,1196.0
934.0,1.7109219546122657e+18,0.5339425587467362,0.4748858447488584,0.34756756756756757,0.5001222792858889,0.6010989010989011,0.44238856181665265,1197.0
935.0,1.7109219546222769e+18,0.4765013054830287,0.4155251141552511,0.3286486486486486,0.4913181707018831,0.6010989010989011,0.4255677039529016,1193.0
936.0,1.710921954632233e+18,0.42950391644908614,0.3824200913242009,0.3237837837837838,0.4966984592809978,0.6175824175824176,0.4339781328847771,1195.0
937.0,1.710921954642271e+18,0.4830287206266319,0.4223744292237443,0.34378378378378377,0.4979212521398875,0.5945054945054945,0.44911690496215306,1197.0
938.0,1.7109219546522831e+18,0.4765013054830287,0.3150684931506849,0.3410810810810811,0.49938860357055515,0.6450549450549451,0.43566021867115223,1198.0
939.0,1.7109219546622769e+18,0.34464751958224543,0.23972602739726026,0.31351351351351353,0.504035216434336,0.6384615384615384,0.4449116904962153,1195.0
940.0,1.710921954672278e+18,0.45430809399477806,0.5502283105022832,0.3491891891891892,0.491562729273661,0.6032967032967033,0.4146341463414634,1193.0
941.0,1.710921954682276e+18,0.4960835509138381,0.3984018264840183,0.3308108108108108,0.5028124235754463,0.656043956043956,0.456686291000841,1197.0
942.0,1.7109219546922747e+18,0.4725848563968668,0.3915525114155251,0.32756756756756755,0.5011005135730008,0.6395604395604395,0.4381833473507149,1196.0
943.0,1.7109219547022848e+18,0.47780678851174935,0.3732876712328767,0.34216216216216216,0.5025678650036683,0.6098901098901099,0.4381833473507149,1197.0
944.0,1.7109219547122806e+18,0.45300261096605743,0.3242009132420091,0.3302702702702703,0.5006113964294449,0.589010989010989,0.4289318755256518,1192.0
945.0,1.7109219547222797e+18,0.5287206266318538,0.3949771689497717,0.34756756756756757,0.5008559550012228,0.6208791208791209,0.4348191757779647,1195.0
946.0,1.7109219547322831e+18,0.45822454308093996,0.4474885844748858,0.3210810810810811,0.5077035950110051,0.7417582417582418,0.43902439024390244,1195.0
947.0,1.7109219547422833e+18,0.4608355091383812,0.408675799086758,0.3254054054054054,0.5138175593054537,0.6494505494505495,0.4541631623212784,1197.0
948.0,1.7109219547522918e+18,0.5339425587467362,0.4497716894977169,0.3535135135135135,0.4913181707018831,0.6230769230769231,0.4432296047098402,1198.0
949.0,1.7109219547622843e+18,0.5039164490861618,0.3755707762557078,0.31567567567567567,0.5028124235754463,0.6428571428571429,0.46173254835996635,1198.0
950.0,1.7109219547722703e+18,0.4621409921671018,0.2785388127853881,0.31945945945945947,0.5028124235754463,0.6186813186813187,0.4306139613120269,1194.0
951.0,1.710921954782285e+18,0.5404699738903395,0.3881278538812785,0.33675675675675676,0.5003668378576669,0.6329670329670329,0.4507989907485282,1195.0
952.0,1.7109219547922627e+18,0.4556135770234987,0.3915525114155251,0.3237837837837838,0.4991440449987772,0.6120879120879121,0.43313708999158956,1193.0
953.0,1.7109219548022886e+18,0.47911227154047,0.4178082191780822,0.35945945945945945,0.5133284421618978,0.6241758241758242,0.4415475189234651,1195.0
954.0,1.710921954812287e+18,0.47911227154047,0.4691780821917808,0.34324324324324323,0.4988994864269993,0.6263736263736264,0.45164003364171573,1197.0
955.0,1.7109219548222874e+18,0.4725848563968668,0.4703196347031963,0.34756756756756757,0.5086818292981169,0.6417582417582418,0.4449116904962153,1196.0
956.0,1.7109219548322714e+18,0.4425587467362924,0.4257990867579909,0.31513513513513514,0.49058449498654927,0.5296703296703297,0.4247266610597141,1192.0
957.0,1.710921954842245e+18,0.4412532637075718,0.4577625570776256,0.3637837837837838,0.4988994864269993,0.5978021978021978,0.42304457527333894,1194.0
958.0,1.71092195485228e+18,0.4281984334203655,0.4155251141552511,0.31513513513513514,0.5008559550012228,0.6241758241758242,0.42977291841883936,1192.0
959.0,1.7109219548622866e+18,0.4490861618798956,0.3915525114155251,0.3232432432432432,0.5025678650036683,0.6450549450549451,0.43986543313709,1196.0
960.0,1.7109219548722703e+18,0.44778067885117495,0.3105022831050228,0.3172972972972973,0.5028124235754463,0.6197802197802198,0.4280908326324643,1193.0
961.0,1.7109219548823017e+18,0.4308093994778068,0.3481735159817352,0.3237837837837838,0.4984103692834434,0.5956043956043956,0.43566021867115223,1195.0
962.0,1.7109219548922573e+18,0.4869451697127937,0.4018264840182648,0.33135135135135135,0.5145512350207875,0.6593406593406593,0.456686291000841,1194.0
963.0,1.710921954902295e+18,0.4751958224543081,0.3664383561643836,0.3054054054054054,0.5035460992907801,0.6307692307692307,0.4213624894869638,1192.0
964.0,1.7109219549122934e+18,0.5443864229765013,0.4041095890410959,0.33135135135135135,0.495720224993886,0.6142857142857143,0.43566021867115223,1193.0
965.0,1.7109219549222674e+18,0.5287206266318538,0.5742009132420092,0.3589189189189189,0.5015896307165566,0.6483516483516484,0.4415475189234651,1196.0
966.0,1.7109219549322742e+18,0.44778067885117495,0.3801369863013699,0.32756756756756755,0.5011005135730008,0.6406593406593407,0.43902439024390244,1196.0
967.0,1.7109219549422717e+18,0.45691906005221933,0.3995433789954338,0.327027027027027,0.5008559550012228,0.6582417582417582,0.4465937762825904,1198.0
968.0,1.7109219549522757e+18,0.4556135770234987,0.3641552511415525,0.30864864864864866,0.495964783565664,0.6,0.43902439024390244,1195.0
969.0,1.7109219549622275e+18,0.45039164490861616,0.3767123287671233,0.31675675675675674,0.49816581071166544,0.6296703296703297,0.456686291000841,1194.0
970.0,1.7109219549722752e+18,0.6044386422976501,0.4908675799086758,0.3302702702702703,0.5067253607238934,0.6505494505494506,0.44238856181665265,1196.0
971.0,1.7109219549822712e+18,0.4308093994778068,0.3299086757990868,0.3345945945945946,0.5055025678650037,0.6252747252747253,0.4440706476030278,1195.0
972.0,1.7109219549922757e+18,0.5496083550913838,0.4509132420091324,0.34162162162162163,0.5020787478601125,0.512087912087912,0.4415475189234651,1197.0
973.0,1.710921955002276e+18,0.4425587467362924,0.4132420091324201,0.32756756756756755,0.4984103692834434,0.6076923076923076,0.42977291841883936,1193.0
974.0,1.7109219550122724e+18,0.45822454308093996,0.3732876712328767,0.35243243243243244,0.4988994864269993,0.6483516483516484,0.43902439024390244,1195.0
975.0,1.7109219550222884e+18,0.5182767624020888,0.4748858447488584,0.34540540540540543,0.49767669356810956,0.6406593406593407,0.4659377628259041,1197.0
976.0,1.7109219550322806e+18,0.43733681462140994,0.3401826484018265,0.312972972972973,0.49498654927855223,0.6384615384615384,0.43313708999158956,1192.0
977.0,1.7109219550422697e+18,0.4804177545691906,0.4098173515981735,0.34216216216216216,0.4991440449987772,0.6054945054945055,0.4415475189234651,1194.0
978.0,1.7109219550522708e+18,0.5039164490861618,0.545662100456621,0.3518918918918919,0.504035216434336,0.6736263736263737,0.4381833473507149,1197.0
979.0,1.710921955062273e+18,0.4608355091383812,0.4121004566210046,0.3864864864864865,0.5152849107361213,0.6208791208791209,0.44575273338940286,1195.0
980.0,1.7109219550722683e+18,0.5052219321148825,0.3242009132420091,0.3237837837837838,0.4930300807043287,0.5923076923076923,0.4432296047098402,1195.0
981.0,1.710921955082271e+18,0.4516971279373368,0.4817351598173516,0.34054054054054056,0.5033015407190022,0.6296703296703297,0.4415475189234651,1197.0
982.0,1.7109219550922744e+18,0.45691906005221933,0.3321917808219178,0.31891891891891894,0.5001222792858889,0.6065934065934065,0.4188393608074012,1191.0
983.0,1.7109219551022892e+18,0.47780678851174935,0.4452054794520548,0.3589189189189189,0.5055025678650037,0.6296703296703297,0.45164003364171573,1196.0
984.0,1.7109219551122824e+18,0.4934725848563969,0.4794520547945205,0.3021621621621622,0.49816581071166544,0.5857142857142857,0.44238856181665265,1194.0
985.0,1.7109219551222753e+18,0.4347258485639687,0.3047945205479452,0.3145945945945946,0.5015896307165566,0.6230769230769231,0.43650126156433977,1196.0
986.0,1.7109219551322785e+18,0.47389033942558745,0.3493150684931507,0.33405405405405403,0.49351919784788456,0.6516483516483517,0.4314550042052145,1193.0
987.0,1.7109219551422743e+18,0.5248041775456919,0.4280821917808219,0.32594594594594595,0.5035460992907801,0.6450549450549451,0.4440706476030278,1194.0
988.0,1.71092195515227e+18,0.5156657963446475,0.4531963470319635,0.33513513513513515,0.5030569821472243,0.6032967032967033,0.43902439024390244,1194.0
989.0,1.7109219551622692e+18,0.4556135770234987,0.408675799086758,0.40594594594594596,0.499877720714111,0.6417582417582418,0.432296047098402,1195.0
990.0,1.710921955172274e+18,0.45822454308093996,0.3835616438356164,0.3286486486486486,0.4991440449987772,0.6274725274725275,0.4432296047098402,1195.0
991.0,1.7109219551822612e+18,0.48172323759791125,0.4235159817351598,0.32216216216216215,0.5055025678650037,0.6296703296703297,0.4499579478553406,1196.0
992.0,1.710921955192228e+18,0.46866840731070497,0.4463470319634703,0.34486486486486484,0.5015896307165566,0.5637362637362637,0.42304457527333894,1194.0
993.0,1.7109219552022807e+18,0.47127937336814624,0.3949771689497717,0.3162162162162162,0.5047688921496698,0.6241758241758242,0.44575273338940286,1197.0
994.0,1.7109219552122767e+18,0.4556135770234987,0.3755707762557078,0.30594594594594593,0.5015896307165566,0.5857142857142857,0.4280908326324643,1192.0
995.0,1.7109219552222866e+18,0.45691906005221933,0.3926940639269406,0.3037837837837838,0.5008559550012228,0.6208791208791209,0.42977291841883936,1192.0
996.0,1.71092195523224e+18,0.45300261096605743,0.3710045662100457,0.31675675675675674,0.49474199070677427,0.5846153846153846,0.43650126156433977,1195.0
997.0,1.7109219552422723e+18,0.48825065274151436,0.4075342465753425,0.3362162162162162,0.5128393250183418,0.6846153846153846,0.4339781328847771,1192.0
998.0,1.7109219552522696e+18,0.4908616187989556,0.4269406392694064,0.35783783783783785,0.504524333577892,0.6703296703296703,0.43986543313709,1195.0
999.0,1.7109219552622702e+18,0.4556135770234987,0.3504566210045662,0.3248648648648649,0.4988994864269993,0.6241758241758242,0.4339781328847771,1193.0
