202.0,1.7103178824082652e+18,0.47127937336814624,0.4292237442922374,0.35783783783783785,0.5086818292981169,0.6252747252747253,0.432296047098402,1195.0
203.0,1.710317882418262e+18,0.4765013054830287,0.4075342465753425,0.36,0.5059916850085595,0.6318681318681318,0.45164003364171573,1195.0
204.0,1.710317882428266e+18,0.4765013054830287,0.4360730593607306,0.36648648648648646,0.5011005135730008,0.6208791208791209,0.4188393608074012,1198.0
205.0,1.7103178824382687e+18,0.48172323759791125,0.408675799086758,0.3356756756756757,0.499877720714111,0.6362637362637362,0.456686291000841,1200.0
206.0,1.710317882448265e+18,0.4556135770234987,0.3778538812785388,0.33405405405405403,0.5052580092932257,0.634065934065934,0.4348191757779647,1199.0
207.0,1.7103178824582615e+18,0.4765013054830287,0.3915525114155251,0.33405405405405403,0.48789435069699194,0.6153846153846154,0.45248107653490327,1198.0
208.0,1.7103178824682662e+18,0.4765013054830287,0.4200913242009132,0.33405405405405403,0.5067253607238934,0.6274725274725275,0.4348191757779647,1196.0
209.0,1.710317882478261e+18,0.4830287206266319,0.4223744292237443,0.32,0.47664465639520665,0.5967032967032967,0.44911690496215306,1195.0
210.0,1.710317882488266e+18,0.489556135770235,0.4908675799086758,0.3302702702702703,0.454634384935192,0.5351648351648352,0.4095878889823381,1194.0
211.0,1.7103178824982607e+18,0.4869451697127937,0.4143835616438356,0.33135135135135135,0.5015896307165566,0.6307692307692307,0.4482758620689655,1197.0
212.0,1.7103178825082632e+18,0.4830287206266319,0.4292237442922374,0.34054054054054056,0.5018341892883346,0.6274725274725275,0.4373423044575273,1198.0
213.0,1.7103178825182612e+18,0.46866840731070497,0.3938356164383562,0.3389189189189189,0.5015896307165566,0.6230769230769231,0.4499579478553406,1195.0
214.0,1.710317882528262e+18,0.4751958224543081,0.4132420091324201,0.3302702702702703,0.5138175593054537,0.634065934065934,0.43650126156433977,1197.0
215.0,1.7103178825382628e+18,0.4751958224543081,0.410958904109589,0.33675675675675676,0.49938860357055515,0.6296703296703297,0.4482758620689655,1197.0
216.0,1.7103178825482624e+18,0.47127937336814624,0.4269406392694064,0.35081081081081084,0.5003668378576669,0.6186813186813187,0.4222035323801514,1195.0
217.0,1.7103178825582666e+18,0.47127937336814624,0.4041095890410959,0.34054054054054056,0.5067253607238934,0.6351648351648351,0.4482758620689655,1196.0
218.0,1.7103178825682673e+18,0.47911227154047,0.410958904109589,0.33405405405405403,0.5108828564441183,0.6307692307692307,0.42640874684608915,1195.0
219.0,1.7103178825782625e+18,0.45822454308093996,0.3824200913242009,0.3481081081081081,0.5074590364392272,0.6384615384615384,0.44575273338940286,1198.0
220.0,1.7103178825882632e+18,0.47389033942558745,0.4200913242009132,0.33945945945945943,0.5015896307165566,0.6153846153846154,0.4348191757779647,1198.0
221.0,1.7103178825982646e+18,0.4856396866840731,0.4132420091324201,0.33513513513513515,0.5028124235754463,0.6263736263736264,0.4499579478553406,1197.0
222.0,1.710317882608262e+18,0.4660574412532637,0.4223744292237443,0.3427027027027027,0.5069699192956714,0.634065934065934,0.4314550042052145,1196.0
223.0,1.710317882618264e+18,0.48825065274151436,0.4041095890410959,0.3362162162162162,0.5015896307165566,0.6362637362637362,0.4541631623212784,1199.0
224.0,1.7103178826282642e+18,0.49216710182767626,0.4257990867579909,0.34756756756756757,0.504524333577892,0.6241758241758242,0.4314550042052145,1196.0
225.0,1.710317882638263e+18,0.4804177545691906,0.4121004566210046,0.3362162162162162,0.5047688921496698,0.6351648351648351,0.4415475189234651,1198.0
226.0,1.7103178826482668e+18,0.46866840731070497,0.4223744292237443,0.34378378378378377,0.5018341892883346,0.6208791208791209,0.4348191757779647,1199.0
227.0,1.7103178826582717e+18,0.4765013054830287,0.4178082191780822,0.34324324324324323,0.5020787478601125,0.6318681318681318,0.4533221194280908,1196.0
228.0,1.7103178826682621e+18,0.4869451697127937,0.4269406392694064,0.33297297297297296,0.5025678650036683,0.6296703296703297,0.4339781328847771,1195.0
229.0,1.7103178826782607e+18,0.4464751958224543,0.3812785388127854,0.33837837837837836,0.5015896307165566,0.6307692307692307,0.4465937762825904,1196.0
230.0,1.7103178826883256e+18,0.4856396866840731,0.3984018264840183,0.34,0.5047688921496698,0.6329670329670329,0.43650126156433977,1196.0
231.0,1.7103178826982564e+18,0.45691906005221933,0.4075342465753425,0.3308108108108108,0.495964783565664,0.6043956043956044,0.43902439024390244,1196.0
232.0,1.7103178827082637e+18,0.49477806788511747,0.4292237442922374,0.3345945945945946,0.5035460992907801,0.6285714285714286,0.43902439024390244,1197.0
233.0,1.7103178827182638e+18,0.46344647519582244,0.3904109589041096,0.3281081081081081,0.5006113964294449,0.6417582417582418,0.4482758620689655,1197.0
234.0,1.710317882728261e+18,0.48172323759791125,0.4143835616438356,0.3124324324324324,0.5028124235754463,0.6241758241758242,0.42977291841883936,1193.0
235.0,1.7103178827382664e+18,0.48172323759791125,0.410958904109589,0.29945945945945945,0.5020787478601125,0.6285714285714286,0.4440706476030278,1196.0
236.0,1.7103178827482755e+18,0.46344647519582244,0.4143835616438356,0.3551351351351351,0.5018341892883346,0.6,0.4280908326324643,1193.0
237.0,1.7103178827582612e+18,0.47389033942558745,0.410958904109589,0.34540540540540543,0.5084372707263389,0.6450549450549451,0.44575273338940286,1195.0
238.0,1.7103178827682665e+18,0.48172323759791125,0.4178082191780822,0.3389189189189189,0.4969430178527757,0.6054945054945055,0.42977291841883936,1194.0
239.0,1.7103178827782623e+18,0.4621409921671018,0.3778538812785388,0.33675675675675676,0.5023233064318905,0.6384615384615384,0.45836837678721615,1198.0
240.0,1.710317882788266e+18,0.46344647519582244,0.3904109589041096,0.33945945945945943,0.5035460992907801,0.6208791208791209,0.4289318755256518,1195.0
241.0,1.7103178827982615e+18,0.4869451697127937,0.408675799086758,0.33405405405405403,0.5008559550012228,0.6318681318681318,0.44911690496215306,1196.0
242.0,1.710317882808265e+18,0.44778067885117495,0.3961187214611872,0.3372972972972973,0.5052580092932257,0.6373626373626373,0.432296047098402,1194.0
243.0,1.7103178828182582e+18,0.47911227154047,0.4041095890410959,0.3362162162162162,0.5025678650036683,0.6395604395604395,0.456686291000841,1197.0
244.0,1.7103178828282578e+18,0.47389033942558745,0.4235159817351598,0.3356756756756757,0.5037906578625581,0.6230769230769231,0.4280908326324643,1196.0
245.0,1.7103178828382707e+18,0.49738903394255873,0.4360730593607306,0.34540540540540543,0.5047688921496698,0.6406593406593407,0.45164003364171573,1198.0
246.0,1.7103178828482875e+18,0.4699738903394256,0.4143835616438356,0.34324324324324323,0.5135730007336757,0.6472527472527473,0.43313708999158956,1197.0
247.0,1.7103178828582892e+18,0.4725848563968668,0.3938356164383562,0.32756756756756755,0.495964783565664,0.6362637362637362,0.44911690496215306,1196.0
248.0,1.710317882868264e+18,0.4869451697127937,0.4269406392694064,0.33135135135135135,0.5035460992907801,0.6197802197802198,0.4314550042052145,1194.0
249.0,1.7103178828782584e+18,0.46866840731070497,0.3767123287671233,0.3302702702702703,0.49082905355832723,0.621978021978022,0.4449116904962153,1196.0
250.0,1.7103178828883172e+18,0.46475195822454307,0.3755707762557078,0.3335135135135135,0.504279775006114,0.6318681318681318,0.42977291841883936,1194.0
251.0,1.7103178828982674e+18,0.46475195822454307,0.3835616438356164,0.3372972972972973,0.5006113964294449,0.6274725274725275,0.44575273338940286,1195.0
252.0,1.710317882908267e+18,0.45300261096605743,0.430365296803653,0.3481081081081081,0.5047688921496698,0.6285714285714286,0.43650126156433977,1196.0
253.0,1.7103178829182602e+18,0.47911227154047,0.4132420091324201,0.34054054054054056,0.5025678650036683,0.6296703296703297,0.4449116904962153,1195.0
254.0,1.710317882928263e+18,0.4804177545691906,0.4246575342465753,0.33513513513513515,0.5018341892883346,0.6164835164835165,0.43650126156433977,1195.0
255.0,1.710317882938282e+18,0.489556135770235,0.4280821917808219,0.3372972972972973,0.5072144778674492,0.6395604395604395,0.45500420521446594,1196.0
256.0,1.7103178829482627e+18,0.43994778067885115,0.3972602739726027,0.3291891891891892,0.4900953778429934,0.5571428571428572,0.40454163162321277,1193.0
257.0,1.7103178829582868e+18,0.4830287206266319,0.4132420091324201,0.33837837837837836,0.504035216434336,0.6307692307692307,0.45248107653490327,1197.0
258.0,1.7103178829682703e+18,0.49738903394255873,0.3310502283105023,0.3389189189189189,0.504524333577892,0.6252747252747253,0.4247266610597141,1194.0
259.0,1.7103178829782602e+18,0.4360313315926893,0.3447488584474886,0.31567567567567567,0.4969430178527757,0.6098901098901099,0.4465937762825904,1198.0
260.0,1.7103178829884017e+18,0.47911227154047,0.4406392694063927,0.34540540540540543,0.5050134507214478,0.6329670329670329,0.43650126156433977,1197.0
261.0,1.7103178829982915e+18,0.4765013054830287,0.4269406392694064,0.3254054054054054,0.5008559550012228,0.621978021978022,0.4449116904962153,1197.0
262.0,1.7103178830082565e+18,0.45691906005221933,0.4018264840182648,0.31513513513513514,0.5035460992907801,0.6175824175824176,0.42304457527333894,1196.0
263.0,1.7103178830182513e+18,0.48172323759791125,0.4018264840182648,0.3372972972972973,0.5028124235754463,0.6329670329670329,0.4482758620689655,1194.0
264.0,1.7103178830282565e+18,0.44778067885117495,0.3995433789954338,0.3216216216216216,0.5008559550012228,0.6164835164835165,0.43650126156433977,1196.0
265.0,1.7103178830382682e+18,0.42950391644908614,0.3139269406392694,0.31513513513513514,0.49351919784788456,0.6362637362637362,0.44911690496215306,1198.0
266.0,1.7103178830482865e+18,0.4621409921671018,0.3812785388127854,0.3345945945945946,0.5015896307165566,0.6241758241758242,0.42977291841883936,1196.0
267.0,1.7103178830582717e+18,0.48825065274151436,0.4337899543378995,0.3362162162162162,0.5013450721447786,0.6296703296703297,0.45164003364171573,1197.0
268.0,1.710317883068273e+18,0.43994778067885115,0.4143835616438356,0.33297297297297296,0.5018341892883346,0.6230769230769231,0.4280908326324643,1194.0
269.0,1.7103178830782653e+18,0.4725848563968668,0.4063926940639269,0.3362162162162162,0.4986549278552213,0.621978021978022,0.43566021867115223,1194.0
270.0,1.7103178830882867e+18,0.4425587467362924,0.3082191780821918,0.3362162162162162,0.5067253607238934,0.6307692307692307,0.4314550042052145,1194.0
271.0,1.7103178830982682e+18,0.46866840731070497,0.3995433789954338,0.33675675675675676,0.5152849107361213,0.634065934065934,0.4432296047098402,1198.0
272.0,1.7103178831082688e+18,0.47911227154047,0.4166666666666667,0.32756756756756755,0.5238444607483492,0.6758241758241759,0.43902439024390244,1196.0
273.0,1.7103178831182564e+18,0.4934725848563969,0.4257990867579909,0.34162162162162163,0.5028124235754463,0.6274725274725275,0.44575273338940286,1198.0
274.0,1.7103178831282632e+18,0.47127937336814624,0.4623287671232877,0.34702702702702704,0.4937637564196625,0.6142857142857143,0.44238856181665265,1196.0
275.0,1.7103178831382825e+18,0.4765013054830287,0.410958904109589,0.3254054054054054,0.5084372707263389,0.6373626373626373,0.4449116904962153,1196.0
276.0,1.710317883148278e+18,0.4830287206266319,0.4497716894977169,0.34,0.5035460992907801,0.6230769230769231,0.42977291841883936,1192.0
277.0,1.7103178831582817e+18,0.44778067885117495,0.3721461187214612,0.3335135135135135,0.512350207874786,0.6384615384615384,0.4600504625735913,1194.0
278.0,1.7103178831682744e+18,0.4830287206266319,0.4280821917808219,0.3362162162162162,0.5089263878698949,0.6241758241758242,0.4213624894869638,1192.0
279.0,1.710317883178266e+18,0.47911227154047,0.4121004566210046,0.3372972972972973,0.49816581071166544,0.6285714285714286,0.4415475189234651,1198.0
280.0,1.7103178831882865e+18,0.4608355091383812,0.432648401826484,0.3362162162162162,0.48740523355343607,0.6120879120879121,0.43313708999158956,1195.0
281.0,1.7103178831982705e+18,0.47127937336814624,0.3812785388127854,0.3286486486486486,0.5059916850085595,0.5945054945054945,0.4415475189234651,1196.0
282.0,1.7103178832082668e+18,0.4934725848563969,0.4611872146118721,0.34,0.5052580092932257,0.6307692307692307,0.4415475189234651,1195.0
283.0,1.7103178832182623e+18,0.48433420365535246,0.4463470319634703,0.2913513513513514,0.4433846906334067,0.5406593406593406,0.42640874684608915,1194.0
284.0,1.7103178832282632e+18,0.489556135770235,0.410958904109589,0.3108108108108108,0.512350207874786,0.6516483516483517,0.4449116904962153,1198.0
285.0,1.7103178832382728e+18,0.4830287206266319,0.4360730593607306,0.32,0.5003668378576669,0.6329670329670329,0.44575273338940286,1198.0
286.0,1.7103178832482675e+18,0.46344647519582244,0.4235159817351598,0.34540540540540543,0.49620934213744194,0.6142857142857143,0.4339781328847771,1192.0
287.0,1.7103178832582886e+18,0.4830287206266319,0.4703196347031963,0.3443243243243243,0.5006113964294449,0.6274725274725275,0.43902439024390244,1199.0
288.0,1.710317883268259e+18,0.4869451697127937,0.4315068493150685,0.3264864864864865,0.5011005135730008,0.621978021978022,0.4280908326324643,1193.0
289.0,1.710317883278268e+18,0.4608355091383812,0.384703196347032,0.3291891891891892,0.483492296404989,0.6098901098901099,0.4449116904962153,1195.0
290.0,1.7103178832882742e+18,0.4869451697127937,0.3972602739726027,0.3372972972972973,0.5064808021521154,0.6329670329670329,0.4432296047098402,1196.0
291.0,1.7103178832982738e+18,0.48433420365535246,0.4063926940639269,0.34486486486486484,0.5108828564441183,0.6494505494505495,0.45500420521446594,1197.0
292.0,1.7103178833082555e+18,0.4804177545691906,0.3995433789954338,0.34378378378378377,0.504035216434336,0.6307692307692307,0.4306139613120269,1192.0
293.0,1.7103178833182582e+18,0.4621409921671018,0.4269406392694064,0.35135135135135137,0.5079481535827831,0.6065934065934065,0.43650126156433977,1197.0
294.0,1.7103178833282714e+18,0.49738903394255873,0.4189497716894977,0.34756756756756757,0.4971875764245537,0.5989010989010989,0.4255677039529016,1192.0
295.0,1.710317883338259e+18,0.48825065274151436,0.4041095890410959,0.3308108108108108,0.5055025678650037,0.6450549450549451,0.45500420521446594,1196.0
296.0,1.7103178833482778e+18,0.45300261096605743,0.3995433789954338,0.3264864864864865,0.5035460992907801,0.6208791208791209,0.4314550042052145,1194.0
297.0,1.710317883358263e+18,0.48433420365535246,0.3904109589041096,0.33297297297297296,0.4988994864269993,0.6285714285714286,0.44575273338940286,1195.0
298.0,1.7103178833682634e+18,0.4595300261096606,0.4189497716894977,0.34216216216216216,0.4966984592809978,0.6241758241758242,0.43902439024390244,1195.0
299.0,1.7103178833782628e+18,0.4660574412532637,0.4235159817351598,0.3345945945945946,0.5001222792858889,0.6142857142857143,0.44238856181665265,1196.0
300.0,1.710317883388271e+18,0.49738903394255873,0.4269406392694064,0.33837837837837836,0.49523110785033014,0.6142857142857143,0.4306139613120269,1195.0
301.0,1.7103178833982648e+18,0.4347258485639687,0.3184931506849315,0.32756756756756755,0.48911714355588165,0.5791208791208792,0.43313708999158956,1194.0
302.0,1.7103178834082588e+18,0.48433420365535246,0.3767123287671233,0.3497297297297297,0.5047688921496698,0.6318681318681318,0.43566021867115223,1196.0
303.0,1.710317883418255e+18,0.47911227154047,0.4063926940639269,0.3318918918918919,0.5035460992907801,0.6329670329670329,0.44575273338940286,1196.0
304.0,1.7103178834282975e+18,0.4765013054830287,0.4497716894977169,0.3248648648648649,0.5033015407190022,0.6307692307692307,0.4373423044575273,1195.0
305.0,1.710317883438272e+18,0.4556135770234987,0.4200913242009132,0.3372972972972973,0.5064808021521154,0.6450549450549451,0.4280908326324643,1194.0
306.0,1.7103178834482593e+18,0.5104438642297651,0.4315068493150685,0.32972972972972975,0.5235999021765713,0.6813186813186813,0.4465937762825904,1197.0
307.0,1.7103178834582648e+18,0.5078328981723238,0.4646118721461187,0.3232432432432432,0.5138175593054537,0.6252747252747253,0.44238856181665265,1196.0
308.0,1.7103178834682578e+18,0.4347258485639687,0.317351598173516,0.3210810810810811,0.5037906578625581,0.6285714285714286,0.4306139613120269,1193.0
309.0,1.7103178834782587e+18,0.4451697127937337,0.4041095890410959,0.3291891891891892,0.5055025678650037,0.6318681318681318,0.4415475189234651,1194.0
310.0,1.710317883488258e+18,0.4516971279373368,0.3904109589041096,0.32972972972972975,0.5020787478601125,0.621978021978022,0.4247266610597141,1194.0
311.0,1.710317883498252e+18,0.49216710182767626,0.4098173515981735,0.3362162162162162,0.5111274150158963,0.6417582417582418,0.44575273338940286,1194.0
312.0,1.7103178835082573e+18,0.47389033942558745,0.430365296803653,0.3254054054054054,0.5084372707263389,0.6351648351648351,0.4482758620689655,1197.0
313.0,1.7103178835182554e+18,0.4804177545691906,0.4589041095890411,0.3427027027027027,0.5179750550256786,0.6362637362637362,0.44238856181665265,1198.0
314.0,1.7103178835282647e+18,0.4765013054830287,0.4235159817351598,0.34540540540540543,0.5035460992907801,0.6307692307692307,0.43986543313709,1197.0
315.0,1.7103178835382615e+18,0.5391644908616188,0.54337899543379,0.34486486486486484,0.5172413793103449,0.6505494505494506,0.45248107653490327,1197.0
316.0,1.7103178835482775e+18,0.48825065274151436,0.45662100456621,0.33783783783783783,0.49938860357055515,0.6131868131868132,0.4415475189234651,1197.0
317.0,1.7103178835582618e+18,0.47911227154047,0.4280821917808219,0.35567567567567565,0.5077035950110051,0.6329670329670329,0.4482758620689655,1195.0
318.0,1.710317883568267e+18,0.48172323759791125,0.4098173515981735,0.3481081081081081,0.5074590364392272,0.6208791208791209,0.4289318755256518,1196.0
319.0,1.7103178835783268e+18,0.4869451697127937,0.3972602739726027,0.3308108108108108,0.5057471264367817,0.6373626373626373,0.44575273338940286,1195.0
320.0,1.710317883588652e+18,0.4830287206266319,0.4600456621004566,0.3427027027027027,0.504524333577892,0.6241758241758242,0.4432296047098402,1197.0
321.0,1.7103178835982623e+18,0.4516971279373368,0.3824200913242009,0.34162162162162163,0.49229640498899485,0.6241758241758242,0.44575273338940286,1197.0
322.0,1.710317883608263e+18,0.46736292428198434,0.3710045662100457,0.3345945945945946,0.5055025678650037,0.6230769230769231,0.4373423044575273,1195.0
323.0,1.710317883618257e+18,0.46866840731070497,0.4372146118721461,0.3410810810810811,0.5047688921496698,0.6373626373626373,0.4415475189234651,1196.0
324.0,1.7103178836282665e+18,0.4804177545691906,0.408675799086758,0.34486486486486484,0.4930300807043287,0.610989010989011,0.44070647603027757,1199.0
325.0,1.7103178836382546e+18,0.4765013054830287,0.4531963470319635,0.3443243243243243,0.5221325507459036,0.6417582417582418,0.4440706476030278,1196.0
326.0,1.7103178836482378e+18,0.4621409921671018,0.4315068493150685,0.32594594594594595,0.5067253607238934,0.610989010989011,0.4449116904962153,1197.0
327.0,1.7103178836582633e+18,0.4725848563968668,0.4189497716894977,0.3491891891891892,0.49107361213010514,0.5758241758241758,0.432296047098402,1194.0
328.0,1.7103178836683e+18,0.4765013054830287,0.4315068493150685,0.34378378378378377,0.49816581071166544,0.6153846153846154,0.4415475189234651,1197.0
329.0,1.7103178836782804e+18,0.4869451697127937,0.4703196347031963,0.34162162162162163,0.49229640498899485,0.6208791208791209,0.4415475189234651,1196.0
330.0,1.7103178836882726e+18,0.4621409921671018,0.3641552511415525,0.3389189189189189,0.5015896307165566,0.6175824175824176,0.4373423044575273,1194.0
331.0,1.7103178836982643e+18,0.47780678851174935,0.408675799086758,0.3491891891891892,0.5020787478601125,0.6307692307692307,0.44575273338940286,1197.0
332.0,1.7103178837082703e+18,0.4386422976501306,0.363013698630137,0.3335135135135135,0.4969430178527757,0.5692307692307692,0.42977291841883936,1194.0
333.0,1.7103178837182848e+18,0.4765013054830287,0.4041095890410959,0.3372972972972973,0.512594766446564,0.6406593406593407,0.4507989907485282,1197.0
334.0,1.7103178837282685e+18,0.49477806788511747,0.4315068493150685,0.34216216216216216,0.5077035950110051,0.6241758241758242,0.43650126156433977,1197.0
335.0,1.710317883738261e+18,0.47911227154047,0.4041095890410959,0.3362162162162162,0.499877720714111,0.6120879120879121,0.44238856181665265,1200.0
336.0,1.7103178837482755e+18,0.47911227154047,0.4200913242009132,0.3389189189189189,0.4942528735632184,0.6120879120879121,0.43566021867115223,1198.0
337.0,1.7103178837582948e+18,0.4490861618798956,0.3504566210045662,0.3227027027027027,0.4854487649792125,0.6098901098901099,0.44238856181665265,1197.0
338.0,1.7103178837682834e+18,0.46475195822454307,0.3961187214611872,0.32972972972972975,0.4937637564196625,0.5978021978021978,0.4381833473507149,1195.0
339.0,1.7103178837782628e+18,0.47911227154047,0.4006849315068493,0.34594594594594597,0.5116165321594522,0.6450549450549451,0.4499579478553406,1196.0
340.0,1.7103178837882627e+18,0.4725848563968668,0.4178082191780822,0.3427027027027027,0.4979212521398875,0.6164835164835165,0.43566021867115223,1199.0
341.0,1.7103178837982628e+18,0.48433420365535246,0.410958904109589,0.33675675675675676,0.5050134507214478,0.6318681318681318,0.44575273338940286,1196.0
342.0,1.7103178838082806e+18,0.4765013054830287,0.4372146118721461,0.34162162162162163,0.5018341892883346,0.6241758241758242,0.4415475189234651,1197.0
343.0,1.7103178838182858e+18,0.48825065274151436,0.45662100456621,0.34864864864864864,0.491807287845439,0.6120879120879121,0.4381833473507149,1198.0
344.0,1.7103178838282675e+18,0.46344647519582244,0.4052511415525114,0.33675675675675676,0.5028124235754463,0.6307692307692307,0.432296047098402,1194.0
345.0,1.7103178838382646e+18,0.4869451697127937,0.4452054794520548,0.33513513513513515,0.512350207874786,0.6406593406593407,0.4507989907485282,1198.0
346.0,1.7103178838482852e+18,0.42036553524804177,0.3584474885844749,0.33675675675675676,0.5174859378821227,0.6285714285714286,0.43313708999158956,1193.0
347.0,1.7103178838582769e+18,0.4765013054830287,0.4223744292237443,0.34054054054054056,0.5094155050134507,0.6538461538461539,0.4482758620689655,1196.0
348.0,1.7103178838682698e+18,0.49216710182767626,0.4155251141552511,0.3345945945945946,0.5160185864514552,0.6329670329670329,0.44575273338940286,1197.0
349.0,1.7103178838782825e+18,0.4869451697127937,0.4143835616438356,0.3302702702702703,0.5138175593054537,0.6450549450549451,0.4482758620689655,1194.0
350.0,1.7103178838882642e+18,0.48433420365535246,0.454337899543379,0.34702702702702704,0.5023233064318905,0.6274725274725275,0.4381833473507149,1196.0
351.0,1.7103178838982646e+18,0.46344647519582244,0.4463470319634703,0.36162162162162165,0.5094155050134507,0.6362637362637362,0.4381833473507149,1195.0
352.0,1.7103178839082844e+18,0.4856396866840731,0.4246575342465753,0.3464864864864865,0.5062362435803375,0.6362637362637362,0.44238856181665265,1196.0
353.0,1.710317883918262e+18,0.5052219321148825,0.4965753424657534,0.3324324324324324,0.5074590364392272,0.6395604395604395,0.43566021867115223,1196.0
354.0,1.710317883928271e+18,0.47780678851174935,0.4315068493150685,0.3427027027027027,0.5096600635852286,0.6472527472527473,0.4449116904962153,1197.0
355.0,1.7103178839382717e+18,0.47127937336814624,0.386986301369863,0.33675675675675676,0.5015896307165566,0.6417582417582418,0.4482758620689655,1196.0
356.0,1.7103178839482683e+18,0.4765013054830287,0.4178082191780822,0.33513513513513515,0.5035460992907801,0.6329670329670329,0.43902439024390244,1197.0
357.0,1.7103178839582866e+18,0.4725848563968668,0.3915525114155251,0.3372972972972973,0.5033015407190022,0.6373626373626373,0.4373423044575273,1196.0
358.0,1.7103178839682665e+18,0.4725848563968668,0.4417808219178082,0.3389189189189189,0.4991440449987772,0.6175824175824176,0.4415475189234651,1197.0
359.0,1.7103178839782523e+18,0.4556135770234987,0.3995433789954338,0.3324324324324324,0.5067253607238934,0.6384615384615384,0.43650126156433977,1197.0
360.0,1.7103178839882657e+18,0.47780678851174935,0.4132420091324201,0.3362162162162162,0.5182196135974566,0.6472527472527473,0.43566021867115223,1197.0
361.0,1.7103178839982659e+18,0.45822454308093996,0.3881278538812785,0.34054054054054056,0.5086818292981169,0.6373626373626373,0.4415475189234651,1196.0
362.0,1.7103178840082929e+18,0.5287206266318538,0.5342465753424658,0.3318918918918919,0.5116165321594522,0.6450549450549451,0.43650126156433977,1196.0
363.0,1.7103178840182717e+18,0.4765013054830287,0.4200913242009132,0.33675675675675676,0.5064808021521154,0.6054945054945055,0.4306139613120269,1194.0
364.0,1.7103178840282698e+18,0.47127937336814624,0.4406392694063927,0.32756756756756755,0.4927855221325507,0.6142857142857143,0.44238856181665265,1195.0
365.0,1.7103178840382723e+18,0.49477806788511747,0.4075342465753425,0.3427027027027027,0.5084372707263389,0.6241758241758242,0.43566021867115223,1197.0
366.0,1.7103178840482685e+18,0.48825065274151436,0.5136986301369864,0.37027027027027026,0.4930300807043287,0.6164835164835165,0.43650126156433977,1197.0
367.0,1.7103178840582774e+18,0.46866840731070497,0.4029680365296804,0.3016216216216216,0.5072144778674492,0.6241758241758242,0.4415475189234651,1195.0
368.0,1.7103178840682693e+18,0.48433420365535246,0.3082191780821918,0.33135135135135135,0.5135730007336757,0.6362637362637362,0.4381833473507149,1195.0
369.0,1.7103178840782697e+18,0.4804177545691906,0.408675799086758,0.3356756756756757,0.5015896307165566,0.6241758241758242,0.43650126156433977,1194.0
370.0,1.7103178840882522e+18,0.48433420365535246,0.4315068493150685,0.35567567567567565,0.5035460992907801,0.634065934065934,0.44575273338940286,1195.0
371.0,1.7103178840982515e+18,0.49216710182767626,0.3915525114155251,0.33297297297297296,0.5118610907312301,0.6538461538461539,0.4541631623212784,1198.0
372.0,1.7103178841082924e+18,0.46866840731070497,0.3607305936073059,0.3264864864864865,0.5211543164587918,0.6428571428571429,0.4432296047098402,1197.0
373.0,1.7103178841182446e+18,0.4464751958224543,0.4029680365296804,0.3302702702702703,0.5152849107361213,0.6538461538461539,0.43986543313709,1194.0
374.0,1.7103178841282547e+18,0.4660574412532637,0.4178082191780822,0.31405405405405407,0.5015896307165566,0.6087912087912087,0.43566021867115223,1196.0
375.0,1.710317884138277e+18,0.48825065274151436,0.4611872146118721,0.3291891891891892,0.4927855221325507,0.6230769230769231,0.4432296047098402,1197.0
376.0,1.7103178841482668e+18,0.4765013054830287,0.4315068493150685,0.3427027027027027,0.5050134507214478,0.6318681318681318,0.44238856181665265,1197.0
377.0,1.7103178841582904e+18,0.47911227154047,0.410958904109589,0.32972972972972975,0.499877720714111,0.6241758241758242,0.4381833473507149,1195.0
378.0,1.710317884169362e+18,0.44386422976501305,0.319634703196347,0.33675675675675676,0.4971875764245537,0.6164835164835165,0.43566021867115223,1197.0
379.0,1.710317884178256e+18,0.48433420365535246,0.3698630136986301,0.30864864864864866,0.487649792125214,0.6318681318681318,0.43986543313709,1196.0
380.0,1.710317884188312e+18,0.4804177545691906,0.4372146118721461,0.33675675675675676,0.49767669356810956,0.6153846153846154,0.4381833473507149,1197.0
381.0,1.7103178841982787e+18,0.46866840731070497,0.3835616438356164,0.33513513513513515,0.49058449498654927,0.6098901098901099,0.4381833473507149,1199.0
382.0,1.71031788420828e+18,0.4621409921671018,0.410958904109589,0.33405405405405403,0.5099046221570066,0.6417582417582418,0.4339781328847771,1193.0
383.0,1.7103178842182807e+18,0.489556135770235,0.4143835616438356,0.2983783783783784,0.5055025678650037,0.6373626373626373,0.4465937762825904,1197.0
384.0,1.7103178842282775e+18,0.45822454308093996,0.3789954337899543,0.3281081081081081,0.5035460992907801,0.6296703296703297,0.4449116904962153,1195.0
385.0,1.7103178842382804e+18,0.47911227154047,0.4417808219178082,0.33675675675675676,0.5064808021521154,0.6395604395604395,0.44238856181665265,1197.0
386.0,1.7103178842482665e+18,0.48172323759791125,0.4646118721461187,0.3848648648648649,0.49205184641721694,0.6296703296703297,0.44238856181665265,1196.0
387.0,1.7103178842582625e+18,0.46736292428198434,0.4098173515981735,0.34486486486486484,0.5018341892883346,0.6175824175824176,0.44238856181665265,1195.0
388.0,1.7103178842682243e+18,0.48433420365535246,0.4166666666666667,0.33837837837837836,0.48911714355588165,0.5868131868131868,0.4507989907485282,1195.0
389.0,1.7103178842782804e+18,0.46736292428198434,0.4406392694063927,0.33837837837837836,0.5145512350207875,0.6252747252747253,0.43313708999158956,1192.0
390.0,1.7103178842882627e+18,0.489556135770235,0.4394977168949772,0.34756756756756757,0.4942528735632184,0.5923076923076923,0.43313708999158956,1194.0
391.0,1.7103178842982615e+18,0.48433420365535246,0.410958904109589,0.3254054054054054,0.5015896307165566,0.6296703296703297,0.4415475189234651,1195.0
392.0,1.7103178843082145e+18,0.4765013054830287,0.4520547945205479,0.33837837837837836,0.5062362435803375,0.6296703296703297,0.4465937762825904,1194.0
393.0,1.710317884318283e+18,0.48433420365535246,0.4189497716894977,0.3281081081081081,0.5172413793103449,0.6450549450549451,0.4339781328847771,1194.0
394.0,1.710317884328269e+18,0.4804177545691906,0.4292237442922374,0.32756756756756755,0.5072144778674492,0.5945054945054945,0.4314550042052145,1193.0
395.0,1.7103178843382582e+18,0.4725848563968668,0.4143835616438356,0.33513513513513515,0.5037906578625581,0.6274725274725275,0.4314550042052145,1194.0
396.0,1.7103178843482627e+18,0.42950391644908614,0.3310502283105023,0.3302702702702703,0.5096600635852286,0.6406593406593407,0.4415475189234651,1196.0
397.0,1.7103178843582881e+18,0.5404699738903395,0.4474885844748858,0.34594594594594597,0.5006113964294449,0.6373626373626373,0.4499579478553406,1196.0
398.0,1.7103178843682545e+18,0.48825065274151436,0.4018264840182648,0.3345945945945946,0.4815358278307655,0.5879120879120879,0.4381833473507149,1196.0
399.0,1.7103178843782556e+18,0.48825065274151436,0.4554794520547945,0.36,0.5008559550012228,0.6296703296703297,0.43650126156433977,1196.0
400.0,1.710317884388253e+18,0.4765013054830287,0.4121004566210046,0.33135135135135135,0.5147957935925654,0.6472527472527473,0.4449116904962153,1199.0
401.0,1.710317884398254e+18,0.4516971279373368,0.3892694063926941,0.3362162162162162,0.5211543164587918,0.6505494505494506,0.43650126156433977,1197.0
402.0,1.7103178844082683e+18,0.4425587467362924,0.3641552511415525,0.3237837837837838,0.499877720714111,0.6131868131868132,0.4415475189234651,1198.0
403.0,1.7103178844182536e+18,0.4869451697127937,0.4269406392694064,0.34054054054054056,0.5057471264367817,0.6329670329670329,0.4339781328847771,1194.0
404.0,1.7103178844282847e+18,0.46736292428198434,0.4052511415525114,0.3281081081081081,0.4913181707018831,0.6098901098901099,0.43650126156433977,1196.0
405.0,1.7103178844382405e+18,0.46344647519582244,0.4041095890410959,0.3302702702702703,0.5020787478601125,0.6230769230769231,0.42640874684608915,1193.0
406.0,1.7103178844482606e+18,0.4804177545691906,0.4189497716894977,0.3410810810810811,0.4913181707018831,0.6010989010989011,0.4440706476030278,1198.0
407.0,1.7103178844582577e+18,0.49477806788511747,0.4189497716894977,0.33945945945945943,0.5035460992907801,0.6241758241758242,0.4415475189234651,1194.0
408.0,1.710317884468259e+18,0.4621409921671018,0.3961187214611872,0.33675675675675676,0.5035460992907801,0.6274725274725275,0.4415475189234651,1197.0
409.0,1.7103178844782467e+18,0.4856396866840731,0.4143835616438356,0.30594594594594593,0.49938860357055515,0.6362637362637362,0.4482758620689655,1196.0
410.0,1.7103178844882563e+18,0.4765013054830287,0.3926940639269406,0.3281081081081081,0.4937637564196625,0.6362637362637362,0.44238856181665265,1196.0
411.0,1.7103178844982584e+18,0.46866840731070497,0.4269406392694064,0.33513513513513515,0.5133284421618978,0.6351648351648351,0.43650126156433977,1197.0
412.0,1.7103178845082875e+18,0.489556135770235,0.4577625570776256,0.3497297297297297,0.5023233064318905,0.6296703296703297,0.43986543313709,1195.0
413.0,1.7103178845182444e+18,0.46866840731070497,0.3926940639269406,0.32972972972972975,0.49767669356810956,0.6230769230769231,0.43650126156433977,1196.0
414.0,1.7103178845282514e+18,0.47389033942558745,0.4600456621004566,0.3497297297297297,0.5020787478601125,0.6274725274725275,0.4373423044575273,1195.0
415.0,1.710317884538257e+18,0.48172323759791125,0.4155251141552511,0.3372972972972973,0.5008559550012228,0.6065934065934065,0.4440706476030278,1195.0
416.0,1.7103178845482557e+18,0.49869451697127937,0.547945205479452,0.352972972972973,0.5030569821472243,0.6362637362637362,0.4465937762825904,1195.0
417.0,1.710317884558257e+18,0.47780678851174935,0.4200913242009132,0.33405405405405403,0.5025678650036683,0.6318681318681318,0.4415475189234651,1196.0
418.0,1.7103178845682563e+18,0.47127937336814624,0.4212328767123288,0.3291891891891892,0.46832966495475664,0.5736263736263736,0.4314550042052145,1191.0
419.0,1.7103178845782592e+18,0.45822454308093996,0.3824200913242009,0.3427027027027027,0.4942528735632184,0.6087912087912087,0.43986543313709,1197.0
420.0,1.7103178845882468e+18,0.45691906005221933,0.3915525114155251,0.32594594594594595,0.49498654927855223,0.6120879120879121,0.43566021867115223,1199.0
421.0,1.710317884598246e+18,0.48172323759791125,0.4132420091324201,0.3281081081081081,0.5199315235999021,0.6428571428571429,0.4348191757779647,1198.0
422.0,1.7103178846082662e+18,0.48433420365535246,0.3732876712328767,0.3264864864864865,0.504524333577892,0.6373626373626373,0.44238856181665265,1197.0
423.0,1.7103178846182497e+18,0.4660574412532637,0.4200913242009132,0.33513513513513515,0.5059916850085595,0.634065934065934,0.4373423044575273,1197.0
424.0,1.710317884628272e+18,0.46475195822454307,0.430365296803653,0.34054054054054056,0.5050134507214478,0.6131868131868132,0.43902439024390244,1196.0
425.0,1.710317884638254e+18,0.46866840731070497,0.4178082191780822,0.3232432432432432,0.5228662264612375,0.6362637362637362,0.4314550042052145,1193.0
426.0,1.7103178846482542e+18,0.4869451697127937,0.4394977168949772,0.3427027027027027,0.4996331621423331,0.6362637362637362,0.4449116904962153,1196.0
427.0,1.710317884658311e+18,0.4765013054830287,0.4178082191780822,0.34378378378378377,0.4871606749816581,0.5901098901098901,0.4381833473507149,1197.0
428.0,1.7103178846682547e+18,0.5052219321148825,0.4075342465753425,0.33405405405405403,0.5138175593054537,0.6538461538461539,0.45248107653490327,1198.0
429.0,1.7103178846782525e+18,0.46866840731070497,0.386986301369863,0.34324324324324323,0.504035216434336,0.6362637362637362,0.4432296047098402,1193.0
430.0,1.7103178846882563e+18,0.4725848563968668,0.410958904109589,0.35135135135135137,0.5015896307165566,0.6043956043956044,0.43986543313709,1196.0
431.0,1.7103178846982554e+18,0.45039164490861616,0.3904109589041096,0.33405405405405403,0.504279775006114,0.634065934065934,0.4339781328847771,1194.0
432.0,1.7103178847083062e+18,0.4595300261096606,0.4029680365296804,0.3324324324324324,0.4913181707018831,0.6010989010989011,0.432296047098402,1192.0
433.0,1.7103178847182472e+18,0.489556135770235,0.4383561643835616,0.36864864864864866,0.5023233064318905,0.6285714285714286,0.43986543313709,1197.0
434.0,1.7103178847282547e+18,0.4869451697127937,0.4189497716894977,0.3372972972972973,0.5055025678650037,0.6296703296703297,0.4449116904962153,1196.0
435.0,1.710317884738251e+18,0.5013054830287206,0.4748858447488584,0.3324324324324324,0.5096600635852286,0.6417582417582418,0.44238856181665265,1196.0
436.0,1.7103178847482573e+18,0.4869451697127937,0.4748858447488584,0.34,0.504524333577892,0.6362637362637362,0.44238856181665265,1196.0
437.0,1.710317884758256e+18,0.48433420365535246,0.4269406392694064,0.33837837837837836,0.49400831499144043,0.6252747252747253,0.4381833473507149,1196.0
438.0,1.7103178847682683e+18,0.4556135770234987,0.3938356164383562,0.33405405405405403,0.5055025678650037,0.6241758241758242,0.4289318755256518,1194.0
439.0,1.7103178847782671e+18,0.46866840731070497,0.3961187214611872,0.34486486486486484,0.5108828564441183,0.656043956043956,0.4482758620689655,1198.0
440.0,1.7103178847882647e+18,0.4830287206266319,0.4509132420091324,0.34162162162162163,0.5006113964294449,0.621978021978022,0.44238856181665265,1198.0
441.0,1.7103178847982636e+18,0.47780678851174935,0.4132420091324201,0.36108108108108106,0.5037906578625581,0.6274725274725275,0.43650126156433977,1199.0
442.0,1.7103178848082908e+18,0.4660574412532637,0.408675799086758,0.34486486486486484,0.48691611640988014,0.6054945054945055,0.42977291841883936,1193.0
443.0,1.7103178848182702e+18,0.46475195822454307,0.386986301369863,0.3227027027027027,0.5025678650036683,0.6296703296703297,0.4449116904962153,1197.0
444.0,1.7103178848282652e+18,0.47127937336814624,0.4006849315068493,0.3362162162162162,0.49327463927610665,0.5813186813186814,0.4339781328847771,1194.0
445.0,1.7103178848382656e+18,0.4516971279373368,0.4052511415525114,0.3362162162162162,0.48911714355588165,0.6252747252747253,0.4373423044575273,1196.0
446.0,1.7103178848482557e+18,0.4556135770234987,0.3755707762557078,0.3043243243243243,0.5055025678650037,0.6274725274725275,0.4314550042052145,1194.0
447.0,1.710317884858253e+18,0.48172323759791125,0.3949771689497717,0.3335135135135135,0.5006113964294449,0.6076923076923076,0.43566021867115223,1196.0
448.0,1.710317884868255e+18,0.47780678851174935,0.3961187214611872,0.32216216216216215,0.5074590364392272,0.634065934065934,0.4449116904962153,1197.0
449.0,1.710317884878259e+18,0.48825065274151436,0.408675799086758,0.33297297297297296,0.495964783565664,0.6175824175824176,0.4348191757779647,1196.0
450.0,1.710317884888263e+18,0.46736292428198434,0.430365296803653,0.3345945945945946,0.49327463927610665,0.6208791208791209,0.4373423044575273,1196.0
451.0,1.7103178848982523e+18,0.4869451697127937,0.4121004566210046,0.32756756756756755,0.5211543164587918,0.6758241758241759,0.4432296047098402,1195.0
452.0,1.710317884908303e+18,0.47780678851174935,0.3972602739726027,0.32432432432432434,0.5094155050134507,0.6098901098901099,0.43650126156433977,1196.0
453.0,1.7103178849182592e+18,0.43733681462140994,0.3687214611872146,0.32972972972972975,0.5072144778674492,0.634065934065934,0.4415475189234651,1196.0
454.0,1.7103178849282552e+18,0.4869451697127937,0.4292237442922374,0.34594594594594597,0.5057471264367817,0.634065934065934,0.4415475189234651,1197.0
455.0,1.7103178849382612e+18,0.4464751958224543,0.4280821917808219,0.34054054054054056,0.5035460992907801,0.6208791208791209,0.42304457527333894,1194.0
456.0,1.7103178849482588e+18,0.48172323759791125,0.4406392694063927,0.34216216216216216,0.5140621178772316,0.6406593406593407,0.4449116904962153,1198.0
457.0,1.7103178849582892e+18,0.5130548302872062,0.4189497716894977,0.33945945945945943,0.5020787478601125,0.634065934065934,0.4432296047098402,1196.0
458.0,1.7103178849683146e+18,0.46344647519582244,0.3858447488584475,0.3535135135135135,0.5191978478845684,0.6593406593406593,0.45836837678721615,1197.0
459.0,1.7103178849782546e+18,0.48172323759791125,0.4178082191780822,0.3427027027027027,0.5035460992907801,0.6307692307692307,0.43650126156433977,1198.0
460.0,1.7103178849882557e+18,0.47911227154047,0.4668949771689498,0.34378378378378377,0.495964783565664,0.6241758241758242,0.4381833473507149,1198.0
461.0,1.710317884998257e+18,0.45039164490861616,0.363013698630137,0.30648648648648646,0.5059916850085595,0.6450549450549451,0.43986543313709,1197.0
462.0,1.710317885008301e+18,0.4804177545691906,0.4223744292237443,0.3291891891891892,0.5103937393005625,0.6318681318681318,0.4449116904962153,1196.0
463.0,1.7103178850182518e+18,0.45430809399477806,0.3767123287671233,0.3372972972972973,0.49400831499144043,0.6098901098901099,0.432296047098402,1192.0
464.0,1.710317885028254e+18,0.4934725848563969,0.4497716894977169,0.3410810810810811,0.5011005135730008,0.6318681318681318,0.447434819175778,1197.0
465.0,1.7103178850382577e+18,0.47389033942558745,0.410958904109589,0.32432432432432434,0.48911714355588165,0.6274725274725275,0.4314550042052145,1195.0
466.0,1.7103178850482542e+18,0.47780678851174935,0.4052511415525114,0.34324324324324323,0.5055025678650037,0.6373626373626373,0.4507989907485282,1196.0
467.0,1.7103178850582676e+18,0.4412532637075718,0.3595890410958904,0.3551351351351351,0.5106382978723404,0.6230769230769231,0.43986543313709,1195.0
468.0,1.710317885068265e+18,0.48825065274151436,0.4737442922374429,0.34486486486486484,0.5089263878698949,0.6406593406593407,0.4415475189234651,1196.0
469.0,1.710317885078258e+18,0.49216710182767626,0.3984018264840183,0.33945945945945943,0.5011005135730008,0.6274725274725275,0.4348191757779647,1195.0
470.0,1.7103178850882524e+18,0.48433420365535246,0.4372146118721461,0.3372972972972973,0.47786744925409635,0.5912087912087912,0.43902439024390244,1194.0
471.0,1.7103178850982518e+18,0.4804177545691906,0.3972602739726027,0.3324324324324324,0.5037906578625581,0.6329670329670329,0.4381833473507149,1198.0
472.0,1.7103178851082698e+18,0.4830287206266319,0.4349315068493151,0.34594594594594597,0.5001222792858889,0.634065934065934,0.44575273338940286,1196.0
473.0,1.7103178851182525e+18,0.4765013054830287,0.3812785388127854,0.3427027027027027,0.48911714355588165,0.5846153846153846,0.4348191757779647,1196.0
474.0,1.7103178851282488e+18,0.4830287206266319,0.4315068493150685,0.37135135135135133,0.512350207874786,0.6450549450549451,0.4432296047098402,1196.0
475.0,1.7103178851382574e+18,0.4830287206266319,0.4235159817351598,0.33783783783783783,0.5067253607238934,0.6274725274725275,0.4381833473507149,1195.0
476.0,1.7103178851482557e+18,0.4464751958224543,0.3892694063926941,0.3124324324324324,0.4644167278063096,0.5263736263736264,0.4222035323801514,1194.0
477.0,1.7103178851582638e+18,0.48172323759791125,0.4121004566210046,0.3345945945945946,0.5030569821472243,0.6373626373626373,0.4381833473507149,1197.0
478.0,1.7103178851682609e+18,0.48433420365535246,0.4178082191780822,0.32972972972972975,0.5084372707263389,0.634065934065934,0.4499579478553406,1196.0
479.0,1.7103178851782607e+18,0.4556135770234987,0.3710045662100457,0.3372972972972973,0.504524333577892,0.6142857142857143,0.43566021867115223,1197.0
480.0,1.7103178851882614e+18,0.4725848563968668,0.4132420091324201,0.35243243243243244,0.5106382978723404,0.6274725274725275,0.4449116904962153,1200.0
481.0,1.710317885198256e+18,0.4621409921671018,0.3949771689497717,0.3372972972972973,0.5106382978723404,0.6384615384615384,0.43650126156433977,1196.0
482.0,1.7103178852082778e+18,0.48172323759791125,0.430365296803653,0.3410810810810811,0.5067253607238934,0.6329670329670329,0.4415475189234651,1197.0
483.0,1.7103178852182615e+18,0.48172323759791125,0.4075342465753425,0.3335135135135135,0.5011005135730008,0.6241758241758242,0.4415475189234651,1196.0
484.0,1.7103178852282816e+18,0.48825065274151436,0.4155251141552511,0.33945945945945943,0.4984103692834434,0.6296703296703297,0.4482758620689655,1195.0
485.0,1.7103178852382643e+18,0.47780678851174935,0.4132420091324201,0.3172972972972973,0.5050134507214478,0.6285714285714286,0.4306139613120269,1192.0
486.0,1.710317885248271e+18,0.48433420365535246,0.4280821917808219,0.33675675675675676,0.5035460992907801,0.6362637362637362,0.4482758620689655,1197.0
487.0,1.7103178852582833e+18,0.4830287206266319,0.3961187214611872,0.31513513513513514,0.49400831499144043,0.6197802197802198,0.43986543313709,1198.0
488.0,1.7103178852682824e+18,0.4869451697127937,0.4509132420091324,0.33297297297297296,0.5118610907312301,0.6406593406593407,0.44575273338940286,1196.0
489.0,1.710317885278278e+18,0.4869451697127937,0.454337899543379,0.33837837837837836,0.5050134507214478,0.6285714285714286,0.43902439024390244,1194.0
490.0,1.7103178852882744e+18,0.49216710182767626,0.4406392694063927,0.3427027027027027,0.5062362435803375,0.6516483516483517,0.43986543313709,1196.0
491.0,1.7103178852982748e+18,0.4608355091383812,0.386986301369863,0.3481081081081081,0.5187087307410124,0.6450549450549451,0.42640874684608915,1195.0
492.0,1.710317885308282e+18,0.48172323759791125,0.4212328767123288,0.33783783783783783,0.49498654927855223,0.6120879120879121,0.4449116904962153,1196.0
493.0,1.710317885318281e+18,0.48172323759791125,0.4269406392694064,0.33945945945945943,0.5057471264367817,0.6384615384615384,0.44238856181665265,1196.0
494.0,1.7103178853282744e+18,0.4765013054830287,0.4143835616438356,0.3335135135135135,0.5152849107361213,0.6406593406593407,0.4499579478553406,1197.0
495.0,1.7103178853382728e+18,0.4660574412532637,0.4143835616438356,0.34486486486486484,0.5187087307410124,0.6384615384615384,0.43566021867115223,1195.0
496.0,1.7103178853482744e+18,0.46866840731070497,0.4052511415525114,0.3372972972972973,0.504035216434336,0.621978021978022,0.43986543313709,1198.0
497.0,1.7103178853583101e+18,0.48172323759791125,0.432648401826484,0.34324324324324323,0.5037906578625581,0.6032967032967033,0.4314550042052145,1193.0
498.0,1.7103178853682757e+18,0.43994778067885115,0.4063926940639269,0.32972972972972975,0.4942528735632184,0.6153846153846154,0.43986543313709,1197.0
499.0,1.7103178853782781e+18,0.47389033942558745,0.4075342465753425,0.33297297297297296,0.5064808021521154,0.6307692307692307,0.43650126156433977,1198.0
500.0,1.7103178853882785e+18,0.48172323759791125,0.4132420091324201,0.32,0.5015896307165566,0.6285714285714286,0.44238856181665265,1199.0
501.0,1.7103178853982717e+18,0.47127937336814624,0.4509132420091324,0.3281081081081081,0.5062362435803375,0.6208791208791209,0.43902439024390244,1198.0
502.0,1.710317885408298e+18,0.47911227154047,0.4212328767123288,0.3237837837837838,0.5155294693078992,0.6450549450549451,0.4465937762825904,1196.0
503.0,1.7103178854182753e+18,0.46866840731070497,0.3915525114155251,0.32972972972972975,0.5182196135974566,0.6395604395604395,0.4381833473507149,1195.0
504.0,1.7103178854282888e+18,0.4765013054830287,0.4269406392694064,0.33297297297297296,0.5055025678650037,0.6494505494505495,0.4482758620689655,1196.0
505.0,1.7103178854382746e+18,0.49477806788511747,0.4223744292237443,0.3324324324324324,0.4871606749816581,0.6197802197802198,0.43313708999158956,1194.0
506.0,1.71031788544825e+18,0.4725848563968668,0.4121004566210046,0.312972972972973,0.512350207874786,0.6461538461538462,0.4482758620689655,1196.0
507.0,1.7103178854582436e+18,0.48172323759791125,0.4200913242009132,0.3318918918918919,0.5052580092932257,0.6285714285714286,0.4415475189234651,1196.0
508.0,1.7103178854682406e+18,0.4804177545691906,0.4223744292237443,0.3410810810810811,0.5064808021521154,0.634065934065934,0.4449116904962153,1197.0
509.0,1.710317885478258e+18,0.47911227154047,0.4589041095890411,0.3324324324324324,0.5003668378576669,0.6230769230769231,0.4339781328847771,1193.0
510.0,1.7103178854882514e+18,0.45300261096605743,0.3778538812785388,0.3216216216216216,0.49938860357055515,0.6175824175824176,0.4339781328847771,1194.0
511.0,1.7103178854982492e+18,0.489556135770235,0.4292237442922374,0.3232432432432432,0.5067253607238934,0.6175824175824176,0.4314550042052145,1196.0
512.0,1.710317885508254e+18,0.4765013054830287,0.410958904109589,0.33513513513513515,0.49938860357055515,0.6230769230769231,0.44070647603027757,1196.0
513.0,1.710317885518256e+18,0.4804177545691906,0.4246575342465753,0.34324324324324323,0.4937637564196625,0.634065934065934,0.44238856181665265,1197.0
514.0,1.7103178855282557e+18,0.4425587467362924,0.4052511415525114,0.3535135135135135,0.5094155050134507,0.6329670329670329,0.4415475189234651,1197.0
515.0,1.7103178855382656e+18,0.489556135770235,0.4200913242009132,0.3237837837837838,0.5103937393005625,0.6505494505494506,0.447434819175778,1197.0
516.0,1.7103178855482504e+18,0.48172323759791125,0.4200913242009132,0.33837837837837836,0.4954756664221081,0.6252747252747253,0.4415475189234651,1197.0
517.0,1.7103178855582456e+18,0.47780678851174935,0.3904109589041096,0.3232432432432432,0.5074590364392272,0.6384615384615384,0.4348191757779647,1195.0
518.0,1.7103178855682788e+18,0.4725848563968668,0.4337899543378995,0.3491891891891892,0.49767669356810956,0.6065934065934065,0.4415475189234651,1194.0
519.0,1.7103178855782548e+18,0.48172323759791125,0.4075342465753425,0.3356756756756757,0.48911714355588165,0.6428571428571429,0.4348191757779647,1200.0
520.0,1.710317885588253e+18,0.4765013054830287,0.410958904109589,0.3362162162162162,0.504524333577892,0.6450549450549451,0.45164003364171573,1200.0
521.0,1.710317885598251e+18,0.47911227154047,0.4155251141552511,0.34054054054054056,0.4715089263878699,0.5769230769230769,0.4247266610597141,1193.0
522.0,1.7103178856082496e+18,0.48172323759791125,0.5045662100456622,0.3302702702702703,0.5035460992907801,0.6450549450549451,0.4465937762825904,1198.0
523.0,1.7103178856182548e+18,0.4751958224543081,0.4554794520547945,0.34162162162162163,0.5089263878698949,0.6406593406593407,0.42977291841883936,1193.0
524.0,1.710317885628255e+18,0.46866840731070497,0.386986301369863,0.33135135135135135,0.5018341892883346,0.634065934065934,0.4440706476030278,1197.0
525.0,1.7103178856382574e+18,0.47911227154047,0.4394977168949772,0.33675675675675676,0.4954756664221081,0.6054945054945055,0.4306139613120269,1194.0
526.0,1.7103178856482534e+18,0.4595300261096606,0.3789954337899543,0.34162162162162163,0.5091709464416728,0.634065934065934,0.4507989907485282,1197.0
527.0,1.7103178856582538e+18,0.4856396866840731,0.410958904109589,0.3410810810810811,0.5020787478601125,0.6307692307692307,0.4415475189234651,1198.0
528.0,1.7103178856682627e+18,0.48172323759791125,0.4360730593607306,0.32594594594594595,0.5050134507214478,0.6274725274725275,0.4499579478553406,1197.0
529.0,1.71031788567826e+18,0.47780678851174935,0.3984018264840183,0.3389189189189189,0.5152849107361213,0.6483516483516484,0.4306139613120269,1194.0
530.0,1.7103178856882542e+18,0.49738903394255873,0.4200913242009132,0.3162162162162162,0.5030569821472243,0.6373626373626373,0.4465937762825904,1196.0
531.0,1.7103178856982738e+18,0.4765013054830287,0.4143835616438356,0.3308108108108108,0.49033993641477136,0.6098901098901099,0.432296047098402,1193.0
532.0,1.7103178857082604e+18,0.47127937336814624,0.3915525114155251,0.3335135135135135,0.47346539496209344,0.5989010989010989,0.4381833473507149,1197.0
533.0,1.710317885718261e+18,0.4660574412532637,0.3892694063926941,0.3227027027027027,0.4900953778429934,0.6076923076923076,0.43566021867115223,1197.0
534.0,1.7103178857282586e+18,0.45300261096605743,0.3972602739726027,0.34162162162162163,0.5057471264367817,0.6406593406593407,0.4482758620689655,1197.0
535.0,1.710317885738276e+18,0.4725848563968668,0.4212328767123288,0.3335135135135135,0.49033993641477136,0.6054945054945055,0.42304457527333894,1194.0
536.0,1.710317885748249e+18,0.4765013054830287,0.4052511415525114,0.33675675675675676,0.4986549278552213,0.6164835164835165,0.43986543313709,1196.0
537.0,1.710317885758245e+18,0.4621409921671018,0.4006849315068493,0.34,0.49107361213010514,0.6164835164835165,0.44911690496215306,1196.0
538.0,1.7103178857682675e+18,0.48172323759791125,0.4121004566210046,0.3481081081081081,0.504035216434336,0.6461538461538462,0.4507989907485282,1196.0
539.0,1.710317885778257e+18,0.4869451697127937,0.3881278538812785,0.35135135135135137,0.5062362435803375,0.6098901098901099,0.4289318755256518,1194.0
540.0,1.7103178857882542e+18,0.489556135770235,0.4474885844748858,0.35081081081081084,0.5037906578625581,0.6329670329670329,0.4432296047098402,1198.0
541.0,1.71031788579825e+18,0.4765013054830287,0.4132420091324201,0.33297297297297296,0.5047688921496698,0.6362637362637362,0.4381833473507149,1196.0
542.0,1.7103178858082568e+18,0.4516971279373368,0.4006849315068493,0.31567567567567567,0.508192712154561,0.6197802197802198,0.43313708999158956,1196.0
543.0,1.7103178858182518e+18,0.47911227154047,0.4178082191780822,0.33513513513513515,0.4773783321105405,0.5824175824175825,0.44575273338940286,1198.0
544.0,1.7103178858282831e+18,0.47127937336814624,0.4212328767123288,0.3372972972972973,0.48691611640988014,0.6230769230769231,0.4482758620689655,1196.0
545.0,1.7103178858382505e+18,0.4621409921671018,0.45662100456621,0.33675675675675676,0.4991440449987772,0.6384615384615384,0.44070647603027757,1197.0
546.0,1.7103178858482542e+18,0.48433420365535246,0.4246575342465753,0.3362162162162162,0.5111274150158963,0.6461538461538462,0.4465937762825904,1196.0
547.0,1.710317885858254e+18,0.48825065274151436,0.4235159817351598,0.34162162162162163,0.5037906578625581,0.6296703296703297,0.4381833473507149,1200.0
548.0,1.7103178858682614e+18,0.46736292428198434,0.4029680365296804,0.34054054054054056,0.5067253607238934,0.6329670329670329,0.4465937762825904,1197.0
549.0,1.7103178858782702e+18,0.4830287206266319,0.4132420091324201,0.3362162162162162,0.5084372707263389,0.6263736263736264,0.43650126156433977,1196.0
550.0,1.7103178858882604e+18,0.4869451697127937,0.4200913242009132,0.3232432432432432,0.5025678650036683,0.6362637362637362,0.4465937762825904,1196.0
551.0,1.7103178858982587e+18,0.47127937336814624,0.3721461187214612,0.33513513513513515,0.5003668378576669,0.6274725274725275,0.4381833473507149,1197.0
552.0,1.7103178859082563e+18,0.489556135770235,0.4235159817351598,0.3389189189189189,0.49645390070921985,0.6329670329670329,0.4482758620689655,1196.0
553.0,1.7103178859182638e+18,0.4856396866840731,0.4223744292237443,0.33945945945945943,0.4913181707018831,0.6054945054945055,0.43566021867115223,1200.0
554.0,1.7103178859282488e+18,0.47127937336814624,0.4052511415525114,0.31567567567567567,0.5025678650036683,0.6384615384615384,0.4482758620689655,1199.0
555.0,1.7103178859382525e+18,0.4934725848563969,0.3858447488584475,0.3362162162162162,0.5108828564441183,0.6241758241758242,0.4381833473507149,1197.0
556.0,1.710317885948253e+18,0.4621409921671018,0.3972602739726027,0.372972972972973,0.5196869650281243,0.6604395604395604,0.4449116904962153,1197.0
557.0,1.71031788595825e+18,0.4765013054830287,0.4075342465753425,0.3389189189189189,0.4974321349963316,0.6274725274725275,0.43650126156433977,1195.0
558.0,1.7103178859682847e+18,0.4765013054830287,0.4075342465753425,0.33783783783783783,0.4954756664221081,0.6230769230769231,0.4482758620689655,1196.0
559.0,1.7103178859782538e+18,0.45039164490861616,0.3892694063926941,0.33675675675675676,0.48691611640988014,0.6153846153846154,0.42640874684608915,1195.0
560.0,1.710317885988259e+18,0.48433420365535246,0.4121004566210046,0.31567567567567567,0.48324773783321107,0.6186813186813187,0.45836837678721615,1197.0
561.0,1.7103178859982584e+18,0.4804177545691906,0.4223744292237443,0.33837837837837836,0.5050134507214478,0.6362637362637362,0.4348191757779647,1197.0
562.0,1.7103178860082583e+18,0.4804177545691906,0.4143835616438356,0.32972972972972975,0.5001222792858889,0.6263736263736264,0.44575273338940286,1197.0
563.0,1.7103178860182577e+18,0.4751958224543081,0.4029680365296804,0.35621621621621624,0.5008559550012228,0.6274725274725275,0.4314550042052145,1195.0
564.0,1.7103178860282816e+18,0.46475195822454307,0.386986301369863,0.3254054054054054,0.5035460992907801,0.6153846153846154,0.4415475189234651,1197.0
565.0,1.710317886038255e+18,0.4869451697127937,0.4132420091324201,0.32594594594594595,0.499877720714111,0.6450549450549451,0.43902439024390244,1197.0
566.0,1.710317886048254e+18,0.48825065274151436,0.4360730593607306,0.35405405405405405,0.4954756664221081,0.610989010989011,0.43902439024390244,1196.0
567.0,1.710317886058255e+18,0.4869451697127937,0.4360730593607306,0.35081081081081084,0.5064808021521154,0.6351648351648351,0.44238856181665265,1195.0
568.0,1.7103178860682578e+18,0.4608355091383812,0.4394977168949772,0.34378378378378377,0.5062362435803375,0.634065934065934,0.43902439024390244,1195.0
569.0,1.710317886078254e+18,0.4869451697127937,0.4383561643835616,0.34,0.5094155050134507,0.6274725274725275,0.4348191757779647,1195.0
570.0,1.7103178860882555e+18,0.48825065274151436,0.4063926940639269,0.33945945945945943,0.49938860357055515,0.6186813186813187,0.4465937762825904,1196.0
571.0,1.710317886098259e+18,0.49216710182767626,0.4189497716894977,0.3324324324324324,0.4979212521398875,0.6230769230769231,0.43566021867115223,1197.0
572.0,1.7103178861082542e+18,0.4804177545691906,0.4098173515981735,0.33837837837837836,0.5003668378576669,0.5956043956043956,0.4482758620689655,1197.0
573.0,1.7103178861182444e+18,0.4608355091383812,0.4155251141552511,0.34162162162162163,0.5059916850085595,0.6274725274725275,0.4306139613120269,1192.0
574.0,1.7103178861282583e+18,0.49216710182767626,0.4155251141552511,0.3497297297297297,0.4827586206896552,0.5978021978021978,0.4432296047098402,1197.0
575.0,1.7103178861382436e+18,0.4412532637075718,0.3493150684931507,0.3389189189189189,0.5116165321594522,0.621978021978022,0.4255677039529016,1196.0
576.0,1.7103178861482716e+18,0.47911227154047,0.4246575342465753,0.33837837837837836,0.5089263878698949,0.6098901098901099,0.44238856181665265,1196.0
577.0,1.7103178861582487e+18,0.4556135770234987,0.4383561643835616,0.3216216216216216,0.5074590364392272,0.6021978021978022,0.4146341463414634,1193.0
578.0,1.7103178861682557e+18,0.4765013054830287,0.4006849315068493,0.32216216216216215,0.49620934213744194,0.6131868131868132,0.4449116904962153,1198.0
579.0,1.7103178861782413e+18,0.4765013054830287,0.3938356164383562,0.3254054054054054,0.5091709464416728,0.6362637362637362,0.44070647603027757,1199.0
580.0,1.7103178861882504e+18,0.46866840731070497,0.3824200913242009,0.3362162162162162,0.5035460992907801,0.6362637362637362,0.447434819175778,1200.0
581.0,1.7103178861982403e+18,0.48825065274151436,0.4132420091324201,0.33837837837837836,0.5201760821716801,0.6483516483516484,0.4339781328847771,1197.0
582.0,1.710317886208244e+18,0.4660574412532637,0.3732876712328767,0.34324324324324323,0.5057471264367817,0.6164835164835165,0.43986543313709,1197.0
583.0,1.7103178862182477e+18,0.4360313315926893,0.363013698630137,0.3216216216216216,0.45365615064808024,0.5494505494505495,0.4179983179142136,1195.0
584.0,1.7103178862282742e+18,0.489556135770235,0.4178082191780822,0.3345945945945946,0.5020787478601125,0.6362637362637362,0.447434819175778,1197.0
585.0,1.7103178862382446e+18,0.4556135770234987,0.3835616438356164,0.33513513513513515,0.5096600635852286,0.6197802197802198,0.4289318755256518,1194.0
586.0,1.7103178862482476e+18,0.4869451697127937,0.4075342465753425,0.35081081081081084,0.49474199070677427,0.6318681318681318,0.4482758620689655,1197.0
587.0,1.7103178862582492e+18,0.45822454308093996,0.3995433789954338,0.34864864864864864,0.512594766446564,0.643956043956044,0.43650126156433977,1197.0
588.0,1.7103178862682557e+18,0.47911227154047,0.4292237442922374,0.34702702702702704,0.5150403521643434,0.6538461538461539,0.4415475189234651,1196.0
589.0,1.7103178862782241e+18,0.4830287206266319,0.4223744292237443,0.30648648648648646,0.5047688921496698,0.6241758241758242,0.4339781328847771,1193.0
590.0,1.7103178862882493e+18,0.49738903394255873,0.4223744292237443,0.34054054054054056,0.5020787478601125,0.6329670329670329,0.4482758620689655,1197.0
591.0,1.7103178862982538e+18,0.4386422976501306,0.4200913242009132,0.34054054054054056,0.462949376375642,0.5945054945054945,0.4179983179142136,1193.0
592.0,1.710317886308262e+18,0.4908616187989556,0.3972602739726027,0.3427027027027027,0.5086818292981169,0.6538461538461539,0.45836837678721615,1199.0
593.0,1.7103178863182556e+18,0.4830287206266319,0.3550228310502283,0.32756756756756755,0.512594766446564,0.6516483516483517,0.43313708999158956,1193.0
594.0,1.7103178863282504e+18,0.48172323759791125,0.363013698630137,0.31945945945945947,0.4900953778429934,0.6021978021978022,0.44575273338940286,1197.0
595.0,1.7103178863382528e+18,0.4908616187989556,0.4280821917808219,0.3308108108108108,0.504279775006114,0.6285714285714286,0.4339781328847771,1195.0
596.0,1.710317886348254e+18,0.4856396866840731,0.4143835616438356,0.3286486486486486,0.4803130349718758,0.6054945054945055,0.4482758620689655,1197.0
597.0,1.7103178863582902e+18,0.43994778067885115,0.365296803652968,0.32756756756756755,0.4553680606505258,0.5043956043956044,0.4062237174095879,1193.0
598.0,1.710317886368256e+18,0.46344647519582244,0.454337899543379,0.3124324324324324,0.5047688921496698,0.6406593406593407,0.45500420521446594,1197.0
599.0,1.71031788637825e+18,0.5078328981723238,0.45662100456621,0.33837837837837836,0.5011005135730008,0.643956043956044,0.43650126156433977,1195.0
600.0,1.7103178863882506e+18,0.4765013054830287,0.4406392694063927,0.3318918918918919,0.4937637564196625,0.5901098901098901,0.44575273338940286,1197.0
601.0,1.7103178863982487e+18,0.4765013054830287,0.3949771689497717,0.3389189189189189,0.5047688921496698,0.6285714285714286,0.43650126156433977,1196.0
602.0,1.710317886408248e+18,0.4804177545691906,0.4212328767123288,0.3356756756756757,0.504035216434336,0.6274725274725275,0.4415475189234651,1196.0
603.0,1.7103178864182497e+18,0.4869451697127937,0.4143835616438356,0.3308108108108108,0.4991440449987772,0.6428571428571429,0.4415475189234651,1199.0
604.0,1.7103178864282596e+18,0.47127937336814624,0.4143835616438356,0.3318918918918919,0.4844705306921008,0.6076923076923076,0.44238856181665265,1195.0
605.0,1.7103178864382597e+18,0.4464751958224543,0.3824200913242009,0.33135135135135135,0.5133284421618978,0.6417582417582418,0.432296047098402,1194.0
606.0,1.7103178864482632e+18,0.47127937336814624,0.410958904109589,0.34594594594594597,0.5047688921496698,0.6274725274725275,0.43566021867115223,1197.0
607.0,1.7103178864582574e+18,0.4960835509138381,0.4600456621004566,0.3324324324324324,0.5201760821716801,0.6516483516483517,0.43650126156433977,1197.0
608.0,1.7103178864682747e+18,0.5026109660574413,0.4497716894977169,0.31513513513513514,0.504035216434336,0.6351648351648351,0.44575273338940286,1197.0
609.0,1.7103178864782438e+18,0.4725848563968668,0.4155251141552511,0.32054054054054054,0.5025678650036683,0.6329670329670329,0.43566021867115223,1196.0
610.0,1.7103178864882555e+18,0.4830287206266319,0.4132420091324201,0.34,0.5184641721692346,0.654945054945055,0.45500420521446594,1196.0
611.0,1.7103178864982505e+18,0.46475195822454307,0.386986301369863,0.3081081081081081,0.4443629249205185,0.521978021978022,0.4314550042052145,1193.0
612.0,1.7103178865082504e+18,0.4765013054830287,0.386986301369863,0.32756756756756755,0.5037906578625581,0.6395604395604395,0.4482758620689655,1198.0
613.0,1.7103178865182597e+18,0.4451697127937337,0.3710045662100457,0.3281081081081081,0.5147957935925654,0.6362637362637362,0.4280908326324643,1196.0
614.0,1.7103178865282557e+18,0.4934725848563969,0.4178082191780822,0.3497297297297297,0.4871606749816581,0.6087912087912087,0.4541631623212784,1197.0
615.0,1.7103178865382461e+18,0.4830287206266319,0.4257990867579909,0.34216216216216216,0.495720224993886,0.6296703296703297,0.432296047098402,1194.0
616.0,1.7103178865482668e+18,0.47911227154047,0.4372146118721461,0.2897297297297297,0.4969430178527757,0.643956043956044,0.45164003364171573,1197.0
617.0,1.710317886558253e+18,0.4464751958224543,0.430365296803653,0.2864864864864865,0.5238444607483492,0.6263736263736264,0.4381833473507149,1197.0
618.0,1.7103178865682627e+18,0.5156657963446475,0.4657534246575342,0.33513513513513515,0.5055025678650037,0.6164835164835165,0.43986543313709,1197.0
619.0,1.710317886578291e+18,0.49216710182767626,0.432648401826484,0.34054054054054056,0.4979212521398875,0.6230769230769231,0.4348191757779647,1197.0
620.0,1.7103178865882813e+18,0.47911227154047,0.4029680365296804,0.33945945945945943,0.5015896307165566,0.6252747252747253,0.4415475189234651,1195.0
621.0,1.7103178865982671e+18,0.46344647519582244,0.3824200913242009,0.33675675675675676,0.5008559550012228,0.6186813186813187,0.4348191757779647,1198.0
622.0,1.7103178866082836e+18,0.4556135770234987,0.3949771689497717,0.33837837837837836,0.47224260210320373,0.5362637362637362,0.4179983179142136,1193.0
623.0,1.7103178866182717e+18,0.47780678851174935,0.4452054794520548,0.35405405405405405,0.5223771093176816,0.6538461538461539,0.4381833473507149,1197.0
624.0,1.7103178866282683e+18,0.4869451697127937,0.4200913242009132,0.3410810810810811,0.49767669356810956,0.6318681318681318,0.4449116904962153,1195.0
625.0,1.7103178866382618e+18,0.4856396866840731,0.3767123287671233,0.29621621621621624,0.48740523355343607,0.6032967032967033,0.42977291841883936,1195.0
626.0,1.7103178866482634e+18,0.48825065274151436,0.4246575342465753,0.3643243243243243,0.504524333577892,0.6373626373626373,0.4440706476030278,1196.0
627.0,1.710317886658279e+18,0.47127937336814624,0.4041095890410959,0.31567567567567567,0.5096600635852286,0.6406593406593407,0.4415475189234651,1196.0
628.0,1.7103178866682785e+18,0.48172323759791125,0.4269406392694064,0.34216216216216216,0.4800684764000978,0.6230769230769231,0.45248107653490327,1197.0
629.0,1.710317886678273e+18,0.489556135770235,0.4212328767123288,0.33837837837837836,0.5157740278796772,0.6373626373626373,0.43650126156433977,1196.0
630.0,1.710317886688265e+18,0.4660574412532637,0.4155251141552511,0.3362162162162162,0.49645390070921985,0.6197802197802198,0.4306139613120269,1194.0
631.0,1.710317886698266e+18,0.4830287206266319,0.430365296803653,0.3124324324324324,0.512350207874786,0.6505494505494506,0.4314550042052145,1194.0
632.0,1.7103178867082772e+18,0.4765013054830287,0.4121004566210046,0.34594594594594597,0.5011005135730008,0.6329670329670329,0.4432296047098402,1195.0
633.0,1.7103178867182943e+18,0.489556135770235,0.4041095890410959,0.3345945945945946,0.5221325507459036,0.6494505494505495,0.43902439024390244,1196.0
634.0,1.7103178867282742e+18,0.4556135770234987,0.365296803652968,0.33405405405405403,0.5086818292981169,0.6329670329670329,0.45164003364171573,1194.0
635.0,1.7103178867382566e+18,0.49216710182767626,0.432648401826484,0.34486486486486484,0.5055025678650037,0.6428571428571429,0.43566021867115223,1196.0
636.0,1.7103178867482583e+18,0.4765013054830287,0.3938356164383562,0.31405405405405407,0.5013450721447786,0.6032967032967033,0.44238856181665265,1197.0
637.0,1.71031788675828e+18,0.47389033942558745,0.4406392694063927,0.33675675675675676,0.5035460992907801,0.6142857142857143,0.4381833473507149,1196.0
638.0,1.7103178867682596e+18,0.47389033942558745,0.386986301369863,0.31675675675675674,0.5028124235754463,0.6362637362637362,0.4499579478553406,1198.0
639.0,1.7103178867782561e+18,0.48172323759791125,0.4041095890410959,0.3389189189189189,0.5174859378821227,0.6395604395604395,0.43313708999158956,1196.0
640.0,1.710317886788256e+18,0.4621409921671018,0.4052511415525114,0.32756756756756755,0.4954756664221081,0.5945054945054945,0.4440706476030278,1198.0
641.0,1.7103178867982518e+18,0.4595300261096606,0.3561643835616438,0.34162162162162163,0.5035460992907801,0.6417582417582418,0.4381833473507149,1198.0
642.0,1.710317886808255e+18,0.4386422976501306,0.3710045662100457,0.33945945945945943,0.5069699192956714,0.6164835164835165,0.4415475189234651,1195.0
643.0,1.710317886818249e+18,0.49216710182767626,0.4269406392694064,0.34378378378378377,0.5138175593054537,0.6373626373626373,0.43313708999158956,1192.0
644.0,1.710317886828253e+18,0.4621409921671018,0.4132420091324201,0.30594594594594593,0.5091709464416728,0.6153846153846154,0.4415475189234651,1196.0
645.0,1.7103178868382502e+18,0.46475195822454307,0.4349315068493151,0.33675675675675676,0.49327463927610665,0.5978021978021978,0.4247266610597141,1195.0
646.0,1.7103178868482545e+18,0.4869451697127937,0.3972602739726027,0.3335135135135135,0.5006113964294449,0.6230769230769231,0.4449116904962153,1197.0
647.0,1.7103178868582577e+18,0.4621409921671018,0.4394977168949772,0.34324324324324323,0.5172413793103449,0.6362637362637362,0.4255677039529016,1195.0
648.0,1.7103178868682575e+18,0.46866840731070497,0.4132420091324201,0.34162162162162163,0.5079481535827831,0.6538461538461539,0.4482758620689655,1196.0
649.0,1.7103178868782666e+18,0.4934725848563969,0.4280821917808219,0.3308108108108108,0.5094155050134507,0.6373626373626373,0.44238856181665265,1195.0
650.0,1.7103178868882575e+18,0.489556135770235,0.3961187214611872,0.32756756756756755,0.4988994864269993,0.6120879120879121,0.44575273338940286,1197.0
651.0,1.71031788689826e+18,0.47911227154047,0.4143835616438356,0.3324324324324324,0.5023233064318905,0.6076923076923076,0.4314550042052145,1193.0
652.0,1.7103178869082593e+18,0.45822454308093996,0.3926940639269406,0.3237837837837838,0.5128393250183418,0.6252747252747253,0.44238856181665265,1195.0
653.0,1.7103178869182533e+18,0.5,0.4223744292237443,0.3264864864864865,0.5169968207385669,0.656043956043956,0.4415475189234651,1197.0
654.0,1.7103178869282542e+18,0.48433420365535246,0.4315068493150685,0.37351351351351353,0.4896062606994375,0.5967032967032967,0.4415475189234651,1196.0
655.0,1.710317886938255e+18,0.48172323759791125,0.4212328767123288,0.33405405405405403,0.5094155050134507,0.6395604395604395,0.43313708999158956,1194.0
656.0,1.7103178869482102e+18,0.48172323759791125,0.4235159817351598,0.33675675675675676,0.49229640498899485,0.6241758241758242,0.4440706476030278,1197.0
657.0,1.710317886958255e+18,0.47780678851174935,0.4006849315068493,0.34216216216216216,0.5018341892883346,0.6164835164835165,0.43313708999158956,1195.0
658.0,1.7103178869682606e+18,0.4660574412532637,0.3961187214611872,0.3318918918918919,0.5015896307165566,0.6186813186813187,0.45164003364171573,1197.0
659.0,1.7103178869782582e+18,0.48825065274151436,0.4143835616438356,0.33135135135135135,0.5030569821472243,0.6197802197802198,0.43650126156433977,1197.0
660.0,1.710317886988258e+18,0.5130548302872062,0.4577625570776256,0.34540540540540543,0.5086818292981169,0.6527472527472528,0.45164003364171573,1197.0
661.0,1.7103178869982582e+18,0.5026109660574413,0.4452054794520548,0.34486486486486484,0.5172413793103449,0.6593406593406593,0.43650126156433977,1196.0
662.0,1.710317887008259e+18,0.489556135770235,0.4372146118721461,0.33513513513513515,0.49474199070677427,0.6274725274725275,0.44070647603027757,1196.0
663.0,1.710317887018258e+18,0.489556135770235,0.4954337899543379,0.34162162162162163,0.5121056493030081,0.6395604395604395,0.4415475189234651,1197.0
664.0,1.7103178870282552e+18,0.47127937336814624,0.4006849315068493,0.3237837837837838,0.5143066764490095,0.6494505494505495,0.44575273338940286,1196.0
665.0,1.7103178870382612e+18,0.48825065274151436,0.4417808219178082,0.36972972972972973,0.499877720714111,0.6120879120879121,0.4339781328847771,1194.0
666.0,1.7103178870482593e+18,0.4751958224543081,0.3904109589041096,0.31351351351351353,0.4727317192467596,0.5637362637362637,0.4381833473507149,1197.0
667.0,1.7103178870582612e+18,0.4725848563968668,0.4075342465753425,0.3356756756756757,0.5025678650036683,0.6494505494505495,0.43566021867115223,1199.0
668.0,1.7103178870682624e+18,0.4660574412532637,0.4018264840182648,0.31675675675675674,0.4942528735632184,0.6065934065934065,0.4415475189234651,1197.0
669.0,1.7103178870782595e+18,0.4556135770234987,0.3835616438356164,0.3362162162162162,0.5003668378576669,0.6208791208791209,0.42977291841883936,1192.0
670.0,1.7103178870882596e+18,0.489556135770235,0.4200913242009132,0.3410810810810811,0.4984103692834434,0.6120879120879121,0.4381833473507149,1195.0
671.0,1.7103178870982577e+18,0.489556135770235,0.4680365296803653,0.3464864864864865,0.49620934213744194,0.6142857142857143,0.4306139613120269,1194.0
672.0,1.7103178871082578e+18,0.48825065274151436,0.4223744292237443,0.3427027027027027,0.5006113964294449,0.6263736263736264,0.45248107653490327,1196.0
673.0,1.710317887118246e+18,0.49216710182767626,0.4337899543378995,0.32216216216216215,0.5187087307410124,0.621978021978022,0.432296047098402,1194.0
674.0,1.7103178871282637e+18,0.4765013054830287,0.4726027397260274,0.34486486486486484,0.512350207874786,0.6329670329670329,0.4440706476030278,1197.0
675.0,1.7103178871385137e+18,0.47911227154047,0.4212328767123288,0.35081081081081084,0.4969430178527757,0.6230769230769231,0.42977291841883936,1195.0
676.0,1.710317887148266e+18,0.48433420365535246,0.430365296803653,0.32,0.5025678650036683,0.6285714285714286,0.4482758620689655,1198.0
677.0,1.7103178871582766e+18,0.46866840731070497,0.4280821917808219,0.36972972972972973,0.5018341892883346,0.6428571428571429,0.4381833473507149,1196.0
678.0,1.7103178871682767e+18,0.4830287206266319,0.4235159817351598,0.32432432432432434,0.49767669356810956,0.6241758241758242,0.4499579478553406,1196.0
679.0,1.7103178871782712e+18,0.489556135770235,0.4680365296803653,0.35621621621621624,0.4673514306676449,0.5879120879120879,0.4289318755256518,1194.0
680.0,1.7103178871882685e+18,0.45822454308093996,0.3835616438356164,0.33405405405405403,0.5223771093176816,0.6384615384615384,0.4440706476030278,1199.0
681.0,1.710317887198269e+18,0.47911227154047,0.408675799086758,0.33837837837837836,0.5025678650036683,0.6274725274725275,0.4306139613120269,1196.0
682.0,1.7103178872083005e+18,0.49216710182767626,0.4200913242009132,0.3302702702702703,0.4930300807043287,0.6186813186813187,0.44575273338940286,1196.0
683.0,1.7103178872182692e+18,0.46344647519582244,0.3767123287671233,0.3362162162162162,0.5018341892883346,0.6263736263736264,0.4339781328847771,1194.0
684.0,1.710317887228276e+18,0.4804177545691906,0.4178082191780822,0.34324324324324323,0.4786011249694302,0.5769230769230769,0.4381833473507149,1196.0
685.0,1.7103178872382712e+18,0.4608355091383812,0.3926940639269406,0.34378378378378377,0.5162631450232331,0.6582417582417582,0.4415475189234651,1196.0
686.0,1.7103178872482783e+18,0.4360313315926893,0.4269406392694064,0.31351351351351353,0.516507703595011,0.6417582417582418,0.44575273338940286,1195.0
687.0,1.7103178872582781e+18,0.489556135770235,0.4223744292237443,0.3216216216216216,0.5133284421618978,0.6406593406593407,0.43313708999158956,1193.0
688.0,1.710317887268286e+18,0.48825065274151436,0.4189497716894977,0.32756756756756755,0.5116165321594522,0.6428571428571429,0.4432296047098402,1197.0
689.0,1.7103178872782735e+18,0.4699738903394256,0.4417808219178082,0.3345945945945946,0.5064808021521154,0.6274725274725275,0.432296047098402,1192.0
690.0,1.7103178872882726e+18,0.47389033942558745,0.4121004566210046,0.3324324324324324,0.5035460992907801,0.6175824175824176,0.45836837678721615,1196.0
691.0,1.7103178872982738e+18,0.47127937336814624,0.4223744292237443,0.3356756756756757,0.504279775006114,0.6186813186813187,0.4314550042052145,1193.0
692.0,1.7103178873082995e+18,0.4765013054830287,0.4178082191780822,0.3389189189189189,0.49107361213010514,0.6164835164835165,0.447434819175778,1198.0
693.0,1.710317887318277e+18,0.49738903394255873,0.4360730593607306,0.3362162162162162,0.5008559550012228,0.6516483516483517,0.4381833473507149,1196.0
694.0,1.7103178873282847e+18,0.47127937336814624,0.4178082191780822,0.33783783783783783,0.5111274150158963,0.6494505494505495,0.4465937762825904,1197.0
695.0,1.7103178873382781e+18,0.4804177545691906,0.4155251141552511,0.33405405405405403,0.491562729273661,0.6230769230769231,0.42977291841883936,1194.0
696.0,1.7103178873482775e+18,0.4869451697127937,0.4394977168949772,0.3497297297297297,0.4988994864269993,0.6527472527472528,0.45500420521446594,1197.0
697.0,1.7103178873582756e+18,0.4830287206266319,0.4908675799086758,0.34324324324324323,0.5106382978723404,0.6241758241758242,0.4348191757779647,1196.0
698.0,1.7103178873682798e+18,0.4699738903394256,0.4212328767123288,0.3335135135135135,0.4925409635607728,0.6098901098901099,0.44238856181665265,1196.0
699.0,1.7103178873782784e+18,0.47780678851174935,0.4554794520547945,0.34486486486486484,0.49767669356810956,0.6153846153846154,0.4280908326324643,1195.0
700.0,1.7103178873882788e+18,0.46736292428198434,0.3938356164383562,0.3302702702702703,0.5150403521643434,0.6461538461538462,0.4482758620689655,1198.0
701.0,1.7103178873982636e+18,0.4869451697127937,0.432648401826484,0.3362162162162162,0.4966984592809978,0.6175824175824176,0.432296047098402,1196.0
702.0,1.7103178874082836e+18,0.47127937336814624,0.4269406392694064,0.34162162162162163,0.5035460992907801,0.6428571428571429,0.4449116904962153,1197.0
703.0,1.7103178874182804e+18,0.47780678851174935,0.4189497716894977,0.35783783783783785,0.4715089263878699,0.5648351648351648,0.42977291841883936,1194.0
704.0,1.7103178874282819e+18,0.4804177545691906,0.4041095890410959,0.34756756756756757,0.491562729273661,0.6153846153846154,0.4415475189234651,1195.0
705.0,1.7103178874382812e+18,0.47911227154047,0.3972602739726027,0.32216216216216215,0.512350207874786,0.6329670329670329,0.4314550042052145,1194.0
706.0,1.7103178874482783e+18,0.46866840731070497,0.3892694063926941,0.3162162162162162,0.5055025678650037,0.6318681318681318,0.4449116904962153,1194.0
707.0,1.710317887458278e+18,0.4765013054830287,0.4200913242009132,0.3372972972972973,0.5035460992907801,0.6087912087912087,0.4314550042052145,1194.0
708.0,1.7103178874682903e+18,0.4765013054830287,0.4178082191780822,0.34864864864864864,0.512350207874786,0.6505494505494506,0.44911690496215306,1199.0
709.0,1.7103178874782618e+18,0.49738903394255873,0.4360730593607306,0.3491891891891892,0.5008559550012228,0.6120879120879121,0.432296047098402,1192.0
710.0,1.710317887488265e+18,0.4869451697127937,0.4200913242009132,0.3372972972972973,0.5001222792858889,0.6472527472527473,0.456686291000841,1196.0
711.0,1.7103178874982787e+18,0.45822454308093996,0.3789954337899543,0.31891891891891894,0.4930300807043287,0.6197802197802198,0.432296047098402,1195.0
712.0,1.710317887508268e+18,0.48172323759791125,0.408675799086758,0.33837837837837836,0.5055025678650037,0.6307692307692307,0.44911690496215306,1197.0
713.0,1.7103178875182817e+18,0.48825065274151436,0.4315068493150685,0.34162162162162163,0.5152849107361213,0.6373626373626373,0.42977291841883936,1196.0
714.0,1.7103178875282813e+18,0.47780678851174935,0.4235159817351598,0.35405405405405405,0.5106382978723404,0.6329670329670329,0.4507989907485282,1199.0
715.0,1.7103178875382853e+18,0.48172323759791125,0.408675799086758,0.32,0.4883834678405478,0.6186813186813187,0.4280908326324643,1193.0
716.0,1.7103178875482852e+18,0.46736292428198434,0.45662100456621,0.3335135135135135,0.48373685497676694,0.6065934065934065,0.4499579478553406,1195.0
717.0,1.7103178875582636e+18,0.48825065274151436,0.4166666666666667,0.33837837837837836,0.5067253607238934,0.6329670329670329,0.43313708999158956,1195.0
718.0,1.710317887568286e+18,0.4660574412532637,0.3892694063926941,0.3124324324324324,0.48936170212765956,0.6164835164835165,0.4449116904962153,1196.0
719.0,1.710317887578286e+18,0.4830287206266319,0.4121004566210046,0.3108108108108108,0.48324773783321107,0.5989010989010989,0.432296047098402,1194.0
720.0,1.710317887588261e+18,0.4360313315926893,0.410958904109589,0.3308108108108108,0.4844705306921008,0.6087912087912087,0.4482758620689655,1197.0
721.0,1.7103178875982597e+18,0.4804177545691906,0.4178082191780822,0.3335135135135135,0.4991440449987772,0.6307692307692307,0.432296047098402,1194.0
722.0,1.7103178876082634e+18,0.4725848563968668,0.3858447488584475,0.33297297297297296,0.48985081927121543,0.6296703296703297,0.4533221194280908,1197.0
723.0,1.7103178876182897e+18,0.4556135770234987,0.4041095890410959,0.32432432432432434,0.4927855221325507,0.6164835164835165,0.4272497897392767,1192.0
724.0,1.7103178876282647e+18,0.4765013054830287,0.4132420091324201,0.32216216216216215,0.5079481535827831,0.6329670329670329,0.44238856181665265,1198.0
725.0,1.7103178876382884e+18,0.48433420365535246,0.4908675799086758,0.3335135135135135,0.5030569821472243,0.6164835164835165,0.42977291841883936,1193.0
726.0,1.710317887648272e+18,0.47127937336814624,0.4178082191780822,0.34540540540540543,0.5077035950110051,0.6417582417582418,0.44911690496215306,1197.0
727.0,1.7103178876582656e+18,0.4830287206266319,0.4166666666666667,0.33837837837837836,0.5169968207385669,0.6406593406593407,0.4339781328847771,1196.0
728.0,1.7103178876683062e+18,0.4830287206266319,0.4269406392694064,0.3389189189189189,0.4761555392516508,0.5989010989010989,0.4482758620689655,1196.0
729.0,1.710317887678272e+18,0.4869451697127937,0.4406392694063927,0.34756756756756757,0.49229640498899485,0.6,0.4238856181665265,1193.0
730.0,1.7103178876882609e+18,0.47911227154047,0.4018264840182648,0.29081081081081084,0.5020787478601125,0.6450549450549451,0.44911690496215306,1196.0
731.0,1.7103178876982607e+18,0.5182767624020888,0.4394977168949772,0.34486486486486484,0.4979212521398875,0.6208791208791209,0.43650126156433977,1198.0
732.0,1.7103178877082734e+18,0.4765013054830287,0.4018264840182648,0.32432432432432434,0.47933480068476403,0.5879120879120879,0.43902439024390244,1195.0
733.0,1.7103178877182984e+18,0.48172323759791125,0.4452054794520548,0.3286486486486486,0.5079481535827831,0.6197802197802198,0.4280908326324643,1195.0
734.0,1.7103178877282688e+18,0.4412532637075718,0.4634703196347032,0.33945945945945943,0.4827586206896552,0.6120879120879121,0.4449116904962153,1197.0
735.0,1.71031788773829e+18,0.49216710182767626,0.4269406392694064,0.34216216216216216,0.5067253607238934,0.6483516483516484,0.4381833473507149,1198.0
736.0,1.7103178877482737e+18,0.4765013054830287,0.4155251141552511,0.3389189189189189,0.5113719735876743,0.6406593406593407,0.447434819175778,1197.0
737.0,1.7103178877582943e+18,0.46736292428198434,0.4155251141552511,0.3335135135135135,0.48251406211787723,0.5538461538461539,0.4179983179142136,1193.0
738.0,1.7103178877682688e+18,0.47911227154047,0.4315068493150685,0.3302702702702703,0.512594766446564,0.6494505494505495,0.45164003364171573,1197.0
739.0,1.7103178877782602e+18,0.48433420365535246,0.4200913242009132,0.3372972972972973,0.5015896307165566,0.5989010989010989,0.42304457527333894,1193.0
740.0,1.7103178877882655e+18,0.4699738903394256,0.3949771689497717,0.33405405405405403,0.5191978478845684,0.6384615384615384,0.44911690496215306,1197.0
741.0,1.710317887798258e+18,0.45691906005221933,0.3710045662100457,0.32054054054054054,0.5084372707263389,0.6197802197802198,0.4247266610597141,1194.0
742.0,1.7103178878083008e+18,0.48825065274151436,0.4383561643835616,0.33675675675675676,0.5037906578625581,0.6329670329670329,0.4499579478553406,1196.0
743.0,1.7103178878182646e+18,0.49216710182767626,0.4531963470319635,0.34162162162162163,0.5055025678650037,0.6043956043956044,0.42304457527333894,1195.0
744.0,1.7103178878282944e+18,0.4908616187989556,0.4474885844748858,0.31891891891891894,0.48740523355343607,0.6032967032967033,0.4507989907485282,1197.0
745.0,1.7103178878382636e+18,0.49216710182767626,0.4292237442922374,0.3324324324324324,0.5013450721447786,0.6164835164835165,0.4222035323801514,1193.0
746.0,1.7103178878482596e+18,0.4869451697127937,0.4052511415525114,0.33945945945945943,0.5086818292981169,0.6351648351648351,0.45164003364171573,1197.0
747.0,1.7103178878583022e+18,0.49869451697127937,0.4406392694063927,0.34864864864864864,0.5270237221814624,0.6659340659340659,0.43650126156433977,1195.0
748.0,1.710317887868317e+18,0.42297650130548303,0.3767123287671233,0.3237837837837838,0.5240890193201272,0.6593406593406593,0.4558452481076535,1197.0
749.0,1.7103178878789064e+18,0.47389033942558745,0.4269406392694064,0.3389189189189189,0.5037906578625581,0.6252747252747253,0.4280908326324643,1190.0
750.0,1.7103178878882563e+18,0.5,0.4383561643835616,0.3481081081081081,0.5015896307165566,0.6384615384615384,0.4507989907485282,1197.0
751.0,1.7103178878982536e+18,0.47127937336814624,0.4052511415525114,0.3389189189189189,0.5228662264612375,0.656043956043956,0.43650126156433977,1198.0
752.0,1.710317887908258e+18,0.4765013054830287,0.4246575342465753,0.34378378378378377,0.5089263878698949,0.6362637362637362,0.44911690496215306,1195.0
753.0,1.7103178879182559e+18,0.4464751958224543,0.384703196347032,0.3362162162162162,0.4871606749816581,0.5857142857142857,0.4247266610597141,1193.0
754.0,1.710317887928251e+18,0.4765013054830287,0.4246575342465753,0.3535135135135135,0.5177304964539007,0.6472527472527473,0.45500420521446594,1196.0
755.0,1.7103178879382543e+18,0.4608355091383812,0.3984018264840183,0.3248648648648649,0.5072144778674492,0.6318681318681318,0.4222035323801514,1194.0
756.0,1.7103178879482504e+18,0.4830287206266319,0.432648401826484,0.3345945945945946,0.5033015407190022,0.6362637362637362,0.4558452481076535,1198.0
757.0,1.710317887958248e+18,0.4869451697127937,0.4726027397260274,0.31891891891891894,0.4986549278552213,0.634065934065934,0.4280908326324643,1194.0
758.0,1.710317887968253e+18,0.4765013054830287,0.4132420091324201,0.3124324324324324,0.5116165321594522,0.6186813186813187,0.4499579478553406,1197.0
759.0,1.7103178879782513e+18,0.4765013054830287,0.4166666666666667,0.33945945945945943,0.5147957935925654,0.6505494505494506,0.4348191757779647,1199.0
760.0,1.7103178879882929e+18,0.48825065274151436,0.430365296803653,0.3427027027027027,0.5108828564441183,0.6406593406593407,0.4432296047098402,1199.0
761.0,1.7103178879982505e+18,0.4830287206266319,0.4280821917808219,0.3410810810810811,0.5108828564441183,0.6395604395604395,0.43650126156433977,1198.0
762.0,1.7103178880082511e+18,0.4660574412532637,0.4166666666666667,0.33837837837837836,0.5106382978723404,0.6362637362637362,0.45836837678721615,1194.0
763.0,1.710317888018247e+18,0.46866840731070497,0.4269406392694064,0.3427027027027027,0.49474199070677427,0.6131868131868132,0.4255677039529016,1194.0
764.0,1.7103178880282532e+18,0.48172323759791125,0.4383561643835616,0.3691891891891892,0.49938860357055515,0.6450549450549451,0.44575273338940286,1197.0
765.0,1.710317888038265e+18,0.47389033942558745,0.4018264840182648,0.3237837837837838,0.5094155050134507,0.6659340659340659,0.43902439024390244,1196.0
766.0,1.7103178880482578e+18,0.48433420365535246,0.4075342465753425,0.33837837837837836,0.5099046221570066,0.6472527472527473,0.4482758620689655,1196.0
767.0,1.7103178880582554e+18,0.47780678851174935,0.4269406392694064,0.33297297297297296,0.5174859378821227,0.6384615384615384,0.4280908326324643,1192.0
768.0,1.7103178880682609e+18,0.4699738903394256,0.4052511415525114,0.3264864864864865,0.4996331621423331,0.610989010989011,0.4465937762825904,1198.0
769.0,1.7103178880782597e+18,0.47389033942558745,0.3904109589041096,0.33405405405405403,0.4984103692834434,0.6208791208791209,0.4247266610597141,1195.0
770.0,1.7103178880882563e+18,0.4830287206266319,0.4246575342465753,0.3427027027027027,0.5086818292981169,0.6428571428571429,0.45500420521446594,1195.0
771.0,1.7103178880982564e+18,0.4725848563968668,0.4132420091324201,0.33837837837837836,0.5008559550012228,0.6362637362637362,0.43566021867115223,1196.0
772.0,1.710317888108273e+18,0.4804177545691906,0.432648401826484,0.3302702702702703,0.5064808021521154,0.6505494505494506,0.45248107653490327,1195.0
773.0,1.710317888118257e+18,0.49216710182767626,0.5091324200913242,0.33675675675675676,0.5035460992907801,0.6373626373626373,0.43566021867115223,1196.0
774.0,1.710317888128261e+18,0.4804177545691906,0.4269406392694064,0.35135135135135137,0.4991440449987772,0.6241758241758242,0.44911690496215306,1200.0
775.0,1.7103178881382528e+18,0.48172323759791125,0.4280821917808219,0.3772972972972973,0.5101491807287846,0.6164835164835165,0.42304457527333894,1194.0
776.0,1.7103178881482511e+18,0.4725848563968668,0.4200913242009132,0.34324324324324323,0.491562729273661,0.5901098901098901,0.4558452481076535,1196.0
777.0,1.7103178881582646e+18,0.47780678851174935,0.410958904109589,0.3324324324324324,0.5094155050134507,0.643956043956044,0.43313708999158956,1195.0
778.0,1.7103178881682621e+18,0.4869451697127937,0.4406392694063927,0.33135135135135135,0.4996331621423331,0.6274725274725275,0.4482758620689655,1197.0
779.0,1.7103178881782482e+18,0.4321148825065274,0.4132420091324201,0.33405405405405403,0.5050134507214478,0.6263736263736264,0.4062237174095879,1194.0
780.0,1.7103178881882552e+18,0.4856396866840731,0.4474885844748858,0.34324324324324323,0.5213988750305698,0.6582417582417582,0.4592094196804037,1196.0
781.0,1.7103178881982515e+18,0.4660574412532637,0.4052511415525114,0.34162162162162163,0.5101491807287846,0.6406593406593407,0.4280908326324643,1193.0
782.0,1.7103178882082557e+18,0.47389033942558745,0.3881278538812785,0.3237837837837838,0.5172413793103449,0.667032967032967,0.45500420521446594,1195.0
783.0,1.7103178882182523e+18,0.49477806788511747,0.4737442922374429,0.33837837837837836,0.5162631450232331,0.6406593406593407,0.4415475189234651,1197.0
784.0,1.7103178882282463e+18,0.46866840731070497,0.3789954337899543,0.3254054054054054,0.5025678650036683,0.6274725274725275,0.4449116904962153,1197.0
785.0,1.7103178882382508e+18,0.4765013054830287,0.4315068493150685,0.3389189189189189,0.5028124235754463,0.6285714285714286,0.42640874684608915,1195.0
786.0,1.7103178882482527e+18,0.48825065274151436,0.4292237442922374,0.33675675675675676,0.5074590364392272,0.6373626373626373,0.44911690496215306,1197.0
787.0,1.710317888258259e+18,0.46866840731070497,0.4041095890410959,0.31945945945945947,0.5037906578625581,0.634065934065934,0.4289318755256518,1193.0
788.0,1.7103178882682624e+18,0.4869451697127937,0.4269406392694064,0.34162162162162163,0.5177304964539007,0.6681318681318681,0.45836837678721615,1197.0
789.0,1.710317888278275e+18,0.4725848563968668,0.4121004566210046,0.3286486486486486,0.504035216434336,0.6307692307692307,0.4280908326324643,1192.0
790.0,1.7103178882882575e+18,0.47911227154047,0.4018264840182648,0.3362162162162162,0.5006113964294449,0.6274725274725275,0.44911690496215306,1197.0
791.0,1.7103178882982605e+18,0.48172323759791125,0.4246575342465753,0.33513513513513515,0.5015896307165566,0.6329670329670329,0.4314550042052145,1194.0
792.0,1.7103178883082708e+18,0.46344647519582244,0.4018264840182648,0.33135135135135135,0.49229640498899485,0.6142857142857143,0.44238856181665265,1198.0
793.0,1.710317888318264e+18,0.489556135770235,0.4041095890410959,0.3318918918918919,0.508192712154561,0.6384615384615384,0.43566021867115223,1198.0
794.0,1.710317888328254e+18,0.47389033942558745,0.4132420091324201,0.3335135135135135,0.5035460992907801,0.634065934065934,0.4507989907485282,1197.0
795.0,1.7103178883382584e+18,0.47911227154047,0.4200913242009132,0.3362162162162162,0.5106382978723404,0.6373626373626373,0.4339781328847771,1194.0
796.0,1.7103178883482706e+18,0.46866840731070497,0.3904109589041096,0.2718918918918919,0.47126436781609193,0.5439560439560439,0.4247266610597141,1193.0
797.0,1.7103178883582502e+18,0.49869451697127937,0.4977168949771689,0.3345945945945946,0.4969430178527757,0.6362637362637362,0.43313708999158956,1195.0
798.0,1.7103178883682644e+18,0.4830287206266319,0.454337899543379,0.3324324324324324,0.495964783565664,0.6307692307692307,0.45164003364171573,1197.0
799.0,1.71031788837826e+18,0.49738903394255873,0.4292237442922374,0.33783783783783783,0.5008559550012228,0.6274725274725275,0.4213624894869638,1194.0
800.0,1.7103178883882596e+18,0.48433420365535246,0.3995433789954338,0.35027027027027025,0.5138175593054537,0.6538461538461539,0.45500420521446594,1197.0
801.0,1.7103178883982615e+18,0.4869451697127937,0.4292237442922374,0.33675675675675676,0.504035216434336,0.6285714285714286,0.432296047098402,1193.0
802.0,1.7103178884082637e+18,0.46475195822454307,0.3812785388127854,0.3627027027027027,0.5008559550012228,0.6285714285714286,0.4533221194280908,1197.0
803.0,1.7103178884182659e+18,0.47780678851174935,0.4052511415525114,0.33837837837837836,0.5074590364392272,0.6329670329670329,0.4247266610597141,1192.0
804.0,1.710317888428277e+18,0.47780678851174935,0.4589041095890411,0.3545945945945946,0.4986549278552213,0.5945054945054945,0.4432296047098402,1196.0
805.0,1.710317888438262e+18,0.4725848563968668,0.4223744292237443,0.34486486486486484,0.4927855221325507,0.610989010989011,0.4314550042052145,1195.0
806.0,1.7103178884482621e+18,0.4765013054830287,0.4132420091324201,0.33513513513513515,0.499877720714111,0.6296703296703297,0.44575273338940286,1196.0
807.0,1.710317888458271e+18,0.4765013054830287,0.4178082191780822,0.33297297297297296,0.5145512350207875,0.6450549450549451,0.42977291841883936,1194.0
808.0,1.7103178884682588e+18,0.43733681462140994,0.3675799086757991,0.30108108108108106,0.48202494497432136,0.6307692307692307,0.4432296047098402,1199.0
809.0,1.710317888478268e+18,0.4765013054830287,0.3938356164383562,0.32054054054054054,0.5084372707263389,0.6329670329670329,0.43566021867115223,1194.0
810.0,1.7103178884882708e+18,0.47911227154047,0.4143835616438356,0.3291891891891892,0.5003668378576669,0.6307692307692307,0.4465937762825904,1197.0
811.0,1.710317888498258e+18,0.4765013054830287,0.4200913242009132,0.33297297297297296,0.5025678650036683,0.6230769230769231,0.42977291841883936,1197.0
812.0,1.710317888508269e+18,0.4804177545691906,0.4178082191780822,0.3335135135135135,0.49620934213744194,0.6230769230769231,0.4449116904962153,1198.0
813.0,1.7103178885182671e+18,0.47389033942558745,0.4269406392694064,0.34054054054054056,0.49229640498899485,0.6175824175824176,0.4314550042052145,1195.0
814.0,1.7103178885282565e+18,0.4765013054830287,0.3984018264840183,0.33675675675675676,0.5113719735876743,0.634065934065934,0.45248107653490327,1198.0
815.0,1.71031788853827e+18,0.48172323759791125,0.4246575342465753,0.3318918918918919,0.5047688921496698,0.6274725274725275,0.4289318755256518,1193.0
816.0,1.7103178885482765e+18,0.4699738903394256,0.4041095890410959,0.32594594594594595,0.499877720714111,0.6285714285714286,0.4449116904962153,1196.0
817.0,1.7103178885582684e+18,0.4751958224543081,0.4063926940639269,0.3254054054054054,0.5050134507214478,0.6252747252747253,0.4314550042052145,1193.0
818.0,1.7103178885682757e+18,0.49738903394255873,0.454337899543379,0.34702702702702704,0.4883834678405478,0.610989010989011,0.4499579478553406,1196.0
819.0,1.7103178885782456e+18,0.4765013054830287,0.4029680365296804,0.34054054054054056,0.5037906578625581,0.6153846153846154,0.41968040370058873,1195.0
820.0,1.710317888588276e+18,0.47911227154047,0.4098173515981735,0.34324324324324323,0.5011005135730008,0.6373626373626373,0.4482758620689655,1197.0
821.0,1.7103178885982505e+18,0.46344647519582244,0.4018264840182648,0.35621621621621624,0.5103937393005625,0.6274725274725275,0.4280908326324643,1195.0
822.0,1.71031788860825e+18,0.4830287206266319,0.4143835616438356,0.3281081081081081,0.5118610907312301,0.6538461538461539,0.45248107653490327,1197.0
823.0,1.7103178886182697e+18,0.4765013054830287,0.4052511415525114,0.3227027027027027,0.5184641721692346,0.6373626373626373,0.4289318755256518,1194.0
824.0,1.7103178886282665e+18,0.49216710182767626,0.4383561643835616,0.3372972972972973,0.5006113964294449,0.6230769230769231,0.45164003364171573,1197.0
825.0,1.7103178886382523e+18,0.4751958224543081,0.4178082191780822,0.33783783783783783,0.5023233064318905,0.6197802197802198,0.432296047098402,1194.0
826.0,1.7103178886482555e+18,0.47127937336814624,0.4143835616438356,0.33297297297297296,0.5030569821472243,0.6307692307692307,0.45836837678721615,1197.0
827.0,1.7103178886582523e+18,0.48172323759791125,0.4223744292237443,0.34702702702702704,0.5015896307165566,0.6285714285714286,0.4348191757779647,1196.0
828.0,1.7103178886682468e+18,0.4804177545691906,0.4143835616438356,0.33837837837837836,0.5094155050134507,0.6417582417582418,0.45500420521446594,1196.0
829.0,1.710317888678255e+18,0.4830287206266319,0.408675799086758,0.3237837837837838,0.512594766446564,0.634065934065934,0.4314550042052145,1192.0
830.0,1.7103178886882496e+18,0.48172323759791125,0.4200913242009132,0.34054054054054056,0.5116165321594522,0.6406593406593407,0.45164003364171573,1197.0
831.0,1.7103178886982515e+18,0.49738903394255873,0.4372146118721461,0.34702702702702704,0.48324773783321107,0.6076923076923076,0.4339781328847771,1196.0
832.0,1.71031788870825e+18,0.45691906005221933,0.4223744292237443,0.3345945945945946,0.4969430178527757,0.6362637362637362,0.4465937762825904,1197.0
833.0,1.71031788871825e+18,0.48172323759791125,0.4029680365296804,0.3254054054054054,0.5030569821472243,0.6274725274725275,0.4339781328847771,1195.0
834.0,1.710317888728283e+18,0.4699738903394256,0.4075342465753425,0.3427027027027027,0.5006113964294449,0.6318681318681318,0.4415475189234651,1197.0
835.0,1.710317888738258e+18,0.47127937336814624,0.4178082191780822,0.3491891891891892,0.5067253607238934,0.634065934065934,0.43566021867115223,1197.0
836.0,1.7103178887482542e+18,0.46475195822454307,0.3812785388127854,0.33837837837837836,0.5074590364392272,0.6329670329670329,0.447434819175778,1197.0
837.0,1.7103178887582618e+18,0.47911227154047,0.4178082191780822,0.3372972972972973,0.49327463927610665,0.5989010989010989,0.42304457527333894,1194.0
838.0,1.710317888768282e+18,0.47389033942558745,0.4143835616438356,0.3318918918918919,0.48985081927121543,0.6021978021978022,0.44238856181665265,1196.0
839.0,1.7103178887782477e+18,0.4830287206266319,0.4178082191780822,0.31027027027027027,0.5182196135974566,0.6483516483516484,0.4289318755256518,1196.0
840.0,1.710317888788256e+18,0.46866840731070497,0.4246575342465753,0.3745945945945946,0.504035216434336,0.634065934065934,0.4482758620689655,1195.0
841.0,1.7103178887982456e+18,0.4804177545691906,0.4052511415525114,0.34486486486486484,0.5030569821472243,0.6241758241758242,0.4247266610597141,1196.0
842.0,1.7103178888082527e+18,0.4621409921671018,0.3767123287671233,0.3491891891891892,0.5020787478601125,0.6241758241758242,0.45248107653490327,1197.0
843.0,1.7103178888182508e+18,0.47127937336814624,0.3949771689497717,0.34216216216216216,0.5064808021521154,0.6164835164835165,0.4289318755256518,1194.0
844.0,1.7103178888282511e+18,0.48172323759791125,0.4132420091324201,0.3362162162162162,0.5020787478601125,0.6373626373626373,0.45248107653490327,1198.0
845.0,1.7103178888382659e+18,0.48825065274151436,0.4315068493150685,0.3248648648648649,0.4991440449987772,0.6197802197802198,0.4289318755256518,1192.0
846.0,1.7103178888482545e+18,0.46475195822454307,0.4429223744292237,0.3362162162162162,0.48985081927121543,0.6142857142857143,0.43986543313709,1193.0
847.0,1.7103178888582833e+18,0.4765013054830287,0.3995433789954338,0.3172972972972973,0.48495964783565665,0.5945054945054945,0.4280908326324643,1194.0
848.0,1.710317888868257e+18,0.47911227154047,0.4315068493150685,0.32756756756756755,0.5025678650036683,0.6373626373626373,0.44238856181665265,1197.0
849.0,1.7103178888782687e+18,0.48433420365535246,0.4360730593607306,0.3248648648648649,0.5055025678650037,0.6263736263736264,0.43902439024390244,1195.0
850.0,1.7103178888882668e+18,0.4412532637075718,0.386986301369863,0.3427027027027027,0.5018341892883346,0.6318681318681318,0.44238856181665265,1196.0
851.0,1.7103178888982618e+18,0.4608355091383812,0.3949771689497717,0.3345945945945946,0.512350207874786,0.634065934065934,0.43313708999158956,1195.0
852.0,1.710317888908263e+18,0.46475195822454307,0.410958904109589,0.3286486486486486,0.5172413793103449,0.6406593406593407,0.4465937762825904,1195.0
853.0,1.710317888918289e+18,0.46866840731070497,0.4132420091324201,0.33405405405405403,0.5057471264367817,0.6241758241758242,0.4213624894869638,1192.0
854.0,1.7103178889282578e+18,0.46866840731070497,0.4098173515981735,0.33405405405405403,0.46832966495475664,0.5747252747252747,0.43902439024390244,1196.0
855.0,1.7103178889382702e+18,0.4556135770234987,0.4634703196347032,0.3345945945945946,0.5111274150158963,0.6461538461538462,0.4314550042052145,1193.0
856.0,1.7103178889482788e+18,0.48172323759791125,0.4052511415525114,0.34216216216216216,0.5037906578625581,0.6164835164835165,0.44575273338940286,1196.0
857.0,1.7103178889582653e+18,0.47911227154047,0.4223744292237443,0.33837837837837836,0.4979212521398875,0.6,0.41968040370058873,1195.0
858.0,1.7103178889683236e+18,0.48172323759791125,0.4041095890410959,0.32756756756756755,0.5145512350207875,0.6395604395604395,0.45164003364171573,1195.0
859.0,1.710317888978258e+18,0.4464751958224543,0.3961187214611872,0.3291891891891892,0.5084372707263389,0.6274725274725275,0.42640874684608915,1195.0
860.0,1.7103178889882593e+18,0.47780678851174935,0.4372146118721461,0.34162162162162163,0.5025678650036683,0.6197802197802198,0.4499579478553406,1197.0
861.0,1.7103178889982548e+18,0.47911227154047,0.4178082191780822,0.3286486486486486,0.5067253607238934,0.6307692307692307,0.4247266610597141,1195.0
862.0,1.7103178890082644e+18,0.47780678851174935,0.4178082191780822,0.33513513513513515,0.5113719735876743,0.6516483516483517,0.4499579478553406,1197.0
863.0,1.7103178890182943e+18,0.48433420365535246,0.4246575342465753,0.3491891891891892,0.5094155050134507,0.6296703296703297,0.42977291841883936,1195.0
864.0,1.7103178890282532e+18,0.45691906005221933,0.3949771689497717,0.32,0.5133284421618978,0.6450549450549451,0.44575273338940286,1196.0
865.0,1.7103178890382607e+18,0.4908616187989556,0.4178082191780822,0.32756756756756755,0.5059916850085595,0.6098901098901099,0.4222035323801514,1196.0
866.0,1.7103178890482568e+18,0.4830287206266319,0.4223744292237443,0.33783783783783783,0.5069699192956714,0.634065934065934,0.4541631623212784,1200.0
867.0,1.710317889058261e+18,0.489556135770235,0.4349315068493151,0.3535135135135135,0.4927855221325507,0.6274725274725275,0.4306139613120269,1193.0
868.0,1.7103178890683003e+18,0.47389033942558745,0.3949771689497717,0.3081081081081081,0.5067253607238934,0.6494505494505495,0.4558452481076535,1196.0
869.0,1.7103178890782664e+18,0.4751958224543081,0.4041095890410959,0.33837837837837836,0.5084372707263389,0.6373626373626373,0.4289318755256518,1191.0
870.0,1.7103178890882545e+18,0.47780678851174935,0.4098173515981735,0.3410810810810811,0.495964783565664,0.6263736263736264,0.45164003364171573,1195.0
871.0,1.710317889098259e+18,0.47780678851174935,0.4155251141552511,0.33297297297297296,0.5133284421618978,0.6362637362637362,0.4213624894869638,1194.0
872.0,1.7103178891082609e+18,0.4386422976501306,0.4075342465753425,0.3491891891891892,0.5015896307165566,0.6098901098901099,0.4449116904962153,1199.0
873.0,1.710317889118272e+18,0.47127937336814624,0.3972602739726027,0.34162162162162163,0.4966984592809978,0.6274725274725275,0.43986543313709,1196.0
874.0,1.710317889128261e+18,0.47127937336814624,0.4052511415525114,0.3654054054054054,0.5015896307165566,0.6274725274725275,0.4415475189234651,1196.0
875.0,1.7103178891382671e+18,0.4869451697127937,0.4406392694063927,0.34756756756756757,0.512594766446564,0.6296703296703297,0.43902439024390244,1196.0
876.0,1.7103178891482755e+18,0.4556135770234987,0.386986301369863,0.33513513513513515,0.5018341892883346,0.6329670329670329,0.4482758620689655,1196.0
877.0,1.710317889158278e+18,0.46344647519582244,0.4041095890410959,0.3605405405405405,0.49816581071166544,0.6175824175824176,0.432296047098402,1194.0
878.0,1.710317889168267e+18,0.47911227154047,0.4098173515981735,0.34216216216216216,0.5015896307165566,0.6362637362637362,0.45164003364171573,1196.0
879.0,1.7103178891782876e+18,0.46344647519582244,0.4143835616438356,0.3372972972972973,0.5218879921741257,0.6417582417582418,0.4272497897392767,1194.0
880.0,1.710317889188269e+18,0.4595300261096606,0.4235159817351598,0.34054054054054056,0.5059916850085595,0.6285714285714286,0.44575273338940286,1199.0
881.0,1.710317889198263e+18,0.47127937336814624,0.4063926940639269,0.34324324324324323,0.48789435069699194,0.6076923076923076,0.4339781328847771,1196.0
882.0,1.7103178892082568e+18,0.49216710182767626,0.4315068493150685,0.34486486486486484,0.5067253607238934,0.6384615384615384,0.45500420521446594,1198.0
883.0,1.71031788921826e+18,0.46344647519582244,0.4098173515981735,0.3302702702702703,0.49767669356810956,0.5989010989010989,0.4188393608074012,1197.0
884.0,1.7103178892282808e+18,0.47127937336814624,0.408675799086758,0.33783783783783783,0.495964783565664,0.6208791208791209,0.4482758620689655,1196.0
885.0,1.710317889238258e+18,0.4804177545691906,0.4143835616438356,0.35621621621621624,0.49938860357055515,0.6208791208791209,0.4289318755256518,1193.0
886.0,1.7103178892482703e+18,0.48172323759791125,0.4223744292237443,0.34162162162162163,0.5015896307165566,0.6329670329670329,0.4482758620689655,1196.0
887.0,1.710317889258262e+18,0.47911227154047,0.4406392694063927,0.3227027027027027,0.4954756664221081,0.6098901098901099,0.42052144659377627,1194.0
888.0,1.7103178892682593e+18,0.4869451697127937,0.4417808219178082,0.33675675675675676,0.5047688921496698,0.6373626373626373,0.4440706476030278,1196.0
889.0,1.7103178892782707e+18,0.47780678851174935,0.4383561643835616,0.34486486486486484,0.5096600635852286,0.6285714285714286,0.4247266610597141,1194.0
890.0,1.7103178892882634e+18,0.46866840731070497,0.4041095890410959,0.3308108108108108,0.4925409635607728,0.6120879120879121,0.45164003364171573,1195.0
891.0,1.7103178892982784e+18,0.4699738903394256,0.4041095890410959,0.3372972972972973,0.5177304964539007,0.6659340659340659,0.4306139613120269,1196.0
892.0,1.7103178893082616e+18,0.44386422976501305,0.3892694063926941,0.3345945945945946,0.495964783565664,0.6307692307692307,0.44575273338940286,1195.0
893.0,1.7103178893182625e+18,0.4621409921671018,0.3892694063926941,0.31405405405405407,0.49107361213010514,0.6,0.4348191757779647,1196.0
894.0,1.7103178893283305e+18,0.47127937336814624,0.4018264840182648,0.29945945945945945,0.46539496209342135,0.589010989010989,0.4440706476030278,1196.0
895.0,1.710317889338261e+18,0.46736292428198434,0.4041095890410959,0.3286486486486486,0.504035216434336,0.6197802197802198,0.4213624894869638,1194.0
896.0,1.710317889348286e+18,0.48172323759791125,0.4041095890410959,0.3027027027027027,0.5025678650036683,0.6329670329670329,0.45164003364171573,1197.0
897.0,1.7103178893582597e+18,0.48825065274151436,0.4634703196347032,0.3286486486486486,0.5094155050134507,0.634065934065934,0.4280908326324643,1193.0
898.0,1.710317889368266e+18,0.47911227154047,0.4315068493150685,0.3362162162162162,0.4847150892638787,0.6098901098901099,0.45500420521446594,1197.0
899.0,1.7103178893782656e+18,0.4699738903394256,0.4235159817351598,0.3254054054054054,0.4944974321349963,0.6362637362637362,0.43566021867115223,1196.0
900.0,1.7103178893882726e+18,0.4934725848563969,0.4235159817351598,0.352972972972973,0.5030569821472243,0.6362637362637362,0.4507989907485282,1197.0
901.0,1.7103178893982615e+18,0.47389033942558745,0.4018264840182648,0.3372972972972973,0.5101491807287846,0.6208791208791209,0.42640874684608915,1196.0
902.0,1.7103178894082596e+18,0.46736292428198434,0.4075342465753425,0.33945945945945943,0.4971875764245537,0.6175824175824176,0.45164003364171573,1196.0
903.0,1.7103178894182548e+18,0.4556135770234987,0.4497716894977169,0.34054054054054056,0.516507703595011,0.6461538461538462,0.42977291841883936,1193.0
904.0,1.7103178894282588e+18,0.47127937336814624,0.4006849315068493,0.33837837837837836,0.5006113964294449,0.5857142857142857,0.44575273338940286,1197.0
905.0,1.7103178894382835e+18,0.48825065274151436,0.4235159817351598,0.33783783783783783,0.491807287845439,0.6043956043956044,0.4280908326324643,1192.0
906.0,1.710317889448374e+18,0.48172323759791125,0.4383561643835616,0.33783783783783783,0.5035460992907801,0.6351648351648351,0.4507989907485282,1195.0
907.0,1.7103178894582664e+18,0.4856396866840731,0.4178082191780822,0.3362162162162162,0.49082905355832723,0.6142857142857143,0.4255677039529016,1196.0
908.0,1.710317889468264e+18,0.47780678851174935,0.430365296803653,0.34702702702702704,0.504524333577892,0.6351648351648351,0.45500420521446594,1194.0
909.0,1.710317889478269e+18,0.4765013054830287,0.4383561643835616,0.33945945945945943,0.5033015407190022,0.621978021978022,0.42640874684608915,1191.0
910.0,1.710317889488269e+18,0.47911227154047,0.4292237442922374,0.33837837837837836,0.5037906578625581,0.6373626373626373,0.44911690496215306,1196.0
911.0,1.7103178894982584e+18,0.49738903394255873,0.4863013698630137,0.3464864864864865,0.48373685497676694,0.5857142857142857,0.4289318755256518,1192.0
912.0,1.7103178895082598e+18,0.47911227154047,0.384703196347032,0.33675675675675676,0.5072144778674492,0.6483516483516484,0.45836837678721615,1195.0
913.0,1.7103178895182636e+18,0.47127937336814624,0.4041095890410959,0.3324324324324324,0.5138175593054537,0.634065934065934,0.43313708999158956,1192.0
914.0,1.7103178895282893e+18,0.48825065274151436,0.4018264840182648,0.34054054054054056,0.5077035950110051,0.6384615384615384,0.45164003364171573,1196.0
915.0,1.7103178895382618e+18,0.47389033942558745,0.4235159817351598,0.35783783783783785,0.5079481535827831,0.6197802197802198,0.4247266610597141,1193.0
916.0,1.7103178895482708e+18,0.48172323759791125,0.4132420091324201,0.3491891891891892,0.5145512350207875,0.6604395604395604,0.4592094196804037,1197.0
917.0,1.7103178895582556e+18,0.48433420365535246,0.4417808219178082,0.3248648648648649,0.4988994864269993,0.6175824175824176,0.4272497897392767,1194.0
918.0,1.7103178895682557e+18,0.48433420365535246,0.4269406392694064,0.32972972972972975,0.5006113964294449,0.6296703296703297,0.45500420521446594,1197.0
919.0,1.710317889578257e+18,0.4765013054830287,0.4212328767123288,0.35243243243243244,0.4944974321349963,0.6087912087912087,0.42977291841883936,1193.0
920.0,1.7103178895882737e+18,0.4765013054830287,0.4041095890410959,0.33135135135135135,0.48226950354609927,0.5923076923076923,0.45164003364171573,1198.0
921.0,1.7103178895989379e+18,0.4765013054830287,0.3835616438356164,0.33837837837837836,0.5162631450232331,0.6505494505494506,0.4339781328847771,1194.0
922.0,1.7103178896082732e+18,0.44386422976501305,0.454337899543379,0.34540540540540543,0.5162631450232331,0.6593406593406593,0.4533221194280908,1196.0
923.0,1.710317889618268e+18,0.46475195822454307,0.4006849315068493,0.3286486486486486,0.5155294693078992,0.634065934065934,0.4348191757779647,1195.0
924.0,1.7103178896282796e+18,0.46475195822454307,0.3835616438356164,0.3091891891891892,0.5233553436047933,0.6428571428571429,0.45500420521446594,1194.0
925.0,1.7103178896382572e+18,0.4608355091383812,0.4041095890410959,0.34756756756756757,0.5008559550012228,0.6318681318681318,0.4272497897392767,1193.0
926.0,1.7103178896482514e+18,0.48172323759791125,0.4018264840182648,0.3335135135135135,0.49107361213010514,0.6164835164835165,0.45248107653490327,1193.0
927.0,1.710317889658258e+18,0.47911227154047,0.363013698630137,0.3264864864864865,0.4986549278552213,0.6461538461538462,0.4373423044575273,1196.0
928.0,1.710317889668264e+18,0.4660574412532637,0.3904109589041096,0.3345945945945946,0.495964783565664,0.5879120879120879,0.4449116904962153,1198.0
929.0,1.7103178896782927e+18,0.4765013054830287,0.4178082191780822,0.3091891891891892,0.5103937393005625,0.6384615384615384,0.4348191757779647,1195.0
930.0,1.7103178896882703e+18,0.4856396866840731,0.4200913242009132,0.3308108108108108,0.45805820494008315,0.5868131868131868,0.4465937762825904,1197.0
931.0,1.7103178896982633e+18,0.47127937336814624,0.4269406392694064,0.3345945945945946,0.5133284421618978,0.621978021978022,0.42304457527333894,1194.0
932.0,1.7103178897082673e+18,0.4856396866840731,0.4246575342465753,0.3481081081081081,0.5121056493030081,0.643956043956044,0.45836837678721615,1196.0
933.0,1.7103178897182638e+18,0.46736292428198434,0.4589041095890411,0.3362162162162162,0.4888725849841037,0.5813186813186814,0.4255677039529016,1194.0
934.0,1.7103178897282936e+18,0.4830287206266319,0.3984018264840183,0.33135135135135135,0.5116165321594522,0.6241758241758242,0.4465937762825904,1197.0
935.0,1.7103178897382628e+18,0.48825065274151436,0.4063926940639269,0.3178378378378378,0.4756664221080949,0.5505494505494506,0.4222035323801514,1192.0
936.0,1.7103178897482747e+18,0.4830287206266319,0.3835616438356164,0.3308108108108108,0.491562729273661,0.6307692307692307,0.45164003364171573,1197.0
937.0,1.7103178897582548e+18,0.48433420365535246,0.3949771689497717,0.32,0.5025678650036683,0.621978021978022,0.43902439024390244,1196.0
938.0,1.710317889768257e+18,0.4765013054830287,0.3949771689497717,0.31513513513513514,0.4996331621423331,0.6142857142857143,0.4499579478553406,1198.0
939.0,1.7103178897782577e+18,0.4725848563968668,0.4098173515981735,0.34162162162162163,0.4996331621423331,0.6241758241758242,0.43313708999158956,1195.0
940.0,1.7103178897882427e+18,0.46866840731070497,0.4178082191780822,0.34486486486486484,0.4966984592809978,0.6241758241758242,0.4499579478553406,1197.0
941.0,1.710317889798257e+18,0.4765013054830287,0.4178082191780822,0.3427027027027027,0.5055025678650037,0.6417582417582418,0.4314550042052145,1194.0
942.0,1.710317889808254e+18,0.4751958224543081,0.3904109589041096,0.33297297297297296,0.5143066764490095,0.6362637362637362,0.46173254835996635,1197.0
943.0,1.7103178898182587e+18,0.4464751958224543,0.4235159817351598,0.3362162162162162,0.5086818292981169,0.6230769230769231,0.4222035323801514,1193.0
944.0,1.7103178898282563e+18,0.49869451697127937,0.4611872146118721,0.3535135135135135,0.49058449498654927,0.6307692307692307,0.45836837678721615,1197.0
945.0,1.7103178898382564e+18,0.47127937336814624,0.4166666666666667,0.3545945945945946,0.5055025678650037,0.6285714285714286,0.4280908326324643,1196.0
946.0,1.7103178898482606e+18,0.47780678851174935,0.4098173515981735,0.3308108108108108,0.48642699926632427,0.6098901098901099,0.4449116904962153,1196.0
947.0,1.7103178898582717e+18,0.4856396866840731,0.4360730593607306,0.307027027027027,0.5023233064318905,0.6098901098901099,0.4280908326324643,1194.0
948.0,1.7103178898682488e+18,0.48172323759791125,0.4406392694063927,0.33135135135135135,0.5059916850085595,0.6450549450549451,0.45500420521446594,1198.0
949.0,1.7103178898782817e+18,0.4869451697127937,0.430365296803653,0.327027027027027,0.504524333577892,0.6373626373626373,0.4339781328847771,1192.0
950.0,1.710317889888254e+18,0.4765013054830287,0.4121004566210046,0.3318918918918919,0.43506969919295674,0.5340659340659341,0.4339781328847771,1193.0
951.0,1.7103178898982525e+18,0.48172323759791125,0.4280821917808219,0.33837837837837836,0.5079481535827831,0.6329670329670329,0.4247266610597141,1194.0
952.0,1.7103178899082557e+18,0.4699738903394256,0.4075342465753425,0.3345945945945946,0.48667155783810223,0.6131868131868132,0.44911690496215306,1197.0
953.0,1.710317889918248e+18,0.489556135770235,0.4063926940639269,0.36162162162162165,0.5035460992907801,0.6252747252747253,0.42977291841883936,1194.0
954.0,1.710317889928263e+18,0.49738903394255873,0.3812785388127854,0.35945945945945945,0.491562729273661,0.6274725274725275,0.4541631623212784,1197.0
955.0,1.7103178899382477e+18,0.48433420365535246,0.4063926940639269,0.33675675675675676,0.5050134507214478,0.6098901098901099,0.4339781328847771,1196.0
956.0,1.7103178899482552e+18,0.4869451697127937,0.4235159817351598,0.3497297297297297,0.49351919784788456,0.6384615384615384,0.45248107653490327,1197.0
957.0,1.7103178899582582e+18,0.46736292428198434,0.3835616438356164,0.3410810810810811,0.4969430178527757,0.6296703296703297,0.4280908326324643,1194.0
958.0,1.710317889968265e+18,0.4765013054830287,0.3915525114155251,0.3372972972972973,0.5008559550012228,0.6285714285714286,0.4499579478553406,1198.0
959.0,1.7103178899782574e+18,0.46866840731070497,0.4246575342465753,0.34,0.5011005135730008,0.6197802197802198,0.4306139613120269,1196.0
960.0,1.7103178899883804e+18,0.4934725848563969,0.4372146118721461,0.3410810810810811,0.4927855221325507,0.610989010989011,0.4507989907485282,1199.0
961.0,1.710317889998248e+18,0.47780678851174935,0.3789954337899543,0.3286486486486486,0.5118610907312301,0.6252747252747253,0.4280908326324643,1195.0
962.0,1.7103178900082593e+18,0.4660574412532637,0.3470319634703196,0.32594594594594595,0.5035460992907801,0.6307692307692307,0.4482758620689655,1197.0
963.0,1.7103178900182543e+18,0.46475195822454307,0.4143835616438356,0.3248648648648649,0.5128393250183418,0.6230769230769231,0.4213624894869638,1194.0
964.0,1.7103178900282534e+18,0.489556135770235,0.4531963470319635,0.34378378378378377,0.4883834678405478,0.6054945054945055,0.4465937762825904,1196.0
965.0,1.7103178900382756e+18,0.4751958224543081,0.4155251141552511,0.3491891891891892,0.5140621178772316,0.6384615384615384,0.4289318755256518,1195.0
966.0,1.7103178900482524e+18,0.47780678851174935,0.4269406392694064,0.31945945945945947,0.4991440449987772,0.6164835164835165,0.45164003364171573,1198.0
967.0,1.7103178900582684e+18,0.489556135770235,0.4623287671232877,0.33675675675675676,0.4984103692834434,0.6230769230769231,0.4339781328847771,1194.0
968.0,1.7103178900682588e+18,0.4830287206266319,0.4132420091324201,0.3410810810810811,0.5055025678650037,0.6395604395604395,0.4533221194280908,1199.0
969.0,1.7103178900782554e+18,0.47389033942558745,0.4143835616438356,0.33297297297297296,0.4937637564196625,0.6120879120879121,0.4179983179142136,1192.0
970.0,1.7103178900882662e+18,0.47127937336814624,0.4018264840182648,0.33297297297297296,0.5111274150158963,0.6450549450549451,0.4482758620689655,1199.0
971.0,1.710317890098252e+18,0.4621409921671018,0.3778538812785388,0.32594594594594595,0.512594766446564,0.6252747252747253,0.4247266610597141,1194.0
972.0,1.7103178901082573e+18,0.48172323759791125,0.4257990867579909,0.34702702702702704,0.4925409635607728,0.6164835164835165,0.4499579478553406,1198.0
973.0,1.7103178901182572e+18,0.47911227154047,0.4280821917808219,0.3464864864864865,0.4842259721203228,0.5769230769230769,0.4179983179142136,1194.0
974.0,1.7103178901282575e+18,0.46736292428198434,0.3926940639269406,0.3286486486486486,0.5055025678650037,0.6285714285714286,0.4533221194280908,1197.0
975.0,1.7103178901382868e+18,0.4490861618798956,0.3721461187214612,0.3237837837837838,0.5138175593054537,0.6384615384615384,0.42304457527333894,1193.0
976.0,1.710317890148267e+18,0.48825065274151436,0.4246575342465753,0.3178378378378378,0.5011005135730008,0.6098901098901099,0.44911690496215306,1197.0
977.0,1.7103178901582572e+18,0.47911227154047,0.4223744292237443,0.33945945945945943,0.5025678650036683,0.6373626373626373,0.4339781328847771,1194.0
978.0,1.7103178901682614e+18,0.4830287206266319,0.4189497716894977,0.3345945945945946,0.512350207874786,0.6450549450549451,0.4541631623212784,1194.0
979.0,1.7103178901782671e+18,0.4556135770234987,0.4052511415525114,0.3302702702702703,0.5130838835901198,0.6362637362637362,0.4247266610597141,1195.0
980.0,1.710317890188265e+18,0.47389033942558745,0.4006849315068493,0.33405405405405403,0.5008559550012228,0.634065934065934,0.4592094196804037,1197.0
981.0,1.71031789019826e+18,0.4725848563968668,0.4121004566210046,0.3345945945945946,0.49474199070677427,0.5978021978021978,0.4179983179142136,1193.0
982.0,1.7103178902082634e+18,0.4621409921671018,0.3812785388127854,0.3232432432432432,0.49498654927855223,0.6307692307692307,0.4440706476030278,1198.0
983.0,1.7103178902182625e+18,0.4556135770234987,0.408675799086758,0.33783783783783783,0.5062362435803375,0.6351648351648351,0.42304457527333894,1197.0
984.0,1.7103178902282627e+18,0.48433420365535246,0.4497716894977169,0.3427027027027027,0.5008559550012228,0.6098901098901099,0.4465937762825904,1197.0
985.0,1.7103178902382638e+18,0.4869451697127937,0.4189497716894977,0.34594594594594597,0.49767669356810956,0.610989010989011,0.4188393608074012,1193.0
986.0,1.7103178902482624e+18,0.48172323759791125,0.4474885844748858,0.3654054054054054,0.5157740278796772,0.6450549450549451,0.4533221194280908,1197.0
987.0,1.7103178902582638e+18,0.45822454308093996,0.4200913242009132,0.3254054054054054,0.4969430178527757,0.6197802197802198,0.4222035323801514,1195.0
988.0,1.710317890268266e+18,0.4765013054830287,0.454337899543379,0.3372972972972973,0.5020787478601125,0.6285714285714286,0.4608915054667788,1198.0
989.0,1.710317890278264e+18,0.4765013054830287,0.4200913242009132,0.3372972972972973,0.4925409635607728,0.6065934065934065,0.4280908326324643,1193.0
990.0,1.7103178902882721e+18,0.47127937336814624,0.4132420091324201,0.31945945945945947,0.5018341892883346,0.6197802197802198,0.447434819175778,1197.0
991.0,1.7103178902982666e+18,0.49216710182767626,0.4611872146118721,0.33783783783783783,0.4988994864269993,0.6230769230769231,0.41968040370058873,1195.0
992.0,1.7103178903082957e+18,0.47127937336814624,0.4052511415525114,0.3567567567567568,0.49938860357055515,0.6274725274725275,0.4507989907485282,1197.0
993.0,1.710317890318267e+18,0.4765013054830287,0.4235159817351598,0.3362162162162162,0.5128393250183418,0.6362637362637362,0.4306139613120269,1193.0
994.0,1.7103178903282665e+18,0.47389033942558745,0.408675799086758,0.3372972972972973,0.5006113964294449,0.6098901098901099,0.44575273338940286,1196.0
995.0,1.7103178903382674e+18,0.48825065274151436,0.3949771689497717,0.30594594594594593,0.4715089263878699,0.5791208791208792,0.42052144659377627,1195.0
996.0,1.7103178903482662e+18,0.5026109660574413,0.4178082191780822,0.312972972972973,0.5138175593054537,0.6593406593406593,0.45500420521446594,1197.0
997.0,1.710317890358246e+18,0.47911227154047,0.4212328767123288,0.33675675675675676,0.504524333577892,0.6241758241758242,0.4306139613120269,1194.0
998.0,1.7103178903682657e+18,0.4765013054830287,0.4098173515981735,0.33837837837837836,0.5006113964294449,0.6329670329670329,0.44911690496215306,1198.0
999.0,1.7103178903782536e+18,0.46344647519582244,0.4041095890410959,0.34054054054054056,0.49082905355832723,0.6010989010989011,0.4280908326324643,1195.0
