202.0,1.7103024517758574e+18,0.39947780678851175,0.432648401826484,0.36972972972972973,0.5015896307165566,0.6164835164835165,0.4238856181665265,1192.0
203.0,1.7103024517858627e+18,0.45039164490861616,0.3938356164383562,0.3345945945945946,0.5006113964294449,0.6483516483516484,0.3986543313708999,1194.0
204.0,1.71030245179586e+18,0.46344647519582244,0.4406392694063927,0.3232432432432432,0.5025678650036683,0.6461538461538462,0.45164003364171573,1197.0
205.0,1.7103024518058926e+18,0.5300261096605744,0.4075342465753425,0.32432432432432434,0.4991440449987772,0.6494505494505495,0.4381833473507149,1198.0
206.0,1.710302451815863e+18,0.46736292428198434,0.4417808219178082,0.33945945945945943,0.5035460992907801,0.6285714285714286,0.44070647603027757,1195.0
207.0,1.7103024518258583e+18,0.3237597911227154,0.3858447488584475,0.3210810810810811,0.4966984592809978,0.6142857142857143,0.41968040370058873,1193.0
208.0,1.7103024518358584e+18,0.6475195822454308,0.4726027397260274,0.3237837837837838,0.4979212521398875,0.578021978021978,0.4592094196804037,1195.0
209.0,1.7103024518458621e+18,0.4660574412532637,0.3789954337899543,0.3335135135135135,0.5079481535827831,0.5637362637362637,0.4533221194280908,1196.0
210.0,1.7103024518558577e+18,0.5182767624020888,0.4429223744292237,0.34054054054054056,0.5145512350207875,0.6384615384615384,0.4348191757779647,1197.0
211.0,1.71030245186586e+18,0.5234986945169713,0.4018264840182648,0.3427027027027027,0.5086818292981169,0.5978021978021978,0.4987384356602187,1196.0
212.0,1.7103024518758587e+18,0.42036553524804177,0.4429223744292237,0.3589189189189189,0.5025678650036683,0.5813186813186814,0.4095878889823381,1194.0
213.0,1.7103024518858604e+18,0.4804177545691906,0.3892694063926941,0.34486486486486484,0.4937637564196625,0.5802197802197803,0.41968040370058873,1192.0
214.0,1.710302451895861e+18,0.5352480417754569,0.5308219178082192,0.49945945945945946,0.5047688921496698,0.6857142857142857,0.4911690496215307,1196.0
215.0,1.7103024519058609e+18,0.4621409921671018,0.3824200913242009,0.3302702702702703,0.4986549278552213,0.6373626373626373,0.45500420521446594,1194.0
216.0,1.710302451915857e+18,0.3524804177545692,0.4280821917808219,0.3362162162162162,0.5028124235754463,0.5967032967032967,0.4314550042052145,1194.0
217.0,1.7103024519258573e+18,0.5130548302872062,0.4509132420091324,0.3972972972972973,0.5067253607238934,0.6989010989010989,0.45164003364171573,1197.0
218.0,1.7103024519358597e+18,0.48172323759791125,0.4360730593607306,0.3145945945945946,0.5050134507214478,0.6043956043956044,0.4255677039529016,1191.0
219.0,1.7103024519458627e+18,0.47127937336814624,0.4006849315068493,0.3108108108108108,0.49938860357055515,0.6274725274725275,0.4945332211942809,1195.0
220.0,1.710302451955858e+18,0.45039164490861616,0.4372146118721461,0.33675675675675676,0.5055025678650037,0.6230769230769231,0.4289318755256518,1192.0
221.0,1.7103024519658604e+18,0.4804177545691906,0.3949771689497717,0.3389189189189189,0.49498654927855223,0.621978021978022,0.44238856181665265,1196.0
222.0,1.710302451975856e+18,0.5287206266318538,0.4463470319634703,0.32594594594594595,0.5084372707263389,0.7098901098901099,0.4465937762825904,1196.0
223.0,1.7103024519858557e+18,0.5,0.386986301369863,0.3286486486486486,0.48985081927121543,0.5494505494505495,0.4222035323801514,1193.0
224.0,1.7103024519958577e+18,0.47911227154047,0.4246575342465753,0.29621621621621624,0.5050134507214478,0.6318681318681318,0.4238856181665265,1194.0
225.0,1.7103024520058593e+18,0.4425587467362924,0.3984018264840183,0.3043243243243243,0.5062362435803375,0.6637362637362637,0.41968040370058873,1193.0
226.0,1.7103024520158574e+18,0.4464751958224543,0.4406392694063927,0.3567567567567568,0.5037906578625581,0.6153846153846154,0.4415475189234651,1197.0
227.0,1.7103024520258588e+18,0.4164490861618799,0.410958904109589,0.34540540540540543,0.5025678650036683,0.6131868131868132,0.4415475189234651,1195.0
228.0,1.7103024520358554e+18,0.48172323759791125,0.45662100456621,0.33783783783783783,0.5096600635852286,0.6681318681318681,0.44911690496215306,1196.0
229.0,1.7103024520458573e+18,0.489556135770235,0.3949771689497717,0.3362162162162162,0.5037906578625581,0.6450549450549451,0.43902439024390244,1195.0
230.0,1.7103024520558564e+18,0.4073107049608355,0.3949771689497717,0.2875675675675676,0.4979212521398875,0.6076923076923076,0.42052144659377627,1194.0
231.0,1.7103024520658573e+18,0.45691906005221933,0.3812785388127854,0.2935135135135135,0.5035460992907801,0.6362637362637362,0.4339781328847771,1193.0
232.0,1.7103024520758605e+18,0.489556135770235,0.430365296803653,0.3345945945945946,0.5033015407190022,0.6230769230769231,0.4255677039529016,1194.0
233.0,1.710302452085862e+18,0.4516971279373368,0.4041095890410959,0.3308108108108108,0.4996331621423331,0.578021978021978,0.44238856181665265,1194.0
234.0,1.7103024520958605e+18,0.49869451697127937,0.4440639269406393,0.312972972972973,0.5025678650036683,0.6164835164835165,0.4659377628259041,1195.0
235.0,1.710302452105858e+18,0.4699738903394256,0.3664383561643836,0.3054054054054054,0.5001222792858889,0.6428571428571429,0.4222035323801514,1193.0
236.0,1.7103024521158625e+18,0.4960835509138381,0.4132420091324201,0.312972972972973,0.49767669356810956,0.6494505494505495,0.4247266610597141,1192.0
237.0,1.7103024521258527e+18,0.4073107049608355,0.4063926940639269,0.3605405405405405,0.504279775006114,0.6417582417582418,0.4415475189234651,1197.0
238.0,1.7103024521358546e+18,0.4725848563968668,0.45662100456621,0.38216216216216214,0.5030569821472243,0.689010989010989,0.4751892346509672,1194.0
239.0,1.710302452145855e+18,0.4869451697127937,0.4041095890410959,0.3302702702702703,0.5035460992907801,0.6406593406593407,0.4449116904962153,1196.0
240.0,1.710302452155872e+18,0.4908616187989556,0.4840182648401826,0.3945945945945946,0.5177304964539007,0.7230769230769231,0.46509671993271656,1197.0
241.0,1.710302452165857e+18,0.48433420365535246,0.3778538812785388,0.30864864864864866,0.4991440449987772,0.6318681318681318,0.44575273338940286,1197.0
242.0,1.71030245217588e+18,0.42297650130548303,0.4052511415525114,0.30972972972972973,0.499877720714111,0.5857142857142857,0.40454163162321277,1192.0
243.0,1.7103024521858524e+18,0.5404699738903395,0.4486301369863014,0.3605405405405405,0.512594766446564,0.6692307692307692,0.46509671993271656,1196.0
244.0,1.7103024521958564e+18,0.4386422976501306,0.4155251141552511,0.30864864864864866,0.5003668378576669,0.5648351648351648,0.4314550042052145,1193.0
245.0,1.7103024522058734e+18,0.4699738903394256,0.4052511415525114,0.3464864864864865,0.504524333577892,0.6329670329670329,0.45248107653490327,1195.0
246.0,1.7103024522158684e+18,0.5013054830287206,0.4474885844748858,0.36,0.4986549278552213,0.5769230769230769,0.4146341463414634,1193.0
247.0,1.7103024522258665e+18,0.49216710182767626,0.3926940639269406,0.3362162162162162,0.4971875764245537,0.6054945054945055,0.4280908326324643,1192.0
248.0,1.7103024522358592e+18,0.3668407310704961,0.4018264840182648,0.3037837837837838,0.5055025678650037,0.6274725274725275,0.4213624894869638,1192.0
249.0,1.710302452245862e+18,0.5195822454308094,0.4463470319634703,0.4010810810810811,0.5028124235754463,0.6032967032967033,0.46846089150546677,1196.0
250.0,1.7103024522558572e+18,0.4516971279373368,0.4269406392694064,0.32756756756756755,0.5106382978723404,0.6714285714285714,0.4507989907485282,1196.0
251.0,1.7103024522658609e+18,0.5065274151436031,0.4246575342465753,0.39675675675675676,0.5025678650036683,0.5769230769230769,0.4499579478553406,1194.0
252.0,1.7103024522758518e+18,0.39295039164490864,0.4075342465753425,0.32594594594594595,0.5047688921496698,0.6879120879120879,0.415475189234651,1193.0
253.0,1.710302452285854e+18,0.48172323759791125,0.3949771689497717,0.3016216216216216,0.5035460992907801,0.5505494505494506,0.43566021867115223,1194.0
254.0,1.7103024522958523e+18,0.5678851174934726,0.4589041095890411,0.372972972972973,0.5006113964294449,0.5274725274725275,0.3776282590412111,1193.0
255.0,1.7103024523058588e+18,0.5992167101827677,0.45662100456621,0.3816216216216216,0.5062362435803375,0.6142857142857143,0.4381833473507149,1195.0
256.0,1.7103024523158907e+18,0.4765013054830287,0.4360730593607306,0.32,0.5094155050134507,0.6934065934065934,0.4289318755256518,1194.0
257.0,1.710302452325859e+18,0.40339425587467365,0.3778538812785388,0.3210810810810811,0.5143066764490095,0.7527472527472527,0.4306139613120269,1192.0
258.0,1.7103024523358548e+18,0.5026109660574413,0.4143835616438356,0.312972972972973,0.4781120078258743,0.6285714285714286,0.4314550042052145,1193.0
259.0,1.7103024523458534e+18,0.4608355091383812,0.3561643835616438,0.2810810810810811,0.5006113964294449,0.6241758241758242,0.43566021867115223,1197.0
260.0,1.7103024523558533e+18,0.39295039164490864,0.4052511415525114,0.30486486486486486,0.49816581071166544,0.6153846153846154,0.4095878889823381,1194.0
261.0,1.7103024523658831e+18,0.45430809399477806,0.4417808219178082,0.32972972972972975,0.5162631450232331,0.6505494505494506,0.4247266610597141,1193.0
262.0,1.710302452375863e+18,0.39295039164490864,0.3778538812785388,0.3005405405405405,0.49229640498899485,0.521978021978022,0.4255677039529016,1194.0
263.0,1.7103024523858668e+18,0.4869451697127937,0.3972602739726027,0.3345945945945946,0.4913181707018831,0.6285714285714286,0.3994953742640875,1192.0
264.0,1.7103024523958595e+18,0.45822454308093996,0.4269406392694064,0.292972972972973,0.5035460992907801,0.6274725274725275,0.43566021867115223,1196.0
265.0,1.7103024524058583e+18,0.3785900783289817,0.341324200913242,0.31891891891891894,0.5035460992907801,0.6384615384615384,0.4179983179142136,1193.0
266.0,1.710302452415888e+18,0.4908616187989556,0.4200913242009132,0.3497297297297297,0.5035460992907801,0.6296703296703297,0.3742640874684609,1192.0
267.0,1.7103024524258537e+18,0.6005221932114883,0.5136986301369864,0.49783783783783786,0.5177304964539007,0.7274725274725274,0.48359966358284273,1196.0
268.0,1.7103024524358502e+18,0.5052219321148825,0.4189497716894977,0.2945945945945946,0.5030569821472243,0.5637362637362637,0.4129520605550883,1195.0
269.0,1.71030245244585e+18,0.48433420365535246,0.3904109589041096,0.3162162162162162,0.49620934213744194,0.5043956043956044,0.5021026072329688,1195.0
270.0,1.7103024524558538e+18,0.3981723237597911,0.4075342465753425,0.3264864864864865,0.5003668378576669,0.6604395604395604,0.42052144659377627,1194.0
271.0,1.7103024524658732e+18,0.6775456919060052,0.4178082191780822,0.30486486486486486,0.5143066764490095,0.765934065934066,0.488645920941968,1197.0
272.0,1.710302452475879e+18,0.4830287206266319,0.4063926940639269,0.3254054054054054,0.4930300807043287,0.6318681318681318,0.4095878889823381,1194.0
273.0,1.7103024524858693e+18,0.370757180156658,0.4132420091324201,0.36108108108108106,0.49767669356810956,0.6945054945054945,0.4247266610597141,1195.0
274.0,1.7103024524958592e+18,0.5652741514360313,0.4600456621004566,0.38054054054054054,0.5079481535827831,0.6637362637362637,0.4247266610597141,1192.0
275.0,1.710302452505862e+18,0.31070496083550914,0.3447488584474886,0.33405405405405403,0.49523110785033014,0.489010989010989,0.3860386879730866,1194.0
276.0,1.7103024525158966e+18,0.391644908616188,0.4372146118721461,0.32216216216216215,0.5240890193201272,0.5934065934065934,0.24558452481076534,1193.0
277.0,1.7103024525258593e+18,0.5091383812010444,0.3584474885844749,0.2410810810810811,0.48911714355588165,0.6813186813186813,0.3675357443229605,1196.0
278.0,1.71030245253585e+18,0.5039164490861618,0.4200913242009132,0.3081081081081081,0.5003668378576669,0.5747252747252747,0.4255677039529016,1194.0
279.0,1.7103024525458435e+18,0.34986945169712796,0.4280821917808219,0.39297297297297296,0.5025678650036683,0.5791208791208792,0.4751892346509672,1195.0
280.0,1.710302452555849e+18,0.5078328981723238,0.5,0.3627027027027027,0.5157740278796772,0.734065934065934,0.42052144659377627,1195.0
281.0,1.7103024525658496e+18,0.4608355091383812,0.3767123287671233,0.32432432432432434,0.48202494497432136,0.3373626373626374,0.407905803195963,1192.0
282.0,1.7103024525758533e+18,0.52088772845953,0.3881278538812785,0.31027027027027027,0.4996331621423331,0.7087912087912088,0.43986543313709,1196.0
283.0,1.7103024525858578e+18,0.44778067885117495,0.3344748858447489,0.2654054054054054,0.5079481535827831,0.7076923076923077,0.4339781328847771,1192.0
284.0,1.7103024525958587e+18,0.4007832898172324,0.4223744292237443,0.33297297297297296,0.5025678650036683,0.5362637362637362,0.42052144659377627,1193.0
285.0,1.7103024526058563e+18,0.5926892950391645,0.3436073059360731,0.32594594594594595,0.5057471264367817,0.7472527472527473,0.41968040370058873,1194.0
286.0,1.7103024526158694e+18,0.4086161879895561,0.4200913242009132,0.3183783783783784,0.5062362435803375,0.6538461538461539,0.38519764507989906,1194.0
287.0,1.7103024526258547e+18,0.5,0.4292237442922374,0.3583783783783784,0.491807287845439,0.4582417582417582,0.3641715727502103,1194.0
288.0,1.7103024526358692e+18,0.40339425587467365,0.4018264840182648,0.2745945945945946,0.4996331621423331,0.6252747252747253,0.4381833473507149,1196.0
289.0,1.7103024526458831e+18,0.4516971279373368,0.3550228310502283,0.3027027027027027,0.49107361213010514,0.5439560439560439,0.4179983179142136,1193.0
290.0,1.710302452655857e+18,0.30678851174934724,0.3710045662100457,0.32756756756756755,0.5055025678650037,0.7648351648351648,0.479394449116905,1196.0
291.0,1.7103024526658593e+18,0.5104438642297651,0.4269406392694064,0.3308108108108108,0.4991440449987772,0.6362637362637362,0.4373423044575273,1195.0
292.0,1.7103024526758574e+18,0.3002610966057441,0.3881278538812785,0.3145945945945946,0.5015896307165566,0.667032967032967,0.3809924306139613,1194.0
293.0,1.710302452685862e+18,0.5313315926892951,0.4360730593607306,0.447027027027027,0.5057471264367817,0.6659340659340659,0.45164003364171573,1195.0
294.0,1.7103024526958574e+18,0.42297650130548303,0.3835616438356164,0.2891891891891892,0.483492296404989,0.45384615384615384,0.3540790580319596,1192.0
295.0,1.7103024527058596e+18,0.5456919060052219,0.4589041095890411,0.3567567567567568,0.5184641721692346,0.8417582417582418,0.5290159798149706,1197.0
296.0,1.7103024527167882e+18,0.44386422976501305,0.4041095890410959,0.3,0.4942528735632184,0.5340659340659341,0.4247266610597141,1196.0
297.0,1.7103024527258516e+18,0.49738903394255873,0.3812785388127854,0.3081081081081081,0.5086818292981169,0.843956043956044,0.4785534062237174,1196.0
298.0,1.7103024527358487e+18,0.5887728459530026,0.4748858447488584,0.32,0.5047688921496698,0.6648351648351648,0.43986543313709,1195.0
299.0,1.710302452745861e+18,0.41383812010443866,0.3641552511415525,0.2913513513513514,0.4900953778429934,0.5197802197802198,0.4415475189234651,1195.0
300.0,1.7103024527558577e+18,0.5104438642297651,0.4394977168949772,0.3389189189189189,0.5074590364392272,0.7153846153846154,0.4751892346509672,1198.0
301.0,1.7103024527659116e+18,0.4451697127937337,0.4280821917808219,0.3708108108108108,0.5018341892883346,0.7417582417582418,0.4482758620689655,1195.0
302.0,1.7103024527758705e+18,0.4046997389033943,0.4235159817351598,0.3286486486486486,0.5008559550012228,0.7428571428571429,0.4634146341463415,1196.0
303.0,1.7103024527858647e+18,0.5300261096605744,0.4269406392694064,0.4205405405405405,0.5018341892883346,0.6604395604395604,0.40454163162321277,1193.0
304.0,1.7103024527958582e+18,0.37597911227154046,0.3984018264840183,0.35567567567567565,0.5030569821472243,0.4153846153846154,0.4861227922624054,1196.0
305.0,1.7103024528058588e+18,0.4073107049608355,0.3824200913242009,0.312972972972973,0.5015896307165566,0.6802197802197802,0.45248107653490327,1196.0
306.0,1.7103024528158794e+18,0.4699738903394256,0.4029680365296804,0.2897297297297297,0.495964783565664,0.7857142857142857,0.375946173254836,1194.0
307.0,1.710302452825868e+18,0.5326370757180157,0.4805936073059361,0.40324324324324323,0.4991440449987772,0.5065934065934066,0.5063078216989066,1195.0
308.0,1.7103024528358746e+18,0.5052219321148825,0.4406392694063927,0.3172972972972973,0.5140621178772316,0.743956043956044,0.4373423044575273,1195.0
309.0,1.7103024528458655e+18,0.4621409921671018,0.4200913242009132,0.4016216216216216,0.5047688921496698,0.7021978021978021,0.47098402018502944,1196.0
310.0,1.7103024528558582e+18,0.48825065274151436,0.4394977168949772,0.2735135135135135,0.5121056493030081,0.7362637362637363,0.496215306980656,1194.0
311.0,1.710302452865877e+18,0.47127937336814624,0.3698630136986301,0.3183783783783784,0.4969430178527757,0.6153846153846154,0.4381833473507149,1196.0
312.0,1.71030245287587e+18,0.5313315926892951,0.3995433789954338,0.31027027027027027,0.49816581071166544,0.5769230769230769,0.40706476030277544,1194.0
313.0,1.7103024528858575e+18,0.5182767624020888,0.3892694063926941,0.3043243243243243,0.5008559550012228,0.5,0.4634146341463415,1193.0
314.0,1.7103024528958648e+18,0.35900783289817234,0.3904109589041096,0.34756756756756757,0.49620934213744194,0.567032967032967,0.4415475189234651,1198.0
315.0,1.7103024529058913e+18,0.6253263707571801,0.4908675799086758,0.39297297297297296,0.4944974321349963,0.22747252747252747,0.4112699747687132,1193.0
316.0,1.7103024529171648e+18,0.3733681462140992,0.3561643835616438,0.2524324324324324,0.4979212521398875,0.621978021978022,0.4062237174095879,1193.0
317.0,1.710302452925886e+18,0.4765013054830287,0.3904109589041096,0.32972972972972975,0.4966984592809978,0.5879120879120879,0.43566021867115223,1196.0
318.0,1.7103024529358597e+18,0.39947780678851175,0.4452054794520548,0.2756756756756757,0.4971875764245537,0.06483516483516484,0.5424726661059714,1196.0
319.0,1.7103024529458598e+18,0.37989556135770236,0.3675799086757991,0.327027027027027,0.5064808021521154,0.512087912087912,0.3507148864592094,1191.0
320.0,1.7103024529558607e+18,0.3838120104438642,0.3995433789954338,0.2989189189189189,0.4913181707018831,0.5813186813186814,0.4432296047098402,1195.0
321.0,1.7103024529658796e+18,0.43342036553524804,0.3904109589041096,0.33135135135135135,0.4969430178527757,0.6098901098901099,0.4499579478553406,1196.0
322.0,1.7103024529758625e+18,0.4112271540469974,0.4018264840182648,0.292972972972973,0.49938860357055515,0.6450549450549451,0.47434819175777965,1196.0
323.0,1.7103024529858596e+18,0.4425587467362924,0.3515981735159817,0.2372972972972973,0.5033015407190022,0.6945054945054945,0.43902439024390244,1195.0
324.0,1.710302452995859e+18,0.48825065274151436,0.4143835616438356,0.2935135135135135,0.5055025678650037,0.5406593406593406,0.43986543313709,1194.0
325.0,1.7103024530059085e+18,0.5130548302872062,0.3858447488584475,0.29945945945945945,0.5020787478601125,0.6626373626373626,0.4306139613120269,1194.0
326.0,1.7103024530158817e+18,0.4412532637075718,0.3812785388127854,0.2654054054054054,0.47786744925409635,0.45054945054945056,0.4785534062237174,1196.0
327.0,1.7103024530258583e+18,0.6462140992167101,0.4337899543378995,0.33837837837837836,0.49767669356810956,0.621978021978022,0.3994953742640875,1194.0
328.0,1.7103024530358605e+18,0.4856396866840731,0.4315068493150685,0.33297297297297296,0.4937637564196625,0.5197802197802198,0.42977291841883936,1194.0
329.0,1.7103024530458621e+18,0.5143603133159269,0.4178082191780822,0.3410810810810811,0.4937637564196625,0.6076923076923076,0.38772077375946173,1195.0
330.0,1.7103024530558664e+18,0.44778067885117495,0.4143835616438356,0.3583783783783784,0.504524333577892,0.5802197802197803,0.4238856181665265,1194.0
331.0,1.7103024530658824e+18,0.4830287206266319,0.386986301369863,0.32216216216216215,0.5030569821472243,0.7076923076923077,0.4953742640874685,1196.0
332.0,1.7103024530758876e+18,0.639686684073107,0.4817351598173516,0.2935135135135135,0.504035216434336,0.3021978021978022,0.4987384356602187,1197.0
333.0,1.710302453085864e+18,0.412532637075718,0.3573059360730594,0.3027027027027027,0.4988994864269993,0.6098901098901099,0.415475189234651,1193.0
334.0,1.7103024530959158e+18,0.49216710182767626,0.4668949771689498,0.4027027027027027,0.5089263878698949,0.6362637362637362,0.4440706476030278,1194.0
335.0,1.7103024531058644e+18,0.4007832898172324,0.4006849315068493,0.37405405405405406,0.5050134507214478,0.6329670329670329,0.4878048780487805,1196.0
336.0,1.7103024531158697e+18,0.4164490861618799,0.4166666666666667,0.3016216216216216,0.4984103692834434,0.521978021978022,0.4465937762825904,1197.0
337.0,1.710302453125864e+18,0.5195822454308094,0.3995433789954338,0.29621621621621624,0.4986549278552213,0.6791208791208792,0.4625735912531539,1195.0
338.0,1.7103024531358653e+18,0.40992167101827676,0.3904109589041096,0.31027027027027027,0.49107361213010514,0.5571428571428572,0.4247266610597141,1194.0
339.0,1.710302453145866e+18,0.4164490861618799,0.3607305936073059,0.292972972972973,0.48985081927121543,0.4879120879120879,0.4129520605550883,1193.0
340.0,1.7103024531558671e+18,0.4086161879895561,0.3584474885844749,0.24324324324324326,0.4937637564196625,0.676923076923077,0.4053826745164003,1194.0
341.0,1.7103024531658662e+18,0.18929503916449086,0.3561643835616438,0.31405405405405407,0.5047688921496698,0.6054945054945055,0.4095878889823381,1192.0
342.0,1.710302453175867e+18,0.4321148825065274,0.4463470319634703,0.3372972972972973,0.5084372707263389,0.6637362637362637,0.41968040370058873,1194.0
343.0,1.7103024531858683e+18,0.489556135770235,0.3858447488584475,0.3237837837837838,0.49474199070677427,0.35604395604395606,0.3860386879730866,1194.0
344.0,1.7103024531958792e+18,0.5913838120104439,0.4452054794520548,0.31891891891891894,0.5064808021521154,0.5252747252747253,0.4238856181665265,1193.0
345.0,1.7103024532058655e+18,0.5913838120104439,0.4452054794520548,0.31891891891891894,0.5064808021521154,0.5252747252747253,0.4238856181665265,1193.0
346.0,1.7103024532158664e+18,0.5913838120104439,0.4452054794520548,0.31891891891891894,0.5064808021521154,0.5252747252747253,0.4238856181665265,1193.0
347.0,1.7103024532258668e+18,0.5913838120104439,0.4452054794520548,0.31891891891891894,0.5064808021521154,0.5252747252747253,0.4238856181665265,1193.0
348.0,1.7103024532358495e+18,0.5913838120104439,0.4452054794520548,0.31891891891891894,0.5064808021521154,0.5252747252747253,0.4238856181665265,1193.0
349.0,1.7103024532458726e+18,0.5913838120104439,0.4452054794520548,0.31891891891891894,0.5064808021521154,0.5252747252747253,0.4238856181665265,1193.0
350.0,1.7103024532558702e+18,0.5913838120104439,0.4452054794520548,0.31891891891891894,0.5064808021521154,0.5252747252747253,0.4238856181665265,1193.0
351.0,1.7103024532658683e+18,0.5913838120104439,0.4452054794520548,0.31891891891891894,0.5064808021521154,0.5252747252747253,0.4238856181665265,1193.0
352.0,1.7103024532758513e+18,0.5913838120104439,0.4452054794520548,0.31891891891891894,0.5064808021521154,0.5252747252747253,0.4238856181665265,1193.0
353.0,1.7103024532858527e+18,0.5913838120104439,0.4452054794520548,0.31891891891891894,0.5064808021521154,0.5252747252747253,0.4238856181665265,1193.0
354.0,1.7103024532959078e+18,0.5913838120104439,0.4452054794520548,0.31891891891891894,0.5064808021521154,0.5252747252747253,0.4238856181665265,1193.0
355.0,1.7103024533058706e+18,0.5913838120104439,0.4452054794520548,0.31891891891891894,0.5064808021521154,0.5252747252747253,0.4238856181665265,1193.0
356.0,1.7103024533158807e+18,0.5913838120104439,0.4452054794520548,0.31891891891891894,0.5064808021521154,0.5252747252747253,0.4238856181665265,1193.0
357.0,1.710302453325873e+18,0.5913838120104439,0.4452054794520548,0.31891891891891894,0.5064808021521154,0.5252747252747253,0.4238856181665265,1193.0
358.0,1.7103024533358548e+18,0.5913838120104439,0.4452054794520548,0.31891891891891894,0.5064808021521154,0.5252747252747253,0.4238856181665265,1193.0
359.0,1.710302453345897e+18,0.5913838120104439,0.4452054794520548,0.31891891891891894,0.5064808021521154,0.5252747252747253,0.4238856181665265,1193.0
360.0,1.7103024533558715e+18,0.5913838120104439,0.4452054794520548,0.31891891891891894,0.5064808021521154,0.5252747252747253,0.4238856181665265,1193.0
361.0,1.7103024533658793e+18,0.5913838120104439,0.4452054794520548,0.31891891891891894,0.5064808021521154,0.5252747252747253,0.4238856181665265,1193.0
362.0,1.710302453375856e+18,0.5913838120104439,0.4452054794520548,0.31891891891891894,0.5064808021521154,0.5252747252747253,0.4238856181665265,1193.0
363.0,1.7103024533858555e+18,0.5913838120104439,0.4452054794520548,0.31891891891891894,0.5064808021521154,0.5252747252747253,0.4238856181665265,1193.0
364.0,1.7103024533958753e+18,0.5913838120104439,0.4452054794520548,0.31891891891891894,0.5064808021521154,0.5252747252747253,0.4238856181665265,1193.0
365.0,1.7103024534058524e+18,0.5913838120104439,0.4452054794520548,0.31891891891891894,0.5064808021521154,0.5252747252747253,0.4238856181665265,1193.0
366.0,1.7103024534158515e+18,0.5913838120104439,0.4452054794520548,0.31891891891891894,0.5064808021521154,0.5252747252747253,0.4238856181665265,1193.0
367.0,1.7103024534258514e+18,0.5913838120104439,0.4452054794520548,0.31891891891891894,0.5064808021521154,0.5252747252747253,0.4238856181665265,1193.0
368.0,1.710302453435853e+18,0.5913838120104439,0.4452054794520548,0.31891891891891894,0.5064808021521154,0.5252747252747253,0.4238856181665265,1193.0
369.0,1.7103024534458565e+18,0.5913838120104439,0.4452054794520548,0.31891891891891894,0.5064808021521154,0.5252747252747253,0.4238856181665265,1193.0
370.0,1.710302453455861e+18,0.5913838120104439,0.4452054794520548,0.31891891891891894,0.5064808021521154,0.5252747252747253,0.4238856181665265,1193.0
371.0,1.7103024534658555e+18,0.5913838120104439,0.4452054794520548,0.31891891891891894,0.5064808021521154,0.5252747252747253,0.4238856181665265,1193.0
372.0,1.7103024534758564e+18,0.5913838120104439,0.4452054794520548,0.31891891891891894,0.5064808021521154,0.5252747252747253,0.4238856181665265,1193.0
373.0,1.7103024534858547e+18,0.5913838120104439,0.4452054794520548,0.31891891891891894,0.5064808021521154,0.5252747252747253,0.4238856181665265,1193.0
374.0,1.7103024534958592e+18,0.5913838120104439,0.4452054794520548,0.31891891891891894,0.5064808021521154,0.5252747252747253,0.4238856181665265,1193.0
375.0,1.7103024535058578e+18,0.5913838120104439,0.4452054794520548,0.31891891891891894,0.5064808021521154,0.5252747252747253,0.4238856181665265,1193.0
376.0,1.7103024535158556e+18,0.5913838120104439,0.4452054794520548,0.31891891891891894,0.5064808021521154,0.5252747252747253,0.4238856181665265,1193.0
377.0,1.7103024535258624e+18,0.5913838120104439,0.4452054794520548,0.31891891891891894,0.5064808021521154,0.5252747252747253,0.4238856181665265,1193.0
378.0,1.7103024535358582e+18,0.5913838120104439,0.4452054794520548,0.31891891891891894,0.5064808021521154,0.5252747252747253,0.4238856181665265,1193.0
379.0,1.7103024535458844e+18,0.5913838120104439,0.4452054794520548,0.31891891891891894,0.5064808021521154,0.5252747252747253,0.4238856181665265,1193.0
380.0,1.7103024535558484e+18,0.5913838120104439,0.4452054794520548,0.31891891891891894,0.5064808021521154,0.5252747252747253,0.4238856181665265,1193.0
381.0,1.710302453565854e+18,0.5913838120104439,0.4452054794520548,0.31891891891891894,0.5064808021521154,0.5252747252747253,0.4238856181665265,1193.0
382.0,1.7103024535758518e+18,0.5913838120104439,0.4452054794520548,0.31891891891891894,0.5064808021521154,0.5252747252747253,0.4238856181665265,1193.0
383.0,1.710302453585845e+18,0.5913838120104439,0.4452054794520548,0.31891891891891894,0.5064808021521154,0.5252747252747253,0.4238856181665265,1193.0
384.0,1.7103024535958876e+18,0.5913838120104439,0.4452054794520548,0.31891891891891894,0.5064808021521154,0.5252747252747253,0.4238856181665265,1193.0
385.0,1.7103024536058542e+18,0.5913838120104439,0.4452054794520548,0.31891891891891894,0.5064808021521154,0.5252747252747253,0.4238856181665265,1193.0
386.0,1.7103024536158605e+18,0.5913838120104439,0.4452054794520548,0.31891891891891894,0.5064808021521154,0.5252747252747253,0.4238856181665265,1193.0
387.0,1.710302453625859e+18,0.5913838120104439,0.4452054794520548,0.31891891891891894,0.5064808021521154,0.5252747252747253,0.4238856181665265,1193.0
388.0,1.7103024536358582e+18,0.5913838120104439,0.4452054794520548,0.31891891891891894,0.5064808021521154,0.5252747252747253,0.4238856181665265,1193.0
389.0,1.7103024536458972e+18,0.5913838120104439,0.4452054794520548,0.31891891891891894,0.5064808021521154,0.5252747252747253,0.4238856181665265,1193.0
390.0,1.7103024536558868e+18,0.5913838120104439,0.4452054794520548,0.31891891891891894,0.5064808021521154,0.5252747252747253,0.4238856181665265,1193.0
391.0,1.7103024536658593e+18,0.5913838120104439,0.4452054794520548,0.31891891891891894,0.5064808021521154,0.5252747252747253,0.4238856181665265,1193.0
392.0,1.7103024536758807e+18,0.5913838120104439,0.4452054794520548,0.31891891891891894,0.5064808021521154,0.5252747252747253,0.4238856181665265,1193.0
393.0,1.7103024536858857e+18,0.5913838120104439,0.4452054794520548,0.31891891891891894,0.5064808021521154,0.5252747252747253,0.4238856181665265,1193.0
394.0,1.7103024536958912e+18,0.5913838120104439,0.4452054794520548,0.31891891891891894,0.5064808021521154,0.5252747252747253,0.4238856181665265,1193.0
395.0,1.7103024537059187e+18,0.5913838120104439,0.4452054794520548,0.31891891891891894,0.5064808021521154,0.5252747252747253,0.4238856181665265,1193.0
396.0,1.7103024537158536e+18,0.5913838120104439,0.4452054794520548,0.31891891891891894,0.5064808021521154,0.5252747252747253,0.4238856181665265,1193.0
397.0,1.710302453725856e+18,0.5913838120104439,0.4452054794520548,0.31891891891891894,0.5064808021521154,0.5252747252747253,0.4238856181665265,1193.0
398.0,1.710302453735852e+18,0.5913838120104439,0.4452054794520548,0.31891891891891894,0.5064808021521154,0.5252747252747253,0.4238856181665265,1193.0
399.0,1.7103024537458693e+18,0.5913838120104439,0.4452054794520548,0.31891891891891894,0.5064808021521154,0.5252747252747253,0.4238856181665265,1193.0
400.0,1.710302453755908e+18,0.5913838120104439,0.4452054794520548,0.31891891891891894,0.5064808021521154,0.5252747252747253,0.4238856181665265,1193.0
401.0,1.7103024537658575e+18,0.5913838120104439,0.4452054794520548,0.31891891891891894,0.5064808021521154,0.5252747252747253,0.4238856181665265,1193.0
402.0,1.7103024537758505e+18,0.5913838120104439,0.4452054794520548,0.31891891891891894,0.5064808021521154,0.5252747252747253,0.4238856181665265,1193.0
403.0,1.710302453785853e+18,0.5913838120104439,0.4452054794520548,0.31891891891891894,0.5064808021521154,0.5252747252747253,0.4238856181665265,1193.0
404.0,1.7103024537959127e+18,0.5913838120104439,0.4452054794520548,0.31891891891891894,0.5064808021521154,0.5252747252747253,0.4238856181665265,1193.0
405.0,1.7103024538058642e+18,0.5913838120104439,0.4452054794520548,0.31891891891891894,0.5064808021521154,0.5252747252747253,0.4238856181665265,1193.0
406.0,1.7103024538158554e+18,0.5913838120104439,0.4452054794520548,0.31891891891891894,0.5064808021521154,0.5252747252747253,0.4238856181665265,1193.0
407.0,1.7103024538258668e+18,0.5913838120104439,0.4452054794520548,0.31891891891891894,0.5064808021521154,0.5252747252747253,0.4238856181665265,1193.0
408.0,1.71030245383586e+18,0.5913838120104439,0.4452054794520548,0.31891891891891894,0.5064808021521154,0.5252747252747253,0.4238856181665265,1193.0
409.0,1.710302453845895e+18,0.5913838120104439,0.4452054794520548,0.31891891891891894,0.5064808021521154,0.5252747252747253,0.4238856181665265,1193.0
410.0,1.7103024538558692e+18,0.5913838120104439,0.4452054794520548,0.31891891891891894,0.5064808021521154,0.5252747252747253,0.4238856181665265,1193.0
411.0,1.7103024538658606e+18,0.5913838120104439,0.4452054794520548,0.31891891891891894,0.5064808021521154,0.5252747252747253,0.4238856181665265,1193.0
412.0,1.7103024538758577e+18,0.5913838120104439,0.4452054794520548,0.31891891891891894,0.5064808021521154,0.5252747252747253,0.4238856181665265,1193.0
413.0,1.7103024538858575e+18,0.5913838120104439,0.4452054794520548,0.31891891891891894,0.5064808021521154,0.5252747252747253,0.4238856181665265,1193.0
414.0,1.71030245389591e+18,0.5913838120104439,0.4452054794520548,0.31891891891891894,0.5064808021521154,0.5252747252747253,0.4238856181665265,1193.0
415.0,1.7103024539058916e+18,0.5913838120104439,0.4452054794520548,0.31891891891891894,0.5064808021521154,0.5252747252747253,0.4238856181665265,1193.0
416.0,1.7103024539158733e+18,0.5913838120104439,0.4452054794520548,0.31891891891891894,0.5064808021521154,0.5252747252747253,0.4238856181665265,1193.0
417.0,1.7103024539258614e+18,0.5913838120104439,0.4452054794520548,0.31891891891891894,0.5064808021521154,0.5252747252747253,0.4238856181665265,1193.0
418.0,1.7103024539358592e+18,0.5913838120104439,0.4452054794520548,0.31891891891891894,0.5064808021521154,0.5252747252747253,0.4238856181665265,1193.0
419.0,1.7103024539458583e+18,0.5913838120104439,0.4452054794520548,0.31891891891891894,0.5064808021521154,0.5252747252747253,0.4238856181665265,1193.0
420.0,1.7103024539558633e+18,0.5913838120104439,0.4452054794520548,0.31891891891891894,0.5064808021521154,0.5252747252747253,0.4238856181665265,1193.0
421.0,1.710302453965855e+18,0.5913838120104439,0.4452054794520548,0.31891891891891894,0.5064808021521154,0.5252747252747253,0.4238856181665265,1193.0
422.0,1.7103024539758938e+18,0.5913838120104439,0.4452054794520548,0.31891891891891894,0.5064808021521154,0.5252747252747253,0.4238856181665265,1193.0
423.0,1.7103024539858621e+18,0.5913838120104439,0.4452054794520548,0.31891891891891894,0.5064808021521154,0.5252747252747253,0.4238856181665265,1193.0
424.0,1.7103024539958615e+18,0.5913838120104439,0.4452054794520548,0.31891891891891894,0.5064808021521154,0.5252747252747253,0.4238856181665265,1193.0
425.0,1.710302454005882e+18,0.5913838120104439,0.4452054794520548,0.31891891891891894,0.5064808021521154,0.5252747252747253,0.4238856181665265,1193.0
426.0,1.710302454015867e+18,0.5913838120104439,0.4452054794520548,0.31891891891891894,0.5064808021521154,0.5252747252747253,0.4238856181665265,1193.0
427.0,1.7103024540258616e+18,0.5913838120104439,0.4452054794520548,0.31891891891891894,0.5064808021521154,0.5252747252747253,0.4238856181665265,1193.0
428.0,1.7103024540358956e+18,0.5913838120104439,0.4452054794520548,0.31891891891891894,0.5064808021521154,0.5252747252747253,0.4238856181665265,1193.0
429.0,1.7103024540458621e+18,0.5913838120104439,0.4452054794520548,0.31891891891891894,0.5064808021521154,0.5252747252747253,0.4238856181665265,1193.0
430.0,1.7103024540558715e+18,0.5913838120104439,0.4452054794520548,0.31891891891891894,0.5064808021521154,0.5252747252747253,0.4238856181665265,1193.0
431.0,1.7103024540658575e+18,0.5913838120104439,0.4452054794520548,0.31891891891891894,0.5064808021521154,0.5252747252747253,0.4238856181665265,1193.0
432.0,1.7103024540758577e+18,0.5913838120104439,0.4452054794520548,0.31891891891891894,0.5064808021521154,0.5252747252747253,0.4238856181665265,1193.0
433.0,1.7103024540858588e+18,0.5913838120104439,0.4452054794520548,0.31891891891891894,0.5064808021521154,0.5252747252747253,0.4238856181665265,1193.0
434.0,1.71030245409586e+18,0.5913838120104439,0.4452054794520548,0.31891891891891894,0.5064808021521154,0.5252747252747253,0.4238856181665265,1193.0
435.0,1.710302454105885e+18,0.5913838120104439,0.4452054794520548,0.31891891891891894,0.5064808021521154,0.5252747252747253,0.4238856181665265,1193.0
436.0,1.7103024541158564e+18,0.5913838120104439,0.4452054794520548,0.31891891891891894,0.5064808021521154,0.5252747252747253,0.4238856181665265,1193.0
437.0,1.7103024541258657e+18,0.5913838120104439,0.4452054794520548,0.31891891891891894,0.5064808021521154,0.5252747252747253,0.4238856181665265,1193.0
438.0,1.7103024541358587e+18,0.5913838120104439,0.4452054794520548,0.31891891891891894,0.5064808021521154,0.5252747252747253,0.4238856181665265,1193.0
439.0,1.7103024541458596e+18,0.5913838120104439,0.4452054794520548,0.31891891891891894,0.5064808021521154,0.5252747252747253,0.4238856181665265,1193.0
440.0,1.710302454155864e+18,0.5913838120104439,0.4452054794520548,0.31891891891891894,0.5064808021521154,0.5252747252747253,0.4238856181665265,1193.0
441.0,1.7103024541658637e+18,0.5913838120104439,0.4452054794520548,0.31891891891891894,0.5064808021521154,0.5252747252747253,0.4238856181665265,1193.0
442.0,1.7103024541758659e+18,0.5913838120104439,0.4452054794520548,0.31891891891891894,0.5064808021521154,0.5252747252747253,0.4238856181665265,1193.0
443.0,1.7103024541858578e+18,0.5913838120104439,0.4452054794520548,0.31891891891891894,0.5064808021521154,0.5252747252747253,0.4238856181665265,1193.0
444.0,1.7103024541958843e+18,0.5913838120104439,0.4452054794520548,0.31891891891891894,0.5064808021521154,0.5252747252747253,0.4238856181665265,1193.0
445.0,1.7103024542058504e+18,0.5913838120104439,0.4452054794520548,0.31891891891891894,0.5064808021521154,0.5252747252747253,0.4238856181665265,1193.0
446.0,1.710302454215883e+18,0.5913838120104439,0.4452054794520548,0.31891891891891894,0.5064808021521154,0.5252747252747253,0.4238856181665265,1193.0
447.0,1.7103024542258516e+18,0.5913838120104439,0.4452054794520548,0.31891891891891894,0.5064808021521154,0.5252747252747253,0.4238856181665265,1193.0
448.0,1.7103024542358536e+18,0.5913838120104439,0.4452054794520548,0.31891891891891894,0.5064808021521154,0.5252747252747253,0.4238856181665265,1193.0
449.0,1.7103024542458563e+18,0.5913838120104439,0.4452054794520548,0.31891891891891894,0.5064808021521154,0.5252747252747253,0.4238856181665265,1193.0
450.0,1.7103024542558656e+18,0.5913838120104439,0.4452054794520548,0.31891891891891894,0.5064808021521154,0.5252747252747253,0.4238856181665265,1193.0
451.0,1.7103024542658568e+18,0.5913838120104439,0.4452054794520548,0.31891891891891894,0.5064808021521154,0.5252747252747253,0.4238856181665265,1193.0
452.0,1.7103024542758556e+18,0.5913838120104439,0.4452054794520548,0.31891891891891894,0.5064808021521154,0.5252747252747253,0.4238856181665265,1193.0
453.0,1.710302454285856e+18,0.5913838120104439,0.4452054794520548,0.31891891891891894,0.5064808021521154,0.5252747252747253,0.4238856181665265,1193.0
454.0,1.7103024542958892e+18,0.5913838120104439,0.4452054794520548,0.31891891891891894,0.5064808021521154,0.5252747252747253,0.4238856181665265,1193.0
455.0,1.7103024543059108e+18,0.5913838120104439,0.4452054794520548,0.31891891891891894,0.5064808021521154,0.5252747252747253,0.4238856181665265,1193.0
456.0,1.7103024543158543e+18,0.5913838120104439,0.4452054794520548,0.31891891891891894,0.5064808021521154,0.5252747252747253,0.4238856181665265,1193.0
457.0,1.7103024543258621e+18,0.5913838120104439,0.4452054794520548,0.31891891891891894,0.5064808021521154,0.5252747252747253,0.4238856181665265,1193.0
458.0,1.710302454335858e+18,0.5913838120104439,0.4452054794520548,0.31891891891891894,0.5064808021521154,0.5252747252747253,0.4238856181665265,1193.0
459.0,1.7103024543458565e+18,0.5913838120104439,0.4452054794520548,0.31891891891891894,0.5064808021521154,0.5252747252747253,0.4238856181665265,1193.0
460.0,1.710302454355868e+18,0.5913838120104439,0.4452054794520548,0.31891891891891894,0.5064808021521154,0.5252747252747253,0.4238856181665265,1193.0
461.0,1.7103024543658647e+18,0.5913838120104439,0.4452054794520548,0.31891891891891894,0.5064808021521154,0.5252747252747253,0.4238856181665265,1193.0
462.0,1.7103024543758597e+18,0.5913838120104439,0.4452054794520548,0.31891891891891894,0.5064808021521154,0.5252747252747253,0.4238856181665265,1193.0
463.0,1.71030245438586e+18,0.5913838120104439,0.4452054794520548,0.31891891891891894,0.5064808021521154,0.5252747252747253,0.4238856181665265,1193.0
464.0,1.7103024543958753e+18,0.5913838120104439,0.4452054794520548,0.31891891891891894,0.5064808021521154,0.5252747252747253,0.4238856181665265,1193.0
465.0,1.710302454405862e+18,0.5913838120104439,0.4452054794520548,0.31891891891891894,0.5064808021521154,0.5252747252747253,0.4238856181665265,1193.0
466.0,1.7103024544158533e+18,0.5913838120104439,0.4452054794520548,0.31891891891891894,0.5064808021521154,0.5252747252747253,0.4238856181665265,1193.0
467.0,1.710302454425861e+18,0.5913838120104439,0.4452054794520548,0.31891891891891894,0.5064808021521154,0.5252747252747253,0.4238856181665265,1193.0
468.0,1.7103024544358602e+18,0.5913838120104439,0.4452054794520548,0.31891891891891894,0.5064808021521154,0.5252747252747253,0.4238856181665265,1193.0
469.0,1.7103024544464822e+18,0.5913838120104439,0.4452054794520548,0.31891891891891894,0.5064808021521154,0.5252747252747253,0.4238856181665265,1193.0
470.0,1.710302454455859e+18,0.5913838120104439,0.4452054794520548,0.31891891891891894,0.5064808021521154,0.5252747252747253,0.4238856181665265,1193.0
471.0,1.7103024544658655e+18,0.5913838120104439,0.4452054794520548,0.31891891891891894,0.5064808021521154,0.5252747252747253,0.4238856181665265,1193.0
472.0,1.7103024544758592e+18,0.5913838120104439,0.4452054794520548,0.31891891891891894,0.5064808021521154,0.5252747252747253,0.4238856181665265,1193.0
473.0,1.7103024544858614e+18,0.5913838120104439,0.4452054794520548,0.31891891891891894,0.5064808021521154,0.5252747252747253,0.4238856181665265,1193.0
474.0,1.7103024544958935e+18,0.5913838120104439,0.4452054794520548,0.31891891891891894,0.5064808021521154,0.5252747252747253,0.4238856181665265,1193.0
475.0,1.710302454505883e+18,0.5913838120104439,0.4452054794520548,0.31891891891891894,0.5064808021521154,0.5252747252747253,0.4238856181665265,1193.0
476.0,1.710302454515857e+18,0.5913838120104439,0.4452054794520548,0.31891891891891894,0.5064808021521154,0.5252747252747253,0.4238856181665265,1193.0
477.0,1.7103024545258634e+18,0.5913838120104439,0.4452054794520548,0.31891891891891894,0.5064808021521154,0.5252747252747253,0.4238856181665265,1193.0
478.0,1.7103024545358664e+18,0.5913838120104439,0.4452054794520548,0.31891891891891894,0.5064808021521154,0.5252747252747253,0.4238856181665265,1193.0
479.0,1.7103024545458783e+18,0.5913838120104439,0.4452054794520548,0.31891891891891894,0.5064808021521154,0.5252747252747253,0.4238856181665265,1193.0
480.0,1.7103024545558653e+18,0.5913838120104439,0.4452054794520548,0.31891891891891894,0.5064808021521154,0.5252747252747253,0.4238856181665265,1193.0
481.0,1.7103024545658624e+18,0.5913838120104439,0.4452054794520548,0.31891891891891894,0.5064808021521154,0.5252747252747253,0.4238856181665265,1193.0
482.0,1.710302454575865e+18,0.5913838120104439,0.4452054794520548,0.31891891891891894,0.5064808021521154,0.5252747252747253,0.4238856181665265,1193.0
483.0,1.7103024545858655e+18,0.5913838120104439,0.4452054794520548,0.31891891891891894,0.5064808021521154,0.5252747252747253,0.4238856181665265,1193.0
484.0,1.7103024545958664e+18,0.5913838120104439,0.4452054794520548,0.31891891891891894,0.5064808021521154,0.5252747252747253,0.4238856181665265,1193.0
485.0,1.7103024546058834e+18,0.5913838120104439,0.4452054794520548,0.31891891891891894,0.5064808021521154,0.5252747252747253,0.4238856181665265,1193.0
486.0,1.710302454615868e+18,0.5913838120104439,0.4452054794520548,0.31891891891891894,0.5064808021521154,0.5252747252747253,0.4238856181665265,1193.0
487.0,1.710302454625861e+18,0.5913838120104439,0.4452054794520548,0.31891891891891894,0.5064808021521154,0.5252747252747253,0.4238856181665265,1193.0
488.0,1.7103024546358607e+18,0.5913838120104439,0.4452054794520548,0.31891891891891894,0.5064808021521154,0.5252747252747253,0.4238856181665265,1193.0
489.0,1.7103024546458598e+18,0.5913838120104439,0.4452054794520548,0.31891891891891894,0.5064808021521154,0.5252747252747253,0.4238856181665265,1193.0
490.0,1.710302454655863e+18,0.5913838120104439,0.4452054794520548,0.31891891891891894,0.5064808021521154,0.5252747252747253,0.4238856181665265,1193.0
491.0,1.7103024546658698e+18,0.5913838120104439,0.4452054794520548,0.31891891891891894,0.5064808021521154,0.5252747252747253,0.4238856181665265,1193.0
492.0,1.7103024546758694e+18,0.5913838120104439,0.4452054794520548,0.31891891891891894,0.5064808021521154,0.5252747252747253,0.4238856181665265,1193.0
493.0,1.7103024546858708e+18,0.5913838120104439,0.4452054794520548,0.31891891891891894,0.5064808021521154,0.5252747252747253,0.4238856181665265,1193.0
494.0,1.7103024546958848e+18,0.5913838120104439,0.4452054794520548,0.31891891891891894,0.5064808021521154,0.5252747252747253,0.4238856181665265,1193.0
495.0,1.7103024547058737e+18,0.5913838120104439,0.4452054794520548,0.31891891891891894,0.5064808021521154,0.5252747252747253,0.4238856181665265,1193.0
496.0,1.7103024547158676e+18,0.5913838120104439,0.4452054794520548,0.31891891891891894,0.5064808021521154,0.5252747252747253,0.4238856181665265,1193.0
497.0,1.7103024547258714e+18,0.5913838120104439,0.4452054794520548,0.31891891891891894,0.5064808021521154,0.5252747252747253,0.4238856181665265,1193.0
498.0,1.7103024547358723e+18,0.5913838120104439,0.4452054794520548,0.31891891891891894,0.5064808021521154,0.5252747252747253,0.4238856181665265,1193.0
499.0,1.7103024547458885e+18,0.5913838120104439,0.4452054794520548,0.31891891891891894,0.5064808021521154,0.5252747252747253,0.4238856181665265,1193.0
500.0,1.7103024547558746e+18,0.5913838120104439,0.4452054794520548,0.31891891891891894,0.5064808021521154,0.5252747252747253,0.4238856181665265,1193.0
501.0,1.710302454765868e+18,0.5913838120104439,0.4452054794520548,0.31891891891891894,0.5064808021521154,0.5252747252747253,0.4238856181665265,1193.0
502.0,1.7103024547758528e+18,0.5913838120104439,0.4452054794520548,0.31891891891891894,0.5064808021521154,0.5252747252747253,0.4238856181665265,1193.0
503.0,1.710302454785853e+18,0.5913838120104439,0.4452054794520548,0.31891891891891894,0.5064808021521154,0.5252747252747253,0.4238856181665265,1193.0
504.0,1.710302454795885e+18,0.5913838120104439,0.4452054794520548,0.31891891891891894,0.5064808021521154,0.5252747252747253,0.4238856181665265,1193.0
505.0,1.710302454805867e+18,0.5913838120104439,0.4452054794520548,0.31891891891891894,0.5064808021521154,0.5252747252747253,0.4238856181665265,1193.0
506.0,1.710302454815875e+18,0.5913838120104439,0.4452054794520548,0.31891891891891894,0.5064808021521154,0.5252747252747253,0.4238856181665265,1193.0
507.0,1.7103024548258734e+18,0.5913838120104439,0.4452054794520548,0.31891891891891894,0.5064808021521154,0.5252747252747253,0.4238856181665265,1193.0
508.0,1.7103024548358556e+18,0.5913838120104439,0.4452054794520548,0.31891891891891894,0.5064808021521154,0.5252747252747253,0.4238856181665265,1193.0
509.0,1.710302454845891e+18,0.5913838120104439,0.4452054794520548,0.31891891891891894,0.5064808021521154,0.5252747252747253,0.4238856181665265,1193.0
510.0,1.7103024548558707e+18,0.5913838120104439,0.4452054794520548,0.31891891891891894,0.5064808021521154,0.5252747252747253,0.4238856181665265,1193.0
511.0,1.7103024548658596e+18,0.5913838120104439,0.4452054794520548,0.31891891891891894,0.5064808021521154,0.5252747252747253,0.4238856181665265,1193.0
512.0,1.7103024548758595e+18,0.5913838120104439,0.4452054794520548,0.31891891891891894,0.5064808021521154,0.5252747252747253,0.4238856181665265,1193.0
513.0,1.7103024548858565e+18,0.5913838120104439,0.4452054794520548,0.31891891891891894,0.5064808021521154,0.5252747252747253,0.4238856181665265,1193.0
514.0,1.7103024548958607e+18,0.5913838120104439,0.4452054794520548,0.31891891891891894,0.5064808021521154,0.5252747252747253,0.4238856181665265,1193.0
515.0,1.7103024549058573e+18,0.5913838120104439,0.4452054794520548,0.31891891891891894,0.5064808021521154,0.5252747252747253,0.4238856181665265,1193.0
516.0,1.7103024549158636e+18,0.5913838120104439,0.4452054794520548,0.31891891891891894,0.5064808021521154,0.5252747252747253,0.4238856181665265,1193.0
517.0,1.7103024549258642e+18,0.5913838120104439,0.4452054794520548,0.31891891891891894,0.5064808021521154,0.5252747252747253,0.4238856181665265,1193.0
518.0,1.7103024549358592e+18,0.5913838120104439,0.4452054794520548,0.31891891891891894,0.5064808021521154,0.5252747252747253,0.4238856181665265,1193.0
519.0,1.7103024549458918e+18,0.5913838120104439,0.4452054794520548,0.31891891891891894,0.5064808021521154,0.5252747252747253,0.4238856181665265,1193.0
520.0,1.710302454955885e+18,0.5913838120104439,0.4452054794520548,0.31891891891891894,0.5064808021521154,0.5252747252747253,0.4238856181665265,1193.0
521.0,1.7103024549658598e+18,0.5913838120104439,0.4452054794520548,0.31891891891891894,0.5064808021521154,0.5252747252747253,0.4238856181665265,1193.0
522.0,1.7103024549758582e+18,0.5913838120104439,0.4452054794520548,0.31891891891891894,0.5064808021521154,0.5252747252747253,0.4238856181665265,1193.0
523.0,1.710302454985857e+18,0.5913838120104439,0.4452054794520548,0.31891891891891894,0.5064808021521154,0.5252747252747253,0.4238856181665265,1193.0
524.0,1.7103024549959084e+18,0.5913838120104439,0.4452054794520548,0.31891891891891894,0.5064808021521154,0.5252747252747253,0.4238856181665265,1193.0
525.0,1.7103024550058624e+18,0.5913838120104439,0.4452054794520548,0.31891891891891894,0.5064808021521154,0.5252747252747253,0.4238856181665265,1193.0
526.0,1.710302455015861e+18,0.46866840731070497,0.4452054794520548,0.31891891891891894,0.5064808021521154,0.5252747252747253,0.4238856181665265,1193.0
527.0,1.7103024550258583e+18,0.44386422976501305,0.3904109589041096,0.2989189189189189,0.5047688921496698,0.6186813186813187,0.44911690496215306,1152.0
528.0,1.7103024550358554e+18,0.33159268929503916,0.4257990867579909,0.3491891891891892,0.4986549278552213,0.634065934065934,0.4146341463414634,1191.0
529.0,1.7103024550458621e+18,0.5352480417754569,0.4486301369863014,0.3945945945945946,0.499877720714111,0.6296703296703297,0.43986543313709,1197.0
530.0,1.710302455055876e+18,0.5600522193211488,0.4577625570776256,0.3827027027027027,0.5028124235754463,0.6175824175824176,0.47098402018502944,1194.0
531.0,1.7103024550658609e+18,0.4960835509138381,0.363013698630137,0.36864864864864866,0.5001222792858889,0.5197802197802198,0.4255677039529016,1192.0
532.0,1.7103024550758546e+18,0.4725848563968668,0.4600456621004566,0.2935135135135135,0.4859378821227684,0.6362637362637362,0.4482758620689655,1197.0
533.0,1.7103024550858563e+18,0.49477806788511747,0.4006849315068493,0.3621621621621622,0.5167522621667889,0.6824175824175824,0.4785534062237174,1197.0
534.0,1.710302455095871e+18,0.45822454308093996,0.4189497716894977,0.3183783783783784,0.5035460992907801,0.6725274725274726,0.4432296047098402,1195.0
535.0,1.7103024551058524e+18,0.44386422976501305,0.4006849315068493,0.3302702702702703,0.5015896307165566,0.6252747252747253,0.3919259882253995,1192.0
536.0,1.710302455115852e+18,0.5104438642297651,0.4634703196347032,0.34,0.4971875764245537,0.6054945054945055,0.4449116904962153,1197.0
537.0,1.7103024551258524e+18,0.4830287206266319,0.3881278538812785,0.41243243243243244,0.5033015407190022,0.6538461538461539,0.45164003364171573,1197.0
538.0,1.7103024551358595e+18,0.3981723237597911,0.4132420091324201,0.3124324324324324,0.5086818292981169,0.6626373626373626,0.44911690496215306,1197.0
539.0,1.7103024551458826e+18,0.46736292428198434,0.3812785388127854,0.35945945945945945,0.5020787478601125,0.6076923076923076,0.4482758620689655,1197.0
540.0,1.7103024551558556e+18,0.48825065274151436,0.3995433789954338,0.307027027027027,0.4979212521398875,0.6054945054945055,0.415475189234651,1196.0
541.0,1.7103024551658598e+18,0.46866840731070497,0.3915525114155251,0.31891891891891894,0.49938860357055515,0.6010989010989011,0.407905803195963,1192.0
542.0,1.71030245517586e+18,0.46866840731070497,0.3915525114155251,0.3037837837837838,0.49498654927855223,0.6065934065934065,0.45500420521446594,1196.0
543.0,1.7103024551858604e+18,0.46866840731070497,0.3915525114155251,0.3037837837837838,0.49498654927855223,0.6065934065934065,0.45500420521446594,1196.0
544.0,1.7103024551958597e+18,0.46866840731070497,0.3915525114155251,0.3037837837837838,0.49498654927855223,0.6065934065934065,0.45500420521446594,1196.0
545.0,1.7103024552058634e+18,0.46866840731070497,0.3915525114155251,0.3037837837837838,0.49498654927855223,0.6065934065934065,0.45500420521446594,1196.0
546.0,1.7103024552158572e+18,0.46866840731070497,0.3915525114155251,0.3037837837837838,0.49498654927855223,0.6065934065934065,0.45500420521446594,1196.0
547.0,1.7103024552258593e+18,0.46866840731070497,0.3915525114155251,0.3037837837837838,0.49498654927855223,0.6065934065934065,0.45500420521446594,1196.0
548.0,1.7103024552358605e+18,0.46866840731070497,0.3915525114155251,0.3037837837837838,0.49498654927855223,0.6065934065934065,0.45500420521446594,1196.0
549.0,1.7103024552458637e+18,0.46866840731070497,0.3915525114155251,0.3037837837837838,0.49498654927855223,0.6065934065934065,0.45500420521446594,1196.0
550.0,1.7103024552558548e+18,0.46866840731070497,0.3915525114155251,0.3037837837837838,0.49498654927855223,0.6065934065934065,0.45500420521446594,1196.0
551.0,1.7103024552658634e+18,0.4765013054830287,0.386986301369863,0.31567567567567567,0.5001222792858889,0.6241758241758242,0.41968040370058873,1194.0
552.0,1.7103024552758561e+18,0.4869451697127937,0.4006849315068493,0.29621621621621624,0.504035216434336,0.7725274725274726,0.5155592935239697,1197.0
553.0,1.7103024552858888e+18,0.43994778067885115,0.3755707762557078,0.31567567567567567,0.48985081927121543,0.6,0.4179983179142136,1196.0
554.0,1.7103024552958794e+18,0.4765013054830287,0.4178082191780822,0.33297297297297296,0.5011005135730008,0.6505494505494506,0.4306139613120269,1195.0
555.0,1.710302455305854e+18,0.45822454308093996,0.3858447488584475,0.28324324324324324,0.48985081927121543,0.5263736263736264,0.3936080740117746,1193.0
556.0,1.7103024553158615e+18,0.5026109660574413,0.454337899543379,0.40378378378378377,0.5037906578625581,0.6582417582417582,0.49957947855340623,1196.0
557.0,1.7103024553258586e+18,0.48433420365535246,0.4132420091324201,0.3356756756756757,0.5011005135730008,0.6186813186813187,0.4020185029436501,1194.0
558.0,1.710302455335861e+18,0.3877284595300261,0.430365296803653,0.2891891891891892,0.5055025678650037,0.44835164835164837,0.3902439024390244,1193.0
559.0,1.7103024553458816e+18,0.4556135770234987,0.3938356164383562,0.3389189189189189,0.5037906578625581,0.634065934065934,0.4213624894869638,1194.0
560.0,1.7103024553558587e+18,0.4347258485639687,0.4075342465753425,0.3286486486486486,0.4996331621423331,0.6120879120879121,0.41042893187552565,1193.0
561.0,1.7103024553658627e+18,0.5822454308093995,0.4737442922374429,0.3886486486486487,0.504035216434336,0.6648351648351648,0.41968040370058873,1194.0
562.0,1.7103024553758938e+18,0.5378590078328982,0.4383561643835616,0.3254054054054054,0.4966984592809978,0.5989010989010989,0.4213624894869638,1194.0
563.0,1.7103024553858616e+18,0.4164490861618799,0.3721461187214612,0.33837837837837836,0.495964783565664,0.5978021978021978,0.415475189234651,1191.0
564.0,1.7103024553959173e+18,0.4164490861618799,0.3721461187214612,0.33837837837837836,0.495964783565664,0.5978021978021978,0.415475189234651,1191.0
565.0,1.71030245540586e+18,0.4164490861618799,0.3721461187214612,0.33837837837837836,0.495964783565664,0.5978021978021978,0.415475189234651,1191.0
566.0,1.7103024554158564e+18,0.4164490861618799,0.3721461187214612,0.33837837837837836,0.495964783565664,0.5978021978021978,0.415475189234651,1191.0
567.0,1.7103024554258621e+18,0.4164490861618799,0.3721461187214612,0.33837837837837836,0.495964783565664,0.5978021978021978,0.415475189234651,1191.0
568.0,1.7103024554358574e+18,0.4164490861618799,0.3721461187214612,0.33837837837837836,0.495964783565664,0.5978021978021978,0.415475189234651,1191.0
569.0,1.7103024554458578e+18,0.4164490861618799,0.3721461187214612,0.33837837837837836,0.495964783565664,0.5978021978021978,0.415475189234651,1191.0
570.0,1.710302455455853e+18,0.4164490861618799,0.3721461187214612,0.33837837837837836,0.495964783565664,0.5978021978021978,0.415475189234651,1191.0
571.0,1.7103024554658673e+18,0.4255874673629243,0.3881278538812785,0.327027027027027,0.5077035950110051,0.5340659340659341,0.4255677039529016,1192.0
572.0,1.710302455475884e+18,0.4255874673629243,0.3881278538812785,0.327027027027027,0.5077035950110051,0.5340659340659341,0.4255677039529016,1192.0
573.0,1.7103024554858588e+18,0.4255874673629243,0.3881278538812785,0.327027027027027,0.5077035950110051,0.5340659340659341,0.4255677039529016,1192.0
574.0,1.7103024554958886e+18,0.4255874673629243,0.3881278538812785,0.327027027027027,0.5077035950110051,0.5340659340659341,0.4255677039529016,1192.0
575.0,1.7103024555058647e+18,0.4255874673629243,0.3881278538812785,0.327027027027027,0.5077035950110051,0.5340659340659341,0.4255677039529016,1192.0
576.0,1.7103024555158753e+18,0.4255874673629243,0.3881278538812785,0.327027027027027,0.5077035950110051,0.5340659340659341,0.4255677039529016,1192.0
577.0,1.7103024555258583e+18,0.4255874673629243,0.3881278538812785,0.327027027027027,0.5077035950110051,0.5340659340659341,0.4255677039529016,1192.0
578.0,1.71030245553588e+18,0.4255874673629243,0.3881278538812785,0.327027027027027,0.5077035950110051,0.5340659340659341,0.4255677039529016,1192.0
579.0,1.7103024555458836e+18,0.4255874673629243,0.3881278538812785,0.327027027027027,0.5077035950110051,0.5340659340659341,0.4255677039529016,1192.0
580.0,1.7103024555558682e+18,0.4255874673629243,0.3881278538812785,0.327027027027027,0.5077035950110051,0.5340659340659341,0.4255677039529016,1192.0
581.0,1.7103024555658609e+18,0.4255874673629243,0.3881278538812785,0.327027027027027,0.5077035950110051,0.5340659340659341,0.4255677039529016,1192.0
582.0,1.710302455575858e+18,0.4255874673629243,0.3881278538812785,0.327027027027027,0.5077035950110051,0.5340659340659341,0.4255677039529016,1192.0
583.0,1.7103024555858578e+18,0.4255874673629243,0.3881278538812785,0.327027027027027,0.5077035950110051,0.5340659340659341,0.4255677039529016,1192.0
584.0,1.7103024555958868e+18,0.4255874673629243,0.3881278538812785,0.327027027027027,0.5077035950110051,0.5340659340659341,0.4255677039529016,1192.0
585.0,1.7103024556058865e+18,0.4255874673629243,0.3881278538812785,0.327027027027027,0.5077035950110051,0.5340659340659341,0.4255677039529016,1192.0
586.0,1.7103024556158528e+18,0.4255874673629243,0.3881278538812785,0.327027027027027,0.5077035950110051,0.5340659340659341,0.4255677039529016,1192.0
587.0,1.710302455625852e+18,0.4255874673629243,0.3881278538812785,0.327027027027027,0.5077035950110051,0.5340659340659341,0.4255677039529016,1192.0
588.0,1.71030245563585e+18,0.4255874673629243,0.3881278538812785,0.327027027027027,0.5077035950110051,0.5340659340659341,0.4255677039529016,1192.0
589.0,1.7103024556458506e+18,0.4255874673629243,0.3881278538812785,0.327027027027027,0.5077035950110051,0.5340659340659341,0.4255677039529016,1192.0
590.0,1.7103024556558636e+18,0.4255874673629243,0.3881278538812785,0.327027027027027,0.5077035950110051,0.5340659340659341,0.4255677039529016,1192.0
591.0,1.710302455665861e+18,0.4255874673629243,0.3881278538812785,0.327027027027027,0.5077035950110051,0.5340659340659341,0.4255677039529016,1192.0
592.0,1.7103024556758574e+18,0.4255874673629243,0.3881278538812785,0.327027027027027,0.5077035950110051,0.5340659340659341,0.4255677039529016,1192.0
593.0,1.7103024556858593e+18,0.4255874673629243,0.3881278538812785,0.327027027027027,0.5077035950110051,0.5340659340659341,0.4255677039529016,1192.0
594.0,1.7103024556958625e+18,0.4255874673629243,0.3881278538812785,0.327027027027027,0.5077035950110051,0.5340659340659341,0.4255677039529016,1192.0
595.0,1.7103024557058604e+18,0.4255874673629243,0.3881278538812785,0.327027027027027,0.5077035950110051,0.5340659340659341,0.4255677039529016,1192.0
596.0,1.71030245571585e+18,0.4255874673629243,0.3881278538812785,0.327027027027027,0.5077035950110051,0.5340659340659341,0.4255677039529016,1192.0
597.0,1.7103024557258588e+18,0.4255874673629243,0.3881278538812785,0.327027027027027,0.5077035950110051,0.5340659340659341,0.4255677039529016,1192.0
598.0,1.7103024557358533e+18,0.4255874673629243,0.3881278538812785,0.327027027027027,0.5077035950110051,0.5340659340659341,0.4255677039529016,1192.0
599.0,1.710302455745906e+18,0.4255874673629243,0.3881278538812785,0.327027027027027,0.5077035950110051,0.5340659340659341,0.4255677039529016,1192.0
600.0,1.7103024557558528e+18,0.4255874673629243,0.3881278538812785,0.327027027027027,0.5077035950110051,0.5340659340659341,0.4255677039529016,1192.0
601.0,1.7103024557658516e+18,0.4255874673629243,0.3881278538812785,0.327027027027027,0.5077035950110051,0.5340659340659341,0.4255677039529016,1192.0
602.0,1.7103024557758513e+18,0.4255874673629243,0.3881278538812785,0.327027027027027,0.5077035950110051,0.5340659340659341,0.4255677039529016,1192.0
603.0,1.7103024557858499e+18,0.4255874673629243,0.3881278538812785,0.327027027027027,0.5077035950110051,0.5340659340659341,0.4255677039529016,1192.0
604.0,1.710302455795886e+18,0.4255874673629243,0.3881278538812785,0.327027027027027,0.5077035950110051,0.5340659340659341,0.4255677039529016,1192.0
605.0,1.7103024558058486e+18,0.4255874673629243,0.3881278538812785,0.327027027027027,0.5077035950110051,0.5340659340659341,0.4255677039529016,1192.0
606.0,1.7103024558158584e+18,0.4255874673629243,0.3881278538812785,0.327027027027027,0.5077035950110051,0.5340659340659341,0.4255677039529016,1192.0
607.0,1.7103024558258534e+18,0.4255874673629243,0.3881278538812785,0.327027027027027,0.5077035950110051,0.5340659340659341,0.4255677039529016,1192.0
608.0,1.7103024558358508e+18,0.43733681462140994,0.4589041095890411,0.3172972972972973,0.5103937393005625,0.778021978021978,0.4499579478553406,1170.0
609.0,1.7103024558458516e+18,0.4621409921671018,0.3789954337899543,0.3124324324324324,0.491562729273661,0.6186813186813187,0.42640874684608915,1192.0
610.0,1.7103024558558646e+18,0.4556135770234987,0.4098173515981735,0.33297297297297296,0.5008559550012228,0.6274725274725275,0.4289318755256518,1194.0
611.0,1.710302455865862e+18,0.6044386422976501,0.4349315068493151,0.37675675675675674,0.5006113964294449,0.6626373626373626,0.4667788057190917,1198.0
612.0,1.7103024558758597e+18,0.45430809399477806,0.3835616438356164,0.3145945945945946,0.4971875764245537,0.6967032967032967,0.49705634987384356,1196.0
613.0,1.71030245588586e+18,0.4347258485639687,0.3561643835616438,0.28,0.48642699926632427,0.6186813186813187,0.4188393608074012,1194.0
614.0,1.7103024558959048e+18,0.4765013054830287,0.4360730593607306,0.34756756756756757,0.5037906578625581,0.5593406593406594,0.45164003364171573,1196.0
615.0,1.710302455905869e+18,0.4490861618798956,0.3824200913242009,0.3183783783783784,0.5003668378576669,0.6208791208791209,0.4028595458368377,1194.0
616.0,1.71030245591586e+18,0.489556135770235,0.4383561643835616,0.35783783783783785,0.5011005135730008,0.5967032967032967,0.432296047098402,1195.0
617.0,1.7103024559258627e+18,0.45039164490861616,0.3915525114155251,0.3362162162162162,0.49645390070921985,0.5824175824175825,0.4238856181665265,1193.0
618.0,1.710302455935855e+18,0.5182767624020888,0.4474885844748858,0.33945945945945943,0.495720224993886,0.4978021978021978,0.49032800672834315,1196.0
619.0,1.7103024559458614e+18,0.34073107049608353,0.3573059360730594,0.3248648648648649,0.49523110785033014,0.6197802197802198,0.41715727502102606,1192.0
620.0,1.7103024559558833e+18,0.4765013054830287,0.4372146118721461,0.3772972972972973,0.4942528735632184,0.5021978021978022,0.4020185029436501,1192.0
621.0,1.710302455965865e+18,0.5026109660574413,0.3835616438356164,0.3027027027027027,0.49645390070921985,0.6318681318681318,0.4558452481076535,1196.0
622.0,1.710302455975859e+18,0.4621409921671018,0.3961187214611872,0.3216216216216216,0.504279775006114,0.5505494505494506,0.4213624894869638,1189.0
623.0,1.7103024559858542e+18,0.5078328981723238,0.4143835616438356,0.3362162162162162,0.5008559550012228,0.6032967032967033,0.45500420521446594,1194.0
624.0,1.7103024559958584e+18,0.5430809399477807,0.4520547945205479,0.3654054054054054,0.499877720714111,0.5593406593406594,0.4465937762825904,1196.0
625.0,1.710302456005882e+18,0.5182767624020888,0.3904109589041096,0.31567567567567567,0.5011005135730008,0.7406593406593407,0.4768713204373423,1194.0
626.0,1.7103024560158958e+18,0.47780678851174935,0.4292237442922374,0.33135135135135135,0.5057471264367817,0.5538461538461539,0.4121110176619008,1189.0
627.0,1.7103024560258537e+18,0.5117493472584856,0.3892694063926941,0.3016216216216216,0.5015896307165566,0.7164835164835165,0.43566021867115223,1194.0
628.0,1.7103024560358554e+18,0.3785900783289817,0.4942922374429224,0.47621621621621624,0.49400831499144043,0.3516483516483517,0.36921783010933557,1193.0
629.0,1.7103024560458637e+18,0.45039164490861616,0.3789954337899543,0.32216216216216215,0.49645390070921985,0.6153846153846154,0.4179983179142136,1192.0
630.0,1.7103024560558623e+18,0.5261096605744126,0.4497716894977169,0.3783783783783784,0.5096600635852286,0.5758241758241758,0.4558452481076535,1197.0
631.0,1.710302456065868e+18,0.4608355091383812,0.4383561643835616,0.3940540540540541,0.5077035950110051,0.6461538461538462,0.432296047098402,1193.0
632.0,1.7103024560758664e+18,0.44778067885117495,0.4006849315068493,0.3232432432432432,0.49816581071166544,0.5681318681318681,0.3885618166526493,1192.0
633.0,1.7103024560858614e+18,0.5391644908616188,0.432648401826484,0.4064864864864865,0.5001222792858889,0.6087912087912087,0.4095878889823381,1191.0
634.0,1.7103024560958638e+18,0.5234986945169713,0.4200913242009132,0.31351351351351353,0.5035460992907801,0.6010989010989011,0.43650126156433977,1195.0
635.0,1.7103024561058742e+18,0.6292428198433421,0.410958904109589,0.3545945945945946,0.5018341892883346,0.6395604395604395,0.4852817493692178,1192.0
636.0,1.7103024561158723e+18,0.45691906005221933,0.3915525114155251,0.3027027027027027,0.49645390070921985,0.6978021978021978,0.4314550042052145,1198.0
637.0,1.7103024561258506e+18,0.45691906005221933,0.3915525114155251,0.3027027027027027,0.49645390070921985,0.6978021978021978,0.4314550042052145,1198.0
638.0,1.7103024561358623e+18,0.45691906005221933,0.3915525114155251,0.3027027027027027,0.49645390070921985,0.6978021978021978,0.4314550042052145,1198.0
639.0,1.710302456145865e+18,0.45691906005221933,0.3915525114155251,0.3027027027027027,0.49645390070921985,0.6978021978021978,0.4314550042052145,1198.0
640.0,1.7103024561558607e+18,0.45691906005221933,0.3915525114155251,0.3027027027027027,0.49645390070921985,0.6978021978021978,0.4314550042052145,1198.0
641.0,1.7103024561658632e+18,0.45691906005221933,0.3915525114155251,0.3027027027027027,0.49645390070921985,0.6978021978021978,0.4314550042052145,1198.0
642.0,1.7103024561758592e+18,0.45691906005221933,0.3915525114155251,0.3027027027027027,0.49645390070921985,0.6978021978021978,0.4314550042052145,1198.0
643.0,1.7103024561858565e+18,0.45691906005221933,0.3915525114155251,0.3027027027027027,0.49645390070921985,0.6978021978021978,0.4314550042052145,1198.0
644.0,1.7103024561958561e+18,0.45691906005221933,0.3915525114155251,0.3027027027027027,0.49645390070921985,0.6978021978021978,0.4314550042052145,1198.0
645.0,1.71030245620586e+18,0.45691906005221933,0.3915525114155251,0.3027027027027027,0.49645390070921985,0.6978021978021978,0.4314550042052145,1198.0
646.0,1.710302456215858e+18,0.45691906005221933,0.3915525114155251,0.3027027027027027,0.49645390070921985,0.6978021978021978,0.4314550042052145,1198.0
647.0,1.710302456225854e+18,0.45691906005221933,0.3915525114155251,0.3027027027027027,0.49645390070921985,0.6978021978021978,0.4314550042052145,1198.0
648.0,1.7103024562358628e+18,0.45430809399477806,0.4417808219178082,0.34756756756756757,0.5050134507214478,0.7252747252747253,0.41715727502102606,1190.0
649.0,1.710302456245857e+18,0.4960835509138381,0.4098173515981735,0.34756756756756757,0.499877720714111,0.6175824175824176,0.46846089150546677,1198.0
650.0,1.710302456255859e+18,0.42297650130548303,0.4178082191780822,0.2891891891891892,0.5020787478601125,0.6505494505494506,0.43902439024390244,1195.0
651.0,1.7103024562658665e+18,0.43733681462140994,0.3926940639269406,0.3124324324324324,0.5023233064318905,0.6626373626373626,0.5138772077375946,1194.0
652.0,1.7103024562758564e+18,0.43733681462140994,0.3926940639269406,0.3124324324324324,0.5023233064318905,0.6626373626373626,0.5138772077375946,1194.0
653.0,1.7103024562858516e+18,0.43733681462140994,0.3926940639269406,0.3124324324324324,0.5023233064318905,0.6626373626373626,0.5138772077375946,1194.0
654.0,1.71030245629586e+18,0.40992167101827676,0.3995433789954338,0.3178378378378378,0.4996331621423331,0.6538461538461539,0.4440706476030278,1194.0
655.0,1.7103024563058734e+18,0.5182767624020888,0.4143835616438356,0.36702702702702705,0.5079481535827831,0.667032967032967,0.4701429772918419,1195.0
656.0,1.7103024563158676e+18,0.5469973890339426,0.4383561643835616,0.37027027027027026,0.5116165321594522,0.7725274725274726,0.49032800672834315,1200.0
657.0,1.7103024563258463e+18,0.5182767624020888,0.3995433789954338,0.3545945945945946,0.5001222792858889,0.6274725274725275,0.4465937762825904,1198.0
658.0,1.7103024563358572e+18,0.5143603133159269,0.4041095890410959,0.30648648648648646,0.5030569821472243,0.6978021978021978,0.5012615643397813,1198.0
659.0,1.710302456345857e+18,0.5013054830287206,0.4406392694063927,0.2935135135135135,0.5096600635852286,0.7032967032967034,0.46509671993271656,1196.0
660.0,1.7103024563558636e+18,0.31462140992167104,0.3698630136986301,0.29081081081081084,0.5006113964294449,0.6681318681318681,0.42304457527333894,1194.0
661.0,1.7103024563658537e+18,0.45039164490861616,0.4269406392694064,0.34054054054054056,0.5055025678650037,0.5714285714285714,0.4911690496215307,1195.0
662.0,1.7103024563758577e+18,0.42950391644908614,0.4178082191780822,0.32972972972972975,0.5001222792858889,0.6098901098901099,0.3969722455845248,1193.0
663.0,1.710302456385858e+18,0.5182767624020888,0.4452054794520548,0.3627027027027027,0.5028124235754463,0.6879120879120879,0.46846089150546677,1196.0
664.0,1.7103024563958653e+18,0.49216710182767626,0.386986301369863,0.2913513513513514,0.5047688921496698,0.5483516483516484,0.4213624894869638,1192.0
665.0,1.71030245640587e+18,0.4725848563968668,0.408675799086758,0.3654054054054054,0.49816581071166544,0.634065934065934,0.43986543313709,1197.0
666.0,1.7103024564158523e+18,0.4255874673629243,0.4417808219178082,0.31513513513513514,0.5108828564441183,0.676923076923077,0.45500420521446594,1197.0
667.0,1.7103024564258552e+18,0.5926892950391645,0.3824200913242009,0.30486486486486486,0.5001222792858889,0.6274725274725275,0.45248107653490327,1195.0
668.0,1.710302456435861e+18,0.4151436031331593,0.4269406392694064,0.32756756756756755,0.491562729273661,0.6329670329670329,0.4112699747687132,1194.0
669.0,1.7103024564458586e+18,0.5248041775456919,0.3949771689497717,0.34162162162162163,0.5025678650036683,0.6989010989010989,0.44238856181665265,1197.0
670.0,1.7103024564558587e+18,0.46866840731070497,0.4121004566210046,0.31945945945945947,0.4986549278552213,0.4736263736263736,0.42052144659377627,1193.0
671.0,1.7103024564658516e+18,0.5496083550913838,0.4155251141552511,0.31567567567567567,0.5018341892883346,0.6032967032967033,0.5164003364171573,1197.0
672.0,1.710302456475849e+18,0.4425587467362924,0.3812785388127854,0.2735135135135135,0.491807287845439,0.6956043956043956,0.4541631623212784,1194.0
673.0,1.7103024564858445e+18,0.5535248041775457,0.3812785388127854,0.3291891891891892,0.5006113964294449,0.6362637362637362,0.4440706476030278,1193.0
674.0,1.7103024564958712e+18,0.5535248041775457,0.3812785388127854,0.3291891891891892,0.5006113964294449,0.6362637362637362,0.4440706476030278,1193.0
675.0,1.7103024565058511e+18,0.5535248041775457,0.3812785388127854,0.3291891891891892,0.5006113964294449,0.6362637362637362,0.4440706476030278,1193.0
676.0,1.71030245651587e+18,0.5535248041775457,0.3812785388127854,0.3291891891891892,0.5006113964294449,0.6362637362637362,0.4440706476030278,1193.0
677.0,1.7103024565258578e+18,0.5535248041775457,0.3812785388127854,0.3291891891891892,0.5006113964294449,0.6362637362637362,0.4440706476030278,1193.0
678.0,1.7103024565358472e+18,0.5535248041775457,0.3812785388127854,0.3291891891891892,0.5006113964294449,0.6362637362637362,0.4440706476030278,1193.0
679.0,1.710302456545847e+18,0.5535248041775457,0.3812785388127854,0.3291891891891892,0.5006113964294449,0.6362637362637362,0.4440706476030278,1193.0
680.0,1.7103024565558518e+18,0.5535248041775457,0.3812785388127854,0.3291891891891892,0.5006113964294449,0.6362637362637362,0.4440706476030278,1193.0
681.0,1.7103024565658632e+18,0.5535248041775457,0.3812785388127854,0.3291891891891892,0.5006113964294449,0.6362637362637362,0.4440706476030278,1193.0
682.0,1.7103024565758559e+18,0.5535248041775457,0.3812785388127854,0.3291891891891892,0.5006113964294449,0.6362637362637362,0.4440706476030278,1193.0
683.0,1.7103024565858542e+18,0.5535248041775457,0.3812785388127854,0.3291891891891892,0.5006113964294449,0.6362637362637362,0.4440706476030278,1193.0
684.0,1.7103024565958636e+18,0.5535248041775457,0.3812785388127854,0.3291891891891892,0.5006113964294449,0.6362637362637362,0.4440706476030278,1193.0
685.0,1.7103024566058504e+18,0.5535248041775457,0.3812785388127854,0.3291891891891892,0.5006113964294449,0.6362637362637362,0.4440706476030278,1193.0
686.0,1.7103024566158653e+18,0.5535248041775457,0.3812785388127854,0.3291891891891892,0.5006113964294449,0.6362637362637362,0.4440706476030278,1193.0
687.0,1.7103024566258532e+18,0.5535248041775457,0.3812785388127854,0.3291891891891892,0.5006113964294449,0.6362637362637362,0.4440706476030278,1193.0
688.0,1.7103024566358528e+18,0.5535248041775457,0.3812785388127854,0.3291891891891892,0.5006113964294449,0.6362637362637362,0.4440706476030278,1193.0
689.0,1.7103024566458573e+18,0.5535248041775457,0.3812785388127854,0.3291891891891892,0.5006113964294449,0.6362637362637362,0.4440706476030278,1193.0
690.0,1.7103024566558682e+18,0.5535248041775457,0.3812785388127854,0.3291891891891892,0.5006113964294449,0.6362637362637362,0.4440706476030278,1193.0
691.0,1.7103024566658552e+18,0.5535248041775457,0.3812785388127854,0.3291891891891892,0.5006113964294449,0.6362637362637362,0.4440706476030278,1193.0
692.0,1.7103024566758518e+18,0.5535248041775457,0.3812785388127854,0.3291891891891892,0.5006113964294449,0.6362637362637362,0.4440706476030278,1193.0
693.0,1.710302456685851e+18,0.5535248041775457,0.3812785388127854,0.3291891891891892,0.5006113964294449,0.6362637362637362,0.4440706476030278,1193.0
694.0,1.7103024566958536e+18,0.5535248041775457,0.3812785388127854,0.3291891891891892,0.5006113964294449,0.6362637362637362,0.4440706476030278,1193.0
695.0,1.710302456705857e+18,0.5535248041775457,0.3812785388127854,0.3291891891891892,0.5006113964294449,0.6362637362637362,0.4440706476030278,1193.0
696.0,1.71030245671586e+18,0.5535248041775457,0.3812785388127854,0.3291891891891892,0.5006113964294449,0.6362637362637362,0.4440706476030278,1193.0
697.0,1.7103024567258542e+18,0.5678851174934726,0.4383561643835616,0.3956756756756757,0.49938860357055515,0.634065934065934,0.46173254835996635,1188.0
698.0,1.7103024567358556e+18,0.4177545691906005,0.3926940639269406,0.25405405405405407,0.4969430178527757,0.43956043956043955,0.3708999158957107,1191.0
699.0,1.7103024567458557e+18,0.5313315926892951,0.3904109589041096,0.2864864864864865,0.5020787478601125,0.6725274725274726,0.4465937762825904,1196.0
700.0,1.7103024567558566e+18,0.5430809399477807,0.3926940639269406,0.2843243243243243,0.5055025678650037,0.6153846153846154,0.4827586206896552,1197.0
701.0,1.7103024567658575e+18,0.5496083550913838,0.4315068493150685,0.3075675675675676,0.504279775006114,0.5879120879120879,0.4289318755256518,1194.0
702.0,1.7103024567758636e+18,0.489556135770235,0.4029680365296804,0.3264864864864865,0.49620934213744194,0.5923076923076923,0.4020185029436501,1191.0
703.0,1.710302456785856e+18,0.4151436031331593,0.3915525114155251,0.34594594594594597,0.5006113964294449,0.6230769230769231,0.471825063078217,1194.0
704.0,1.71030245679586e+18,0.4608355091383812,0.4337899543378995,0.34702702702702704,0.49816581071166544,0.5703296703296703,0.4020185029436501,1191.0
705.0,1.710302456805858e+18,0.6148825065274152,0.5319634703196348,0.5605405405405406,0.5113719735876743,0.5615384615384615,0.46509671993271656,1193.0
706.0,1.710302456815856e+18,0.46736292428198434,0.3812785388127854,0.27513513513513516,0.504279775006114,0.23846153846153847,0.3246425567703953,1192.0
707.0,1.7103024568258568e+18,0.48172323759791125,0.4041095890410959,0.3708108108108108,0.49938860357055515,0.6032967032967033,0.42977291841883936,1192.0
708.0,1.7103024568358574e+18,0.3524804177545692,0.4372146118721461,0.33945945945945943,0.5077035950110051,0.6472527472527473,0.4482758620689655,1196.0
709.0,1.710302456845857e+18,0.5,0.4703196347031963,0.39297297297297296,0.5111274150158963,0.7120879120879121,0.479394449116905,1195.0
710.0,1.7103024568558584e+18,0.4347258485639687,0.4212328767123288,0.3254054054054054,0.4969430178527757,0.5483516483516484,0.4213624894869638,1192.0
711.0,1.7103024568658606e+18,0.3838120104438642,0.3858447488584475,0.33405405405405403,0.5030569821472243,0.8065934065934066,0.4499579478553406,1197.0
712.0,1.7103024568758574e+18,0.3302872062663185,0.430365296803653,0.252972972972973,0.5077035950110051,0.5472527472527473,0.407905803195963,1194.0
713.0,1.7103024568858417e+18,0.4960835509138381,0.3767123287671233,0.3210810810810811,0.48936170212765956,0.6230769230769231,0.4499579478553406,1197.0
714.0,1.7103024568958723e+18,0.4869451697127937,0.4315068493150685,0.31567567567567567,0.5006113964294449,0.5956043956043956,0.43902439024390244,1196.0
715.0,1.7103024569058573e+18,0.6357702349869452,0.4166666666666667,0.31945945945945947,0.5064808021521154,0.6593406593406593,0.41715727502102606,1193.0
716.0,1.7103024569158625e+18,0.40339425587467365,0.4143835616438356,0.30648648648648646,0.4888725849841037,0.054945054945054944,0.3406223717409588,1192.0
717.0,1.7103024569258417e+18,0.43733681462140994,0.3698630136986301,0.3232432432432432,0.5015896307165566,0.6824175824175824,0.4465937762825904,1195.0
718.0,1.710302456935864e+18,0.3537859007832898,0.4269406392694064,0.33513513513513515,0.495964783565664,0.5923076923076923,0.4348191757779647,1196.0
719.0,1.710302456945845e+18,0.3968668407310705,0.3721461187214612,0.32972972972972975,0.49816581071166544,0.610989010989011,0.4053826745164003,1193.0
720.0,1.710302456955873e+18,0.4869451697127937,0.4691780821917808,0.38054054054054054,0.5055025678650037,0.6494505494505495,0.45248107653490327,1195.0
721.0,1.710302456965863e+18,0.5052219321148825,0.4257990867579909,0.36,0.495964783565664,0.5714285714285714,0.3540790580319596,1193.0
722.0,1.7103024569758628e+18,0.40339425587467365,0.4394977168949772,0.35027027027027025,0.4991440449987772,0.5527472527472528,0.4222035323801514,1194.0
723.0,1.7103024569858621e+18,0.4751958224543081,0.410958904109589,0.36486486486486486,0.49645390070921985,0.41318681318681316,0.40370058873002523,1192.0
724.0,1.7103024569958636e+18,0.4164490861618799,0.3721461187214612,0.28054054054054056,0.49767669356810956,0.6384615384615384,0.4247266610597141,1193.0
725.0,1.7103024570058734e+18,0.5130548302872062,0.4029680365296804,0.3302702702702703,0.5145512350207875,0.5659340659340659,0.5054667788057191,1193.0
726.0,1.7103024570158766e+18,0.4804177545691906,0.410958904109589,0.31945945945945947,0.4944974321349963,0.5868131868131868,0.44911690496215306,1196.0
727.0,1.710302457025837e+18,0.5469973890339426,0.4212328767123288,0.30486486486486486,0.5074590364392272,0.6164835164835165,0.4449116904962153,1196.0
728.0,1.710302457035836e+18,0.4804177545691906,0.3904109589041096,0.292972972972973,0.49938860357055515,0.5945054945054945,0.471825063078217,1197.0
729.0,1.7103024570458437e+18,0.3838120104438642,0.3470319634703196,0.2789189189189189,0.4988994864269993,0.6461538461538462,0.45248107653490327,1196.0
730.0,1.7103024570558636e+18,0.4112271540469974,0.3618721461187215,0.29081081081081084,0.4991440449987772,0.7417582417582418,0.479394449116905,1196.0
731.0,1.710302457065863e+18,0.47780678851174935,0.3550228310502283,0.29783783783783785,0.4930300807043287,0.667032967032967,0.41968040370058873,1193.0
732.0,1.710302457075846e+18,0.5535248041775457,0.4063926940639269,0.3124324324324324,0.48985081927121543,0.4901098901098901,0.39444911690496215,1195.0
733.0,1.7103024570858473e+18,0.6201044386422977,0.4406392694063927,0.3178378378378378,0.504035216434336,0.7032967032967034,0.4726661059714045,1195.0
734.0,1.7103024570958802e+18,0.4556135770234987,0.3858447488584475,0.2989189189189189,0.5035460992907801,0.6637362637362637,0.4306139613120269,1194.0
735.0,1.71030245710587e+18,0.5926892950391645,0.4554794520547945,0.29945945945945945,0.5155294693078992,0.6736263736263737,0.43566021867115223,1196.0
736.0,1.7103024571158472e+18,0.4255874673629243,0.4178082191780822,0.3281081081081081,0.5074590364392272,0.6043956043956044,0.40454163162321277,1193.0
737.0,1.7103024571258683e+18,0.5026109660574413,0.4212328767123288,0.2648648648648649,0.5067253607238934,0.5714285714285714,0.3994953742640875,1193.0
738.0,1.7103024571358538e+18,0.5456919060052219,0.4394977168949772,0.3281081081081081,0.5050134507214478,0.6538461538461539,0.43650126156433977,1196.0
739.0,1.7103024571458483e+18,0.41906005221932113,0.3710045662100457,0.3016216216216216,0.5023233064318905,0.5791208791208792,0.4247266610597141,1193.0
740.0,1.710302457155865e+18,0.4751958224543081,0.4189497716894977,0.29081081081081084,0.5003668378576669,0.5879120879120879,0.4482758620689655,1196.0
741.0,1.7103024571658506e+18,0.5966057441253264,0.5091324200913242,0.37189189189189187,0.508192712154561,0.5483516483516484,0.5088309503784693,1193.0
742.0,1.7103024571758497e+18,0.5261096605744126,0.4178082191780822,0.31891891891891894,0.49938860357055515,0.6417582417582418,0.4482758620689655,1193.0
743.0,1.7103024571858542e+18,0.4608355091383812,0.4200913242009132,0.34540540540540543,0.5059916850085595,0.6956043956043956,0.45248107653490327,1194.0
744.0,1.710302457195881e+18,0.4608355091383812,0.4200913242009132,0.34540540540540543,0.5059916850085595,0.6956043956043956,0.45248107653490327,1194.0
745.0,1.7103024572058762e+18,0.4608355091383812,0.4200913242009132,0.34540540540540543,0.5059916850085595,0.6956043956043956,0.45248107653490327,1194.0
746.0,1.7103024572158495e+18,0.4608355091383812,0.4200913242009132,0.34540540540540543,0.5059916850085595,0.6956043956043956,0.45248107653490327,1194.0
747.0,1.7103024572258463e+18,0.4608355091383812,0.4200913242009132,0.34540540540540543,0.5059916850085595,0.6956043956043956,0.45248107653490327,1194.0
748.0,1.7103024572358446e+18,0.5496083550913838,0.4497716894977169,0.3491891891891892,0.49082905355832723,0.8274725274725274,0.44575273338940286,1194.0
749.0,1.71030245724588e+18,0.5731070496083551,0.4337899543378995,0.3248648648648649,0.5055025678650037,0.676923076923077,0.42640874684608915,1193.0
750.0,1.7103024572558566e+18,0.41383812010443866,0.4155251141552511,0.3302702702702703,0.5035460992907801,0.6307692307692307,0.415475189234651,1194.0
751.0,1.710302457265853e+18,0.5391644908616188,0.4463470319634703,0.34756756756756757,0.5106382978723404,0.6978021978021978,0.4768713204373423,1196.0
752.0,1.7103024572758561e+18,0.41906005221932113,0.3961187214611872,0.3248648648648649,0.5077035950110051,0.6098901098901099,0.3902439024390244,1193.0
753.0,1.7103024572858483e+18,0.41906005221932113,0.3961187214611872,0.3248648648648649,0.5077035950110051,0.6098901098901099,0.3902439024390244,1193.0
754.0,1.7103024572958794e+18,0.5221932114882507,0.4452054794520548,0.31513513513513514,0.5020787478601125,0.5923076923076923,0.4188393608074012,1189.0
755.0,1.710302457305875e+18,0.4660574412532637,0.3835616438356164,0.29405405405405405,0.4900953778429934,0.6208791208791209,0.46846089150546677,1197.0
756.0,1.7103024573158374e+18,0.38642297650130547,0.3938356164383562,0.3210810810810811,0.5064808021521154,0.6681318681318681,0.4129520605550883,1194.0
757.0,1.7103024573258473e+18,0.3002610966057441,0.3424657534246575,0.2935135135135135,0.5025678650036683,0.6076923076923076,0.4339781328847771,1195.0
758.0,1.7103024573358444e+18,0.41906005221932113,0.3835616438356164,0.25405405405405407,0.5006113964294449,0.6780219780219781,0.4095878889823381,1192.0
759.0,1.7103024573458642e+18,0.5182767624020888,0.4178082191780822,0.3762162162162162,0.5001222792858889,0.7021978021978021,0.4592094196804037,1195.0
760.0,1.7103024573558758e+18,0.5652741514360313,0.4509132420091324,0.31405405405405407,0.5050134507214478,0.5703296703296703,0.4280908326324643,1193.0
761.0,1.7103024573658662e+18,0.39947780678851175,0.3333333333333333,0.28702702702702704,0.4996331621423331,0.5945054945054945,0.4112699747687132,1193.0
762.0,1.7103024573758454e+18,0.41383812010443866,0.4189497716894977,0.3491891891891892,0.5008559550012228,0.5615384615384615,0.4146341463414634,1193.0
763.0,1.7103024573858452e+18,0.42428198433420367,0.3687214611872146,0.28,0.49523110785033014,0.6659340659340659,0.3608074011774601,1194.0
764.0,1.7103024573958602e+18,0.4164490861618799,0.4417808219178082,0.43027027027027026,0.5001222792858889,0.46483516483516485,0.4121110176619008,1192.0
765.0,1.7103024574058903e+18,0.39947780678851175,0.3618721461187215,0.3302702702702703,0.5064808021521154,0.6252747252747253,0.42977291841883936,1193.0
766.0,1.710302457415849e+18,0.23890339425587467,0.4178082191780822,0.31567567567567567,0.5023233064318905,0.6241758241758242,0.39444911690496215,1192.0
767.0,1.710302457425848e+18,0.3524804177545692,0.3778538812785388,0.3016216216216216,0.49327463927610665,0.5978021978021978,0.3708999158957107,1194.0
768.0,1.7103024574358454e+18,0.4386422976501306,0.4132420091324201,0.3654054054054054,0.5028124235754463,0.6318681318681318,0.42977291841883936,1194.0
769.0,1.71030245744585e+18,0.49738903394255873,0.4063926940639269,0.29243243243243244,0.5094155050134507,0.7703296703296704,0.47098402018502944,1195.0
770.0,1.7103024574558994e+18,0.5365535248041775,0.4257990867579909,0.37405405405405406,0.5037906578625581,0.6934065934065934,0.4339781328847771,1193.0
771.0,1.7103024574658506e+18,0.28067885117493474,0.4315068493150685,0.37945945945945947,0.5074590364392272,0.6659340659340659,0.40117746005046256,1193.0
772.0,1.7103024574758574e+18,0.3668407310704961,0.4075342465753425,0.33837837837837836,0.49620934213744194,0.6098901098901099,0.4146341463414634,1193.0
773.0,1.7103024574858478e+18,0.6031331592689295,0.386986301369863,0.31513513513513514,0.487649792125214,0.43956043956043955,0.4482758620689655,1197.0
774.0,1.7103024574958671e+18,0.42297650130548303,0.3949771689497717,0.3286486486486486,0.5055025678650037,0.5714285714285714,0.44238856181665265,1196.0
775.0,1.7103024575058637e+18,0.46866840731070497,0.3858447488584475,0.31351351351351353,0.4954756664221081,0.5153846153846153,0.4306139613120269,1194.0
776.0,1.7103024575158822e+18,0.643603133159269,0.3858447488584475,0.30648648648648646,0.4969430178527757,0.7516483516483516,0.5248107653490328,1196.0
777.0,1.7103024575258465e+18,0.4595300261096606,0.4178082191780822,0.33675675675675676,0.5006113964294449,0.6065934065934065,0.4087468460891506,1194.0
778.0,1.7103024575358587e+18,0.39947780678851175,0.4132420091324201,0.3318918918918919,0.5057471264367817,0.6098901098901099,0.4129520605550883,1195.0
779.0,1.7103024575458463e+18,0.45300261096605743,0.3995433789954338,0.2756756756756757,0.5067253607238934,0.6285714285714286,0.4541631623212784,1195.0
780.0,1.710302457555844e+18,0.4608355091383812,0.4052511415525114,0.307027027027027,0.5077035950110051,0.6274725274725275,0.43566021867115223,1194.0
781.0,1.7103024575658542e+18,0.4804177545691906,0.3949771689497717,0.35621621621621624,0.5018341892883346,0.5967032967032967,0.48107653490328006,1196.0
782.0,1.710302457575853e+18,0.5391644908616188,0.4075342465753425,0.31513513513513514,0.5055025678650037,0.5912087912087912,0.4188393608074012,1192.0
783.0,1.7103024575858514e+18,0.31592689295039167,0.4041095890410959,0.3518918918918919,0.5023233064318905,0.6450549450549451,0.43902439024390244,1195.0
784.0,1.7103024575958574e+18,0.4073107049608355,0.432648401826484,0.34324324324324323,0.5030569821472243,0.7230769230769231,0.49957947855340623,1195.0
785.0,1.7103024576058445e+18,0.49216710182767626,0.4486301369863014,0.37675675675675674,0.5035460992907801,0.5362637362637362,0.38519764507989906,1193.0
786.0,1.710302457617115e+18,0.4007832898172324,0.3915525114155251,0.2972972972972973,0.49205184641721694,0.6010989010989011,0.4095878889823381,1192.0
787.0,1.7103024576258394e+18,0.577023498694517,0.4178082191780822,0.27783783783783783,0.5015896307165566,0.5769230769230769,0.45836837678721615,1194.0
788.0,1.710302457635852e+18,0.577023498694517,0.4178082191780822,0.27783783783783783,0.5015896307165566,0.5769230769230769,0.45836837678721615,1194.0
789.0,1.7103024576458506e+18,0.577023498694517,0.4178082191780822,0.27783783783783783,0.5015896307165566,0.5769230769230769,0.45836837678721615,1194.0
790.0,1.7103024576558484e+18,0.4321148825065274,0.4440639269406393,0.36,0.504279775006114,0.6274725274725275,0.41968040370058873,1188.0
791.0,1.7103024576658673e+18,0.2754569190600522,0.3687214611872146,0.3551351351351351,0.4859378821227684,0.5483516483516484,0.3860386879730866,1193.0
792.0,1.7103024576758474e+18,0.4608355091383812,0.4509132420091324,0.34540540540540543,0.5037906578625581,0.7285714285714285,0.43902439024390244,1196.0
793.0,1.7103024576858476e+18,0.45822454308093996,0.3972602739726027,0.3345945945945946,0.4971875764245537,0.6329670329670329,0.44070647603027757,1195.0
794.0,1.71030245769586e+18,0.5248041775456919,0.4006849315068493,0.30108108108108106,0.49767669356810956,0.5747252747252747,0.464255677039529,1196.0
795.0,1.7103024577058926e+18,0.4856396866840731,0.4155251141552511,0.34540540540540543,0.4974321349963316,0.5659340659340659,0.4222035323801514,1194.0
796.0,1.7103024577158671e+18,0.42297650130548303,0.4029680365296804,0.28540540540540543,0.5079481535827831,0.6318681318681318,0.4163162321278385,1192.0
797.0,1.71030245772584e+18,0.5326370757180157,0.4143835616438356,0.34864864864864864,0.5113719735876743,0.6241758241758242,0.4222035323801514,1194.0
798.0,1.7103024577358418e+18,0.41906005221932113,0.4646118721461187,0.3708108108108108,0.5015896307165566,0.6274725274725275,0.44911690496215306,1195.0
799.0,1.7103024577458376e+18,0.3877284595300261,0.3687214611872146,0.3237837837837838,0.49523110785033014,0.532967032967033,0.3860386879730866,1192.0
800.0,1.7103024577558364e+18,0.5456919060052219,0.4497716894977169,0.33135135135135135,0.5025678650036683,0.5879120879120879,0.4608915054667788,1197.0
801.0,1.7103024577658573e+18,0.5509138381201044,0.476027397260274,0.3994594594594595,0.5050134507214478,0.38571428571428573,0.5306980656013457,1197.0
802.0,1.710302457775868e+18,0.45822454308093996,0.4029680365296804,0.3124324324324324,0.5028124235754463,0.6186813186813187,0.43650126156433977,1196.0
803.0,1.7103024577858483e+18,0.47780678851174935,0.45662100456621,0.36702702702702705,0.48789435069699194,0.3868131868131868,0.4608915054667788,1195.0
804.0,1.710302457795855e+18,0.39556135770234985,0.4121004566210046,0.33297297297297296,0.5028124235754463,0.6912087912087912,0.4280908326324643,1193.0
805.0,1.7103024578058506e+18,0.4830287206266319,0.3858447488584475,0.31567567567567567,0.5047688921496698,0.7043956043956044,0.4499579478553406,1200.0
806.0,1.7103024578159434e+18,0.4490861618798956,0.3812785388127854,0.3005405405405405,0.4971875764245537,0.6384615384615384,0.4339781328847771,1194.0
807.0,1.7103024578258463e+18,0.49869451697127937,0.4075342465753425,0.3335135135135135,0.49816581071166544,0.5527472527472528,0.43313708999158956,1192.0
808.0,1.7103024578358367e+18,0.4608355091383812,0.4132420091324201,0.34162162162162163,0.4991440449987772,0.5175824175824176,0.43902439024390244,1198.0
809.0,1.7103024578458404e+18,0.4804177545691906,0.3584474885844749,0.28324324324324324,0.4979212521398875,0.6274725274725275,0.45164003364171573,1194.0
810.0,1.710302457855842e+18,0.5078328981723238,0.3995433789954338,0.2454054054054054,0.5055025678650037,0.6098901098901099,0.42304457527333894,1195.0
811.0,1.7103024578658488e+18,0.37989556135770236,0.4315068493150685,0.3637837837837838,0.5050134507214478,0.5648351648351648,0.45500420521446594,1195.0
812.0,1.7103024578758418e+18,0.52088772845953,0.478310502283105,0.4183783783783784,0.5023233064318905,0.567032967032967,0.4146341463414634,1193.0
813.0,1.7103024578858465e+18,0.5404699738903395,0.4726027397260274,0.3854054054054054,0.5077035950110051,0.6714285714285714,0.4465937762825904,1196.0
814.0,1.710302457895856e+18,0.5078328981723238,0.4383561643835616,0.3389189189189189,0.5015896307165566,0.6274725274725275,0.43986543313709,1194.0
815.0,1.7103024579058514e+18,0.49738903394255873,0.4280821917808219,0.34216216216216216,0.49938860357055515,0.6120879120879121,0.4289318755256518,1192.0
816.0,1.710302457915871e+18,0.49216710182767626,0.5045662100456622,0.44324324324324327,0.5072144778674492,0.610989010989011,0.4558452481076535,1196.0
817.0,1.710302457925861e+18,0.5391644908616188,0.4554794520547945,0.3935135135135135,0.5025678650036683,0.5428571428571428,0.4213624894869638,1194.0
818.0,1.710302457935842e+18,0.43994778067885115,0.3984018264840183,0.31351351351351353,0.5011005135730008,0.6802197802197802,0.4179983179142136,1193.0
819.0,1.7103024579458473e+18,0.6697127937336814,0.5068493150684932,0.38216216216216214,0.5211543164587918,0.710989010989011,0.471825063078217,1197.0
820.0,1.7103024579558482e+18,0.5182767624020888,0.3915525114155251,0.30324324324324325,0.4996331621423331,0.5659340659340659,0.43902439024390244,1197.0
821.0,1.7103024579658624e+18,0.4451697127937337,0.3744292237442922,0.3,0.4971875764245537,0.49340659340659343,0.4112699747687132,1192.0
822.0,1.7103024579758497e+18,0.5391644908616188,0.4634703196347032,0.32594594594594595,0.504035216434336,0.6846153846153846,0.46846089150546677,1197.0
823.0,1.710302457985854e+18,0.489556135770235,0.3835616438356164,0.31891891891891894,0.49107361213010514,0.6417582417582418,0.4465937762825904,1196.0
824.0,1.710302457995846e+18,0.49738903394255873,0.4098173515981735,0.3389189189189189,0.5091709464416728,0.6956043956043956,0.46761984861227923,1197.0
825.0,1.7103024580058598e+18,0.4830287206266319,0.4052511415525114,0.33513513513513515,0.5023233064318905,0.6362637362637362,0.45164003364171573,1195.0
826.0,1.7103024580158543e+18,0.4360313315926893,0.4155251141552511,0.34054054054054056,0.504279775006114,0.654945054945055,0.488645920941968,1197.0
827.0,1.7103024580258406e+18,0.46736292428198434,0.4840182648401826,0.43243243243243246,0.5106382978723404,0.667032967032967,0.4625735912531539,1196.0
828.0,1.710302458035847e+18,0.39425587467362927,0.4075342465753425,0.3567567567567568,0.5096600635852286,0.6582417582417582,0.48359966358284273,1197.0
829.0,1.7103024580458473e+18,0.5443864229765013,0.4269406392694064,0.36486486486486486,0.5023233064318905,0.6989010989010989,0.46173254835996635,1195.0
830.0,1.7103024580558444e+18,0.26762402088772846,0.4075342465753425,0.31675675675675674,0.5018341892883346,0.6802197802197802,0.4255677039529016,1194.0
831.0,1.7103024580658532e+18,0.4856396866840731,0.3892694063926941,0.28486486486486484,0.49645390070921985,0.5384615384615384,0.4247266610597141,1193.0
832.0,1.7103024580758436e+18,0.42950391644908614,0.365296803652968,0.27135135135135136,0.4979212521398875,0.5098901098901099,0.4213624894869638,1194.0
833.0,1.7103024580858465e+18,0.5835509138381201,0.4269406392694064,0.3302702702702703,0.5067253607238934,0.6989010989010989,0.43986543313709,1196.0
834.0,1.710302458095842e+18,0.45430809399477806,0.4178082191780822,0.3621621621621622,0.49816581071166544,0.5879120879120879,0.42977291841883936,1193.0
835.0,1.7103024581059325e+18,0.4856396866840731,0.408675799086758,0.33675675675675676,0.5037906578625581,0.656043956043956,0.4306139613120269,1194.0
836.0,1.7103024581158438e+18,0.4412532637075718,0.4052511415525114,0.33297297297297296,0.5055025678650037,0.6681318681318681,0.4020185029436501,1190.0
837.0,1.7103024581258588e+18,0.5026109660574413,0.4337899543378995,0.30864864864864866,0.504035216434336,0.5307692307692308,0.415475189234651,1195.0
838.0,1.7103024581358523e+18,0.6096605744125326,0.4908675799086758,0.4010810810810811,0.5133284421618978,0.6538461538461539,0.44911690496215306,1197.0
839.0,1.7103024581458493e+18,0.43994778067885115,0.3664383561643836,0.31351351351351353,0.49816581071166544,0.6714285714285714,0.4146341463414634,1194.0
840.0,1.710302458155867e+18,0.6501305483028721,0.5376712328767124,0.5113513513513513,0.516507703595011,0.7725274725274726,0.4768713204373423,1198.0
841.0,1.710302458165839e+18,0.45822454308093996,0.3801369863013699,0.31513513513513514,0.5008559550012228,0.6164835164835165,0.415475189234651,1192.0
842.0,1.7103024581758592e+18,0.45691906005221933,0.4189497716894977,0.3372972972972973,0.5015896307165566,0.6175824175824176,0.4306139613120269,1193.0
843.0,1.7103024581858499e+18,0.664490861618799,0.4497716894977169,0.36864864864864866,0.5006113964294449,0.5318681318681319,0.4306139613120269,1192.0
844.0,1.7103024581958807e+18,0.4164490861618799,0.3744292237442922,0.29081081081081084,0.5023233064318905,0.5967032967032967,0.4087468460891506,1195.0
845.0,1.7103024582058885e+18,0.3981723237597911,0.3904109589041096,0.32594594594594595,0.5055025678650037,0.6483516483516484,0.4247266610597141,1193.0
846.0,1.7103024582158523e+18,0.5,0.4748858447488584,0.4486486486486487,0.5084372707263389,0.6571428571428571,0.48359966358284273,1196.0
847.0,1.7103024582258404e+18,0.46736292428198434,0.3984018264840183,0.3372972972972973,0.4986549278552213,0.634065934065934,0.44238856181665265,1197.0
848.0,1.7103024582358495e+18,0.40992167101827676,0.4006849315068493,0.2951351351351351,0.5069699192956714,0.5472527472527473,0.4381833473507149,1196.0
849.0,1.7103024582458706e+18,0.5483028720626631,0.4029680365296804,0.37567567567567567,0.5006113964294449,0.5538461538461539,0.4280908326324643,1193.0
850.0,1.710302458255872e+18,0.4765013054830287,0.4178082191780822,0.3227027027027027,0.49938860357055515,0.4978021978021978,0.4255677039529016,1193.0
851.0,1.7103024582658616e+18,0.6488250652741514,0.4440639269406393,0.34,0.5062362435803375,0.6714285714285714,0.4634146341463415,1194.0
852.0,1.7103024582758538e+18,0.4556135770234987,0.4029680365296804,0.32432432432432434,0.4986549278552213,0.6538461538461539,0.4449116904962153,1197.0
853.0,1.710302458285853e+18,0.5234986945169713,0.3904109589041096,0.3037837837837838,0.5086818292981169,0.6912087912087912,0.42304457527333894,1195.0
854.0,1.7103024582958554e+18,0.4451697127937337,0.4155251141552511,0.3210810810810811,0.4979212521398875,0.610989010989011,0.432296047098402,1193.0
855.0,1.710302458305922e+18,0.587467362924282,0.4497716894977169,0.41945945945945945,0.5111274150158963,0.6582417582417582,0.4314550042052145,1190.0
856.0,1.7103024583158464e+18,0.5744125326370757,0.4360730593607306,0.33135135135135135,0.5086818292981169,0.5769230769230769,0.45164003364171573,1195.0
857.0,1.710302458325845e+18,0.42036553524804177,0.3961187214611872,0.3362162162162162,0.49938860357055515,0.6098901098901099,0.4179983179142136,1194.0
858.0,1.7103024583358582e+18,0.5809399477806788,0.5684931506849316,0.4918918918918919,0.5162631450232331,0.667032967032967,0.488645920941968,1196.0
859.0,1.710302458345856e+18,0.4556135770234987,0.3938356164383562,0.3254054054054054,0.5062362435803375,0.6758241758241759,0.43902439024390244,1197.0
860.0,1.7103024583558748e+18,0.5496083550913838,0.4189497716894977,0.3075675675675676,0.5015896307165566,0.6329670329670329,0.3860386879730866,1195.0
861.0,1.7103024583658506e+18,0.47780678851174935,0.4098173515981735,0.36,0.5015896307165566,0.6417582417582418,0.4482758620689655,1195.0
862.0,1.7103024583758518e+18,0.5300261096605744,0.432648401826484,0.30594594594594593,0.5025678650036683,0.6362637362637362,0.4533221194280908,1196.0
863.0,1.7103024583858552e+18,0.47127937336814624,0.3824200913242009,0.3075675675675676,0.495720224993886,0.5736263736263736,0.4802354920100925,1194.0
864.0,1.7103024583958602e+18,0.40992167101827676,0.3961187214611872,0.31513513513513514,0.5006113964294449,0.6362637362637362,0.3641715727502103,1194.0
865.0,1.7103024584059108e+18,0.42950391644908614,0.3344748858447489,0.27837837837837837,0.5152849107361213,0.654945054945055,0.4499579478553406,1197.0
866.0,1.7103024584159004e+18,0.4660574412532637,0.4155251141552511,0.3302702702702703,0.5018341892883346,0.6208791208791209,0.39444911690496215,1194.0
867.0,1.7103024584258557e+18,0.4934725848563969,0.4178082191780822,0.3291891891891892,0.5086818292981169,0.6065934065934065,0.4541631623212784,1197.0
868.0,1.7103024584358595e+18,0.4451697127937337,0.4132420091324201,0.3427027027027027,0.5047688921496698,0.6153846153846154,0.4449116904962153,1197.0
869.0,1.7103024584458588e+18,0.6449086161879896,0.5730593607305936,0.5897297297297297,0.5211543164587918,0.6681318681318681,0.5054667788057191,1196.0
870.0,1.7103024584558566e+18,0.4490861618798956,0.410958904109589,0.2756756756756757,0.5033015407190022,0.6582417582417582,0.46173254835996635,1196.0
871.0,1.7103024584658586e+18,0.45039164490861616,0.3698630136986301,0.31027027027027027,0.4971875764245537,0.6054945054945055,0.4255677039529016,1194.0
872.0,1.7103024584759e+18,0.6801566579634465,0.4646118721461187,0.3518918918918919,0.5047688921496698,0.6406593406593407,0.5466778805719091,1196.0
873.0,1.710302458485908e+18,0.5600522193211488,0.4817351598173516,0.3172972972972973,0.5074590364392272,0.789010989010989,0.4087468460891506,1195.0
874.0,1.7103024584958717e+18,0.52088772845953,0.4132420091324201,0.2983783783783784,0.4844705306921008,0.5967032967032967,0.3801513877207738,1193.0
875.0,1.710302458505826e+18,0.4765013054830287,0.4098173515981735,0.3172972972972973,0.5162631450232331,0.710989010989011,0.4314550042052145,1193.0
876.0,1.7103024585158986e+18,0.41906005221932113,0.408675799086758,0.3345945945945946,0.504035216434336,0.6241758241758242,0.4163162321278385,1197.0
877.0,1.7103024585258993e+18,0.4660574412532637,0.3904109589041096,0.32972972972972975,0.4986549278552213,0.6241758241758242,0.43986543313709,1197.0
878.0,1.7103024585358958e+18,0.5195822454308094,0.4360730593607306,0.34594594594594597,0.5015896307165566,0.5681318681318681,0.456686291000841,1197.0
879.0,1.7103024585458424e+18,0.4164490861618799,0.3961187214611872,0.3772972972972973,0.4966984592809978,0.6318681318681318,0.4062237174095879,1195.0
880.0,1.7103024585558423e+18,0.6788511749347258,0.5547945205479452,0.44432432432432434,0.5157740278796772,0.6934065934065934,0.511354079058032,1196.0
881.0,1.7103024585658468e+18,0.4556135770234987,0.3881278538812785,0.30594594594594593,0.5008559550012228,0.634065934065934,0.4238856181665265,1194.0
882.0,1.7103024585758472e+18,0.5143603133159269,0.3938356164383562,0.3372972972972973,0.5084372707263389,0.6186813186813187,0.4760302775441548,1195.0
883.0,1.710302458585893e+18,0.45430809399477806,0.4098173515981735,0.31135135135135134,0.4969430178527757,0.6054945054945055,0.4339781328847771,1192.0
884.0,1.710302458595892e+18,0.31201044386422977,0.386986301369863,0.3302702702702703,0.49816581071166544,0.6054945054945055,0.4146341463414634,1191.0
885.0,1.710302458605839e+18,0.4164490861618799,0.4132420091324201,0.3535135135135135,0.5025678650036683,0.6901098901098901,0.4415475189234651,1195.0
886.0,1.7103024586158484e+18,0.4464751958224543,0.3550228310502283,0.267027027027027,0.49205184641721694,0.5758241758241758,0.4179983179142136,1193.0
887.0,1.710302458625894e+18,0.44778067885117495,0.4292237442922374,0.38054054054054054,0.49938860357055515,0.6505494505494506,0.5264928511354079,1197.0
888.0,1.710302458635896e+18,0.4360313315926893,0.4018264840182648,0.3302702702702703,0.49767669356810956,0.5846153846153846,0.407905803195963,1192.0
889.0,1.7103024586458506e+18,0.5078328981723238,0.4280821917808219,0.3427027027027027,0.5020787478601125,0.6373626373626373,0.4247266610597141,1193.0
890.0,1.7103024586558513e+18,0.6331592689295039,0.4452054794520548,0.34,0.5116165321594522,0.7263736263736263,0.5021026072329688,1196.0
891.0,1.7103024586658916e+18,0.5600522193211488,0.4212328767123288,0.35783783783783785,0.5094155050134507,0.6472527472527473,0.43313708999158956,1193.0
892.0,1.7103024586758968e+18,0.4608355091383812,0.3515981735159817,0.2594594594594595,0.5015896307165566,0.6230769230769231,0.46509671993271656,1199.0
893.0,1.7103024586858883e+18,0.40600522193211486,0.3321917808219178,0.25405405405405407,0.495720224993886,0.7384615384615385,0.40706476030277544,1193.0
894.0,1.7103024586958902e+18,0.46475195822454307,0.408675799086758,0.3302702702702703,0.49620934213744194,0.5571428571428572,0.456686291000841,1196.0
895.0,1.7103024587058898e+18,0.4765013054830287,0.4143835616438356,0.32432432432432434,0.4979212521398875,0.5076923076923077,0.4785534062237174,1196.0
896.0,1.7103024587158902e+18,0.41383812010443866,0.4143835616438356,0.31135135135135134,0.5025678650036683,0.5934065934065934,0.4533221194280908,1198.0
897.0,1.7103024587258924e+18,0.45039164490861616,0.4121004566210046,0.3589189189189189,0.5015896307165566,0.6329670329670329,0.43650126156433977,1196.0
898.0,1.7103024587358856e+18,0.48433420365535246,0.3858447488584475,0.3491891891891892,0.4930300807043287,0.6538461538461539,0.42052144659377627,1192.0
899.0,1.7103024587458842e+18,0.5509138381201044,0.4452054794520548,0.4,0.5084372707263389,0.6065934065934065,0.4507989907485282,1195.0
900.0,1.710302458755889e+18,0.47911227154047,0.408675799086758,0.3210810810810811,0.5067253607238934,0.6142857142857143,0.42052144659377627,1194.0
901.0,1.7103024587658857e+18,0.4412532637075718,0.4509132420091324,0.4145945945945946,0.5047688921496698,0.6802197802197802,0.5088309503784693,1196.0
902.0,1.7103024587758932e+18,0.39295039164490864,0.3881278538812785,0.31351351351351353,0.5013450721447786,0.5604395604395604,0.3675357443229605,1191.0
903.0,1.7103024587858824e+18,0.5182767624020888,0.4372146118721461,0.35567567567567565,0.5011005135730008,0.6725274725274726,0.4255677039529016,1193.0
904.0,1.7103024587958835e+18,0.6070496083550914,0.5342465753424658,0.47945945945945945,0.5003668378576669,0.634065934065934,0.4314550042052145,1193.0
905.0,1.7103024588058808e+18,0.41383812010443866,0.3858447488584475,0.30594594594594593,0.495720224993886,0.5659340659340659,0.38772077375946173,1192.0
906.0,1.7103024588158853e+18,0.45039164490861616,0.410958904109589,0.33783783783783783,0.5028124235754463,0.634065934065934,0.37846930193439865,1193.0
907.0,1.7103024588258785e+18,0.46736292428198434,0.4121004566210046,0.292972972972973,0.4988994864269993,0.6098901098901099,0.4306139613120269,1193.0
908.0,1.7103024588358794e+18,0.47389033942558745,0.4200913242009132,0.3362162162162162,0.4991440449987772,0.6494505494505495,0.4634146341463415,1195.0
909.0,1.710302458845875e+18,0.6135770234986945,0.4577625570776256,0.3810810810810811,0.508192712154561,0.5736263736263736,0.4482758620689655,1193.0
910.0,1.7103024588558758e+18,0.489556135770235,0.4200913242009132,0.3464864864864865,0.4986549278552213,0.5791208791208792,0.42304457527333894,1189.0
911.0,1.7103024588658757e+18,0.49216710182767626,0.4063926940639269,0.3124324324324324,0.5047688921496698,0.7021978021978021,0.471825063078217,1193.0
912.0,1.7103024588758766e+18,0.4595300261096606,0.386986301369863,0.292972972972973,0.49205184641721694,0.567032967032967,0.4465937762825904,1194.0
913.0,1.7103024588858767e+18,0.577023498694517,0.430365296803653,0.3043243243243243,0.49767669356810956,0.5978021978021978,0.4482758620689655,1194.0
914.0,1.7103024588958707e+18,0.5496083550913838,0.4646118721461187,0.4243243243243243,0.4966984592809978,0.589010989010989,0.4222035323801514,1192.0
915.0,1.7103024589058747e+18,0.45691906005221933,0.4143835616438356,0.3302702702702703,0.4930300807043287,0.4901098901098901,0.43313708999158956,1194.0
916.0,1.710302458915874e+18,0.4451697127937337,0.3961187214611872,0.3362162162162162,0.5079481535827831,0.567032967032967,0.5290159798149706,1194.0
917.0,1.710302458925873e+18,0.4595300261096606,0.4315068493150685,0.39513513513513515,0.5094155050134507,0.6274725274725275,0.4415475189234651,1196.0
918.0,1.7103024589358687e+18,0.6762402088772846,0.4429223744292237,0.30594594594594593,0.5037906578625581,0.6450549450549451,0.4415475189234651,1196.0
919.0,1.7103024589458698e+18,0.47127937336814624,0.4063926940639269,0.35081081081081084,0.5069699192956714,0.6032967032967033,0.4314550042052145,1193.0
920.0,1.7103024589558725e+18,0.5496083550913838,0.4132420091324201,0.33837837837837836,0.499877720714111,0.6021978021978022,0.48107653490328006,1196.0
921.0,1.710302458965872e+18,0.5195822454308094,0.3767123287671233,0.2789189189189189,0.491807287845439,0.46923076923076923,0.39781328847771236,1192.0
922.0,1.7103024589758687e+18,0.4386422976501306,0.4178082191780822,0.3497297297297297,0.4966984592809978,0.6285714285714286,0.4272497897392767,1189.0
923.0,1.7103024589858737e+18,0.34595300261096606,0.3230593607305936,0.2972972972972973,0.4925409635607728,0.6824175824175824,0.41715727502102606,1194.0
924.0,1.7103024589958643e+18,0.4869451697127937,0.4075342465753425,0.26054054054054054,0.5084372707263389,0.6142857142857143,0.42304457527333894,1191.0
925.0,1.7103024590058652e+18,0.4412532637075718,0.3984018264840183,0.3232432432432432,0.5062362435803375,0.6142857142857143,0.4255677039529016,1192.0
926.0,1.7103024590158664e+18,0.46344647519582244,0.4337899543378995,0.36702702702702705,0.5028124235754463,0.5879120879120879,0.44238856181665265,1196.0
927.0,1.710302459025869e+18,0.6684073107049608,0.4486301369863014,0.31027027027027027,0.5035460992907801,0.6142857142857143,0.4726661059714045,1195.0
928.0,1.7103024590358612e+18,0.4464751958224543,0.4292237442922374,0.3481081081081081,0.4984103692834434,0.5659340659340659,0.5096719932716569,1194.0
929.0,1.7103024590458614e+18,0.4412532637075718,0.3915525114155251,0.3254054054054054,0.4991440449987772,0.6472527472527473,0.4432296047098402,1196.0
930.0,1.7103024590558633e+18,0.34986945169712796,0.4315068493150685,0.3627027027027027,0.4925409635607728,0.5505494505494506,0.49705634987384356,1193.0
931.0,1.7103024590658634e+18,0.3968668407310705,0.3995433789954338,0.3286486486486486,0.4925409635607728,0.5769230769230769,0.4020185029436501,1192.0
932.0,1.7103024590758625e+18,0.4660574412532637,0.3858447488584475,0.31351351351351353,0.4979212521398875,0.6197802197802198,0.4280908326324643,1194.0
933.0,1.7103024590858624e+18,0.4869451697127937,0.4269406392694064,0.37351351351351353,0.5079481535827831,0.6714285714285714,0.44575273338940286,1195.0
934.0,1.7103024590958664e+18,0.45430809399477806,0.3789954337899543,0.28486486486486484,0.504279775006114,0.6208791208791209,0.4163162321278385,1193.0
935.0,1.7103024591058593e+18,0.4556135770234987,0.4166666666666667,0.30594594594594593,0.4969430178527757,0.6120879120879121,0.4289318755256518,1192.0
936.0,1.7103024591158584e+18,0.5352480417754569,0.4155251141552511,0.3389189189189189,0.49205184641721694,0.6241758241758242,0.4432296047098402,1196.0
937.0,1.7103024591258598e+18,0.4490861618798956,0.3926940639269406,0.3308108108108108,0.49938860357055515,0.6197802197802198,0.4222035323801514,1193.0
938.0,1.7103024591359025e+18,0.6044386422976501,0.45662100456621,0.36702702702702705,0.5084372707263389,0.6736263736263737,0.520605550883095,1196.0
939.0,1.7103024591458586e+18,0.42689295039164493,0.3892694063926941,0.26054054054054054,0.5079481535827831,0.7164835164835165,0.5130361648444071,1195.0
940.0,1.7103024591558602e+18,0.4699738903394256,0.3915525114155251,0.3075675675675676,0.5062362435803375,0.6516483516483517,0.4499579478553406,1195.0
941.0,1.7103024591658563e+18,0.52088772845953,0.4178082191780822,0.30108108108108106,0.495964783565664,0.5945054945054945,0.4735071488645921,1195.0
942.0,1.7103024591758587e+18,0.4360313315926893,0.4269406392694064,0.3772972972972973,0.5030569821472243,0.7681318681318682,0.40370058873002523,1192.0
943.0,1.710302459185856e+18,0.4934725848563969,0.4223744292237443,0.33837837837837836,0.5062362435803375,0.6131868131868132,0.43986543313709,1193.0
944.0,1.7103024591958572e+18,0.47127937336814624,0.3584474885844749,0.28216216216216217,0.4871606749816581,0.45604395604395603,0.4255677039529016,1194.0
945.0,1.7103024592059773e+18,0.5639686684073107,0.4885844748858447,0.37945945945945947,0.5067253607238934,0.710989010989011,0.5155592935239697,1194.0
946.0,1.7103024592158664e+18,0.5352480417754569,0.4178082191780822,0.30594594594594593,0.5133284421618978,0.6901098901098901,0.479394449116905,1196.0
947.0,1.7103024592258573e+18,0.5287206266318538,0.4098173515981735,0.29945945945945945,0.49645390070921985,0.6098901098901099,0.415475189234651,1191.0
948.0,1.7103024592358927e+18,0.5091383812010444,0.4200913242009132,0.3075675675675676,0.5226216678894595,0.7120879120879121,0.4827586206896552,1196.0
949.0,1.7103024592458708e+18,0.4490861618798956,0.3961187214611872,0.24756756756756756,0.4984103692834434,0.6197802197802198,0.4339781328847771,1192.0
950.0,1.710302459255861e+18,0.5352480417754569,0.4223744292237443,0.31675675675675674,0.5086818292981169,0.7230769230769231,0.4575273338940286,1195.0
951.0,1.7103024592658575e+18,0.4608355091383812,0.4269406392694064,0.3589189189189189,0.5025678650036683,0.6384615384615384,0.42977291841883936,1192.0
952.0,1.7103024592758556e+18,0.5835509138381201,0.4417808219178082,0.31567567567567567,0.512594766446564,0.756043956043956,0.45248107653490327,1197.0
953.0,1.7103024592858586e+18,0.45039164490861616,0.4041095890410959,0.32756756756756755,0.48936170212765956,0.5824175824175825,0.4558452481076535,1196.0
954.0,1.710302459295871e+18,0.5509138381201044,0.4178082191780822,0.32756756756756755,0.4984103692834434,0.6406593406593407,0.4121110176619008,1194.0
955.0,1.7103024593058632e+18,0.5156657963446475,0.4315068493150685,0.3372972972972973,0.5015896307165566,0.6934065934065934,0.43566021867115223,1194.0
956.0,1.7103024593158533e+18,0.42689295039164493,0.3812785388127854,0.3237837837837838,0.5155294693078992,0.6450549450549451,0.42977291841883936,1194.0
957.0,1.7103024593258547e+18,0.4308093994778068,0.4315068493150685,0.34324324324324323,0.4971875764245537,0.634065934065934,0.4247266610597141,1192.0
958.0,1.7103024593358697e+18,0.5496083550913838,0.3892694063926941,0.3535135135135135,0.5006113964294449,0.6076923076923076,0.4499579478553406,1196.0
959.0,1.7103024593458624e+18,0.4556135770234987,0.3949771689497717,0.3281081081081081,0.5084372707263389,0.610989010989011,0.4306139613120269,1193.0
960.0,1.71030245935586e+18,0.4699738903394256,0.4063926940639269,0.3345945945945946,0.4954756664221081,0.5835164835164836,0.4095878889823381,1195.0
961.0,1.7103024593658575e+18,0.5966057441253264,0.5331050228310502,0.5178378378378379,0.5047688921496698,0.6406593406593407,0.43650126156433977,1197.0
962.0,1.710302459375858e+18,0.49738903394255873,0.432648401826484,0.37675675675675674,0.4966984592809978,0.6252747252747253,0.415475189234651,1194.0
963.0,1.7103024593858557e+18,0.4412532637075718,0.4075342465753425,0.32756756756756755,0.4991440449987772,0.6472527472527473,0.43902439024390244,1196.0
964.0,1.710302459395897e+18,0.6227154046997389,0.5513698630136986,0.43891891891891893,0.5338713621912448,0.7494505494505495,0.5559293523969723,1196.0
965.0,1.7103024594058606e+18,0.44386422976501305,0.3949771689497717,0.3145945945945946,0.49816581071166544,0.6010989010989011,0.40117746005046256,1191.0
966.0,1.7103024594158633e+18,0.48172323759791125,0.4143835616438356,0.3356756756756757,0.4986549278552213,0.5747252747252747,0.44911690496215306,1197.0
967.0,1.7103024594258557e+18,0.4960835509138381,0.4132420091324201,0.31567567567567567,0.5079481535827831,0.6098901098901099,0.44911690496215306,1192.0
968.0,1.710302459435854e+18,0.4960835509138381,0.4132420091324201,0.31567567567567567,0.5079481535827831,0.6098901098901099,0.44911690496215306,1192.0
969.0,1.7103024594458532e+18,0.3877284595300261,0.4075342465753425,0.3810810810810811,0.4979212521398875,0.610989010989011,0.4314550042052145,1193.0
970.0,1.710302459455877e+18,0.47780678851174935,0.3755707762557078,0.27837837837837837,0.49620934213744194,0.5802197802197803,0.4213624894869638,1192.0
971.0,1.710302459465864e+18,0.43342036553524804,0.4041095890410959,0.32756756756756755,0.5006113964294449,0.6296703296703297,0.40454163162321277,1192.0
972.0,1.7103024594758587e+18,0.44386422976501305,0.3984018264840183,0.32216216216216215,0.495720224993886,0.6362637362637362,0.4188393608074012,1193.0
973.0,1.7103024594858555e+18,0.44386422976501305,0.3698630136986301,0.3145945945945946,0.5025678650036683,0.6846153846153846,0.4432296047098402,1195.0
974.0,1.710302459495856e+18,0.44386422976501305,0.3698630136986301,0.3145945945945946,0.5025678650036683,0.6846153846153846,0.4432296047098402,1195.0
975.0,1.7103024595058678e+18,0.44386422976501305,0.3698630136986301,0.3145945945945946,0.5025678650036683,0.6846153846153846,0.4432296047098402,1195.0
976.0,1.710302459515859e+18,0.44386422976501305,0.3698630136986301,0.3145945945945946,0.5025678650036683,0.6846153846153846,0.4432296047098402,1195.0
977.0,1.7103024595258604e+18,0.44386422976501305,0.3698630136986301,0.3145945945945946,0.5025678650036683,0.6846153846153846,0.4432296047098402,1195.0
978.0,1.7103024595358572e+18,0.44386422976501305,0.3698630136986301,0.3145945945945946,0.5025678650036683,0.6846153846153846,0.4432296047098402,1195.0
979.0,1.7103024595458726e+18,0.44386422976501305,0.3698630136986301,0.3145945945945946,0.5025678650036683,0.6846153846153846,0.4432296047098402,1195.0
980.0,1.7103024595558674e+18,0.44386422976501305,0.3698630136986301,0.3145945945945946,0.5025678650036683,0.6846153846153846,0.4432296047098402,1195.0
981.0,1.7103024595658588e+18,0.44386422976501305,0.3698630136986301,0.3145945945945946,0.5025678650036683,0.6846153846153846,0.4432296047098402,1195.0
982.0,1.7103024595758543e+18,0.44386422976501305,0.3698630136986301,0.3145945945945946,0.5025678650036683,0.6846153846153846,0.4432296047098402,1195.0
983.0,1.710302459585858e+18,0.44386422976501305,0.3698630136986301,0.3145945945945946,0.5025678650036683,0.6846153846153846,0.4432296047098402,1195.0
984.0,1.7103024595958595e+18,0.44386422976501305,0.3698630136986301,0.3145945945945946,0.5025678650036683,0.6846153846153846,0.4432296047098402,1195.0
985.0,1.71030245960691e+18,0.44386422976501305,0.3698630136986301,0.3145945945945946,0.5025678650036683,0.6846153846153846,0.4432296047098402,1195.0
986.0,1.7103024596158548e+18,0.44386422976501305,0.3698630136986301,0.3145945945945946,0.5025678650036683,0.6846153846153846,0.4432296047098402,1195.0
987.0,1.710302459625862e+18,0.52088772845953,0.4497716894977169,0.3691891891891892,0.5055025678650037,0.6164835164835165,0.4146341463414634,1192.0
988.0,1.7103024596358582e+18,0.4595300261096606,0.3961187214611872,0.3237837837837838,0.5011005135730008,0.6230769230769231,0.44070647603027757,1196.0
989.0,1.7103024596458565e+18,0.6070496083550914,0.4623287671232877,0.3302702702702703,0.504279775006114,0.6846153846153846,0.4381833473507149,1197.0
990.0,1.7103024596558664e+18,0.5078328981723238,0.3835616438356164,0.2918918918918919,0.5135730007336757,0.6648351648351648,0.456686291000841,1197.0
991.0,1.710302459665865e+18,0.45039164490861616,0.3550228310502283,0.23243243243243245,0.499877720714111,0.6373626373626373,0.456686291000841,1196.0
992.0,1.7103024596758612e+18,0.49216710182767626,0.410958904109589,0.39675675675675676,0.4984103692834434,0.6637362637362637,0.43313708999158956,1192.0
993.0,1.7103024596858552e+18,0.5195822454308094,0.4863013698630137,0.3772972972972973,0.4984103692834434,0.45384615384615384,0.4053826745164003,1193.0
994.0,1.7103024596958646e+18,0.42428198433420367,0.3744292237442922,0.312972972972973,0.5099046221570066,0.7,0.41715727502102606,1196.0
995.0,1.7103024597058703e+18,0.5156657963446475,0.432648401826484,0.33783783783783783,0.5015896307165566,0.545054945054945,0.4751892346509672,1195.0
996.0,1.7103024597158577e+18,0.5456919060052219,0.4646118721461187,0.41243243243243244,0.4988994864269993,0.667032967032967,0.45836837678721615,1197.0
997.0,1.7103024597258552e+18,0.5339425587467362,0.4406392694063927,0.3816216216216216,0.5035460992907801,0.6956043956043956,0.4482758620689655,1196.0
998.0,1.7103024597358548e+18,0.36553524804177545,0.3904109589041096,0.3210810810810811,0.5015896307165566,0.6197802197802198,0.41715727502102606,1193.0
999.0,1.7103024597458552e+18,0.42428198433420367,0.4063926940639269,0.31891891891891894,0.5015896307165566,0.6626373626373626,0.4499579478553406,1196.0
1000.0,1.710302459755855e+18,0.4608355091383812,0.4098173515981735,0.31945945945945947,0.5143066764490095,0.6461538461538462,0.4693019343986543,1198.0
