202.0,1.7114386657952335e+18,0.47911227154047,0.4155251141552511,0.3254054054054054,0.5067253607238934,0.6252747252747253,0.4415475189234651,1196.0
203.0,1.7114386658052413e+18,0.47389033942558745,0.4178082191780822,0.3345945945945946,0.4991440449987772,0.6230769230769231,0.44070647603027757,1197.0
204.0,1.7114386658152356e+18,0.47389033942558745,0.4075342465753425,0.3281081081081081,0.5001222792858889,0.6241758241758242,0.43650126156433977,1195.0
205.0,1.7114386658252485e+18,0.48172323759791125,0.4246575342465753,0.3518918918918919,0.4988994864269993,0.6307692307692307,0.44238856181665265,1196.0
206.0,1.7114386658352328e+18,0.47127937336814624,0.4121004566210046,0.33135135135135135,0.5025678650036683,0.6274725274725275,0.4415475189234651,1196.0
207.0,1.711438665845239e+18,0.47127937336814624,0.4006849315068493,0.32216216216216215,0.5015896307165566,0.6274725274725275,0.44070647603027757,1198.0
208.0,1.7114386658552353e+18,0.47911227154047,0.4337899543378995,0.38432432432432434,0.5018341892883346,0.6274725274725275,0.43986543313709,1197.0
209.0,1.7114386658652372e+18,0.46866840731070497,0.4041095890410959,0.3264864864864865,0.49938860357055515,0.6197802197802198,0.4339781328847771,1194.0
210.0,1.7114386658752317e+18,0.46736292428198434,0.4041095890410959,0.312972972972973,0.49938860357055515,0.6175824175824176,0.43566021867115223,1198.0
211.0,1.711438665885243e+18,0.4699738903394256,0.4155251141552511,0.3410810810810811,0.5020787478601125,0.6274725274725275,0.4415475189234651,1196.0
212.0,1.711438665895232e+18,0.47389033942558745,0.4132420091324201,0.3264864864864865,0.5011005135730008,0.6241758241758242,0.4415475189234651,1196.0
213.0,1.7114386659052375e+18,0.47780678851174935,0.4098173515981735,0.31945945945945947,0.5008559550012228,0.6252747252747253,0.43902439024390244,1196.0
214.0,1.7114386659152297e+18,0.4765013054830287,0.4098173515981735,0.3043243243243243,0.5018341892883346,0.621978021978022,0.4373423044575273,1196.0
215.0,1.7114386659252367e+18,0.47780678851174935,0.4121004566210046,0.34162162162162163,0.504279775006114,0.6274725274725275,0.4432296047098402,1196.0
216.0,1.7114386659352323e+18,0.4725848563968668,0.4178082191780822,0.33135135135135135,0.5006113964294449,0.6186813186813187,0.43566021867115223,1196.0
217.0,1.7114386659452372e+18,0.47780678851174935,0.4178082191780822,0.32756756756756755,0.5025678650036683,0.6285714285714286,0.4415475189234651,1195.0
218.0,1.7114386659552323e+18,0.47389033942558745,0.4075342465753425,0.31891891891891894,0.49938860357055515,0.6274725274725275,0.43986543313709,1195.0
219.0,1.7114386659652344e+18,0.4804177545691906,0.4155251141552511,0.33783783783783783,0.5015896307165566,0.6252747252747253,0.43986543313709,1196.0
220.0,1.7114386659752425e+18,0.4765013054830287,0.4155251141552511,0.33675675675675676,0.5008559550012228,0.6285714285714286,0.4381833473507149,1195.0
221.0,1.7114386659852398e+18,0.48172323759791125,0.4257990867579909,0.3491891891891892,0.5035460992907801,0.6274725274725275,0.4415475189234651,1195.0
222.0,1.7114386659952343e+18,0.4765013054830287,0.4178082191780822,0.33135135135135135,0.5015896307165566,0.6285714285714286,0.44070647603027757,1195.0
223.0,1.711438666005238e+18,0.47389033942558745,0.4155251141552511,0.33135135135135135,0.5023233064318905,0.6274725274725275,0.4415475189234651,1196.0
224.0,1.7114386660152348e+18,0.4765013054830287,0.4098173515981735,0.3302702702702703,0.5015896307165566,0.6252747252747253,0.43902439024390244,1196.0
225.0,1.7114386660252372e+18,0.4869451697127937,0.4406392694063927,0.36702702702702705,0.5086818292981169,0.6384615384615384,0.44575273338940286,1195.0
226.0,1.7114386660352323e+18,0.47127937336814624,0.4166666666666667,0.3427027027027027,0.5001222792858889,0.6241758241758242,0.4415475189234651,1195.0
227.0,1.7114386660452534e+18,0.47911227154047,0.4212328767123288,0.3172972972972973,0.5023233064318905,0.6274725274725275,0.43902439024390244,1195.0
228.0,1.711438666055223e+18,0.46475195822454307,0.4075342465753425,0.3232432432432432,0.4986549278552213,0.6164835164835165,0.43650126156433977,1198.0
229.0,1.7114386660652352e+18,0.4725848563968668,0.4132420091324201,0.3264864864864865,0.5047688921496698,0.6274725274725275,0.4381833473507149,1196.0
230.0,1.711438666075233e+18,0.46736292428198434,0.4143835616438356,0.33783783783783783,0.5011005135730008,0.6252747252747253,0.43566021867115223,1196.0
231.0,1.7114386660852526e+18,0.4765013054830287,0.4029680365296804,0.3254054054054054,0.5003668378576669,0.621978021978022,0.43650126156433977,1196.0
232.0,1.7114386660952515e+18,0.47911227154047,0.4143835616438356,0.33297297297297296,0.4988994864269993,0.6241758241758242,0.4432296047098402,1196.0
233.0,1.7114386661052367e+18,0.4765013054830287,0.4292237442922374,0.3589189189189189,0.5062362435803375,0.6329670329670329,0.4381833473507149,1197.0
234.0,1.7114386661152366e+18,0.45822454308093996,0.4075342465753425,0.32216216216216215,0.4991440449987772,0.6175824175824176,0.43650126156433977,1198.0
235.0,1.711438666125251e+18,0.49869451697127937,0.4075342465753425,0.32216216216216215,0.5006113964294449,0.6274725274725275,0.44575273338940286,1197.0
236.0,1.7114386661352548e+18,0.46344647519582244,0.4189497716894977,0.34702702702702704,0.5011005135730008,0.6274725274725275,0.4373423044575273,1197.0
237.0,1.711438666145245e+18,0.4621409921671018,0.4029680365296804,0.28864864864864864,0.5055025678650037,0.6197802197802198,0.43650126156433977,1194.0
238.0,1.7114386661552353e+18,0.4112271540469974,0.4006849315068493,0.32,0.5006113964294449,0.621978021978022,0.43986543313709,1195.0
239.0,1.71143866616524e+18,0.46736292428198434,0.4132420091324201,0.34864864864864864,0.504035216434336,0.6329670329670329,0.4432296047098402,1195.0
240.0,1.7114386661752364e+18,0.4765013054830287,0.410958904109589,0.32054054054054054,0.5025678650036683,0.6197802197802198,0.432296047098402,1194.0
241.0,1.7114386661852457e+18,0.48172323759791125,0.4223744292237443,0.352972972972973,0.5018341892883346,0.6230769230769231,0.4381833473507149,1197.0
242.0,1.7114386661952346e+18,0.46866840731070497,0.408675799086758,0.307027027027027,0.499877720714111,0.6307692307692307,0.43986543313709,1196.0
243.0,1.7114386662052314e+18,0.4725848563968668,0.4075342465753425,0.3302702702702703,0.5006113964294449,0.6208791208791209,0.4348191757779647,1197.0
244.0,1.711438666215226e+18,0.4765013054830287,0.4200913242009132,0.3491891891891892,0.5006113964294449,0.6175824175824176,0.4381833473507149,1193.0
245.0,1.71143866622523e+18,0.4804177545691906,0.4235159817351598,0.3362162162162162,0.504035216434336,0.6307692307692307,0.4415475189234651,1196.0
246.0,1.711438666235236e+18,0.4751958224543081,0.4223744292237443,0.33837837837837836,0.5008559550012228,0.6241758241758242,0.43986543313709,1195.0
247.0,1.7114386662452618e+18,0.46736292428198434,0.4189497716894977,0.36162162162162165,0.49938860357055515,0.6230769230769231,0.4381833473507149,1196.0
248.0,1.7114386662552338e+18,0.5026109660574413,0.4452054794520548,0.38324324324324327,0.5028124235754463,0.6362637362637362,0.45164003364171573,1196.0
249.0,1.711438666265216e+18,0.46344647519582244,0.4041095890410959,0.3183783783783784,0.5008559550012228,0.6175824175824176,0.43650126156433977,1197.0
250.0,1.711438666275233e+18,0.46344647519582244,0.3915525114155251,0.2935135135135135,0.4988994864269993,0.6252747252747253,0.43650126156433977,1196.0
251.0,1.7114386662852477e+18,0.47389033942558745,0.410958904109589,0.31567567567567567,0.5001222792858889,0.6274725274725275,0.4415475189234651,1198.0
252.0,1.7114386662952328e+18,0.4869451697127937,0.4200913242009132,0.3535135135135135,0.5008559550012228,0.6241758241758242,0.4415475189234651,1197.0
253.0,1.7114386663052362e+18,0.47389033942558745,0.4155251141552511,0.3335135135135135,0.5011005135730008,0.6153846153846154,0.43650126156433977,1196.0
254.0,1.7114386663152233e+18,0.47389033942558745,0.410958904109589,0.33135135135135135,0.5020787478601125,0.6241758241758242,0.4381833473507149,1196.0
255.0,1.7114386663252677e+18,0.4699738903394256,0.4052511415525114,0.31405405405405407,0.5011005135730008,0.6230769230769231,0.4381833473507149,1195.0
256.0,1.711438666335231e+18,0.47780678851174935,0.4200913242009132,0.33837837837837836,0.5018341892883346,0.6274725274725275,0.43986543313709,1196.0
257.0,1.7114386663452385e+18,0.47127937336814624,0.4041095890410959,0.3232432432432432,0.5023233064318905,0.6208791208791209,0.4339781328847771,1192.0
258.0,1.7114386663552287e+18,0.47911227154047,0.4200913242009132,0.3545945945945946,0.5008559550012228,0.6208791208791209,0.4381833473507149,1194.0
259.0,1.7114386663652447e+18,0.4908616187989556,0.4394977168949772,0.3535135135135135,0.5037906578625581,0.6274725274725275,0.4432296047098402,1196.0
260.0,1.711438666375228e+18,0.4725848563968668,0.408675799086758,0.32,0.5006113964294449,0.6252747252747253,0.43650126156433977,1197.0
261.0,1.7114386663852598e+18,0.4765013054830287,0.4132420091324201,0.32756756756756755,0.5015896307165566,0.6230769230769231,0.43986543313709,1195.0
262.0,1.7114386663952453e+18,0.4751958224543081,0.4018264840182648,0.30972972972972973,0.499877720714111,0.6230769230769231,0.43902439024390244,1196.0
263.0,1.7114386664052413e+18,0.4725848563968668,0.4075342465753425,0.32756756756756755,0.5008559550012228,0.6230769230769231,0.4415475189234651,1196.0
264.0,1.7114386664152292e+18,0.4765013054830287,0.4189497716894977,0.3427027027027027,0.5018341892883346,0.6274725274725275,0.4381833473507149,1195.0
265.0,1.71143866642525e+18,0.48825065274151436,0.4429223744292237,0.39513513513513515,0.504524333577892,0.6296703296703297,0.4415475189234651,1196.0
266.0,1.711438666435272e+18,0.4804177545691906,0.4280821917808219,0.3772972972972973,0.5052580092932257,0.6329670329670329,0.4415475189234651,1194.0
267.0,1.7114386664452416e+18,0.47780678851174935,0.4075342465753425,0.3145945945945946,0.49620934213744194,0.6208791208791209,0.4415475189234651,1197.0
268.0,1.7114386664552328e+18,0.47127937336814624,0.4121004566210046,0.34486486486486484,0.487649792125214,0.621978021978022,0.43902439024390244,1196.0
269.0,1.7114386664652316e+18,0.47911227154047,0.4189497716894977,0.33297297297297296,0.5155294693078992,0.6318681318681318,0.43902439024390244,1196.0
270.0,1.7114386664752476e+18,0.4751958224543081,0.4041095890410959,0.33783783783783783,0.4944974321349963,0.6318681318681318,0.44070647603027757,1197.0
271.0,1.7114386664852603e+18,0.46736292428198434,0.4006849315068493,0.31405405405405407,0.4942528735632184,0.6153846153846154,0.43986543313709,1195.0
272.0,1.7114386664952305e+18,0.47389033942558745,0.408675799086758,0.33783783783783783,0.49938860357055515,0.6252747252747253,0.4415475189234651,1197.0
273.0,1.7114386665052357e+18,0.46475195822454307,0.4132420091324201,0.33405405405405403,0.5074590364392272,0.6307692307692307,0.44575273338940286,1197.0
274.0,1.7114386665152315e+18,0.4725848563968668,0.4098173515981735,0.32,0.4984103692834434,0.6274725274725275,0.4415475189234651,1196.0
275.0,1.7114386665252413e+18,0.4765013054830287,0.4212328767123288,0.34324324324324323,0.49474199070677427,0.6230769230769231,0.43902439024390244,1194.0
276.0,1.7114386665352548e+18,0.48172323759791125,0.4132420091324201,0.32594594594594595,0.49938860357055515,0.6263736263736264,0.43986543313709,1194.0
277.0,1.7114386665452575e+18,0.4725848563968668,0.4121004566210046,0.3362162162162162,0.49523110785033014,0.6197802197802198,0.4381833473507149,1196.0
278.0,1.7114386665552143e+18,0.4804177545691906,0.410958904109589,0.33675675675675676,0.4830031792614331,0.6175824175824176,0.4339781328847771,1194.0
279.0,1.7114386665652575e+18,0.4621409921671018,0.4098173515981735,0.33513513513513515,0.5157740278796772,0.6318681318681318,0.4415475189234651,1195.0
280.0,1.7114386665752384e+18,0.4869451697127937,0.4429223744292237,0.38054054054054054,0.512350207874786,0.6483516483516484,0.4432296047098402,1197.0
281.0,1.7114386665852436e+18,0.46736292428198434,0.4178082191780822,0.3318918918918919,0.5096600635852286,0.6208791208791209,0.43566021867115223,1194.0
282.0,1.7114386665952302e+18,0.47127937336814624,0.4132420091324201,0.31945945945945947,0.4966984592809978,0.6241758241758242,0.43902439024390244,1196.0
283.0,1.7114386666052298e+18,0.489556135770235,0.4143835616438356,0.3037837837837838,0.5028124235754463,0.6252747252747253,0.4373423044575273,1196.0
284.0,1.7114386666152274e+18,0.41906005221932113,0.3892694063926941,0.3124324324324324,0.504524333577892,0.6395604395604395,0.4575273338940286,1197.0
285.0,1.7114386666252434e+18,0.5026109660574413,0.454337899543379,0.40540540540540543,0.499877720714111,0.6450549450549451,0.45164003364171573,1197.0
286.0,1.7114386666352453e+18,0.47780678851174935,0.410958904109589,0.3232432432432432,0.504524333577892,0.6274725274725275,0.44238856181665265,1196.0
287.0,1.7114386666452413e+18,0.4830287206266319,0.4315068493150685,0.33405405405405403,0.5047688921496698,0.6241758241758242,0.4381833473507149,1196.0
288.0,1.7114386666552317e+18,0.47127937336814624,0.4075342465753425,0.33297297297297296,0.5006113964294449,0.621978021978022,0.43566021867115223,1200.0
289.0,1.7114386666652634e+18,0.4765013054830287,0.4132420091324201,0.31945945945945947,0.5015896307165566,0.6274725274725275,0.4415475189234651,1197.0
290.0,1.7114386666752553e+18,0.4856396866840731,0.4429223744292237,0.40216216216216216,0.5094155050134507,0.6384615384615384,0.4449116904962153,1198.0
291.0,1.7114386666852498e+18,0.4751958224543081,0.4235159817351598,0.35783783783783785,0.5030569821472243,0.6208791208791209,0.4339781328847771,1195.0
292.0,1.7114386666952287e+18,0.4725848563968668,0.4098173515981735,0.30324324324324325,0.5050134507214478,0.6329670329670329,0.43650126156433977,1196.0
293.0,1.7114386667052347e+18,0.47127937336814624,0.4041095890410959,0.31567567567567567,0.4996331621423331,0.6164835164835165,0.44238856181665265,1196.0
294.0,1.7114386667152307e+18,0.4869451697127937,0.4394977168949772,0.3783783783783784,0.5057471264367817,0.6318681318681318,0.4415475189234651,1197.0
295.0,1.711438666725268e+18,0.4751958224543081,0.4143835616438356,0.3318918918918919,0.5030569821472243,0.6241758241758242,0.4255677039529016,1193.0
296.0,1.7114386667352407e+18,0.4830287206266319,0.4280821917808219,0.36648648648648646,0.5015896307165566,0.6186813186813187,0.43986543313709,1194.0
297.0,1.7114386667452375e+18,0.4765013054830287,0.408675799086758,0.312972972972973,0.5015896307165566,0.6296703296703297,0.4440706476030278,1196.0
298.0,1.71143866675523e+18,0.49869451697127937,0.410958904109589,0.3410810810810811,0.5020787478601125,0.6186813186813187,0.42977291841883936,1195.0
299.0,1.7114386667652516e+18,0.5,0.4474885844748858,0.41945945945945945,0.504524333577892,0.6285714285714286,0.4449116904962153,1196.0
300.0,1.7114386667752556e+18,0.4725848563968668,0.408675799086758,0.3362162162162162,0.5006113964294449,0.6186813186813187,0.43313708999158956,1194.0
301.0,1.7114386667852419e+18,0.4751958224543081,0.410958904109589,0.33297297297297296,0.5018341892883346,0.6285714285714286,0.4415475189234651,1196.0
302.0,1.7114386667952412e+18,0.4765013054830287,0.4075342465753425,0.30864864864864866,0.4996331621423331,0.6274725274725275,0.43313708999158956,1194.0
303.0,1.7114386668052454e+18,0.47780678851174935,0.4132420091324201,0.32432432432432434,0.5020787478601125,0.6208791208791209,0.4373423044575273,1194.0
304.0,1.711438666815238e+18,0.47911227154047,0.4121004566210046,0.3227027027027027,0.5001222792858889,0.621978021978022,0.44575273338940286,1198.0
305.0,1.71143866682526e+18,0.46475195822454307,0.4200913242009132,0.35783783783783785,0.5025678650036683,0.6296703296703297,0.4449116904962153,1196.0
306.0,1.7114386668352425e+18,0.489556135770235,0.4337899543378995,0.3637837837837838,0.5035460992907801,0.634065934065934,0.4381833473507149,1197.0
307.0,1.711438666845253e+18,0.4725848563968668,0.4155251141552511,0.32594594594594595,0.5015896307165566,0.6241758241758242,0.43566021867115223,1197.0
308.0,1.7114386668552346e+18,0.47780678851174935,0.4178082191780822,0.34216216216216216,0.5011005135730008,0.6241758241758242,0.43902439024390244,1198.0
309.0,1.7114386668652664e+18,0.4856396866840731,0.4280821917808219,0.37189189189189187,0.5018341892883346,0.6307692307692307,0.43986543313709,1196.0
310.0,1.7114386668752438e+18,0.47127937336814624,0.4018264840182648,0.31891891891891894,0.5008559550012228,0.6285714285714286,0.4482758620689655,1196.0
311.0,1.7114386668852465e+18,0.46475195822454307,0.4041095890410959,0.31027027027027027,0.5006113964294449,0.621978021978022,0.4314550042052145,1195.0
312.0,1.7114386668952335e+18,0.47911227154047,0.4223744292237443,0.35567567567567565,0.5006113964294449,0.6230769230769231,0.43902439024390244,1195.0
313.0,1.7114386669052367e+18,0.46866840731070497,0.4098173515981735,0.3124324324324324,0.5008559550012228,0.6318681318681318,0.4289318755256518,1194.0
314.0,1.7114386669152305e+18,0.47911227154047,0.4029680365296804,0.3254054054054054,0.5006113964294449,0.6274725274725275,0.4381833473507149,1196.0
315.0,1.7114386669252652e+18,0.47911227154047,0.4223744292237443,0.3183783783783784,0.5055025678650037,0.6241758241758242,0.43313708999158956,1193.0
316.0,1.7114386669352287e+18,0.4725848563968668,0.4132420091324201,0.3281081081081081,0.5008559550012228,0.6329670329670329,0.43986543313709,1196.0
317.0,1.711438666945235e+18,0.45039164490861616,0.4155251141552511,0.3124324324324324,0.5050134507214478,0.6274725274725275,0.44070647603027757,1197.0
318.0,1.71143866695523e+18,0.47911227154047,0.4143835616438356,0.3362162162162162,0.5008559550012228,0.6318681318681318,0.4465937762825904,1196.0
319.0,1.7114386669652713e+18,0.4830287206266319,0.4178082191780822,0.3210810810810811,0.5057471264367817,0.6241758241758242,0.432296047098402,1194.0
320.0,1.7114386669752635e+18,0.4765013054830287,0.4200913242009132,0.3216216216216216,0.5018341892883346,0.6252747252747253,0.44238856181665265,1196.0
321.0,1.7114386669852454e+18,0.48172323759791125,0.4178082191780822,0.32972972972972975,0.5011005135730008,0.6230769230769231,0.43902439024390244,1196.0
322.0,1.71143866699524e+18,0.4660574412532637,0.408675799086758,0.3324324324324324,0.5006113964294449,0.6241758241758242,0.43902439024390244,1196.0
323.0,1.7114386670052372e+18,0.4765013054830287,0.4052511415525114,0.31945945945945947,0.5064808021521154,0.6296703296703297,0.4381833473507149,1198.0
324.0,1.711438667015228e+18,0.47389033942558745,0.4063926940639269,0.31027027027027027,0.5015896307165566,0.6274725274725275,0.4348191757779647,1195.0
325.0,1.7114386670252605e+18,0.4830287206266319,0.4452054794520548,0.40756756756756757,0.5074590364392272,0.6252747252747253,0.44238856181665265,1193.0
326.0,1.71143866703524e+18,0.4725848563968668,0.4121004566210046,0.34324324324324323,0.5001222792858889,0.6208791208791209,0.432296047098402,1192.0
327.0,1.7114386670452536e+18,0.48172323759791125,0.410958904109589,0.3427027027027027,0.5028124235754463,0.6318681318681318,0.4449116904962153,1197.0
328.0,1.7114386670552323e+18,0.4699738903394256,0.4155251141552511,0.3291891891891892,0.5008559550012228,0.6208791208791209,0.42640874684608915,1193.0
329.0,1.7114386670652477e+18,0.4934725848563969,0.4246575342465753,0.31891891891891894,0.5064808021521154,0.6406593406593407,0.4634146341463415,1196.0
330.0,1.71143866707524e+18,0.4869451697127937,0.454337899543379,0.41135135135135137,0.5074590364392272,0.6362637362637362,0.4314550042052145,1197.0
331.0,1.7114386670852562e+18,0.47389033942558745,0.4200913242009132,0.34864864864864864,0.5030569821472243,0.6230769230769231,0.4314550042052145,1194.0
332.0,1.7114386670952369e+18,0.4765013054830287,0.4212328767123288,0.34486486486486484,0.5011005135730008,0.6274725274725275,0.4381833473507149,1196.0
333.0,1.711438667105247e+18,0.4699738903394256,0.408675799086758,0.3286486486486486,0.5006113964294449,0.6186813186813187,0.4415475189234651,1197.0
334.0,1.711438667115234e+18,0.48172323759791125,0.4429223744292237,0.37513513513513513,0.508192712154561,0.6296703296703297,0.43902439024390244,1196.0
335.0,1.7114386671252577e+18,0.4725848563968668,0.410958904109589,0.3318918918918919,0.5096600635852286,0.6274725274725275,0.43986543313709,1197.0
336.0,1.7114386671352428e+18,0.4804177545691906,0.4315068493150685,0.36972972972972973,0.5079481535827831,0.6373626373626373,0.4449116904962153,1197.0
337.0,1.711438667145248e+18,0.5026109660574413,0.4771689497716895,0.44972972972972974,0.5143066764490095,0.6472527472527473,0.4482758620689655,1194.0
338.0,1.7114386671552353e+18,0.48825065274151436,0.3984018264840183,0.3172972972972973,0.495964783565664,0.6186813186813187,0.4339781328847771,1194.0
339.0,1.711438667165282e+18,0.4765013054830287,0.4006849315068493,0.31027027027027027,0.4984103692834434,0.6230769230769231,0.4440706476030278,1194.0
340.0,1.7114386671752346e+18,0.4660574412532637,0.4018264840182648,0.307027027027027,0.499877720714111,0.6186813186813187,0.432296047098402,1192.0
341.0,1.7114386671852431e+18,0.4830287206266319,0.4166666666666667,0.3286486486486486,0.5018341892883346,0.6274725274725275,0.45164003364171573,1196.0
342.0,1.711438667195231e+18,0.47127937336814624,0.4132420091324201,0.34486486486486484,0.4988994864269993,0.6208791208791209,0.4280908326324643,1193.0
343.0,1.711438667205237e+18,0.48172323759791125,0.4223744292237443,0.35081081081081084,0.5055025678650037,0.6362637362637362,0.4482758620689655,1194.0
344.0,1.711438667215233e+18,0.4725848563968668,0.408675799086758,0.3654054054054054,0.5020787478601125,0.6252747252747253,0.43650126156433977,1195.0
345.0,1.7114386672252547e+18,0.48825065274151436,0.4406392694063927,0.36864864864864866,0.5055025678650037,0.6285714285714286,0.44070647603027757,1195.0
346.0,1.7114386672352466e+18,0.4516971279373368,0.4006849315068493,0.2983783783783784,0.499877720714111,0.6263736263736264,0.44238856181665265,1197.0
347.0,1.7114386672452362e+18,0.48825065274151436,0.4269406392694064,0.3427027027027027,0.5013450721447786,0.6384615384615384,0.4440706476030278,1197.0
348.0,1.7114386672552312e+18,0.48172323759791125,0.4223744292237443,0.34702702702702704,0.5028124235754463,0.6362637362637362,0.43902439024390244,1197.0
349.0,1.7114386672652554e+18,0.4660574412532637,0.4235159817351598,0.3572972972972973,0.5020787478601125,0.6285714285714286,0.44575273338940286,1196.0
350.0,1.711438667275247e+18,0.49216710182767626,0.4189497716894977,0.33297297297297296,0.5006113964294449,0.6208791208791209,0.43313708999158956,1193.0
351.0,1.7114386672852442e+18,0.48825065274151436,0.4200913242009132,0.3551351351351351,0.5020787478601125,0.6230769230769231,0.4465937762825904,1196.0
352.0,1.7114386672952348e+18,0.47127937336814624,0.4132420091324201,0.33297297297297296,0.4979212521398875,0.6230769230769231,0.4339781328847771,1194.0
353.0,1.7114386673052332e+18,0.46736292428198434,0.4200913242009132,0.3227027027027027,0.5067253607238934,0.6373626373626373,0.4482758620689655,1196.0
354.0,1.7114386673152333e+18,0.489556135770235,0.4132420091324201,0.32972972972972975,0.4954756664221081,0.610989010989011,0.4381833473507149,1195.0
355.0,1.7114386673252562e+18,0.45822454308093996,0.4018264840182648,0.3216216216216216,0.5015896307165566,0.6153846153846154,0.4289318755256518,1192.0
356.0,1.711438667335236e+18,0.49738903394255873,0.4018264840182648,0.3172972972972973,0.5033015407190022,0.6274725274725275,0.4440706476030278,1196.0
357.0,1.7114386673452385e+18,0.41906005221932113,0.3961187214611872,0.3075675675675676,0.49767669356810956,0.6164835164835165,0.4373423044575273,1194.0
358.0,1.71143866735524e+18,0.46475195822454307,0.3858447488584475,0.3302702702702703,0.5015896307165566,0.6230769230769231,0.4373423044575273,1196.0
359.0,1.7114386673652593e+18,0.47127937336814624,0.4018264840182648,0.31675675675675674,0.4979212521398875,0.6208791208791209,0.4415475189234651,1196.0
360.0,1.71143866737526e+18,0.4804177545691906,0.4246575342465753,0.36,0.49767669356810956,0.6241758241758242,0.4339781328847771,1193.0
361.0,1.7114386673852365e+18,0.46475195822454307,0.3972602739726027,0.3210810810810811,0.4969430178527757,0.6142857142857143,0.4280908326324643,1194.0
362.0,1.7114386673952384e+18,0.4934725848563969,0.4269406392694064,0.40864864864864864,0.49767669356810956,0.634065934065934,0.43902439024390244,1197.0
363.0,1.711438667405242e+18,0.46736292428198434,0.3881278538812785,0.2627027027027027,0.49474199070677427,0.6296703296703297,0.43902439024390244,1196.0
364.0,1.711438667415234e+18,0.46475195822454307,0.410958904109589,0.32972972972972975,0.5055025678650037,0.6241758241758242,0.4373423044575273,1196.0
365.0,1.7114386674252577e+18,0.4804177545691906,0.4189497716894977,0.32216216216216215,0.5079481535827831,0.6384615384615384,0.43902439024390244,1197.0
366.0,1.7114386674352402e+18,0.4699738903394256,0.408675799086758,0.3389189189189189,0.5011005135730008,0.621978021978022,0.4381833473507149,1196.0
367.0,1.7114386674452424e+18,0.47127937336814624,0.408675799086758,0.34324324324324323,0.504035216434336,0.6318681318681318,0.4415475189234651,1197.0
368.0,1.7114386674552374e+18,0.4660574412532637,0.408675799086758,0.33513513513513515,0.4971875764245537,0.6252747252747253,0.4373423044575273,1199.0
369.0,1.7114386674652477e+18,0.49477806788511747,0.4703196347031963,0.4745945945945946,0.5059916850085595,0.6362637362637362,0.4449116904962153,1196.0
370.0,1.7114386674752407e+18,0.4725848563968668,0.4075342465753425,0.31135135135135134,0.504035216434336,0.6296703296703297,0.43986543313709,1196.0
371.0,1.7114386674852319e+18,0.4751958224543081,0.4029680365296804,0.31135135135135134,0.5055025678650037,0.6241758241758242,0.4348191757779647,1196.0
372.0,1.7114386674952307e+18,0.4699738903394256,0.4041095890410959,0.3216216216216216,0.49767669356810956,0.6285714285714286,0.4373423044575273,1198.0
373.0,1.7114386675052334e+18,0.48825065274151436,0.408675799086758,0.32432432432432434,0.49474199070677427,0.6175824175824176,0.4381833473507149,1193.0
374.0,1.7114386675152294e+18,0.47389033942558745,0.4178082191780822,0.3372972972972973,0.5152849107361213,0.6351648351648351,0.43902439024390244,1197.0
375.0,1.7114386675252516e+18,0.46736292428198434,0.4075342465753425,0.33297297297297296,0.5006113964294449,0.6263736263736264,0.4373423044575273,1195.0
376.0,1.7114386675352328e+18,0.47389033942558745,0.430365296803653,0.37135135135135133,0.5006113964294449,0.6274725274725275,0.4415475189234651,1197.0
377.0,1.7114386675452383e+18,0.49738903394255873,0.4155251141552511,0.32,0.5006113964294449,0.6274725274725275,0.4415475189234651,1194.0
378.0,1.7114386675552307e+18,0.46866840731070497,0.4052511415525114,0.3291891891891892,0.4900953778429934,0.6164835164835165,0.43566021867115223,1196.0
379.0,1.711438667565238e+18,0.47780678851174935,0.4178082191780822,0.34486486486486484,0.5094155050134507,0.6230769230769231,0.43650126156433977,1194.0
380.0,1.711438667575234e+18,0.4660574412532637,0.4029680365296804,0.3264864864864865,0.5079481535827831,0.6318681318681318,0.44238856181665265,1196.0
381.0,1.7114386675852424e+18,0.4856396866840731,0.4166666666666667,0.3254054054054054,0.49938860357055515,0.6274725274725275,0.4432296047098402,1198.0
382.0,1.7114386675952325e+18,0.489556135770235,0.4337899543378995,0.3972972972972973,0.4842259721203228,0.6230769230769231,0.4415475189234651,1197.0
383.0,1.7114386676052337e+18,0.46475195822454307,0.4075342465753425,0.32,0.4991440449987772,0.6285714285714286,0.43986543313709,1195.0
384.0,1.7114386676152136e+18,0.46866840731070497,0.410958904109589,0.3345945945945946,0.5030569821472243,0.6230769230769231,0.43566021867115223,1196.0
385.0,1.7114386676252416e+18,0.4725848563968668,0.4223744292237443,0.34,0.5072144778674492,0.6329670329670329,0.4415475189234651,1198.0
386.0,1.7114386676352463e+18,0.4660574412532637,0.4257990867579909,0.3654054054054054,0.48373685497676694,0.6230769230769231,0.43650126156433977,1195.0
387.0,1.711438667645241e+18,0.47911227154047,0.4246575342465753,0.3291891891891892,0.4988994864269993,0.6208791208791209,0.4373423044575273,1196.0
388.0,1.711438667655234e+18,0.4934725848563969,0.4098173515981735,0.3232432432432432,0.48813890926876985,0.6208791208791209,0.4373423044575273,1197.0
389.0,1.7114386676652657e+18,0.47780678851174935,0.4075342465753425,0.292972972972973,0.49767669356810956,0.6186813186813187,0.4381833473507149,1197.0
390.0,1.7114386676752435e+18,0.4934725848563969,0.4063926940639269,0.31135135135135134,0.495964783565664,0.6230769230769231,0.4381833473507149,1195.0
391.0,1.7114386676852424e+18,0.46736292428198434,0.410958904109589,0.31945945945945947,0.4991440449987772,0.621978021978022,0.43650126156433977,1198.0
392.0,1.7114386676952438e+18,0.47911227154047,0.4143835616438356,0.3654054054054054,0.5133284421618978,0.6307692307692307,0.4381833473507149,1197.0
393.0,1.711438667705248e+18,0.4660574412532637,0.408675799086758,0.3324324324324324,0.4937637564196625,0.610989010989011,0.43902439024390244,1198.0
394.0,1.711438667715249e+18,0.4725848563968668,0.4052511415525114,0.3286486486486486,0.5008559550012228,0.6285714285714286,0.44238856181665265,1198.0
395.0,1.7114386677252782e+18,0.45691906005221933,0.3995433789954338,0.3254054054054054,0.5055025678650037,0.6274725274725275,0.43986543313709,1197.0
396.0,1.7114386677352481e+18,0.47911227154047,0.4178082191780822,0.32972972972972975,0.5113719735876743,0.6230769230769231,0.4381833473507149,1197.0
397.0,1.7114386677452503e+18,0.47389033942558745,0.4178082191780822,0.3308108108108108,0.5064808021521154,0.6252747252747253,0.43650126156433977,1194.0
398.0,1.7114386677552474e+18,0.46866840731070497,0.4075342465753425,0.29405405405405405,0.5194424064563463,0.6208791208791209,0.4373423044575273,1196.0
399.0,1.7114386677652575e+18,0.46475195822454307,0.3961187214611872,0.34054054054054056,0.5020787478601125,0.6230769230769231,0.4373423044575273,1195.0
400.0,1.7114386677752596e+18,0.4869451697127937,0.4520547945205479,0.39675675675675676,0.5011005135730008,0.634065934065934,0.4415475189234651,1197.0
401.0,1.711438667785244e+18,0.47127937336814624,0.4189497716894977,0.3345945945945946,0.5025678650036683,0.6274725274725275,0.43902439024390244,1198.0
402.0,1.7114386677952412e+18,0.4608355091383812,0.4178082191780822,0.34216216216216216,0.49327463927610665,0.6098901098901099,0.432296047098402,1193.0
403.0,1.7114386678052483e+18,0.4804177545691906,0.4223744292237443,0.36324324324324325,0.5069699192956714,0.6571428571428571,0.45248107653490327,1198.0
404.0,1.711438667815242e+18,0.4830287206266319,0.430365296803653,0.3816216216216216,0.504524333577892,0.6230769230769231,0.43902439024390244,1197.0
405.0,1.7114386678252605e+18,0.47780678851174935,0.4041095890410959,0.3216216216216216,0.5001222792858889,0.6208791208791209,0.4373423044575273,1197.0
406.0,1.711438667835237e+18,0.46475195822454307,0.4052511415525114,0.3264864864864865,0.5006113964294449,0.6197802197802198,0.4339781328847771,1196.0
407.0,1.7114386678452498e+18,0.48172323759791125,0.4200913242009132,0.33513513513513515,0.5037906578625581,0.6263736263736264,0.43902439024390244,1196.0
408.0,1.7114386678552356e+18,0.48172323759791125,0.4394977168949772,0.4118918918918919,0.504524333577892,0.6307692307692307,0.44575273338940286,1197.0
409.0,1.7114386678652613e+18,0.4660574412532637,0.4098173515981735,0.31351351351351353,0.5062362435803375,0.6230769230769231,0.432296047098402,1195.0
410.0,1.7114386678752607e+18,0.4765013054830287,0.4143835616438356,0.3016216216216216,0.5035460992907801,0.6197802197802198,0.44070647603027757,1195.0
411.0,1.711438667885233e+18,0.47127937336814624,0.4041095890410959,0.3027027027027027,0.5006113964294449,0.6230769230769231,0.4289318755256518,1193.0
412.0,1.7114386678952317e+18,0.47127937336814624,0.4098173515981735,0.3124324324324324,0.499877720714111,0.6208791208791209,0.43566021867115223,1197.0
413.0,1.7114386679052385e+18,0.47780678851174935,0.4132420091324201,0.3237837837837838,0.5035460992907801,0.6274725274725275,0.43650126156433977,1197.0
414.0,1.711438667915231e+18,0.5052219321148825,0.4155251141552511,0.3324324324324324,0.5001222792858889,0.6153846153846154,0.4373423044575273,1197.0
415.0,1.7114386679252516e+18,0.5156657963446475,0.4315068493150685,0.3248648648648649,0.5025678650036683,0.6362637362637362,0.4667788057190917,1195.0
416.0,1.711438667935272e+18,0.4621409921671018,0.4132420091324201,0.3302702702702703,0.5015896307165566,0.6318681318681318,0.4482758620689655,1195.0
417.0,1.7114386679452467e+18,0.47389033942558745,0.4063926940639269,0.3178378378378378,0.5025678650036683,0.6186813186813187,0.43902439024390244,1194.0
418.0,1.711438667955237e+18,0.4765013054830287,0.4212328767123288,0.35405405405405405,0.504035216434336,0.6318681318681318,0.4348191757779647,1197.0
419.0,1.711438667965248e+18,0.4699738903394256,0.408675799086758,0.3237837837837838,0.5003668378576669,0.6054945054945055,0.4213624894869638,1193.0
420.0,1.7114386679752625e+18,0.48172323759791125,0.4223744292237443,0.3491891891891892,0.5015896307165566,0.6241758241758242,0.45500420521446594,1195.0
421.0,1.7114386679852406e+18,0.4765013054830287,0.4178082191780822,0.3356756756756757,0.5023233064318905,0.6252747252747253,0.4289318755256518,1195.0
422.0,1.7114386679952394e+18,0.44778067885117495,0.4052511415525114,0.292972972972973,0.5015896307165566,0.6241758241758242,0.4381833473507149,1197.0
423.0,1.711438668005238e+18,0.4804177545691906,0.4509132420091324,0.4172972972972973,0.5055025678650037,0.6472527472527473,0.4608915054667788,1196.0
424.0,1.711438668015233e+18,0.48172323759791125,0.4098173515981735,0.3286486486486486,0.5006113964294449,0.6098901098901099,0.4558452481076535,1195.0
425.0,1.711438668025253e+18,0.4699738903394256,0.4121004566210046,0.3302702702702703,0.5023233064318905,0.6307692307692307,0.4465937762825904,1194.0
426.0,1.7114386680352394e+18,0.4765013054830287,0.410958904109589,0.3345945945945946,0.5001222792858889,0.6241758241758242,0.4381833473507149,1196.0
427.0,1.711438668045243e+18,0.4869451697127937,0.4383561643835616,0.34702702702702704,0.5074590364392272,0.6307692307692307,0.45164003364171573,1195.0
428.0,1.711438668055215e+18,0.4765013054830287,0.4178082191780822,0.34324324324324323,0.499877720714111,0.6263736263736264,0.43902439024390244,1197.0
429.0,1.711438668065264e+18,0.4725848563968668,0.4052511415525114,0.3145945945945946,0.5018341892883346,0.621978021978022,0.4381833473507149,1197.0
430.0,1.711438668075274e+18,0.4751958224543081,0.4155251141552511,0.34162162162162163,0.5020787478601125,0.6285714285714286,0.4440706476030278,1195.0
431.0,1.7114386680852308e+18,0.47780678851174935,0.4223744292237443,0.3291891891891892,0.5035460992907801,0.6395604395604395,0.4541631623212784,1196.0
432.0,1.7114386680952402e+18,0.4608355091383812,0.4166666666666667,0.3318918918918919,0.5033015407190022,0.6186813186813187,0.43566021867115223,1197.0
433.0,1.7114386681052378e+18,0.48172323759791125,0.4132420091324201,0.3054054054054054,0.5037906578625581,0.6384615384615384,0.4415475189234651,1195.0
434.0,1.71143866811526e+18,0.4699738903394256,0.4155251141552511,0.33675675675675676,0.5015896307165566,0.6285714285714286,0.43986543313709,1193.0
435.0,1.711438668125253e+18,0.47389033942558745,0.4200913242009132,0.33513513513513515,0.5028124235754463,0.6230769230769231,0.43902439024390244,1198.0
436.0,1.7114386681352323e+18,0.4725848563968668,0.408675799086758,0.3324324324324324,0.5001222792858889,0.6230769230769231,0.4373423044575273,1194.0
437.0,1.7114386681452396e+18,0.48172323759791125,0.4132420091324201,0.3254054054054054,0.5023233064318905,0.6241758241758242,0.43650126156433977,1193.0
438.0,1.7114386681552955e+18,0.46866840731070497,0.4075342465753425,0.3216216216216216,0.5006113964294449,0.6208791208791209,0.4348191757779647,1196.0
439.0,1.7114386681652626e+18,0.4856396866840731,0.4269406392694064,0.34756756756756757,0.5020787478601125,0.6263736263736264,0.4415475189234651,1197.0
440.0,1.7114386681752645e+18,0.4595300261096606,0.4041095890410959,0.32756756756756755,0.5001222792858889,0.6285714285714286,0.4339781328847771,1192.0
441.0,1.711438668185241e+18,0.4765013054830287,0.408675799086758,0.32594594594594595,0.49523110785033014,0.6263736263736264,0.43902439024390244,1196.0
442.0,1.7114386681952325e+18,0.47389033942558745,0.410958904109589,0.3281081081081081,0.5013450721447786,0.6241758241758242,0.4482758620689655,1194.0
443.0,1.7114386682052393e+18,0.47127937336814624,0.4132420091324201,0.3318918918918919,0.4937637564196625,0.6164835164835165,0.4289318755256518,1195.0
444.0,1.7114386682152356e+18,0.47127937336814624,0.4075342465753425,0.33297297297297296,0.499877720714111,0.6208791208791209,0.43902439024390244,1199.0
445.0,1.7114386682252426e+18,0.47389033942558745,0.4246575342465753,0.3345945945945946,0.5020787478601125,0.6241758241758242,0.43902439024390244,1195.0
446.0,1.71143866823526e+18,0.4660574412532637,0.4006849315068493,0.3216216216216216,0.5015896307165566,0.6175824175824176,0.4348191757779647,1195.0
447.0,1.7114386682452424e+18,0.4765013054830287,0.4200913242009132,0.34054054054054056,0.5035460992907801,0.6241758241758242,0.4373423044575273,1197.0
448.0,1.7114386682552312e+18,0.4699738903394256,0.408675799086758,0.3237837837837838,0.49938860357055515,0.6175824175824176,0.4381833473507149,1198.0
449.0,1.711438668265255e+18,0.4751958224543081,0.4052511415525114,0.30648648648648646,0.49767669356810956,0.6197802197802198,0.43986543313709,1195.0
450.0,1.711438668275238e+18,0.47389033942558745,0.4200913242009132,0.3491891891891892,0.5015896307165566,0.6274725274725275,0.4373423044575273,1196.0
451.0,1.711438668285228e+18,0.4765013054830287,0.4143835616438356,0.3308108108108108,0.5011005135730008,0.6230769230769231,0.43650126156433977,1196.0
452.0,1.7114386682952302e+18,0.4765013054830287,0.4223744292237443,0.35081081081081084,0.5011005135730008,0.6274725274725275,0.43566021867115223,1197.0
453.0,1.7114386683052352e+18,0.47389033942558745,0.4143835616438356,0.32972972972972975,0.5030569821472243,0.6241758241758242,0.44238856181665265,1195.0
454.0,1.7114386683152305e+18,0.4765013054830287,0.4132420091324201,0.3324324324324324,0.5008559550012228,0.6230769230769231,0.4381833473507149,1196.0
455.0,1.7114386683252513e+18,0.47389033942558745,0.4132420091324201,0.3345945945945946,0.5018341892883346,0.6274725274725275,0.44070647603027757,1195.0
456.0,1.711438668335227e+18,0.4660574412532637,0.4212328767123288,0.32972972972972975,0.5003668378576669,0.6208791208791209,0.4381833473507149,1195.0
457.0,1.7114386683452352e+18,0.47127937336814624,0.4041095890410959,0.33405405405405403,0.5008559550012228,0.6230769230769231,0.43902439024390244,1195.0
458.0,1.7114386683552317e+18,0.47127937336814624,0.4178082191780822,0.33297297297297296,0.5001222792858889,0.6252747252747253,0.4373423044575273,1196.0
459.0,1.71143866836524e+18,0.46344647519582244,0.4041095890410959,0.32756756756756755,0.5008559550012228,0.6241758241758242,0.4415475189234651,1196.0
460.0,1.711438668375241e+18,0.47780678851174935,0.4143835616438356,0.3248648648648649,0.4979212521398875,0.6230769230769231,0.4440706476030278,1196.0
461.0,1.711438668385234e+18,0.47127937336814624,0.4132420091324201,0.32432432432432434,0.5011005135730008,0.6241758241758242,0.43902439024390244,1194.0
462.0,1.7114386683952274e+18,0.4869451697127937,0.4315068493150685,0.3643243243243243,0.5020787478601125,0.6252747252747253,0.43986543313709,1195.0
463.0,1.7114386684052493e+18,0.46475195822454307,0.4052511415525114,0.3232432432432432,0.5015896307165566,0.6252747252747253,0.4381833473507149,1196.0
464.0,1.711438668415231e+18,0.47911227154047,0.4280821917808219,0.32756756756756755,0.5006113964294449,0.6230769230769231,0.4415475189234651,1195.0
465.0,1.7114386684252513e+18,0.47389033942558745,0.4223744292237443,0.34486486486486484,0.5062362435803375,0.6318681318681318,0.44070647603027757,1197.0
466.0,1.71143866843523e+18,0.489556135770235,0.4440639269406393,0.3891891891891892,0.5050134507214478,0.6329670329670329,0.4482758620689655,1196.0
467.0,1.7114386684452334e+18,0.47780678851174935,0.4063926940639269,0.3210810810810811,0.49938860357055515,0.6230769230769231,0.43986543313709,1197.0
468.0,1.711438668455267e+18,0.47780678851174935,0.4075342465753425,0.30864864864864866,0.5011005135730008,0.621978021978022,0.4381833473507149,1198.0
469.0,1.711438668465256e+18,0.4621409921671018,0.4041095890410959,0.34486486486486484,0.4954756664221081,0.6208791208791209,0.4432296047098402,1196.0
470.0,1.7114386684752425e+18,0.4725848563968668,0.4063926940639269,0.33945945945945943,0.4979212521398875,0.6197802197802198,0.44575273338940286,1196.0
471.0,1.7114386684852308e+18,0.49738903394255873,0.4132420091324201,0.33405405405405403,0.4986549278552213,0.6241758241758242,0.43902439024390244,1196.0
472.0,1.711438668495232e+18,0.5130548302872062,0.4098173515981735,0.32432432432432434,0.4986549278552213,0.6197802197802198,0.432296047098402,1192.0
473.0,1.7114386685052485e+18,0.5078328981723238,0.4235159817351598,0.34702702702702704,0.5035460992907801,0.6252747252747253,0.44575273338940286,1195.0
474.0,1.7114386685152348e+18,0.47389033942558745,0.4178082191780822,0.3372972972972973,0.4969430178527757,0.6175824175824176,0.4381833473507149,1196.0
475.0,1.711438668525261e+18,0.4804177545691906,0.4292237442922374,0.35567567567567565,0.5008559550012228,0.6252747252747253,0.4381833473507149,1195.0
476.0,1.7114386685352456e+18,0.4765013054830287,0.4280821917808219,0.3881081081081081,0.5013450721447786,0.6186813186813187,0.4381833473507149,1196.0
477.0,1.7114386685452408e+18,0.4725848563968668,0.4029680365296804,0.3172972972972973,0.5006113964294449,0.6208791208791209,0.4381833473507149,1193.0
478.0,1.7114386685552315e+18,0.4765013054830287,0.4143835616438356,0.3308108108108108,0.5001222792858889,0.6274725274725275,0.43902439024390244,1193.0
479.0,1.71143866856527e+18,0.4765013054830287,0.432648401826484,0.38216216216216214,0.504035216434336,0.6318681318681318,0.4415475189234651,1195.0
480.0,1.7114386685752415e+18,0.47127937336814624,0.4063926940639269,0.3286486486486486,0.4954756664221081,0.6164835164835165,0.43566021867115223,1196.0
481.0,1.7114386685852457e+18,0.48825065274151436,0.4178082191780822,0.3362162162162162,0.5023233064318905,0.6274725274725275,0.44238856181665265,1197.0
482.0,1.7114386685952366e+18,0.47389033942558745,0.4041095890410959,0.307027027027027,0.49767669356810956,0.6274725274725275,0.4415475189234651,1195.0
483.0,1.711438668605255e+18,0.47780678851174935,0.4235159817351598,0.3237837837837838,0.5023233064318905,0.6285714285714286,0.4482758620689655,1197.0
484.0,1.7114386686152343e+18,0.4660574412532637,0.4018264840182648,0.31891891891891894,0.4988994864269993,0.6186813186813187,0.4339781328847771,1193.0
485.0,1.7114386686252774e+18,0.47127937336814624,0.4075342465753425,0.32594594594594595,0.49938860357055515,0.6230769230769231,0.4432296047098402,1195.0
486.0,1.711438668635238e+18,0.4725848563968668,0.4155251141552511,0.33945945945945943,0.504279775006114,0.6274725274725275,0.43650126156433977,1198.0
487.0,1.711438668645239e+18,0.4725848563968668,0.4212328767123288,0.34162162162162163,0.5023233064318905,0.6208791208791209,0.4415475189234651,1197.0
488.0,1.7114386686552343e+18,0.48172323759791125,0.4280821917808219,0.33405405405405403,0.5028124235754463,0.6318681318681318,0.43902439024390244,1195.0
489.0,1.7114386686652388e+18,0.4699738903394256,0.4132420091324201,0.3335135135135135,0.5001222792858889,0.6274725274725275,0.4432296047098402,1198.0
490.0,1.7114386686753103e+18,0.4725848563968668,0.4178082191780822,0.3372972972972973,0.5008559550012228,0.6318681318681318,0.4465937762825904,1195.0
491.0,1.7114386686852408e+18,0.4765013054830287,0.4178082191780822,0.3318918918918919,0.5050134507214478,0.6329670329670329,0.4465937762825904,1197.0
492.0,1.7114386686952384e+18,0.47780678851174935,0.4223744292237443,0.3567567567567568,0.5006113964294449,0.6208791208791209,0.4432296047098402,1197.0
493.0,1.7114386687052413e+18,0.48172323759791125,0.4292237442922374,0.3589189189189189,0.5006113964294449,0.5989010989010989,0.43902439024390244,1195.0
494.0,1.7114386687152302e+18,0.47780678851174935,0.3972602739726027,0.3216216216216216,0.499877720714111,0.6175824175824176,0.4415475189234651,1197.0
495.0,1.7114386687252513e+18,0.47389033942558745,0.4132420091324201,0.32972972972972975,0.4986549278552213,0.6329670329670329,0.4415475189234651,1196.0
496.0,1.7114386687352404e+18,0.47127937336814624,0.410958904109589,0.3302702702702703,0.5028124235754463,0.6065934065934065,0.432296047098402,1194.0
497.0,1.7114386687452355e+18,0.47911227154047,0.4155251141552511,0.3318918918918919,0.5064808021521154,0.6681318681318681,0.4415475189234651,1192.0
498.0,1.7114386687552246e+18,0.49216710182767626,0.45662100456621,0.4,0.5055025678650037,0.6351648351648351,0.4499579478553406,1195.0
499.0,1.7114386687652337e+18,0.47780678851174935,0.4098173515981735,0.3237837837837838,0.5018341892883346,0.6208791208791209,0.4339781328847771,1192.0
500.0,1.7114386687752346e+18,0.4725848563968668,0.410958904109589,0.3264864864864865,0.499877720714111,0.6175824175824176,0.4339781328847771,1193.0
501.0,1.711438668785252e+18,0.47780678851174935,0.4223744292237443,0.32972972972972975,0.5025678650036683,0.6274725274725275,0.4465937762825904,1195.0
502.0,1.7114386687952392e+18,0.4660574412532637,0.4041095890410959,0.32972972972972975,0.4988994864269993,0.610989010989011,0.4348191757779647,1196.0
503.0,1.7114386688052388e+18,0.4765013054830287,0.4098173515981735,0.3145945945945946,0.5003668378576669,0.6142857142857143,0.4381833473507149,1194.0
504.0,1.7114386688152328e+18,0.47127937336814624,0.4041095890410959,0.3210810810810811,0.499877720714111,0.6362637362637362,0.43650126156433977,1192.0
505.0,1.7114386688252444e+18,0.46866840731070497,0.4098173515981735,0.3178378378378378,0.5013450721447786,0.6142857142857143,0.4415475189234651,1194.0
506.0,1.711438668835256e+18,0.47911227154047,0.4155251141552511,0.33837837837837836,0.5015896307165566,0.6274725274725275,0.4415475189234651,1195.0
507.0,1.711438668845234e+18,0.4751958224543081,0.4155251141552511,0.3216216216216216,0.5037906578625581,0.6274725274725275,0.43986543313709,1197.0
508.0,1.7114386688552323e+18,0.4725848563968668,0.4178082191780822,0.3216216216216216,0.5018341892883346,0.6263736263736264,0.4381833473507149,1197.0
509.0,1.711438668865233e+18,0.4725848563968668,0.4143835616438356,0.31567567567567567,0.5025678650036683,0.6318681318681318,0.44238856181665265,1196.0
510.0,1.7114386688752584e+18,0.4765013054830287,0.408675799086758,0.3318918918918919,0.4984103692834434,0.6164835164835165,0.432296047098402,1194.0
511.0,1.7114386688852472e+18,0.4869451697127937,0.4189497716894977,0.3237837837837838,0.5035460992907801,0.6263736263736264,0.4449116904962153,1196.0
512.0,1.7114386688952338e+18,0.45822454308093996,0.4098173515981735,0.35135135135135137,0.5015896307165566,0.6296703296703297,0.42977291841883936,1193.0
513.0,1.7114386689052518e+18,0.49216710182767626,0.4075342465753425,0.29945945945945945,0.5023233064318905,0.6230769230769231,0.4381833473507149,1195.0
514.0,1.7114386689152353e+18,0.4765013054830287,0.4143835616438356,0.3281081081081081,0.4996331621423331,0.6230769230769231,0.43902439024390244,1196.0
515.0,1.7114386689252434e+18,0.48172323759791125,0.4463470319634703,0.35621621621621624,0.504035216434336,0.6296703296703297,0.4449116904962153,1197.0
516.0,1.711438668935236e+18,0.47780678851174935,0.4155251141552511,0.33837837837837836,0.5035460992907801,0.6230769230769231,0.43902439024390244,1198.0
517.0,1.7114386689452334e+18,0.47127937336814624,0.4029680365296804,0.32972972972972975,0.5028124235754463,0.6527472527472528,0.43986543313709,1195.0
518.0,1.711438668955231e+18,0.47127937336814624,0.4075342465753425,0.3248648648648649,0.5006113964294449,0.6164835164835165,0.43313708999158956,1192.0
519.0,1.711438668965234e+18,0.47780678851174935,0.4235159817351598,0.35405405405405405,0.5079481535827831,0.6274725274725275,0.4381833473507149,1196.0
520.0,1.7114386689752594e+18,0.47389033942558745,0.4189497716894977,0.3481081081081081,0.5015896307165566,0.6230769230769231,0.43902439024390244,1195.0
521.0,1.71143866898524e+18,0.4725848563968668,0.4166666666666667,0.3308108108108108,0.5015896307165566,0.6252747252747253,0.43902439024390244,1197.0
522.0,1.7114386689952381e+18,0.47911227154047,0.4178082191780822,0.3264864864864865,0.5001222792858889,0.6230769230769231,0.4373423044575273,1195.0
523.0,1.7114386690052378e+18,0.4804177545691906,0.4132420091324201,0.3335135135135135,0.5001222792858889,0.6208791208791209,0.43986543313709,1196.0
524.0,1.7114386690152325e+18,0.47389033942558745,0.408675799086758,0.3302702702702703,0.5015896307165566,0.6230769230769231,0.43566021867115223,1195.0
525.0,1.711438669025277e+18,0.4751958224543081,0.4155251141552511,0.3286486486486486,0.5050134507214478,0.6318681318681318,0.4432296047098402,1193.0
526.0,1.7114386690352376e+18,0.47780678851174935,0.4212328767123288,0.37243243243243246,0.4996331621423331,0.6230769230769231,0.4381833473507149,1195.0
527.0,1.711438669045243e+18,0.4765013054830287,0.4132420091324201,0.3324324324324324,0.5008559550012228,0.6274725274725275,0.43986543313709,1198.0
528.0,1.7114386690552323e+18,0.47780678851174935,0.410958904109589,0.3318918918918919,0.5020787478601125,0.6263736263736264,0.43986543313709,1196.0
529.0,1.711438669065259e+18,0.48172323759791125,0.4235159817351598,0.3572972972972973,0.5023233064318905,0.6230769230769231,0.43902439024390244,1197.0
530.0,1.71143866907525e+18,0.4725848563968668,0.4178082191780822,0.3345945945945946,0.5008559550012228,0.6274725274725275,0.4381833473507149,1194.0
531.0,1.7114386690852326e+18,0.4765013054830287,0.4223744292237443,0.34,0.5013450721447786,0.6252747252747253,0.4415475189234651,1196.0
532.0,1.711438669095242e+18,0.46736292428198434,0.3995433789954338,0.3264864864864865,0.49938860357055515,0.6274725274725275,0.43566021867115223,1196.0
533.0,1.7114386691052365e+18,0.4765013054830287,0.4269406392694064,0.3567567567567568,0.504035216434336,0.6329670329670329,0.4432296047098402,1195.0
534.0,1.711438669115239e+18,0.47780678851174935,0.4121004566210046,0.3281081081081081,0.4979212521398875,0.6230769230769231,0.4373423044575273,1195.0
535.0,1.7114386691252526e+18,0.47389033942558745,0.4155251141552511,0.3362162162162162,0.5018341892883346,0.6241758241758242,0.4381833473507149,1196.0
536.0,1.7114386691352548e+18,0.4765013054830287,0.4155251141552511,0.32756756756756755,0.5015896307165566,0.6285714285714286,0.43650126156433977,1195.0
537.0,1.711438669145232e+18,0.47127937336814624,0.4018264840182648,0.3308108108108108,0.5008559550012228,0.6230769230769231,0.43902439024390244,1195.0
538.0,1.7114386691552402e+18,0.47127937336814624,0.4121004566210046,0.3389189189189189,0.5008559550012228,0.6241758241758242,0.43986543313709,1196.0
539.0,1.7114386691652675e+18,0.47389033942558745,0.4257990867579909,0.3589189189189189,0.5008559550012228,0.6230769230769231,0.4415475189234651,1196.0
540.0,1.7114386691752732e+18,0.47780678851174935,0.4269406392694064,0.3443243243243243,0.5059916850085595,0.6329670329670329,0.43902439024390244,1198.0
541.0,1.7114386691852393e+18,0.46866840731070497,0.4132420091324201,0.3372972972972973,0.5015896307165566,0.6153846153846154,0.4373423044575273,1194.0
542.0,1.7114386691952387e+18,0.49216710182767626,0.4235159817351598,0.3362162162162162,0.5015896307165566,0.6153846153846154,0.4381833473507149,1193.0
543.0,1.711438669205243e+18,0.45691906005221933,0.4075342465753425,0.3210810810810811,0.5006113964294449,0.6142857142857143,0.4339781328847771,1196.0
544.0,1.711438669215231e+18,0.4660574412532637,0.4132420091324201,0.32,0.4979212521398875,0.6208791208791209,0.43650126156433977,1195.0
545.0,1.7114386692252534e+18,0.5013054830287206,0.4178082191780822,0.3237837837837838,0.5006113964294449,0.6285714285714286,0.4415475189234651,1196.0
546.0,1.7114386692352417e+18,0.4660574412532637,0.4143835616438356,0.3302702702702703,0.49620934213744194,0.6406593406593407,0.43902439024390244,1196.0
547.0,1.7114386692452393e+18,0.4765013054830287,0.4132420091324201,0.3410810810810811,0.5035460992907801,0.6197802197802198,0.43902439024390244,1196.0
548.0,1.7114386692552307e+18,0.48172323759791125,0.4121004566210046,0.34594594594594597,0.504524333577892,0.6241758241758242,0.43986543313709,1197.0
549.0,1.711438669265236e+18,0.4765013054830287,0.4075342465753425,0.3210810810810811,0.5011005135730008,0.6296703296703297,0.4415475189234651,1196.0
550.0,1.7114386692752335e+18,0.4765013054830287,0.4132420091324201,0.34864864864864864,0.4991440449987772,0.6054945054945055,0.4373423044575273,1195.0
551.0,1.7114386692852585e+18,0.4765013054830287,0.4178082191780822,0.3286486486486486,0.5015896307165566,0.6230769230769231,0.43902439024390244,1197.0
552.0,1.7114386692952338e+18,0.49869451697127937,0.4178082191780822,0.32756756756756755,0.49645390070921985,0.6230769230769231,0.4381833473507149,1196.0
553.0,1.711438669305236e+18,0.46344647519582244,0.3949771689497717,0.31945945945945947,0.5064808021521154,0.6274725274725275,0.4381833473507149,1195.0
554.0,1.7114386693152305e+18,0.5,0.4143835616438356,0.32054054054054054,0.5059916850085595,0.6208791208791209,0.43313708999158956,1193.0
555.0,1.7114386693252465e+18,0.46866840731070497,0.4006849315068493,0.32054054054054054,0.5128393250183418,0.6307692307692307,0.4381833473507149,1196.0
556.0,1.7114386693352335e+18,0.46736292428198434,0.4075342465753425,0.3308108108108108,0.49938860357055515,0.6230769230769231,0.43986543313709,1195.0
557.0,1.7114386693452216e+18,0.4765013054830287,0.410958904109589,0.3335135135135135,0.4974321349963316,0.6230769230769231,0.4415475189234651,1194.0
558.0,1.7114386693552335e+18,0.4765013054830287,0.430365296803653,0.3302702702702703,0.5015896307165566,0.6230769230769231,0.4381833473507149,1196.0
559.0,1.7114386693652362e+18,0.5,0.4223744292237443,0.33513513513513515,0.5059916850085595,0.6285714285714286,0.4415475189234651,1195.0
560.0,1.7114386693752476e+18,0.4660574412532637,0.4063926940639269,0.3302702702702703,0.5050134507214478,0.6274725274725275,0.4381833473507149,1197.0
561.0,1.7114386693852513e+18,0.46866840731070497,0.4189497716894977,0.33675675675675676,0.5062362435803375,0.6296703296703297,0.4440706476030278,1197.0
562.0,1.711438669395234e+18,0.4725848563968668,0.4212328767123288,0.33945945945945943,0.5015896307165566,0.6318681318681318,0.44238856181665265,1194.0
563.0,1.7114386694052365e+18,0.4725848563968668,0.4269406392694064,0.33837837837837836,0.504524333577892,0.6296703296703297,0.43986543313709,1196.0
564.0,1.7114386694152415e+18,0.489556135770235,0.4246575342465753,0.3389189189189189,0.49767669356810956,0.6274725274725275,0.4415475189234651,1194.0
565.0,1.7114386694252493e+18,0.46866840731070497,0.4006849315068493,0.3362162162162162,0.4966984592809978,0.6164835164835165,0.4381833473507149,1197.0
566.0,1.7114386694352402e+18,0.4725848563968668,0.4121004566210046,0.3232432432432432,0.5028124235754463,0.6230769230769231,0.432296047098402,1192.0
567.0,1.7114386694452577e+18,0.47127937336814624,0.4052511415525114,0.33135135135135135,0.5006113964294449,0.6241758241758242,0.43986543313709,1196.0
568.0,1.7114386694552276e+18,0.47389033942558745,0.4235159817351598,0.352972972972973,0.49498654927855223,0.621978021978022,0.43902439024390244,1197.0
569.0,1.711438669465232e+18,0.4830287206266319,0.4155251141552511,0.31027027027027027,0.5067253607238934,0.6230769230769231,0.44070647603027757,1197.0
570.0,1.711438669475237e+18,0.4725848563968668,0.4052511415525114,0.3178378378378378,0.5028124235754463,0.6186813186813187,0.4339781328847771,1193.0
571.0,1.711438669485245e+18,0.4725848563968668,0.4143835616438356,0.3324324324324324,0.504035216434336,0.6263736263736264,0.4415475189234651,1196.0
572.0,1.7114386694952338e+18,0.4608355091383812,0.3926940639269406,0.33837837837837836,0.5011005135730008,0.6186813186813187,0.43650126156433977,1195.0
573.0,1.7114386695052498e+18,0.48172323759791125,0.4383561643835616,0.3427027027027027,0.5133284421618978,0.6318681318681318,0.4415475189234651,1196.0
574.0,1.7114386695152315e+18,0.4621409921671018,0.3949771689497717,0.31027027027027027,0.5006113964294449,0.6230769230769231,0.43566021867115223,1196.0
575.0,1.7114386695252518e+18,0.4595300261096606,0.4132420091324201,0.3108108108108108,0.5025678650036683,0.6274725274725275,0.4415475189234651,1196.0
576.0,1.7114386695352402e+18,0.48825065274151436,0.4098173515981735,0.3232432432432432,0.49816581071166544,0.6164835164835165,0.432296047098402,1194.0
577.0,1.7114386695452403e+18,0.47780678851174935,0.4178082191780822,0.30486486486486486,0.5025678650036683,0.6241758241758242,0.4415475189234651,1194.0
578.0,1.7114386695552307e+18,0.4751958224543081,0.4178082191780822,0.3302702702702703,0.5023233064318905,0.6164835164835165,0.4381833473507149,1195.0
579.0,1.7114386695652657e+18,0.4765013054830287,0.4189497716894977,0.34216216216216216,0.5020787478601125,0.6274725274725275,0.44238856181665265,1196.0
580.0,1.711438669575223e+18,0.47389033942558745,0.4143835616438356,0.33513513513513515,0.4986549278552213,0.6186813186813187,0.4381833473507149,1195.0
581.0,1.7114386695851937e+18,0.4869451697127937,0.4280821917808219,0.3772972972972973,0.5035460992907801,0.6296703296703297,0.4440706476030278,1195.0
582.0,1.7114386695952376e+18,0.48433420365535246,0.4463470319634703,0.38,0.5018341892883346,0.6285714285714286,0.4449116904962153,1197.0
583.0,1.7114386696052408e+18,0.4765013054830287,0.432648401826484,0.38,0.5074590364392272,0.6296703296703297,0.44238856181665265,1197.0
584.0,1.711438669615233e+18,0.4725848563968668,0.4063926940639269,0.31675675675675674,0.49938860357055515,0.6175824175824176,0.43650126156433977,1198.0
585.0,1.7114386696252419e+18,0.4699738903394256,0.410958904109589,0.32756756756756755,0.5020787478601125,0.634065934065934,0.4415475189234651,1195.0
586.0,1.711438669635253e+18,0.4765013054830287,0.4178082191780822,0.3372972972972973,0.5008559550012228,0.6230769230769231,0.4381833473507149,1196.0
587.0,1.7114386696452375e+18,0.4804177545691906,0.4315068493150685,0.372972972972973,0.5028124235754463,0.634065934065934,0.44238856181665265,1197.0
588.0,1.7114386696552325e+18,0.4830287206266319,0.4383561643835616,0.3945945945945946,0.504524333577892,0.6307692307692307,0.4432296047098402,1199.0
589.0,1.7114386696652221e+18,0.4765013054830287,0.4155251141552511,0.3264864864864865,0.5023233064318905,0.6230769230769231,0.4432296047098402,1197.0
590.0,1.7114386696752617e+18,0.4765013054830287,0.4178082191780822,0.3427027027027027,0.49938860357055515,0.6164835164835165,0.4415475189234651,1194.0
591.0,1.7114386696852572e+18,0.4725848563968668,0.4075342465753425,0.3254054054054054,0.5015896307165566,0.621978021978022,0.4381833473507149,1196.0
592.0,1.7114386696952323e+18,0.4660574412532637,0.4063926940639269,0.3254054054054054,0.5011005135730008,0.6296703296703297,0.43986543313709,1197.0
593.0,1.7114386697052419e+18,0.4751958224543081,0.4143835616438356,0.32972972972972975,0.5035460992907801,0.6230769230769231,0.44238856181665265,1197.0
594.0,1.7114386697152312e+18,0.4804177545691906,0.4200913242009132,0.33405405405405403,0.499877720714111,0.6274725274725275,0.45164003364171573,1197.0
595.0,1.7114386697252416e+18,0.47780678851174935,0.4269406392694064,0.3621621621621622,0.504524333577892,0.6296703296703297,0.4415475189234651,1196.0
596.0,1.7114386697352292e+18,0.48825065274151436,0.4200913242009132,0.35567567567567565,0.5023233064318905,0.621978021978022,0.4314550042052145,1194.0
597.0,1.7114386697452396e+18,0.48433420365535246,0.4189497716894977,0.3535135135135135,0.5028124235754463,0.6241758241758242,0.43902439024390244,1193.0
598.0,1.7114386697552248e+18,0.48172323759791125,0.4257990867579909,0.3589189189189189,0.5008559550012228,0.6186813186813187,0.43566021867115223,1194.0
599.0,1.7114386697652334e+18,0.47389033942558745,0.408675799086758,0.32432432432432434,0.5011005135730008,0.6274725274725275,0.4415475189234651,1198.0
600.0,1.7114386697752282e+18,0.4751958224543081,0.4189497716894977,0.34756756756756757,0.5015896307165566,0.6307692307692307,0.432296047098402,1192.0
601.0,1.711438669785246e+18,0.4765013054830287,0.4223744292237443,0.327027027027027,0.5018341892883346,0.6208791208791209,0.4314550042052145,1194.0
602.0,1.71143866979524e+18,0.47389033942558745,0.4132420091324201,0.3324324324324324,0.499877720714111,0.6274725274725275,0.43650126156433977,1196.0
603.0,1.7114386698052457e+18,0.4765013054830287,0.4143835616438356,0.3248648648648649,0.5035460992907801,0.6274725274725275,0.42977291841883936,1192.0
604.0,1.7114386698152328e+18,0.4765013054830287,0.4132420091324201,0.3389189189189189,0.5006113964294449,0.6318681318681318,0.4381833473507149,1197.0
605.0,1.711438669825261e+18,0.47911227154047,0.4178082191780822,0.36486486486486486,0.5033015407190022,0.6274725274725275,0.44238856181665265,1196.0
606.0,1.7114386698352307e+18,0.4699738903394256,0.4006849315068493,0.3248648648648649,0.4991440449987772,0.6131868131868132,0.4314550042052145,1195.0
607.0,1.7114386698452508e+18,0.47389033942558745,0.4143835616438356,0.33837837837837836,0.5015896307165566,0.6307692307692307,0.4415475189234651,1194.0
608.0,1.7114386698552374e+18,0.4765013054830287,0.4200913242009132,0.3362162162162162,0.5006113964294449,0.6241758241758242,0.43650126156433977,1197.0
609.0,1.7114386698652413e+18,0.4725848563968668,0.4155251141552511,0.3362162162162162,0.5015896307165566,0.6230769230769231,0.4415475189234651,1196.0
610.0,1.711438669875231e+18,0.4804177545691906,0.4235159817351598,0.35135135135135137,0.5035460992907801,0.6241758241758242,0.4415475189234651,1197.0
611.0,1.7114386698852652e+18,0.4765013054830287,0.4143835616438356,0.3264864864864865,0.5020787478601125,0.6274725274725275,0.43986543313709,1197.0
612.0,1.7114386698952417e+18,0.4830287206266319,0.4006849315068493,0.2972972972972973,0.4996331621423331,0.6252747252747253,0.43650126156433977,1196.0
613.0,1.7114386699052426e+18,0.4725848563968668,0.4063926940639269,0.32,0.5011005135730008,0.6208791208791209,0.43313708999158956,1192.0
614.0,1.7114386699152315e+18,0.46344647519582244,0.4132420091324201,0.3491891891891892,0.4996331621423331,0.6208791208791209,0.4415475189234651,1194.0
615.0,1.7114386699252588e+18,0.4765013054830287,0.4052511415525114,0.28,0.504035216434336,0.6274725274725275,0.4415475189234651,1196.0
616.0,1.7114386699352343e+18,0.4725848563968668,0.4041095890410959,0.3108108108108108,0.4996331621423331,0.6230769230769231,0.4381833473507149,1195.0
617.0,1.7114386699452413e+18,0.4765013054830287,0.410958904109589,0.33135135135135135,0.5030569821472243,0.6241758241758242,0.4415475189234651,1194.0
618.0,1.7114386699552328e+18,0.48433420365535246,0.4452054794520548,0.3989189189189189,0.5094155050134507,0.6318681318681318,0.44238856181665265,1196.0
619.0,1.7114386699652332e+18,0.4765013054830287,0.4132420091324201,0.3318918918918919,0.5015896307165566,0.6208791208791209,0.44070647603027757,1197.0
620.0,1.7114386699752545e+18,0.47911227154047,0.4315068493150685,0.387027027027027,0.5033015407190022,0.6285714285714286,0.43902439024390244,1195.0
621.0,1.7114386699852419e+18,0.48172323759791125,0.4223744292237443,0.352972972972973,0.5025678650036683,0.6252747252747253,0.4415475189234651,1198.0
622.0,1.7114386699952387e+18,0.47127937336814624,0.4098173515981735,0.3491891891891892,0.5008559550012228,0.6230769230769231,0.4415475189234651,1196.0
623.0,1.7114386700052388e+18,0.4725848563968668,0.4132420091324201,0.33405405405405403,0.5015896307165566,0.6274725274725275,0.4440706476030278,1195.0
624.0,1.7114386700152307e+18,0.4699738903394256,0.4098173515981735,0.3362162162162162,0.4996331621423331,0.6274725274725275,0.4373423044575273,1194.0
625.0,1.7114386700252524e+18,0.47127937336814624,0.4075342465753425,0.32216216216216215,0.5023233064318905,0.6208791208791209,0.4415475189234651,1194.0
626.0,1.7114386700352445e+18,0.4765013054830287,0.4029680365296804,0.31891891891891894,0.5001222792858889,0.6263736263736264,0.43902439024390244,1197.0
627.0,1.7114386700452396e+18,0.47127937336814624,0.4029680365296804,0.3216216216216216,0.5008559550012228,0.6164835164835165,0.4373423044575273,1197.0
628.0,1.711438670055236e+18,0.47780678851174935,0.4018264840182648,0.30324324324324325,0.49767669356810956,0.6164835164835165,0.4415475189234651,1197.0
629.0,1.711438670065237e+18,0.47389033942558745,0.4132420091324201,0.32216216216216215,0.5015896307165566,0.6274725274725275,0.43313708999158956,1194.0
630.0,1.7114386700752343e+18,0.47127937336814624,0.4006849315068493,0.31567567567567567,0.5006113964294449,0.6241758241758242,0.43566021867115223,1195.0
631.0,1.7114386700852375e+18,0.47389033942558745,0.4018264840182648,0.31945945945945947,0.5030569821472243,0.6208791208791209,0.44238856181665265,1193.0
632.0,1.7114386700952364e+18,0.4765013054830287,0.4178082191780822,0.3372972972972973,0.5006113964294449,0.6252747252747253,0.4381833473507149,1196.0
633.0,1.7114386701052365e+18,0.47389033942558745,0.4178082191780822,0.33675675675675676,0.5001222792858889,0.621978021978022,0.43986543313709,1195.0
634.0,1.711438670115234e+18,0.4765013054830287,0.4200913242009132,0.3654054054054054,0.5008559550012228,0.6186813186813187,0.43986543313709,1196.0
635.0,1.711438670125288e+18,0.4765013054830287,0.4075342465753425,0.3216216216216216,0.5003668378576669,0.6230769230769231,0.43986543313709,1196.0
636.0,1.711438670135246e+18,0.4765013054830287,0.4269406392694064,0.3567567567567568,0.5011005135730008,0.6274725274725275,0.43902439024390244,1197.0
637.0,1.7114386701452347e+18,0.4765013054830287,0.4132420091324201,0.34324324324324323,0.499877720714111,0.6252747252747253,0.4415475189234651,1193.0
638.0,1.7114386701552381e+18,0.4765013054830287,0.4075342465753425,0.3286486486486486,0.5023233064318905,0.6296703296703297,0.43902439024390244,1195.0
639.0,1.711438670165266e+18,0.4765013054830287,0.4155251141552511,0.3081081081081081,0.5035460992907801,0.6230769230769231,0.4415475189234651,1197.0
640.0,1.7114386701752548e+18,0.47127937336814624,0.4052511415525114,0.31189189189189187,0.49938860357055515,0.6230769230769231,0.43902439024390244,1196.0
641.0,1.7114386701852344e+18,0.4830287206266319,0.4223744292237443,0.33837837837837836,0.5050134507214478,0.6230769230769231,0.43902439024390244,1194.0
642.0,1.7114386701952415e+18,0.47389033942558745,0.4143835616438356,0.34378378378378377,0.5006113964294449,0.6274725274725275,0.4415475189234651,1197.0
643.0,1.7114386702052375e+18,0.48172323759791125,0.410958904109589,0.3345945945945946,0.5023233064318905,0.6230769230769231,0.43902439024390244,1197.0
644.0,1.7114386702152328e+18,0.4765013054830287,0.4383561643835616,0.37027027027027026,0.5006113964294449,0.6274725274725275,0.44238856181665265,1196.0
645.0,1.7114386702252413e+18,0.47911227154047,0.4132420091324201,0.3286486486486486,0.5018341892883346,0.6274725274725275,0.44070647603027757,1194.0
646.0,1.7114386702352381e+18,0.4725848563968668,0.410958904109589,0.3362162162162162,0.5013450721447786,0.6274725274725275,0.4373423044575273,1197.0
647.0,1.7114386702452467e+18,0.47389033942558745,0.4178082191780822,0.3372972972972973,0.5015896307165566,0.6197802197802198,0.4381833473507149,1195.0
648.0,1.7114386702552328e+18,0.4699738903394256,0.4063926940639269,0.3286486486486486,0.4986549278552213,0.6230769230769231,0.43566021867115223,1197.0
649.0,1.7114386702652388e+18,0.4765013054830287,0.4063926940639269,0.3308108108108108,0.5015896307165566,0.6241758241758242,0.4440706476030278,1198.0
650.0,1.7114386702752686e+18,0.4699738903394256,0.4052511415525114,0.33405405405405403,0.5008559550012228,0.6230769230769231,0.43650126156433977,1196.0
651.0,1.711438670285236e+18,0.4765013054830287,0.4143835616438356,0.33405405405405403,0.5025678650036683,0.6241758241758242,0.43650126156433977,1196.0
652.0,1.711438670295223e+18,0.47389033942558745,0.4132420091324201,0.33297297297297296,0.5008559550012228,0.6296703296703297,0.4449116904962153,1197.0
653.0,1.7114386703052408e+18,0.4751958224543081,0.4098173515981735,0.31945945945945947,0.5030569821472243,0.6230769230769231,0.4415475189234651,1195.0
654.0,1.711438670315232e+18,0.4765013054830287,0.408675799086758,0.3286486486486486,0.4991440449987772,0.6208791208791209,0.43650126156433977,1196.0
655.0,1.7114386703251968e+18,0.4765013054830287,0.4280821917808219,0.38216216216216214,0.5062362435803375,0.6252747252747253,0.4415475189234651,1196.0
656.0,1.7114386703352228e+18,0.47911227154047,0.4212328767123288,0.34162162162162163,0.4988994864269993,0.6252747252747253,0.4415475189234651,1198.0
657.0,1.7114386703452344e+18,0.47127937336814624,0.4052511415525114,0.33513513513513515,0.5030569821472243,0.6230769230769231,0.43902439024390244,1193.0
658.0,1.7114386703552381e+18,0.4765013054830287,0.4189497716894977,0.33783783783783783,0.5050134507214478,0.6285714285714286,0.43986543313709,1194.0
659.0,1.7114386703652237e+18,0.4830287206266319,0.432648401826484,0.3410810810810811,0.5008559550012228,0.6252747252747253,0.43986543313709,1194.0
660.0,1.7114386703752243e+18,0.4751958224543081,0.410958904109589,0.33135135135135135,0.5011005135730008,0.6230769230769231,0.43902439024390244,1196.0
661.0,1.7114386703852575e+18,0.4830287206266319,0.4280821917808219,0.35243243243243244,0.5033015407190022,0.621978021978022,0.43986543313709,1195.0
662.0,1.7114386703952374e+18,0.4725848563968668,0.4132420091324201,0.3356756756756757,0.504279775006114,0.6274725274725275,0.43902439024390244,1195.0
663.0,1.7114386704052431e+18,0.47911227154047,0.4223744292237443,0.35243243243243244,0.5033015407190022,0.6274725274725275,0.44070647603027757,1196.0
664.0,1.7114386704152376e+18,0.4725848563968668,0.4098173515981735,0.3145945945945946,0.5011005135730008,0.6274725274725275,0.43902439024390244,1194.0
665.0,1.711438670425259e+18,0.47780678851174935,0.4178082191780822,0.33297297297297296,0.4927855221325507,0.6230769230769231,0.4415475189234651,1198.0
666.0,1.711438670435234e+18,0.47389033942558745,0.4212328767123288,0.3324324324324324,0.49938860357055515,0.6208791208791209,0.4381833473507149,1193.0
667.0,1.7114386704452367e+18,0.4725848563968668,0.3972602739726027,0.34162162162162163,0.5003668378576669,0.6274725274725275,0.43986543313709,1195.0
668.0,1.7114386704552302e+18,0.47780678851174935,0.4155251141552511,0.3389189189189189,0.49645390070921985,0.6274725274725275,0.43986543313709,1197.0
669.0,1.7114386704652303e+18,0.47911227154047,0.4052511415525114,0.33405405405405403,0.5018341892883346,0.621978021978022,0.43986543313709,1195.0
670.0,1.7114386704752978e+18,0.4699738903394256,0.3961187214611872,0.3254054054054054,0.5037906578625581,0.6296703296703297,0.44238856181665265,1197.0
671.0,1.7114386704852613e+18,0.4804177545691906,0.4269406392694064,0.3518918918918919,0.504524333577892,0.6318681318681318,0.43902439024390244,1196.0
672.0,1.711438670495237e+18,0.4725848563968668,0.408675799086758,0.3281081081081081,0.5015896307165566,0.6230769230769231,0.4381833473507149,1197.0
673.0,1.7114386705052444e+18,0.4765013054830287,0.4075342465753425,0.3216216216216216,0.5096600635852286,0.6230769230769231,0.4381833473507149,1195.0
674.0,1.7114386705152307e+18,0.47911227154047,0.4223744292237443,0.3605405405405405,0.5091709464416728,0.6307692307692307,0.4415475189234651,1198.0
675.0,1.7114386705252498e+18,0.4765013054830287,0.430365296803653,0.33675675675675676,0.5064808021521154,0.6263736263736264,0.4415475189234651,1197.0
676.0,1.7114386705352643e+18,0.4725848563968668,0.410958904109589,0.3254054054054054,0.4996331621423331,0.6241758241758242,0.4381833473507149,1196.0
677.0,1.711438670545252e+18,0.47780678851174935,0.4315068493150685,0.37243243243243246,0.5015896307165566,0.6230769230769231,0.43986543313709,1195.0
678.0,1.7114386705552381e+18,0.4804177545691906,0.4178082191780822,0.32756756756756755,0.5023233064318905,0.6296703296703297,0.4415475189234651,1196.0
679.0,1.711438670565239e+18,0.47127937336814624,0.4246575342465753,0.33135135135135135,0.5059916850085595,0.6208791208791209,0.43902439024390244,1196.0
680.0,1.7114386705752302e+18,0.4725848563968668,0.4143835616438356,0.3308108108108108,0.5028124235754463,0.6230769230769231,0.43986543313709,1197.0
681.0,1.7114386705851965e+18,0.4765013054830287,0.4006849315068493,0.34054054054054056,0.5135730007336757,0.6296703296703297,0.43986543313709,1196.0
682.0,1.7114386705952323e+18,0.4804177545691906,0.4121004566210046,0.3335135135135135,0.504524333577892,0.6296703296703297,0.43902439024390244,1196.0
683.0,1.7114386706052488e+18,0.47389033942558745,0.410958904109589,0.33135135135135135,0.49767669356810956,0.6186813186813187,0.43902439024390244,1197.0
684.0,1.711438670615231e+18,0.4725848563968668,0.4075342465753425,0.31027027027027027,0.499877720714111,0.6230769230769231,0.4381833473507149,1196.0
685.0,1.7114386706252375e+18,0.46866840731070497,0.4063926940639269,0.32216216216216215,0.499877720714111,0.6197802197802198,0.4381833473507149,1197.0
686.0,1.7114386706352417e+18,0.4725848563968668,0.4223744292237443,0.3372972972972973,0.49938860357055515,0.621978021978022,0.43902439024390244,1193.0
687.0,1.7114386706452544e+18,0.4725848563968668,0.4178082191780822,0.33405405405405403,0.5030569821472243,0.6241758241758242,0.43986543313709,1194.0
688.0,1.7114386706552348e+18,0.4751958224543081,0.4121004566210046,0.33135135135135135,0.5025678650036683,0.6274725274725275,0.4415475189234651,1200.0
689.0,1.7114386706652454e+18,0.47780678851174935,0.4474885844748858,0.34162162162162163,0.5020787478601125,0.6274725274725275,0.43986543313709,1196.0
690.0,1.7114386706752937e+18,0.4765013054830287,0.4132420091324201,0.3302702702702703,0.49938860357055515,0.6241758241758242,0.4373423044575273,1195.0
691.0,1.7114386706852403e+18,0.48825065274151436,0.4417808219178082,0.37513513513513513,0.504524333577892,0.6329670329670329,0.4440706476030278,1196.0
692.0,1.7114386706952374e+18,0.4765013054830287,0.4063926940639269,0.3145945945945946,0.4988994864269993,0.6285714285714286,0.4415475189234651,1196.0
693.0,1.7114386707052406e+18,0.4765013054830287,0.4292237442922374,0.33297297297297296,0.4986549278552213,0.6241758241758242,0.4415475189234651,1196.0
694.0,1.7114386707152333e+18,0.47389033942558745,0.4029680365296804,0.32054054054054054,0.4971875764245537,0.6285714285714286,0.4415475189234651,1197.0
695.0,1.7114386707252378e+18,0.47780678851174935,0.4155251141552511,0.3410810810810811,0.49645390070921985,0.6241758241758242,0.43650126156433977,1196.0
696.0,1.7114386707352402e+18,0.4725848563968668,0.4041095890410959,0.31027027027027027,0.5020787478601125,0.6208791208791209,0.44575273338940286,1197.0
697.0,1.7114386707452347e+18,0.4699738903394256,0.4132420091324201,0.31891891891891894,0.5037906578625581,0.6285714285714286,0.4381833473507149,1194.0
698.0,1.7114386707552456e+18,0.48172323759791125,0.4143835616438356,0.33135135135135135,0.504035216434336,0.6164835164835165,0.4381833473507149,1195.0
699.0,1.711438670765242e+18,0.4516971279373368,0.4132420091324201,0.31675675675675674,0.5055025678650037,0.6296703296703297,0.44238856181665265,1195.0
700.0,1.7114386707752745e+18,0.4804177545691906,0.4018264840182648,0.3335135135135135,0.5006113964294449,0.6208791208791209,0.4289318755256518,1194.0
701.0,1.711438670785263e+18,0.46866840731070497,0.3972602739726027,0.3308108108108108,0.5025678650036683,0.6274725274725275,0.4381833473507149,1197.0
702.0,1.7114386707952369e+18,0.47911227154047,0.4098173515981735,0.33405405405405403,0.5008559550012228,0.6296703296703297,0.43902439024390244,1196.0
703.0,1.711438670805241e+18,0.47911227154047,0.410958904109589,0.33297297297297296,0.5018341892883346,0.6274725274725275,0.4415475189234651,1197.0
704.0,1.7114386708152338e+18,0.4765013054830287,0.4200913242009132,0.3627027027027027,0.5006113964294449,0.6329670329670329,0.4415475189234651,1196.0
705.0,1.7114386708252695e+18,0.4699738903394256,0.4075342465753425,0.3324324324324324,0.49767669356810956,0.6208791208791209,0.4381833473507149,1196.0
706.0,1.7114386708352532e+18,0.4725848563968668,0.4063926940639269,0.32972972972972975,0.4986549278552213,0.6197802197802198,0.42977291841883936,1196.0
707.0,1.711438670845235e+18,0.4765013054830287,0.4063926940639269,0.3227027027027027,0.5006113964294449,0.6241758241758242,0.43566021867115223,1201.0
708.0,1.7114386708552407e+18,0.48433420365535246,0.4246575342465753,0.3762162162162162,0.5013450721447786,0.6274725274725275,0.4415475189234651,1196.0
709.0,1.7114386708652403e+18,0.47911227154047,0.4132420091324201,0.32216216216216215,0.5025678650036683,0.621978021978022,0.43902439024390244,1196.0
710.0,1.7114386708752486e+18,0.47911227154047,0.4235159817351598,0.34216216216216216,0.5023233064318905,0.6208791208791209,0.44070647603027757,1197.0
711.0,1.711438670885234e+18,0.4869451697127937,0.4406392694063927,0.3924324324324324,0.5037906578625581,0.6285714285714286,0.44575273338940286,1195.0
712.0,1.7114386708952325e+18,0.4765013054830287,0.4178082191780822,0.34162162162162163,0.4991440449987772,0.6296703296703297,0.4381833473507149,1194.0
713.0,1.7114386709052355e+18,0.4765013054830287,0.4189497716894977,0.34,0.5025678650036683,0.6241758241758242,0.4381833473507149,1195.0
714.0,1.7114386709152323e+18,0.46475195822454307,0.4006849315068493,0.31675675675675674,0.5008559550012228,0.6208791208791209,0.4381833473507149,1195.0
715.0,1.7114386709252378e+18,0.47911227154047,0.4132420091324201,0.3183783783783784,0.5033015407190022,0.6252747252747253,0.4449116904962153,1197.0
716.0,1.7114386709352256e+18,0.4699738903394256,0.4098173515981735,0.32972972972972975,0.5003668378576669,0.6208791208791209,0.4381833473507149,1196.0
717.0,1.7114386709452372e+18,0.4751958224543081,0.410958904109589,0.32756756756756755,0.499877720714111,0.6230769230769231,0.4415475189234651,1193.0
718.0,1.7114386709552328e+18,0.4751958224543081,0.4155251141552511,0.3178378378378378,0.49938860357055515,0.6230769230769231,0.4381833473507149,1197.0
719.0,1.7114386709652664e+18,0.46866840731070497,0.4041095890410959,0.3232432432432432,0.5006113964294449,0.6296703296703297,0.4415475189234651,1197.0
720.0,1.7114386709752376e+18,0.4660574412532637,0.3732876712328767,0.30864864864864866,0.499877720714111,0.6274725274725275,0.43566021867115223,1196.0
721.0,1.7114386709852782e+18,0.4765013054830287,0.3995433789954338,0.3081081081081081,0.5018341892883346,0.6263736263736264,0.44238856181665265,1193.0
722.0,1.711438670995244e+18,0.4725848563968668,0.410958904109589,0.3324324324324324,0.5018341892883346,0.6318681318681318,0.4373423044575273,1197.0
723.0,1.7114386710052518e+18,0.47780678851174935,0.4189497716894977,0.3372972972972973,0.4996331621423331,0.621978021978022,0.44238856181665265,1196.0
724.0,1.7114386710152428e+18,0.4830287206266319,0.4235159817351598,0.292972972972973,0.5055025678650037,0.6274725274725275,0.4381833473507149,1200.0
725.0,1.7114386710252892e+18,0.47127937336814624,0.4063926940639269,0.312972972972973,0.499877720714111,0.6230769230769231,0.43986543313709,1197.0
726.0,1.711438671035229e+18,0.46736292428198434,0.4006849315068493,0.3232432432432432,0.49938860357055515,0.6230769230769231,0.4373423044575273,1196.0
727.0,1.7114386710452716e+18,0.4765013054830287,0.4098173515981735,0.3016216216216216,0.5030569821472243,0.6285714285714286,0.43986543313709,1197.0
728.0,1.71143867105525e+18,0.47389033942558745,0.4098173515981735,0.32,0.4988994864269993,0.6208791208791209,0.4373423044575273,1198.0
729.0,1.7114386710652762e+18,0.4765013054830287,0.4212328767123288,0.34324324324324323,0.5047688921496698,0.6362637362637362,0.4415475189234651,1196.0
730.0,1.7114386710752538e+18,0.4725848563968668,0.3961187214611872,0.32756756756756755,0.5001222792858889,0.6230769230769231,0.4381833473507149,1197.0
731.0,1.7114386710852383e+18,0.4765013054830287,0.4075342465753425,0.3081081081081081,0.5008559550012228,0.6329670329670329,0.4381833473507149,1197.0
732.0,1.7114386710952335e+18,0.4765013054830287,0.4223744292237443,0.3345945945945946,0.5001222792858889,0.6241758241758242,0.4373423044575273,1197.0
733.0,1.7114386711052388e+18,0.47389033942558745,0.4075342465753425,0.33135135135135135,0.5015896307165566,0.6230769230769231,0.43902439024390244,1197.0
734.0,1.7114386711152323e+18,0.47127937336814624,0.4041095890410959,0.32054054054054054,0.4979212521398875,0.6208791208791209,0.432296047098402,1196.0
735.0,1.7114386711252375e+18,0.4751958224543081,0.4052511415525114,0.32216216216216215,0.5018341892883346,0.6274725274725275,0.44575273338940286,1197.0
736.0,1.7114386711352637e+18,0.47127937336814624,0.4166666666666667,0.3324324324324324,0.5015896307165566,0.6197802197802198,0.4348191757779647,1199.0
737.0,1.7114386711452344e+18,0.47127937336814624,0.410958904109589,0.32756756756756755,0.5015896307165566,0.6274725274725275,0.43902439024390244,1195.0
738.0,1.711438671155239e+18,0.4765013054830287,0.4189497716894977,0.34756756756756757,0.5018341892883346,0.6296703296703297,0.44238856181665265,1196.0
739.0,1.7114386711652004e+18,0.48433420365535246,0.432648401826484,0.31513513513513514,0.5047688921496698,0.6274725274725275,0.4415475189234651,1196.0
740.0,1.7114386711752353e+18,0.47780678851174935,0.4178082191780822,0.3345945945945946,0.4991440449987772,0.6230769230769231,0.4415475189234651,1194.0
741.0,1.7114386711852431e+18,0.4765013054830287,0.4075342465753425,0.32972972972972975,0.5013450721447786,0.6230769230769231,0.4373423044575273,1195.0
742.0,1.7114386711952353e+18,0.47127937336814624,0.4132420091324201,0.33405405405405403,0.5006113964294449,0.6230769230769231,0.43566021867115223,1196.0
743.0,1.7114386712052378e+18,0.47780678851174935,0.4269406392694064,0.3497297297297297,0.5015896307165566,0.6230769230769231,0.4381833473507149,1197.0
744.0,1.711438671215229e+18,0.4765013054830287,0.4178082191780822,0.3281081081081081,0.5011005135730008,0.6285714285714286,0.43902439024390244,1196.0
745.0,1.7114386712252372e+18,0.4765013054830287,0.4178082191780822,0.35243243243243244,0.5018341892883346,0.6241758241758242,0.4348191757779647,1195.0
746.0,1.7114386712352358e+18,0.4934725848563969,0.4155251141552511,0.32,0.5047688921496698,0.6395604395604395,0.4507989907485282,1196.0
747.0,1.7114386712452503e+18,0.4856396866840731,0.4280821917808219,0.35945945945945945,0.5025678650036683,0.6230769230769231,0.4432296047098402,1198.0
748.0,1.7114386712552333e+18,0.48172323759791125,0.4052511415525114,0.28486486486486484,0.5025678650036683,0.621978021978022,0.4348191757779647,1197.0
749.0,1.7114386712652362e+18,0.4869451697127937,0.4486301369863014,0.3989189189189189,0.5062362435803375,0.6296703296703297,0.4465937762825904,1198.0
750.0,1.7114386712752212e+18,0.46866840731070497,0.3949771689497717,0.29405405405405405,0.5001222792858889,0.6230769230769231,0.43902439024390244,1197.0
751.0,1.7114386712852513e+18,0.47780678851174935,0.4315068493150685,0.3308108108108108,0.5011005135730008,0.6230769230769231,0.43902439024390244,1196.0
752.0,1.7114386712952338e+18,0.4765013054830287,0.4155251141552511,0.33405405405405403,0.49938860357055515,0.6263736263736264,0.4415475189234651,1197.0
753.0,1.711438671305237e+18,0.46736292428198434,0.3995433789954338,0.31567567567567567,0.5028124235754463,0.6230769230769231,0.4415475189234651,1197.0
754.0,1.711438671315234e+18,0.4725848563968668,0.3915525114155251,0.30864864864864866,0.4991440449987772,0.6175824175824176,0.43650126156433977,1197.0
755.0,1.7114386713252372e+18,0.48172323759791125,0.4235159817351598,0.3281081081081081,0.5018341892883346,0.6318681318681318,0.4415475189234651,1197.0
756.0,1.711438671335258e+18,0.4725848563968668,0.4200913242009132,0.3535135135135135,0.5018341892883346,0.6208791208791209,0.43902439024390244,1197.0
757.0,1.7114386713452475e+18,0.48172323759791125,0.4235159817351598,0.34,0.5023233064318905,0.6252747252747253,0.4432296047098402,1196.0
758.0,1.711438671355236e+18,0.47911227154047,0.4383561643835616,0.34594594594594597,0.5018341892883346,0.6285714285714286,0.43566021867115223,1197.0
759.0,1.711438671365239e+18,0.4804177545691906,0.4246575342465753,0.31405405405405407,0.5015896307165566,0.6175824175824176,0.4381833473507149,1195.0
760.0,1.7114386713752806e+18,0.4804177545691906,0.4155251141552511,0.3362162162162162,0.5025678650036683,0.6307692307692307,0.44238856181665265,1198.0
761.0,1.7114386713852595e+18,0.4765013054830287,0.4315068493150685,0.3410810810810811,0.5020787478601125,0.6285714285714286,0.4373423044575273,1196.0
762.0,1.7114386713952366e+18,0.47780678851174935,0.4246575342465753,0.33945945945945943,0.5003668378576669,0.6252747252747253,0.4381833473507149,1196.0
763.0,1.7114386714054346e+18,0.4751958224543081,0.3881278538812785,0.3286486486486486,0.5018341892883346,0.6241758241758242,0.4415475189234651,1196.0
764.0,1.7114386714152335e+18,0.4765013054830287,0.3949771689497717,0.3335135135135135,0.5006113964294449,0.6274725274725275,0.43986543313709,1199.0
765.0,1.7114386714252726e+18,0.4725848563968668,0.4041095890410959,0.32972972972972975,0.5020787478601125,0.6274725274725275,0.4381833473507149,1197.0
766.0,1.7114386714352328e+18,0.47911227154047,0.4200913242009132,0.3324324324324324,0.5015896307165566,0.6252747252747253,0.44070647603027757,1197.0
767.0,1.7114386714452378e+18,0.47127937336814624,0.4132420091324201,0.3281081081081081,0.5015896307165566,0.6230769230769231,0.4415475189234651,1198.0
768.0,1.7114386714552335e+18,0.4751958224543081,0.3995433789954338,0.36,0.5015896307165566,0.6252747252747253,0.43986543313709,1198.0
769.0,1.711438671465237e+18,0.47780678851174935,0.3972602739726027,0.3281081081081081,0.5015896307165566,0.6274725274725275,0.4415475189234651,1196.0
770.0,1.7114386714752376e+18,0.4751958224543081,0.4178082191780822,0.33297297297297296,0.5011005135730008,0.6241758241758242,0.4381833473507149,1195.0
771.0,1.7114386714852472e+18,0.48172323759791125,0.4269406392694064,0.3286486486486486,0.5035460992907801,0.6274725274725275,0.44070647603027757,1198.0
772.0,1.7114386714952202e+18,0.47780678851174935,0.4497716894977169,0.34756756756756757,0.499877720714111,0.6241758241758242,0.4373423044575273,1194.0
773.0,1.7114386715052454e+18,0.47911227154047,0.4132420091324201,0.3281081081081081,0.5020787478601125,0.6241758241758242,0.4432296047098402,1198.0
774.0,1.711438671515232e+18,0.47127937336814624,0.4052511415525114,0.3281081081081081,0.5015896307165566,0.6274725274725275,0.4381833473507149,1195.0
775.0,1.7114386715252552e+18,0.48172323759791125,0.4246575342465753,0.3535135135135135,0.5030569821472243,0.6263736263736264,0.4415475189234651,1197.0
776.0,1.711438671535233e+18,0.4765013054830287,0.4041095890410959,0.32594594594594595,0.4996331621423331,0.6241758241758242,0.43902439024390244,1195.0
777.0,1.7114386715458883e+18,0.47780678851174935,0.4280821917808219,0.3567567567567568,0.5015896307165566,0.621978021978022,0.4373423044575273,1195.0
778.0,1.7114386715552494e+18,0.4699738903394256,0.4143835616438356,0.32972972972972975,0.499877720714111,0.6241758241758242,0.43902439024390244,1196.0
779.0,1.711438671565341e+18,0.47780678851174935,0.4189497716894977,0.34702702702702704,0.5025678650036683,0.6263736263736264,0.4415475189234651,1196.0
780.0,1.711438671575249e+18,0.4751958224543081,0.408675799086758,0.33135135135135135,0.5001222792858889,0.621978021978022,0.43650126156433977,1197.0
781.0,1.7114386715852424e+18,0.46866840731070497,0.386986301369863,0.32432432432432434,0.5015896307165566,0.6208791208791209,0.4381833473507149,1194.0
782.0,1.7114386715952412e+18,0.47911227154047,0.4246575342465753,0.3572972972972973,0.5030569821472243,0.6274725274725275,0.4415475189234651,1195.0
783.0,1.7114386716052375e+18,0.4869451697127937,0.4406392694063927,0.3881081081081081,0.5035460992907801,0.6296703296703297,0.4415475189234651,1196.0
784.0,1.7114386716152422e+18,0.4765013054830287,0.4223744292237443,0.3545945945945946,0.5011005135730008,0.6252747252747253,0.4432296047098402,1194.0
785.0,1.7114386716252677e+18,0.47911227154047,0.4178082191780822,0.33675675675675676,0.5033015407190022,0.6230769230769231,0.4415475189234651,1195.0
786.0,1.711438671635244e+18,0.4765013054830287,0.4246575342465753,0.34594594594594597,0.5006113964294449,0.6230769230769231,0.43650126156433977,1196.0
787.0,1.7114386716452544e+18,0.47911227154047,0.4200913242009132,0.3389189189189189,0.5020787478601125,0.6274725274725275,0.44238856181665265,1197.0
788.0,1.711438671655241e+18,0.4765013054830287,0.4200913242009132,0.3481081081081081,0.5013450721447786,0.6241758241758242,0.43902439024390244,1197.0
789.0,1.7114386716652536e+18,0.47911227154047,0.4178082191780822,0.34378378378378377,0.5035460992907801,0.6274725274725275,0.4432296047098402,1195.0
790.0,1.7114386716752525e+18,0.47389033942558745,0.410958904109589,0.31945945945945947,0.5006113964294449,0.6274725274725275,0.4348191757779647,1194.0
791.0,1.7114386716852544e+18,0.4765013054830287,0.4143835616438356,0.3291891891891892,0.5025678650036683,0.6274725274725275,0.43902439024390244,1195.0
792.0,1.711438671695244e+18,0.4751958224543081,0.410958904109589,0.3227027027027027,0.49938860357055515,0.6241758241758242,0.43986543313709,1198.0
793.0,1.711438671705261e+18,0.47780678851174935,0.4132420091324201,0.3308108108108108,0.5018341892883346,0.6241758241758242,0.4381833473507149,1194.0
794.0,1.7114386717152445e+18,0.47127937336814624,0.4143835616438356,0.33297297297297296,0.5001222792858889,0.6241758241758242,0.43986543313709,1196.0
795.0,1.7114386717252516e+18,0.4765013054830287,0.410958904109589,0.3248648648648649,0.5015896307165566,0.6230769230769231,0.43902439024390244,1196.0
796.0,1.7114386717352428e+18,0.4699738903394256,0.4075342465753425,0.3210810810810811,0.5003668378576669,0.6197802197802198,0.4381833473507149,1198.0
797.0,1.711438671745251e+18,0.47127937336814624,0.3961187214611872,0.31675675675675674,0.5015896307165566,0.6274725274725275,0.4381833473507149,1192.0
798.0,1.7114386717552673e+18,0.4725848563968668,0.3995433789954338,0.33513513513513515,0.499877720714111,0.6252747252747253,0.43650126156433977,1195.0
799.0,1.7114386717652493e+18,0.48172323759791125,0.4280821917808219,0.37567567567567567,0.5035460992907801,0.6274725274725275,0.4415475189234651,1194.0
800.0,1.7114386717752494e+18,0.4804177545691906,0.4315068493150685,0.36,0.5015896307165566,0.6241758241758242,0.43986543313709,1197.0
801.0,1.7114386717852572e+18,0.47911227154047,0.4178082191780822,0.3497297297297297,0.5023233064318905,0.6274725274725275,0.4415475189234651,1195.0
802.0,1.7114386717952453e+18,0.47127937336814624,0.4178082191780822,0.3237837837837838,0.5015896307165566,0.6230769230769231,0.43986543313709,1196.0
803.0,1.7114386718052506e+18,0.4765013054830287,0.4098173515981735,0.33837837837837836,0.5008559550012228,0.621978021978022,0.4373423044575273,1195.0
804.0,1.7114386718152484e+18,0.47127937336814624,0.4121004566210046,0.3302702702702703,0.5008559550012228,0.6252747252747253,0.43650126156433977,1195.0
805.0,1.7114386718252613e+18,0.47780678851174935,0.4223744292237443,0.33675675675675676,0.5025678650036683,0.6208791208791209,0.4381833473507149,1197.0
806.0,1.7114386718352207e+18,0.47127937336814624,0.4063926940639269,0.31567567567567567,0.5001222792858889,0.6241758241758242,0.43902439024390244,1197.0
807.0,1.711438671845246e+18,0.4765013054830287,0.3972602739726027,0.3254054054054054,0.5011005135730008,0.6252747252747253,0.43902439024390244,1198.0
808.0,1.7114386718552404e+18,0.46866840731070497,0.4075342465753425,0.33297297297297296,0.499877720714111,0.6230769230769231,0.4381833473507149,1196.0
809.0,1.7114386718652518e+18,0.4765013054830287,0.4143835616438356,0.34054054054054056,0.5020787478601125,0.6241758241758242,0.4381833473507149,1198.0
810.0,1.711438671875249e+18,0.4804177545691906,0.4200913242009132,0.3281081081081081,0.5023233064318905,0.6285714285714286,0.4432296047098402,1197.0
811.0,1.711438671885254e+18,0.47780678851174935,0.4269406392694064,0.33783783783783783,0.5020787478601125,0.6241758241758242,0.4381833473507149,1196.0
812.0,1.7114386718952425e+18,0.48433420365535246,0.4589041095890411,0.37567567567567567,0.504035216434336,0.6285714285714286,0.4432296047098402,1196.0
813.0,1.7114386719052692e+18,0.4804177545691906,0.4143835616438356,0.3302702702702703,0.5008559550012228,0.6274725274725275,0.4415475189234651,1196.0
814.0,1.711438671915247e+18,0.4725848563968668,0.4178082191780822,0.3345945945945946,0.5008559550012228,0.6241758241758242,0.43650126156433977,1196.0
815.0,1.7114386719252547e+18,0.46866840731070497,0.4143835616438356,0.3372972972972973,0.5020787478601125,0.6186813186813187,0.43650126156433977,1196.0
816.0,1.7114386719352425e+18,0.4765013054830287,0.4098173515981735,0.3178378378378378,0.5006113964294449,0.6241758241758242,0.43566021867115223,1197.0
817.0,1.711438671945254e+18,0.4699738903394256,0.4029680365296804,0.32594594594594595,0.5015896307165566,0.6274725274725275,0.4432296047098402,1196.0
818.0,1.7114386719552328e+18,0.4725848563968668,0.4166666666666667,0.3410810810810811,0.5013450721447786,0.6241758241758242,0.4373423044575273,1195.0
819.0,1.711438671965276e+18,0.47127937336814624,0.4006849315068493,0.31135135135135134,0.5035460992907801,0.6197802197802198,0.43650126156433977,1196.0
820.0,1.711438671975279e+18,0.4765013054830287,0.4132420091324201,0.31891891891891894,0.5008559550012228,0.6274725274725275,0.4415475189234651,1196.0
821.0,1.7114386719852675e+18,0.4725848563968668,0.4223744292237443,0.34486486486486484,0.5025678650036683,0.6186813186813187,0.43902439024390244,1194.0
822.0,1.7114386719952753e+18,0.49216710182767626,0.4737442922374429,0.4227027027027027,0.5108828564441183,0.634065934065934,0.45164003364171573,1195.0
823.0,1.7114386720052603e+18,0.47127937336814624,0.4052511415525114,0.3286486486486486,0.5015896307165566,0.6252747252747253,0.4348191757779647,1195.0
824.0,1.7114386720152369e+18,0.4765013054830287,0.4075342465753425,0.33135135135135135,0.4996331621423331,0.6197802197802198,0.4339781328847771,1194.0
825.0,1.7114386720252454e+18,0.47780678851174935,0.4063926940639269,0.31945945945945947,0.5020787478601125,0.6274725274725275,0.4415475189234651,1194.0
826.0,1.7114386720352591e+18,0.47911227154047,0.4246575342465753,0.33405405405405403,0.499877720714111,0.621978021978022,0.4381833473507149,1195.0
827.0,1.7114386720452562e+18,0.48172323759791125,0.4132420091324201,0.3216216216216216,0.5030569821472243,0.6373626373626373,0.4533221194280908,1197.0
828.0,1.7114386720552297e+18,0.47780678851174935,0.4292237442922374,0.3572972972972973,0.5018341892883346,0.6329670329670329,0.4415475189234651,1197.0
829.0,1.7114386720652303e+18,0.4699738903394256,0.4132420091324201,0.3318918918918919,0.4996331621423331,0.6329670329670329,0.4381833473507149,1198.0
830.0,1.7114386720752568e+18,0.47389033942558745,0.4132420091324201,0.32594594594594595,0.5018341892883346,0.6274725274725275,0.43650126156433977,1196.0
831.0,1.7114386720852572e+18,0.4660574412532637,0.4052511415525114,0.3254054054054054,0.5015896307165566,0.6208791208791209,0.44238856181665265,1194.0
832.0,1.7114386720952535e+18,0.47389033942558745,0.4132420091324201,0.3318918918918919,0.5006113964294449,0.6208791208791209,0.4339781328847771,1193.0
833.0,1.7114386721052536e+18,0.4699738903394256,0.4052511415525114,0.3210810810810811,0.5003668378576669,0.6208791208791209,0.43313708999158956,1193.0
834.0,1.7114386721152366e+18,0.4804177545691906,0.4360730593607306,0.31405405405405407,0.5015896307165566,0.6296703296703297,0.4432296047098402,1196.0
835.0,1.7114386721252424e+18,0.48825065274151436,0.4497716894977169,0.37189189189189187,0.504035216434336,0.6274725274725275,0.4381833473507149,1198.0
836.0,1.711438672135298e+18,0.47389033942558745,0.4246575342465753,0.35621621621621624,0.5023233064318905,0.634065934065934,0.4440706476030278,1198.0
837.0,1.7114386721452582e+18,0.47780678851174935,0.4178082191780822,0.32216216216216215,0.5015896307165566,0.6274725274725275,0.44575273338940286,1195.0
838.0,1.711438672155251e+18,0.4725848563968668,0.4155251141552511,0.35027027027027025,0.5003668378576669,0.6252747252747253,0.4247266610597141,1195.0
839.0,1.7114386721652431e+18,0.4765013054830287,0.4178082191780822,0.32,0.5035460992907801,0.6274725274725275,0.43986543313709,1198.0
840.0,1.7114386721752312e+18,0.4725848563968668,0.4006849315068493,0.31675675675675674,0.5006113964294449,0.6175824175824176,0.43986543313709,1194.0
841.0,1.7114386721852667e+18,0.47127937336814624,0.4098173515981735,0.32756756756756755,0.5030569821472243,0.6307692307692307,0.4314550042052145,1191.0
842.0,1.7114386721952504e+18,0.47389033942558745,0.4029680365296804,0.3108108108108108,0.5006113964294449,0.6230769230769231,0.43650126156433977,1193.0
843.0,1.7114386722052372e+18,0.4804177545691906,0.4098173515981735,0.3172972972972973,0.5015896307165566,0.6274725274725275,0.4381833473507149,1197.0
844.0,1.7114386722152266e+18,0.4725848563968668,0.4132420091324201,0.3286486486486486,0.5015896307165566,0.6208791208791209,0.4381833473507149,1195.0
845.0,1.7114386722252465e+18,0.4804177545691906,0.4189497716894977,0.3535135135135135,0.5011005135730008,0.6175824175824176,0.43650126156433977,1195.0
846.0,1.711438672235267e+18,0.4699738903394256,0.4052511415525114,0.3172972972972973,0.4988994864269993,0.6208791208791209,0.4247266610597141,1192.0
847.0,1.7114386722452536e+18,0.4751958224543081,0.4269406392694064,0.3281081081081081,0.5001222792858889,0.6241758241758242,0.43650126156433977,1197.0
848.0,1.7114386722552422e+18,0.4725848563968668,0.4189497716894977,0.3621621621621622,0.5035460992907801,0.6230769230769231,0.43650126156433977,1196.0
849.0,1.7114386722652367e+18,0.47127937336814624,0.410958904109589,0.3318918918918919,0.49816581071166544,0.6197802197802198,0.4373423044575273,1196.0
850.0,1.7114386722752292e+18,0.49216710182767626,0.4452054794520548,0.3675675675675676,0.5074590364392272,0.6373626373626373,0.4507989907485282,1196.0
851.0,1.711438672285241e+18,0.4765013054830287,0.4052511415525114,0.327027027027027,0.5013450721447786,0.6329670329670329,0.4306139613120269,1193.0
852.0,1.7114386722952376e+18,0.47389033942558745,0.4383561643835616,0.34702702702702704,0.4996331621423331,0.6098901098901099,0.4163162321278385,1194.0
853.0,1.7114386723052447e+18,0.4765013054830287,0.4075342465753425,0.33675675675675676,0.5008559550012228,0.6296703296703297,0.464255677039529,1196.0
854.0,1.7114386723152486e+18,0.4765013054830287,0.4041095890410959,0.29783783783783785,0.49938860357055515,0.6230769230769231,0.43650126156433977,1195.0
855.0,1.711438672325247e+18,0.46736292428198434,0.408675799086758,0.30972972972972973,0.5006113964294449,0.6175824175824176,0.4314550042052145,1195.0
856.0,1.711438672335262e+18,0.47127937336814624,0.3824200913242009,0.31891891891891894,0.4996331621423331,0.6186813186813187,0.4314550042052145,1193.0
857.0,1.7114386723452454e+18,0.4765013054830287,0.3961187214611872,0.3281081081081081,0.5037906578625581,0.6208791208791209,0.43902439024390244,1194.0
858.0,1.71143867235525e+18,0.47389033942558745,0.4063926940639269,0.3237837837837838,0.5008559550012228,0.6318681318681318,0.4289318755256518,1193.0
859.0,1.7114386723652314e+18,0.4765013054830287,0.4189497716894977,0.3318918918918919,0.5008559550012228,0.6197802197802198,0.4415475189234651,1196.0
860.0,1.711438672375234e+18,0.4725848563968668,0.454337899543379,0.33405405405405403,0.5011005135730008,0.6208791208791209,0.43566021867115223,1197.0
861.0,1.7114386723852639e+18,0.47127937336814624,0.4063926940639269,0.312972972972973,0.5020787478601125,0.6252747252747253,0.4348191757779647,1194.0
862.0,1.7114386723958907e+18,0.4765013054830287,0.4006849315068493,0.3324324324324324,0.5001222792858889,0.6230769230769231,0.4381833473507149,1195.0
863.0,1.7114386724052513e+18,0.4725848563968668,0.4178082191780822,0.33405405405405403,0.5015896307165566,0.6197802197802198,0.432296047098402,1192.0
864.0,1.711438672415232e+18,0.4765013054830287,0.4189497716894977,0.34324324324324323,0.5006113964294449,0.6274725274725275,0.43902439024390244,1195.0
865.0,1.7114386724252529e+18,0.4765013054830287,0.4143835616438356,0.3172972972972973,0.5030569821472243,0.6241758241758242,0.43650126156433977,1196.0
866.0,1.711438672435252e+18,0.4765013054830287,0.4098173515981735,0.34594594594594597,0.5001222792858889,0.621978021978022,0.4348191757779647,1195.0
867.0,1.7114386724452516e+18,0.4765013054830287,0.4029680365296804,0.3172972972972973,0.5025678650036683,0.6252747252747253,0.4415475189234651,1195.0
868.0,1.7114386724552302e+18,0.4725848563968668,0.4132420091324201,0.3362162162162162,0.5008559550012228,0.621978021978022,0.4289318755256518,1195.0
869.0,1.7114386724652465e+18,0.4869451697127937,0.4360730593607306,0.3708108108108108,0.5062362435803375,0.6450549450549451,0.4440706476030278,1197.0
870.0,1.7114386724752307e+18,0.4725848563968668,0.4497716894977169,0.34,0.5006113964294449,0.6307692307692307,0.447434819175778,1196.0
871.0,1.711438672485277e+18,0.47389033942558745,0.4269406392694064,0.33135135135135135,0.5035460992907801,0.6241758241758242,0.4373423044575273,1198.0
872.0,1.7114386724952525e+18,0.46866840731070497,0.4143835616438356,0.3308108108108108,0.5008559550012228,0.6274725274725275,0.4432296047098402,1197.0
873.0,1.7114386725052247e+18,0.47911227154047,0.4143835616438356,0.34,0.5018341892883346,0.6241758241758242,0.43986543313709,1197.0
874.0,1.711438672515233e+18,0.4725848563968668,0.408675799086758,0.31891891891891894,0.5001222792858889,0.6230769230769231,0.43650126156433977,1195.0
875.0,1.711438672525246e+18,0.4765013054830287,0.4383561643835616,0.3372972972972973,0.5015896307165566,0.6241758241758242,0.43902439024390244,1197.0
876.0,1.7114386725352417e+18,0.4765013054830287,0.4132420091324201,0.3362162162162162,0.5003668378576669,0.621978021978022,0.43650126156433977,1197.0
877.0,1.7114386725452815e+18,0.47780678851174935,0.4189497716894977,0.33135135135135135,0.5015896307165566,0.6274725274725275,0.44575273338940286,1195.0
878.0,1.7114386725552837e+18,0.47780678851174935,0.4315068493150685,0.3783783783783784,0.5011005135730008,0.6318681318681318,0.43986543313709,1196.0
879.0,1.7114386725652319e+18,0.4765013054830287,0.4178082191780822,0.33837837837837836,0.5020787478601125,0.6274725274725275,0.43986543313709,1196.0
880.0,1.7114386725752274e+18,0.47911227154047,0.4623287671232877,0.39135135135135135,0.5020787478601125,0.6285714285714286,0.43902439024390244,1196.0
881.0,1.7114386725852823e+18,0.47780678851174935,0.4315068493150685,0.36324324324324325,0.5015896307165566,0.6208791208791209,0.4449116904962153,1195.0
882.0,1.7114386725952302e+18,0.47389033942558745,0.4200913242009132,0.34486486486486484,0.5011005135730008,0.6274725274725275,0.43902439024390244,1196.0
883.0,1.7114386726052283e+18,0.47780678851174935,0.4132420091324201,0.3345945945945946,0.5015896307165566,0.6263736263736264,0.4348191757779647,1194.0
884.0,1.7114386726152223e+18,0.47127937336814624,0.4132420091324201,0.312972972972973,0.5035460992907801,0.6263736263736264,0.4373423044575273,1196.0
885.0,1.7114386726252782e+18,0.48172323759791125,0.4200913242009132,0.33513513513513515,0.5025678650036683,0.6274725274725275,0.44238856181665265,1196.0
886.0,1.711438672635275e+18,0.4765013054830287,0.410958904109589,0.32756756756756755,0.5020787478601125,0.6230769230769231,0.43650126156433977,1197.0
887.0,1.7114386726452774e+18,0.4830287206266319,0.4737442922374429,0.41027027027027024,0.5050134507214478,0.6329670329670329,0.43902439024390244,1197.0
888.0,1.7114386726552256e+18,0.47780678851174935,0.4257990867579909,0.35135135135135137,0.5037906578625581,0.6296703296703297,0.44238856181665265,1196.0
889.0,1.7114386726652772e+18,0.47780678851174935,0.4269406392694064,0.34162162162162163,0.504035216434336,0.634065934065934,0.4415475189234651,1196.0
890.0,1.71143867267523e+18,0.4804177545691906,0.4235159817351598,0.36,0.5020787478601125,0.6241758241758242,0.43902439024390244,1196.0
891.0,1.7114386726852723e+18,0.48172323759791125,0.4200913242009132,0.3286486486486486,0.5018341892883346,0.6252747252747253,0.4381833473507149,1195.0
892.0,1.7114386726952197e+18,0.47780678851174935,0.4417808219178082,0.3410810810810811,0.5015896307165566,0.6285714285714286,0.4432296047098402,1197.0
893.0,1.7114386727052716e+18,0.4869451697127937,0.4269406392694064,0.34486486486486484,0.5028124235754463,0.6274725274725275,0.44575273338940286,1197.0
894.0,1.7114386727152712e+18,0.46736292428198434,0.4063926940639269,0.3254054054054054,0.499877720714111,0.6230769230769231,0.4482758620689655,1195.0
895.0,1.711438672725268e+18,0.4765013054830287,0.3995433789954338,0.31027027027027027,0.5028124235754463,0.6241758241758242,0.4432296047098402,1196.0
896.0,1.7114386727352735e+18,0.4725848563968668,0.4052511415525114,0.3318918918918919,0.4996331621423331,0.6230769230769231,0.43313708999158956,1192.0
897.0,1.7114386727452652e+18,0.47911227154047,0.4417808219178082,0.33297297297297296,0.5023233064318905,0.621978021978022,0.4381833473507149,1193.0
898.0,1.7114386727552696e+18,0.48172323759791125,0.4178082191780822,0.31189189189189187,0.5011005135730008,0.6252747252747253,0.4381833473507149,1197.0
899.0,1.7114386727652685e+18,0.4725848563968668,0.4178082191780822,0.3216216216216216,0.5025678650036683,0.6175824175824176,0.43902439024390244,1196.0
900.0,1.7114386727752658e+18,0.48825065274151436,0.4497716894977169,0.39135135135135135,0.5033015407190022,0.6274725274725275,0.44911690496215306,1199.0
901.0,1.7114386727852677e+18,0.4751958224543081,0.4143835616438356,0.33783783783783783,0.5030569821472243,0.6296703296703297,0.43986543313709,1196.0
902.0,1.7114386727952637e+18,0.4765013054830287,0.3881278538812785,0.3264864864864865,0.5006113964294449,0.6296703296703297,0.43566021867115223,1196.0
903.0,1.7114386728052608e+18,0.4751958224543081,0.3961187214611872,0.3281081081081081,0.5020787478601125,0.6274725274725275,0.44575273338940286,1197.0
904.0,1.711438672815261e+18,0.47127937336814624,0.4132420091324201,0.3302702702702703,0.5008559550012228,0.6230769230769231,0.4381833473507149,1197.0
905.0,1.7114386728252636e+18,0.47911227154047,0.4143835616438356,0.33135135135135135,0.5037906578625581,0.6285714285714286,0.4415475189234651,1196.0
906.0,1.7114386728353057e+18,0.4804177545691906,0.432648401826484,0.3497297297297297,0.5015896307165566,0.6252747252747253,0.4415475189234651,1196.0
907.0,1.7114386728452598e+18,0.46736292428198434,0.4063926940639269,0.31891891891891894,0.5018341892883346,0.621978021978022,0.4415475189234651,1197.0
908.0,1.7114386728552556e+18,0.4765013054830287,0.4223744292237443,0.3308108108108108,0.499877720714111,0.6208791208791209,0.4348191757779647,1196.0
909.0,1.7114386728652636e+18,0.47911227154047,0.4178082191780822,0.32432432432432434,0.5015896307165566,0.6274725274725275,0.4432296047098402,1194.0
910.0,1.7114386728752543e+18,0.4765013054830287,0.4143835616438356,0.32972972972972975,0.5013450721447786,0.6230769230769231,0.4348191757779647,1196.0
911.0,1.7114386728852562e+18,0.4804177545691906,0.4223744292237443,0.34486486486486484,0.5015896307165566,0.6252747252747253,0.4415475189234651,1197.0
912.0,1.7114386728952515e+18,0.4699738903394256,0.4029680365296804,0.3324324324324324,0.5025678650036683,0.6285714285714286,0.4381833473507149,1197.0
913.0,1.7114386729052493e+18,0.4765013054830287,0.4132420091324201,0.3037837837837838,0.5006113964294449,0.621978021978022,0.4415475189234651,1197.0
914.0,1.711438672915249e+18,0.46736292428198434,0.4052511415525114,0.32432432432432434,0.5011005135730008,0.6197802197802198,0.43566021867115223,1198.0
915.0,1.7114386729252954e+18,0.4765013054830287,0.4132420091324201,0.32972972972972975,0.5020787478601125,0.6252747252747253,0.43902439024390244,1196.0
916.0,1.7114386729352548e+18,0.4725848563968668,0.410958904109589,0.32594594594594595,0.5008559550012228,0.6241758241758242,0.4415475189234651,1197.0
917.0,1.7114386729452552e+18,0.47780678851174935,0.4269406392694064,0.34864864864864864,0.5037906578625581,0.6285714285714286,0.43902439024390244,1193.0
918.0,1.711438672955246e+18,0.47127937336814624,0.4417808219178082,0.3654054054054054,0.5003668378576669,0.6175824175824176,0.43650126156433977,1196.0
919.0,1.7114386729652467e+18,0.4765013054830287,0.4155251141552511,0.34,0.5020787478601125,0.6241758241758242,0.4373423044575273,1197.0
920.0,1.7114386729752602e+18,0.4804177545691906,0.4155251141552511,0.32216216216216215,0.4996331621423331,0.6186813186813187,0.4348191757779647,1195.0
921.0,1.7114386729852547e+18,0.4765013054830287,0.4155251141552511,0.3362162162162162,0.5035460992907801,0.6274725274725275,0.4381833473507149,1194.0
922.0,1.71143867299524e+18,0.46866840731070497,0.4155251141552511,0.3427027027027027,0.5001222792858889,0.6274725274725275,0.43650126156433977,1195.0
923.0,1.7114386730052375e+18,0.47780678851174935,0.4257990867579909,0.33945945945945943,0.5015896307165566,0.6274725274725275,0.4432296047098402,1195.0
924.0,1.7114386730152369e+18,0.47780678851174935,0.4155251141552511,0.35135135135135137,0.5001222792858889,0.6230769230769231,0.43650126156433977,1197.0
925.0,1.7114386730252367e+18,0.4765013054830287,0.410958904109589,0.32054054054054054,0.5011005135730008,0.6296703296703297,0.44238856181665265,1196.0
926.0,1.7114386730352584e+18,0.4804177545691906,0.4223744292237443,0.33945945945945943,0.5025678650036683,0.6252747252747253,0.43986543313709,1197.0
927.0,1.711438673045256e+18,0.47911227154047,0.4235159817351598,0.3389189189189189,0.5023233064318905,0.6230769230769231,0.4381833473507149,1196.0
928.0,1.7114386730552415e+18,0.46866840731070497,0.4029680365296804,0.327027027027027,0.5003668378576669,0.6263736263736264,0.4348191757779647,1196.0
929.0,1.711438673065242e+18,0.4804177545691906,0.4075342465753425,0.327027027027027,0.5020787478601125,0.6296703296703297,0.447434819175778,1197.0
930.0,1.7114386730752407e+18,0.4725848563968668,0.4143835616438356,0.327027027027027,0.5006113964294449,0.6241758241758242,0.43986543313709,1195.0
931.0,1.71143867308526e+18,0.4765013054830287,0.4269406392694064,0.3691891891891892,0.5028124235754463,0.6274725274725275,0.4415475189234651,1196.0
932.0,1.711438673095253e+18,0.4751958224543081,0.4143835616438356,0.32756756756756755,0.5006113964294449,0.6241758241758242,0.4381833473507149,1195.0
933.0,1.7114386731052562e+18,0.47780678851174935,0.4452054794520548,0.33783783783783783,0.5028124235754463,0.6241758241758242,0.4381833473507149,1196.0
934.0,1.7114386731152404e+18,0.47127937336814624,0.4063926940639269,0.32756756756756755,0.4996331621423331,0.6230769230769231,0.4348191757779647,1195.0
935.0,1.711438673125242e+18,0.47127937336814624,0.4041095890410959,0.3345945945945946,0.5018341892883346,0.6274725274725275,0.4381833473507149,1194.0
936.0,1.711438673135242e+18,0.46866840731070497,0.4063926940639269,0.3362162162162162,0.5001222792858889,0.6208791208791209,0.4373423044575273,1195.0
937.0,1.7114386731452726e+18,0.48172323759791125,0.4178082191780822,0.3362162162162162,0.5018341892883346,0.6252747252747253,0.4381833473507149,1194.0
938.0,1.7114386731552543e+18,0.47127937336814624,0.3892694063926941,0.32432432432432434,0.5006113964294449,0.6241758241758242,0.44070647603027757,1196.0
939.0,1.7114386731652547e+18,0.46866840731070497,0.384703196347032,0.3216216216216216,0.5013450721447786,0.6230769230769231,0.43902439024390244,1195.0
940.0,1.7114386731752397e+18,0.4765013054830287,0.4292237442922374,0.35081081081081084,0.5001222792858889,0.6241758241758242,0.43566021867115223,1195.0
941.0,1.7114386731852557e+18,0.4830287206266319,0.4292237442922374,0.36702702702702705,0.5025678650036683,0.6296703296703297,0.4415475189234651,1196.0
942.0,1.7114386731952579e+18,0.4765013054830287,0.4075342465753425,0.32432432432432434,0.5001222792858889,0.6230769230769231,0.4381833473507149,1194.0
943.0,1.7114386732052416e+18,0.4830287206266319,0.4509132420091324,0.3302702702702703,0.5059916850085595,0.6285714285714286,0.4465937762825904,1197.0
944.0,1.7114386732152545e+18,0.47127937336814624,0.4132420091324201,0.32972972972972975,0.499877720714111,0.621978021978022,0.43566021867115223,1196.0
945.0,1.7114386732252772e+18,0.4725848563968668,0.4075342465753425,0.34,0.5006113964294449,0.6230769230769231,0.43986543313709,1195.0
946.0,1.7114386732352796e+18,0.4725848563968668,0.3995433789954338,0.3210810810810811,0.5018341892883346,0.6164835164835165,0.44238856181665265,1199.0
947.0,1.7114386732453038e+18,0.4804177545691906,0.4189497716894977,0.31675675675675674,0.5037906578625581,0.6241758241758242,0.4373423044575273,1197.0
948.0,1.7114386732552586e+18,0.47389033942558745,0.4178082191780822,0.34540540540540543,0.5006113964294449,0.6274725274725275,0.4381833473507149,1200.0
949.0,1.7114386732652557e+18,0.47127937336814624,0.4052511415525114,0.3254054054054054,0.5035460992907801,0.6285714285714286,0.43902439024390244,1195.0
950.0,1.7114386732752658e+18,0.47127937336814624,0.3938356164383562,0.31027027027027027,0.5020787478601125,0.6274725274725275,0.4381833473507149,1197.0
951.0,1.7114386732852577e+18,0.4856396866840731,0.4189497716894977,0.34054054054054056,0.5035460992907801,0.6285714285714286,0.43902439024390244,1196.0
952.0,1.7114386732952873e+18,0.47389033942558745,0.4223744292237443,0.3551351351351351,0.5015896307165566,0.6208791208791209,0.43902439024390244,1195.0
953.0,1.7114386733052826e+18,0.4725848563968668,0.4132420091324201,0.32,0.5006113964294449,0.6252747252747253,0.4348191757779647,1197.0
954.0,1.7114386733153377e+18,0.46475195822454307,0.3915525114155251,0.31891891891891894,0.5001222792858889,0.6230769230769231,0.4373423044575273,1196.0
955.0,1.711438673325246e+18,0.4751958224543081,0.4143835616438356,0.3572972972972973,0.5018341892883346,0.621978021978022,0.43902439024390244,1196.0
956.0,1.711438673335283e+18,0.47127937336814624,0.4052511415525114,0.3308108108108108,0.5015896307165566,0.6230769230769231,0.4415475189234651,1197.0
957.0,1.7114386733452956e+18,0.4856396866840731,0.4121004566210046,0.3410810810810811,0.5033015407190022,0.6252747252747253,0.4381833473507149,1193.0
958.0,1.7114386733552796e+18,0.46736292428198434,0.4006849315068493,0.3281081081081081,0.4996331621423331,0.6208791208791209,0.44070647603027757,1197.0
959.0,1.7114386733652483e+18,0.46866840731070497,0.4052511415525114,0.32216216216216215,0.5006113964294449,0.6230769230769231,0.44575273338940286,1195.0
960.0,1.7114386733752817e+18,0.4869451697127937,0.4520547945205479,0.4183783783783784,0.5030569821472243,0.6318681318681318,0.45500420521446594,1195.0
961.0,1.7114386733852554e+18,0.47389033942558745,0.4029680365296804,0.32756756756756755,0.5018341892883346,0.6208791208791209,0.4373423044575273,1195.0
962.0,1.7114386733952827e+18,0.46866840731070497,0.4429223744292237,0.32972972972972975,0.5001222792858889,0.6208791208791209,0.4348191757779647,1194.0
963.0,1.7114386734052506e+18,0.47389033942558745,0.408675799086758,0.3216216216216216,0.5018341892883346,0.6274725274725275,0.4381833473507149,1196.0
964.0,1.7114386734153044e+18,0.4725848563968668,0.4052511415525114,0.3362162162162162,0.4984103692834434,0.6186813186813187,0.4381833473507149,1196.0
965.0,1.7114386734252987e+18,0.46344647519582244,0.3995433789954338,0.30324324324324325,0.5033015407190022,0.6230769230769231,0.43986543313709,1197.0
966.0,1.7114386734352635e+18,0.4765013054830287,0.4200913242009132,0.3481081081081081,0.4996331621423331,0.6230769230769231,0.43566021867115223,1197.0
967.0,1.711438673445269e+18,0.4725848563968668,0.3904109589041096,0.31675675675675674,0.5013450721447786,0.6186813186813187,0.43902439024390244,1196.0
968.0,1.7114386734552612e+18,0.45691906005221933,0.408675799086758,0.31135135135135134,0.4996331621423331,0.6142857142857143,0.4238856181665265,1196.0
969.0,1.7114386734652675e+18,0.47780678851174935,0.408675799086758,0.32594594594594595,0.5003668378576669,0.6230769230769231,0.44070647603027757,1195.0
970.0,1.711438673475265e+18,0.47389033942558745,0.410958904109589,0.3178378378378378,0.5023233064318905,0.6241758241758242,0.4381833473507149,1197.0
971.0,1.711438673485298e+18,0.4804177545691906,0.4257990867579909,0.37513513513513513,0.5035460992907801,0.6252747252747253,0.4449116904962153,1197.0
972.0,1.7114386734952586e+18,0.47780678851174935,0.4497716894977169,0.40756756756756757,0.5028124235754463,0.6307692307692307,0.4381833473507149,1198.0
973.0,1.7114386735052646e+18,0.4725848563968668,0.408675799086758,0.3389189189189189,0.5015896307165566,0.6285714285714286,0.4415475189234651,1198.0
974.0,1.7114386735152758e+18,0.47780678851174935,0.4200913242009132,0.3124324324324324,0.5023233064318905,0.621978021978022,0.432296047098402,1192.0
975.0,1.7114386735252662e+18,0.47389033942558745,0.4178082191780822,0.33945945945945943,0.5001222792858889,0.6318681318681318,0.4592094196804037,1199.0
976.0,1.711438673535267e+18,0.4751958224543081,0.4063926940639269,0.32216216216216215,0.5003668378576669,0.6175824175824176,0.43902439024390244,1197.0
977.0,1.7114386735453125e+18,0.4751958224543081,0.4052511415525114,0.312972972972973,0.5006113964294449,0.6175824175824176,0.4381833473507149,1194.0
978.0,1.7114386735552527e+18,0.46866840731070497,0.4189497716894977,0.30864864864864866,0.5015896307165566,0.6230769230769231,0.4381833473507149,1196.0
979.0,1.7114386735652618e+18,0.46866840731070497,0.3961187214611872,0.27405405405405403,0.5025678650036683,0.621978021978022,0.4348191757779647,1196.0
980.0,1.7114386735752563e+18,0.4765013054830287,0.4052511415525114,0.31945945945945947,0.5006113964294449,0.6230769230769231,0.4381833473507149,1196.0
981.0,1.7114386735852575e+18,0.4751958224543081,0.4063926940639269,0.33513513513513515,0.5001222792858889,0.6186813186813187,0.4339781328847771,1192.0
982.0,1.711438673595255e+18,0.47911227154047,0.4463470319634703,0.35081081081081084,0.5015896307165566,0.6263736263736264,0.43986543313709,1194.0
983.0,1.7114386736052616e+18,0.47911227154047,0.4269406392694064,0.3535135135135135,0.5025678650036683,0.6230769230769231,0.43902439024390244,1196.0
984.0,1.7114386736152573e+18,0.47127937336814624,0.4257990867579909,0.3491891891891892,0.5020787478601125,0.6230769230769231,0.43902439024390244,1196.0
985.0,1.7114386736252554e+18,0.47780678851174935,0.4200913242009132,0.34486486486486484,0.5015896307165566,0.6274725274725275,0.4415475189234651,1197.0
986.0,1.7114386736352538e+18,0.47911227154047,0.4246575342465753,0.3535135135135135,0.5030569821472243,0.6252747252747253,0.4381833473507149,1196.0
987.0,1.7114386736452513e+18,0.4830287206266319,0.4257990867579909,0.35945945945945945,0.504524333577892,0.6318681318681318,0.4415475189234651,1196.0
988.0,1.7114386736552543e+18,0.47389033942558745,0.4155251141552511,0.3621621621621622,0.5011005135730008,0.6285714285714286,0.4432296047098402,1198.0
989.0,1.7114386736652488e+18,0.47780678851174935,0.4178082191780822,0.34486486486486484,0.5030569821472243,0.6274725274725275,0.43902439024390244,1196.0
990.0,1.7114386736752456e+18,0.46866840731070497,0.4315068493150685,0.36648648648648646,0.5035460992907801,0.6362637362637362,0.4381833473507149,1197.0
991.0,1.7114386736852442e+18,0.47389033942558745,0.4041095890410959,0.3232432432432432,0.499877720714111,0.6252747252747253,0.4482758620689655,1200.0
992.0,1.7114386736953055e+18,0.4725848563968668,0.4041095890410959,0.3216216216216216,0.49816581071166544,0.6153846153846154,0.43902439024390244,1197.0
993.0,1.7114386737052465e+18,0.4804177545691906,0.4589041095890411,0.34702702702702704,0.5018341892883346,0.6197802197802198,0.43566021867115223,1195.0
994.0,1.7114386737152453e+18,0.48172323759791125,0.430365296803653,0.34054054054054056,0.5008559550012228,0.6230769230769231,0.43986543313709,1198.0
995.0,1.7114386737252434e+18,0.4725848563968668,0.4029680365296804,0.3237837837837838,0.5025678650036683,0.6208791208791209,0.4373423044575273,1197.0
996.0,1.7114386737352535e+18,0.4934725848563969,0.4269406392694064,0.35135135135135137,0.5020787478601125,0.6285714285714286,0.43902439024390244,1197.0
997.0,1.711438673745247e+18,0.4765013054830287,0.4132420091324201,0.3308108108108108,0.5001222792858889,0.621978021978022,0.4381833473507149,1194.0
998.0,1.7114386737552765e+18,0.4751958224543081,0.4406392694063927,0.33513513513513515,0.5018341892883346,0.621978021978022,0.432296047098402,1192.0
999.0,1.711438673765241e+18,0.48433420365535246,0.4178082191780822,0.3183783783783784,0.5035460992907801,0.6274725274725275,0.4348191757779647,1196.0
1000.0,1.7114386737752755e+18,0.4830287206266319,0.4280821917808219,0.3605405405405405,0.5020787478601125,0.6285714285714286,0.4449116904962153,1196.0
1001.0,1.7114386737852467e+18,0.47389033942558745,0.4052511415525114,0.3281081081081081,0.5015896307165566,0.6274725274725275,0.43902439024390244,1198.0
