202.0,1.711438020182086e+18,0.47127937336814624,0.4052511415525114,0.3324324324324324,0.5001222792858889,0.6197802197802198,0.4314550042052145,1193.0
203.0,1.711438020192087e+18,0.4765013054830287,0.4155251141552511,0.33135135135135135,0.5035460992907801,0.6263736263736264,0.45500420521446594,1200.0
204.0,1.711438020202132e+18,0.47127937336814624,0.408675799086758,0.33135135135135135,0.499877720714111,0.6197802197802198,0.43986543313709,1197.0
205.0,1.7114380202120855e+18,0.4725848563968668,0.4269406392694064,0.3372972972972973,0.5025678650036683,0.6318681318681318,0.44070647603027757,1196.0
206.0,1.711438020222086e+18,0.47389033942558745,0.4098173515981735,0.34054054054054056,0.5008559550012228,0.6318681318681318,0.4381833473507149,1195.0
207.0,1.7114380202320827e+18,0.4725848563968668,0.4200913242009132,0.31675675675675674,0.5079481535827831,0.6351648351648351,0.4440706476030278,1197.0
208.0,1.7114380202420849e+18,0.46736292428198434,0.3949771689497717,0.32216216216216215,0.4996331621423331,0.6175824175824176,0.41968040370058873,1192.0
209.0,1.7114380202520842e+18,0.4765013054830287,0.4246575342465753,0.33837837837837836,0.5008559550012228,0.6395604395604395,0.4953742640874685,1197.0
210.0,1.7114380202620833e+18,0.4765013054830287,0.4075342465753425,0.33837837837837836,0.5025678650036683,0.6175824175824176,0.43650126156433977,1197.0
211.0,1.711438020272087e+18,0.47911227154047,0.4223744292237443,0.33405405405405403,0.49938860357055515,0.6098901098901099,0.42977291841883936,1194.0
212.0,1.711438020282084e+18,0.47127937336814624,0.4098173515981735,0.33783783783783783,0.5006113964294449,0.6274725274725275,0.4373423044575273,1195.0
213.0,1.7114380202920855e+18,0.48172323759791125,0.4269406392694064,0.34378378378378377,0.504035216434336,0.6263736263736264,0.4415475189234651,1194.0
214.0,1.7114380203020867e+18,0.4765013054830287,0.4098173515981735,0.34378378378378377,0.5018341892883346,0.6285714285714286,0.4415475189234651,1197.0
215.0,1.7114380203120886e+18,0.4765013054830287,0.4212328767123288,0.32756756756756755,0.5018341892883346,0.6296703296703297,0.4432296047098402,1195.0
216.0,1.711438020322083e+18,0.4725848563968668,0.4052511415525114,0.33675675675675676,0.5020787478601125,0.6274725274725275,0.43986543313709,1197.0
217.0,1.7114380203320868e+18,0.48172323759791125,0.4223744292237443,0.3362162162162162,0.5077035950110051,0.6318681318681318,0.4600504625735913,1196.0
218.0,1.7114380203420895e+18,0.4830287206266319,0.4315068493150685,0.3886486486486487,0.5033015407190022,0.6648351648351648,0.4625735912531539,1197.0
219.0,1.7114380203520863e+18,0.47780678851174935,0.4212328767123288,0.32594594594594595,0.5050134507214478,0.6483516483516484,0.4449116904962153,1196.0
220.0,1.711438020362086e+18,0.4725848563968668,0.4052511415525114,0.3335135135135135,0.5011005135730008,0.6318681318681318,0.4373423044575273,1195.0
221.0,1.7114380203720911e+18,0.4804177545691906,0.4292237442922374,0.35405405405405405,0.5030569821472243,0.6318681318681318,0.4415475189234651,1196.0
222.0,1.7114380203820856e+18,0.47127937336814624,0.3984018264840183,0.31675675675675674,0.4986549278552213,0.6362637362637362,0.4533221194280908,1196.0
223.0,1.7114380203920858e+18,0.47780678851174935,0.4315068493150685,0.3443243243243243,0.5025678650036683,0.6208791208791209,0.4381833473507149,1196.0
224.0,1.711438020402086e+18,0.4699738903394256,0.3984018264840183,0.31351351351351353,0.5020787478601125,0.6131868131868132,0.44911690496215306,1197.0
225.0,1.7114380204120878e+18,0.4765013054830287,0.4098173515981735,0.3237837837837838,0.5057471264367817,0.6417582417582418,0.43650126156433977,1197.0
226.0,1.711438020422086e+18,0.4725848563968668,0.4052511415525114,0.3308108108108108,0.4988994864269993,0.6318681318681318,0.44911690496215306,1195.0
227.0,1.7114380204320876e+18,0.48433420365535246,0.430365296803653,0.35027027027027025,0.504035216434336,0.6197802197802198,0.432296047098402,1194.0
228.0,1.7114380204420823e+18,0.4725848563968668,0.4075342465753425,0.33837837837837836,0.5003668378576669,0.6274725274725275,0.43902439024390244,1196.0
229.0,1.7114380204520993e+18,0.48172323759791125,0.4200913242009132,0.3335135135135135,0.5028124235754463,0.6186813186813187,0.4373423044575273,1197.0
230.0,1.7114380204620785e+18,0.4660574412532637,0.4041095890410959,0.3372972972972973,0.4986549278552213,0.6252747252747253,0.432296047098402,1194.0
231.0,1.7114380204720832e+18,0.4869451697127937,0.4406392694063927,0.35567567567567565,0.5030569821472243,0.6285714285714286,0.44238856181665265,1197.0
232.0,1.711438020482083e+18,0.46866840731070497,0.3972602739726027,0.3232432432432432,0.49938860357055515,0.6175824175824176,0.45248107653490327,1194.0
233.0,1.7114380204920865e+18,0.4804177545691906,0.4223744292237443,0.3318918918918919,0.5030569821472243,0.6274725274725275,0.45500420521446594,1196.0
234.0,1.711438020502089e+18,0.47127937336814624,0.4121004566210046,0.33675675675675676,0.5003668378576669,0.6659340659340659,0.4314550042052145,1193.0
235.0,1.7114380205120824e+18,0.4856396866840731,0.4292237442922374,0.36108108108108106,0.5055025678650037,0.6318681318681318,0.5441547518923465,1196.0
236.0,1.7114380205220836e+18,0.47780678851174935,0.4223744292237443,0.3345945945945946,0.5062362435803375,0.7032967032967034,0.456686291000841,1196.0
237.0,1.7114380205320814e+18,0.46736292428198434,0.4143835616438356,0.3237837837837838,0.5015896307165566,0.6802197802197802,0.4575273338940286,1196.0
238.0,1.711438020542083e+18,0.4765013054830287,0.4166666666666667,0.3281081081081081,0.5001222792858889,0.6120879120879121,0.4272497897392767,1193.0
239.0,1.7114380205520778e+18,0.47911227154047,0.4212328767123288,0.34378378378378377,0.5020787478601125,0.6241758241758242,0.4373423044575273,1197.0
240.0,1.711438020562079e+18,0.4699738903394256,0.410958904109589,0.3362162162162162,0.4988994864269993,0.6230769230769231,0.4381833473507149,1196.0
241.0,1.7114380205720584e+18,0.4765013054830287,0.410958904109589,0.3264864864864865,0.5013450721447786,0.6208791208791209,0.43986543313709,1196.0
242.0,1.7114380205820818e+18,0.46866840731070497,0.4063926940639269,0.3335135135135135,0.5001222792858889,0.6208791208791209,0.42977291841883936,1197.0
243.0,1.711438020592097e+18,0.4765013054830287,0.4155251141552511,0.3237837837837838,0.5013450721447786,0.6142857142857143,0.44911690496215306,1198.0
244.0,1.711438020602089e+18,0.47127937336814624,0.4063926940639269,0.3410810810810811,0.49938860357055515,0.6230769230769231,0.4314550042052145,1195.0
245.0,1.711438020612089e+18,0.47780678851174935,0.4041095890410959,0.32216216216216215,0.5015896307165566,0.6153846153846154,0.4339781328847771,1196.0
246.0,1.7114380206220813e+18,0.4725848563968668,0.4178082191780822,0.3491891891891892,0.5008559550012228,0.6274725274725275,0.4280908326324643,1195.0
247.0,1.7114380206320911e+18,0.4725848563968668,0.4223744292237443,0.3318918918918919,0.5015896307165566,0.610989010989011,0.43566021867115223,1197.0
248.0,1.7114380206420808e+18,0.4725848563968668,0.410958904109589,0.33675675675675676,0.5006113964294449,0.6285714285714286,0.4415475189234651,1198.0
249.0,1.7114380206520817e+18,0.48172323759791125,0.4269406392694064,0.3254054054054054,0.504279775006114,0.6318681318681318,0.4432296047098402,1197.0
250.0,1.711438020662084e+18,0.46866840731070497,0.4063926940639269,0.32594594594594595,0.5001222792858889,0.6208791208791209,0.4482758620689655,1196.0
251.0,1.711438020672076e+18,0.4765013054830287,0.4143835616438356,0.3302702702702703,0.5025678650036683,0.6054945054945055,0.4146341463414634,1193.0
252.0,1.7114380206820828e+18,0.48433420365535246,0.4178082191780822,0.3183783783783784,0.5028124235754463,0.6571428571428571,0.4289318755256518,1193.0
253.0,1.711438020692087e+18,0.47780678851174935,0.4200913242009132,0.34324324324324323,0.5052580092932257,0.6153846153846154,0.43566021867115223,1195.0
254.0,1.7114380207020874e+18,0.4765013054830287,0.4052511415525114,0.33135135135135135,0.49620934213744194,0.5934065934065934,0.4314550042052145,1193.0
255.0,1.7114380207120776e+18,0.4830287206266319,0.4178082191780822,0.3254054054054054,0.5037906578625581,0.6450549450549451,0.4339781328847771,1192.0
256.0,1.7114380207220803e+18,0.4699738903394256,0.408675799086758,0.3345945945945946,0.4971875764245537,0.6230769230769231,0.4280908326324643,1193.0
257.0,1.7114380207320852e+18,0.47911227154047,0.4280821917808219,0.34378378378378377,0.5023233064318905,0.6384615384615384,0.4188393608074012,1193.0
258.0,1.7114380207420918e+18,0.4804177545691906,0.4132420091324201,0.3551351351351351,0.5020787478601125,0.6428571428571429,0.4608915054667788,1197.0
259.0,1.7114380207520965e+18,0.48172323759791125,0.4246575342465753,0.3286486486486486,0.5030569821472243,0.6351648351648351,0.4482758620689655,1198.0
260.0,1.7114380207620867e+18,0.47780678851174935,0.4166666666666667,0.3443243243243243,0.5011005135730008,0.6395604395604395,0.45248107653490327,1195.0
261.0,1.7114380207720847e+18,0.4869451697127937,0.432648401826484,0.34540540540540543,0.5055025678650037,0.6175824175824176,0.4541631623212784,1198.0
262.0,1.7114380207820836e+18,0.47389033942558745,0.4063926940639269,0.33135135135135135,0.5015896307165566,0.6285714285714286,0.4222035323801514,1195.0
263.0,1.711438020792084e+18,0.4765013054830287,0.4178082191780822,0.3232432432432432,0.5025678650036683,0.6285714285714286,0.4381833473507149,1200.0
264.0,1.7114380208020833e+18,0.46736292428198434,0.4143835616438356,0.34486486486486484,0.5020787478601125,0.6406593406593407,0.45500420521446594,1197.0
265.0,1.7114380208120786e+18,0.47780678851174935,0.410958904109589,0.31027027027027027,0.5035460992907801,0.6461538461538462,0.4440706476030278,1194.0
266.0,1.711438020822077e+18,0.4765013054830287,0.4189497716894977,0.37189189189189187,0.5015896307165566,0.6516483516483517,0.43986543313709,1197.0
267.0,1.7114380208320794e+18,0.48172323759791125,0.4155251141552511,0.32054054054054054,0.5035460992907801,0.6065934065934065,0.4289318755256518,1193.0
268.0,1.711438020842086e+18,0.47127937336814624,0.3995433789954338,0.3286486486486486,0.5015896307165566,0.6274725274725275,0.43566021867115223,1195.0
269.0,1.7114380208520765e+18,0.4765013054830287,0.4178082191780822,0.3286486486486486,0.499877720714111,0.6010989010989011,0.4087468460891506,1195.0
270.0,1.7114380208620685e+18,0.4725848563968668,0.410958904109589,0.34540540540540543,0.5011005135730008,0.6274725274725275,0.4314550042052145,1192.0
271.0,1.711438020872075e+18,0.4725848563968668,0.4223744292237443,0.34702702702702704,0.5015896307165566,0.621978021978022,0.43566021867115223,1198.0
272.0,1.7114380208820754e+18,0.47127937336814624,0.408675799086758,0.3372972972972973,0.5006113964294449,0.6329670329670329,0.44238856181665265,1195.0
273.0,1.711438020892076e+18,0.47127937336814624,0.4223744292237443,0.33297297297297296,0.5037906578625581,0.6164835164835165,0.4289318755256518,1193.0
274.0,1.71143802090208e+18,0.46866840731070497,0.4041095890410959,0.33405405405405403,0.5020787478601125,0.6406593406593407,0.4339781328847771,1193.0
275.0,1.7114380209120783e+18,0.4934725848563969,0.4394977168949772,0.35405405405405405,0.5074590364392272,0.6307692307692307,0.46173254835996635,1196.0
276.0,1.7114380209220723e+18,0.4699738903394256,0.4018264840182648,0.32594594594594595,0.5006113964294449,0.5967032967032967,0.4238856181665265,1193.0
277.0,1.7114380209320868e+18,0.4869451697127937,0.4383561643835616,0.34540540540540543,0.504279775006114,0.6373626373626373,0.47771236333052985,1196.0
278.0,1.7114380209420805e+18,0.4660574412532637,0.3984018264840183,0.32,0.4979212521398875,0.6186813186813187,0.4339781328847771,1191.0
279.0,1.7114380209520742e+18,0.4830287206266319,0.410958904109589,0.31891891891891894,0.5028124235754463,0.6406593406593407,0.44911690496215306,1195.0
280.0,1.7114380209620846e+18,0.47389033942558745,0.4200913242009132,0.3281081081081081,0.5001222792858889,0.6285714285714286,0.4415475189234651,1196.0
281.0,1.711438020972084e+18,0.47911227154047,0.4155251141552511,0.32756756756756755,0.5020787478601125,0.6186813186813187,0.4213624894869638,1195.0
282.0,1.7114380209820823e+18,0.4660574412532637,0.3995433789954338,0.31891891891891894,0.5008559550012228,0.6626373626373626,0.4432296047098402,1196.0
283.0,1.7114380209920924e+18,0.4830287206266319,0.4360730593607306,0.3491891891891892,0.5069699192956714,0.6285714285714286,0.4314550042052145,1193.0
284.0,1.7114380210020872e+18,0.46344647519582244,0.4098173515981735,0.33837837837837836,0.5008559550012228,0.6142857142857143,0.432296047098402,1193.0
285.0,1.7114380210121185e+18,0.47911227154047,0.4132420091324201,0.32054054054054054,0.5015896307165566,0.6175824175824176,0.4415475189234651,1197.0
286.0,1.7114380210220838e+18,0.46866840731070497,0.4006849315068493,0.3210810810810811,0.49767669356810956,0.6263736263736264,0.4373423044575273,1196.0
287.0,1.7114380210320924e+18,0.48433420365535246,0.4292237442922374,0.34216216216216216,0.5025678650036683,0.6153846153846154,0.4701429772918419,1198.0
288.0,1.711438021042078e+18,0.4725848563968668,0.4075342465753425,0.3362162162162162,0.5025678650036683,0.6285714285714286,0.44238856181665265,1197.0
289.0,1.7114380210520773e+18,0.4725848563968668,0.410958904109589,0.3227027027027027,0.5030569821472243,0.6373626373626373,0.42304457527333894,1193.0
290.0,1.7114380210620874e+18,0.4830287206266319,0.4223744292237443,0.3372972972972973,0.5018341892883346,0.5934065934065934,0.4415475189234651,1199.0
291.0,1.711438021072085e+18,0.4765013054830287,0.4132420091324201,0.3210810810810811,0.5030569821472243,0.6241758241758242,0.4339781328847771,1194.0
292.0,1.7114380210820818e+18,0.46866840731070497,0.4006849315068493,0.33135135135135135,0.4986549278552213,0.6153846153846154,0.432296047098402,1193.0
293.0,1.711438021092084e+18,0.47127937336814624,0.4280821917808219,0.3518918918918919,0.5030569821472243,0.6230769230769231,0.4415475189234651,1197.0
294.0,1.7114380211020828e+18,0.4765013054830287,0.4098173515981735,0.33135135135135135,0.49938860357055515,0.6263736263736264,0.4146341463414634,1194.0
295.0,1.711438021112121e+18,0.47780678851174935,0.4178082191780822,0.3362162162162162,0.5035460992907801,0.6208791208791209,0.4415475189234651,1198.0
296.0,1.7114380211220854e+18,0.47911227154047,0.4143835616438356,0.34162162162162163,0.5008559550012228,0.6373626373626373,0.45248107653490327,1197.0
297.0,1.7114380211320927e+18,0.46866840731070497,0.4178082191780822,0.33945945945945943,0.499877720714111,0.6285714285714286,0.44575273338940286,1197.0
298.0,1.7114380211425572e+18,0.47127937336814624,0.4075342465753425,0.3286486486486486,0.5008559550012228,0.6307692307692307,0.4449116904962153,1196.0
299.0,1.711438021152084e+18,0.47780678851174935,0.4098173515981735,0.3081081081081081,0.5020787478601125,0.6120879120879121,0.43566021867115223,1194.0
300.0,1.711438021162089e+18,0.46344647519582244,0.3926940639269406,0.307027027027027,0.4996331621423331,0.6395604395604395,0.44911690496215306,1198.0
301.0,1.711438021172078e+18,0.47389033942558745,0.4041095890410959,0.2951351351351351,0.504279775006114,0.6274725274725275,0.4499579478553406,1195.0
302.0,1.711438021182084e+18,0.48172323759791125,0.4075342465753425,0.30864864864864866,0.4991440449987772,0.6450549450549451,0.44911690496215306,1197.0
303.0,1.711438021192082e+18,0.46866840731070497,0.4006849315068493,0.30594594594594593,0.4969430178527757,0.6010989010989011,0.4255677039529016,1197.0
304.0,1.7114380212020838e+18,0.4699738903394256,0.410958904109589,0.3345945945945946,0.4991440449987772,0.6142857142857143,0.43902439024390244,1195.0
305.0,1.7114380212120883e+18,0.4960835509138381,0.4246575342465753,0.3281081081081081,0.5055025678650037,0.6362637362637362,0.4659377628259041,1198.0
306.0,1.7114380212220895e+18,0.46866840731070497,0.4018264840182648,0.3281081081081081,0.49938860357055515,0.6274725274725275,0.4592094196804037,1196.0
307.0,1.7114380212320955e+18,0.47780678851174935,0.4223744292237443,0.3389189189189189,0.5035460992907801,0.621978021978022,0.4314550042052145,1193.0
308.0,1.7114380212420995e+18,0.47780678851174935,0.4075342465753425,0.33837837837837836,0.4986549278552213,0.6054945054945055,0.4339781328847771,1194.0
309.0,1.7114380212520786e+18,0.4725848563968668,0.4121004566210046,0.3286486486486486,0.5035460992907801,0.6395604395604395,0.43650126156433977,1197.0
310.0,1.711438021262087e+18,0.46866840731070497,0.4063926940639269,0.3362162162162162,0.49767669356810956,0.634065934065934,0.4339781328847771,1193.0
311.0,1.711438021272081e+18,0.49869451697127937,0.4440639269406393,0.35081081081081084,0.5037906578625581,0.6406593406593407,0.4541631623212784,1194.0
312.0,1.7114380212821356e+18,0.4699738903394256,0.3995433789954338,0.3172972972972973,0.4991440449987772,0.6197802197802198,0.44070647603027757,1195.0
313.0,1.7114380212920886e+18,0.48172323759791125,0.4292237442922374,0.3389189189189189,0.504035216434336,0.6241758241758242,0.432296047098402,1193.0
314.0,1.7114380213021025e+18,0.4725848563968668,0.4121004566210046,0.3291891891891892,0.4988994864269993,0.6164835164835165,0.4348191757779647,1196.0
315.0,1.7114380213120845e+18,0.4830287206266319,0.4315068493150685,0.34216216216216216,0.504524333577892,0.6373626373626373,0.44911690496215306,1196.0
316.0,1.7114380213220828e+18,0.47911227154047,0.430365296803653,0.3902702702702703,0.49645390070921985,0.6648351648351648,0.4432296047098402,1197.0
317.0,1.7114380213320924e+18,0.48172323759791125,0.4189497716894977,0.3318918918918919,0.5055025678650037,0.6318681318681318,0.4507989907485282,1195.0
318.0,1.7114380213420767e+18,0.47127937336814624,0.4052511415525114,0.33297297297297296,0.5006113964294449,0.6527472527472528,0.4415475189234651,1196.0
319.0,1.7114380213520812e+18,0.5182767624020888,0.5182648401826484,0.4540540540540541,0.5103937393005625,0.6538461538461539,0.4953742640874685,1197.0
320.0,1.711438021362078e+18,0.4621409921671018,0.3915525114155251,0.3232432432432432,0.4986549278552213,0.6197802197802198,0.4381833473507149,1197.0
321.0,1.7114380213720847e+18,0.4699738903394256,0.408675799086758,0.32972972972972975,0.5018341892883346,0.6274725274725275,0.4222035323801514,1194.0
322.0,1.7114380213820792e+18,0.4608355091383812,0.3926940639269406,0.31945945945945947,0.499877720714111,0.6241758241758242,0.4348191757779647,1198.0
323.0,1.7114380213920855e+18,0.47911227154047,0.4189497716894977,0.3302702702702703,0.5055025678650037,0.6538461538461539,0.42977291841883936,1194.0
324.0,1.7114380214020836e+18,0.47389033942558745,0.408675799086758,0.3372972972972973,0.5025678650036683,0.654945054945055,0.4432296047098402,1195.0
325.0,1.7114380214120824e+18,0.47127937336814624,0.410958904109589,0.3210810810810811,0.5018341892883346,0.6164835164835165,0.4306139613120269,1192.0
326.0,1.7114380214220787e+18,0.4751958224543081,0.4132420091324201,0.31675675675675674,0.49816581071166544,0.6131868131868132,0.44238856181665265,1196.0
327.0,1.7114380214320858e+18,0.47780678851174935,0.4212328767123288,0.34162162162162163,0.5018341892883346,0.6252747252747253,0.43650126156433977,1193.0
328.0,1.7114380214420964e+18,0.4725848563968668,0.4063926940639269,0.3308108108108108,0.49816581071166544,0.6351648351648351,0.44575273338940286,1197.0
329.0,1.7114380214520845e+18,0.4765013054830287,0.4155251141552511,0.3281081081081081,0.5025678650036683,0.6296703296703297,0.4381833473507149,1196.0
330.0,1.7114380214620828e+18,0.4725848563968668,0.4143835616438356,0.32594594594594595,0.49938860357055515,0.6131868131868132,0.4415475189234651,1196.0
331.0,1.7114380214720845e+18,0.47780678851174935,0.4200913242009132,0.3427027027027027,0.5077035950110051,0.6648351648351648,0.4482758620689655,1197.0
332.0,1.7114380214820782e+18,0.47127937336814624,0.408675799086758,0.34054054054054056,0.4988994864269993,0.6142857142857143,0.4348191757779647,1192.0
333.0,1.7114380214920922e+18,0.47911227154047,0.408675799086758,0.32216216216216215,0.5018341892883346,0.6241758241758242,0.4373423044575273,1195.0
334.0,1.7114380215020772e+18,0.4725848563968668,0.4200913242009132,0.3535135135135135,0.49938860357055515,0.6186813186813187,0.4247266610597141,1193.0
335.0,1.7114380215120765e+18,0.48172323759791125,0.410958904109589,0.3210810810810811,0.5020787478601125,0.6175824175824176,0.43986543313709,1195.0
336.0,1.7114380215220785e+18,0.47389033942558745,0.408675799086758,0.33513513513513515,0.499877720714111,0.621978021978022,0.4381833473507149,1196.0
337.0,1.7114380215320947e+18,0.47911227154047,0.4200913242009132,0.3372972972972973,0.5020787478601125,0.6417582417582418,0.4348191757779647,1199.0
338.0,1.7114380215420746e+18,0.47389033942558745,0.4075342465753425,0.3372972972972973,0.5055025678650037,0.654945054945055,0.4600504625735913,1196.0
339.0,1.711438021552087e+18,0.48172323759791125,0.4132420091324201,0.3302702702702703,0.5055025678650037,0.634065934065934,0.4381833473507149,1195.0
340.0,1.7114380215620805e+18,0.4725848563968668,0.4098173515981735,0.3345945945945946,0.4991440449987772,0.6175824175824176,0.43566021867115223,1196.0
341.0,1.711438021572076e+18,0.4869451697127937,0.4200913242009132,0.3302702702702703,0.5033015407190022,0.6318681318681318,0.4415475189234651,1195.0
342.0,1.7114380215820782e+18,0.4725848563968668,0.410958904109589,0.34486486486486484,0.5006113964294449,0.654945054945055,0.45500420521446594,1197.0
343.0,1.7114380215920957e+18,0.4725848563968668,0.4063926940639269,0.3075675675675676,0.5020787478601125,0.6241758241758242,0.4339781328847771,1195.0
344.0,1.7114380216020813e+18,0.48172323759791125,0.4075342465753425,0.3172972972972973,0.5015896307165566,0.6318681318681318,0.44575273338940286,1197.0
345.0,1.7114380216121108e+18,0.4765013054830287,0.410958904109589,0.3021621621621622,0.5015896307165566,0.6010989010989011,0.43313708999158956,1194.0
346.0,1.711438021622081e+18,0.4608355091383812,0.3995433789954338,0.3264864864864865,0.49816581071166544,0.6208791208791209,0.4314550042052145,1194.0
347.0,1.711438021632118e+18,0.47389033942558745,0.4132420091324201,0.33405405405405403,0.5018341892883346,0.6230769230769231,0.43566021867115223,1197.0
348.0,1.7114380216420984e+18,0.4725848563968668,0.4315068493150685,0.37405405405405406,0.504035216434336,0.6384615384615384,0.43902439024390244,1196.0
349.0,1.7114380216520827e+18,0.4804177545691906,0.4223744292237443,0.3308108108108108,0.5035460992907801,0.6296703296703297,0.4608915054667788,1197.0
350.0,1.711438021662085e+18,0.4725848563968668,0.4132420091324201,0.33513513513513515,0.5011005135730008,0.6274725274725275,0.4289318755256518,1193.0
351.0,1.7114380216720796e+18,0.4830287206266319,0.4223744292237443,0.3318918918918919,0.5028124235754463,0.6241758241758242,0.43986543313709,1198.0
352.0,1.7114380216820856e+18,0.47127937336814624,0.410958904109589,0.34486486486486484,0.5006113964294449,0.6263736263736264,0.44238856181665265,1197.0
353.0,1.711438021692066e+18,0.47780678851174935,0.4200913242009132,0.3308108108108108,0.504279775006114,0.6274725274725275,0.45164003364171573,1196.0
354.0,1.711438021702084e+18,0.46736292428198434,0.4075342465753425,0.33675675675675676,0.4979212521398875,0.6230769230769231,0.43650126156433977,1196.0
355.0,1.711438021712079e+18,0.4725848563968668,0.4075342465753425,0.31675675675675674,0.5011005135730008,0.6142857142857143,0.4348191757779647,1196.0
356.0,1.7114380217220844e+18,0.4699738903394256,0.4006849315068493,0.3291891891891892,0.5001222792858889,0.6274725274725275,0.45248107653490327,1197.0
357.0,1.7114380217321308e+18,0.47911227154047,0.410958904109589,0.3281081081081081,0.5025678650036683,0.634065934065934,0.432296047098402,1193.0
358.0,1.7114380217420849e+18,0.4660574412532637,0.4063926940639269,0.3345945945945946,0.4996331621423331,0.6153846153846154,0.4348191757779647,1196.0
359.0,1.7114380217520965e+18,0.47911227154047,0.4200913242009132,0.33513513513513515,0.5033015407190022,0.6417582417582418,0.4415475189234651,1196.0
360.0,1.7114380217620823e+18,0.4765013054830287,0.4098173515981735,0.3362162162162162,0.5015896307165566,0.6329670329670329,0.43902439024390244,1197.0
361.0,1.7114380217720845e+18,0.4765013054830287,0.4143835616438356,0.3227027027027027,0.4974321349963316,0.610989010989011,0.43650126156433977,1197.0
362.0,1.7114380217820884e+18,0.46866840731070497,0.4006849315068493,0.3178378378378378,0.5001222792858889,0.5978021978021978,0.43902439024390244,1197.0
363.0,1.7114380217920758e+18,0.48172323759791125,0.4280821917808219,0.3389189189189189,0.5035460992907801,0.6252747252747253,0.43902439024390244,1199.0
364.0,1.7114380218020762e+18,0.4699738903394256,0.3984018264840183,0.32756756756756755,0.49938860357055515,0.621978021978022,0.43986543313709,1196.0
365.0,1.711438021812076e+18,0.48172323759791125,0.4178082191780822,0.3308108108108108,0.5015896307165566,0.6318681318681318,0.43986543313709,1194.0
366.0,1.7114380218220787e+18,0.4765013054830287,0.410958904109589,0.33675675675675676,0.5047688921496698,0.6692307692307692,0.4507989907485282,1197.0
367.0,1.7114380218321009e+18,0.47780678851174935,0.4189497716894977,0.31675675675675674,0.5059916850085595,0.6824175824175824,0.4247266610597141,1192.0
368.0,1.7114380218420874e+18,0.47911227154047,0.430365296803653,0.3605405405405405,0.5020787478601125,0.6230769230769231,0.464255677039529,1197.0
369.0,1.711438021852087e+18,0.4830287206266319,0.4257990867579909,0.3372972972972973,0.504524333577892,0.6241758241758242,0.4339781328847771,1196.0
370.0,1.7114380218620823e+18,0.4660574412532637,0.4006849315068493,0.3302702702702703,0.4991440449987772,0.6274725274725275,0.43902439024390244,1195.0
371.0,1.7114380218720814e+18,0.4804177545691906,0.4155251141552511,0.32594594594594595,0.5015896307165566,0.6142857142857143,0.43986543313709,1195.0
372.0,1.7114380218820836e+18,0.4765013054830287,0.4212328767123288,0.33783783783783783,0.5030569821472243,0.6604395604395604,0.44238856181665265,1193.0
373.0,1.7114380218920799e+18,0.47911227154047,0.4178082191780822,0.3318918918918919,0.5035460992907801,0.6307692307692307,0.4440706476030278,1194.0
374.0,1.7114380219020892e+18,0.46866840731070497,0.4063926940639269,0.3286486486486486,0.5030569821472243,0.6164835164835165,0.43566021867115223,1196.0
375.0,1.7114380219120878e+18,0.4804177545691906,0.4166666666666667,0.3227027027027027,0.5008559550012228,0.6131868131868132,0.43566021867115223,1196.0
376.0,1.7114380219220864e+18,0.4765013054830287,0.4052511415525114,0.3427027027027027,0.5008559550012228,0.654945054945055,0.4533221194280908,1195.0
377.0,1.7114380219320937e+18,0.4751958224543081,0.4121004566210046,0.3264864864864865,0.5023233064318905,0.6450549450549451,0.43566021867115223,1195.0
378.0,1.7114380219420823e+18,0.46736292428198434,0.4075342465753425,0.3372972972972973,0.4988994864269993,0.6142857142857143,0.43650126156433977,1195.0
379.0,1.7114380219520855e+18,0.4725848563968668,0.4143835616438356,0.3318918918918919,0.5055025678650037,0.6362637362637362,0.44238856181665265,1195.0
380.0,1.711438021962078e+18,0.48172323759791125,0.4189497716894977,0.34486486486486484,0.5003668378576669,0.6571428571428571,0.4558452481076535,1195.0
381.0,1.7114380219720804e+18,0.4765013054830287,0.4189497716894977,0.3335135135135135,0.5030569821472243,0.6208791208791209,0.4381833473507149,1196.0
382.0,1.71143802198209e+18,0.4725848563968668,0.4029680365296804,0.327027027027027,0.4996331621423331,0.6252747252747253,0.4415475189234651,1197.0
383.0,1.711438021992078e+18,0.4765013054830287,0.4121004566210046,0.31135135135135134,0.5008559550012228,0.6186813186813187,0.43902439024390244,1196.0
384.0,1.7114380220020808e+18,0.4765013054830287,0.4052511415525114,0.3281081081081081,0.495964783565664,0.5945054945054945,0.43650126156433977,1197.0
385.0,1.7114380220120832e+18,0.48172323759791125,0.4246575342465753,0.3389189189189189,0.5020787478601125,0.6010989010989011,0.45248107653490327,1196.0
386.0,1.7114380220220785e+18,0.46866840731070497,0.4006849315068493,0.3227027027027027,0.49327463927610665,0.6208791208791209,0.43313708999158956,1195.0
387.0,1.7114380220321477e+18,0.48172323759791125,0.4235159817351598,0.33675675675675676,0.5035460992907801,0.6274725274725275,0.4381833473507149,1196.0
388.0,1.7114380220421123e+18,0.48433420365535246,0.4121004566210046,0.33405405405405403,0.5006113964294449,0.6307692307692307,0.4558452481076535,1194.0
389.0,1.7114380220520858e+18,0.47780678851174935,0.4178082191780822,0.3286486486486486,0.504035216434336,0.654945054945055,0.4339781328847771,1196.0
390.0,1.7114380220620815e+18,0.47127937336814624,0.4052511415525114,0.32972972972972975,0.5003668378576669,0.6582417582417582,0.4339781328847771,1193.0
391.0,1.7114380220720845e+18,0.4869451697127937,0.4269406392694064,0.34594594594594597,0.504524333577892,0.6362637362637362,0.43986543313709,1196.0
392.0,1.7114380220820854e+18,0.47911227154047,0.4257990867579909,0.3535135135135135,0.495964783565664,0.6164835164835165,0.4381833473507149,1195.0
393.0,1.7114380220921285e+18,0.489556135770235,0.4509132420091324,0.39837837837837836,0.5067253607238934,0.6516483516483517,0.44238856181665265,1195.0
394.0,1.71143802210208e+18,0.4765013054830287,0.4132420091324201,0.3264864864864865,0.5015896307165566,0.6230769230769231,0.4381833473507149,1197.0
395.0,1.7114380221120783e+18,0.47911227154047,0.4178082191780822,0.32756756756756755,0.5025678650036683,0.6274725274725275,0.43566021867115223,1196.0
396.0,1.7114380221220836e+18,0.47780678851174935,0.4178082191780822,0.34756756756756757,0.4996331621423331,0.6318681318681318,0.4222035323801514,1194.0
397.0,1.7114380221321257e+18,0.47911227154047,0.4189497716894977,0.3345945945945946,0.5028124235754463,0.6406593406593407,0.43566021867115223,1196.0
398.0,1.7114380221420833e+18,0.46736292428198434,0.4029680365296804,0.3286486486486486,0.49938860357055515,0.6274725274725275,0.43902439024390244,1193.0
399.0,1.711438022152085e+18,0.4804177545691906,0.4212328767123288,0.3362162162162162,0.5077035950110051,0.6582417582417582,0.44575273338940286,1197.0
400.0,1.711438022162124e+18,0.4699738903394256,0.408675799086758,0.33297297297297296,0.4979212521398875,0.6120879120879121,0.43986543313709,1198.0
401.0,1.7114380221721244e+18,0.4869451697127937,0.4337899543378995,0.34216216216216216,0.5025678650036683,0.6230769230769231,0.4373423044575273,1196.0
402.0,1.711438022182122e+18,0.4725848563968668,0.4006849315068493,0.32972972972972975,0.4986549278552213,0.6241758241758242,0.4415475189234651,1197.0
403.0,1.7114380221921193e+18,0.4804177545691906,0.4269406392694064,0.3372972972972973,0.504035216434336,0.6307692307692307,0.4802354920100925,1198.0
404.0,1.711438022202117e+18,0.47780678851174935,0.4155251141552511,0.33783783783783783,0.5001222792858889,0.6263736263736264,0.43902439024390244,1196.0
405.0,1.711438022212115e+18,0.4765013054830287,0.4212328767123288,0.3286486486486486,0.5008559550012228,0.6241758241758242,0.43566021867115223,1196.0
406.0,1.711438022222117e+18,0.47127937336814624,0.4052511415525114,0.3345945945945946,0.4988994864269993,0.6076923076923076,0.43650126156433977,1197.0
407.0,1.7114380222321242e+18,0.47780678851174935,0.4200913242009132,0.33405405405405403,0.5033015407190022,0.6142857142857143,0.43902439024390244,1196.0
408.0,1.711438022242107e+18,0.47127937336814624,0.4121004566210046,0.33405405405405403,0.4996331621423331,0.6230769230769231,0.4339781328847771,1193.0
409.0,1.7114380222521093e+18,0.47911227154047,0.4178082191780822,0.33405405405405403,0.5011005135730008,0.6153846153846154,0.4348191757779647,1197.0
410.0,1.7114380222621097e+18,0.47911227154047,0.408675799086758,0.33405405405405403,0.5008559550012228,0.6274725274725275,0.4465937762825904,1196.0
411.0,1.711438022272111e+18,0.48433420365535246,0.4269406392694064,0.3545945945945946,0.5025678650036683,0.6252747252747253,0.44238856181665265,1196.0
412.0,1.7114380222821123e+18,0.47127937336814624,0.4041095890410959,0.3308108108108108,0.49938860357055515,0.6296703296703297,0.4440706476030278,1193.0
413.0,1.7114380222921073e+18,0.48172323759791125,0.4178082191780822,0.3308108108108108,0.5057471264367817,0.6175824175824176,0.4415475189234651,1195.0
414.0,1.7114380223021102e+18,0.4699738903394256,0.4075342465753425,0.33783783783783783,0.5020787478601125,0.6571428571428571,0.4373423044575273,1194.0
415.0,1.711438022312106e+18,0.4830287206266319,0.4235159817351598,0.3362162162162162,0.504035216434336,0.6285714285714286,0.4348191757779647,1197.0
416.0,1.7114380223221033e+18,0.47780678851174935,0.4075342465753425,0.3362162162162162,0.4991440449987772,0.634065934065934,0.4348191757779647,1194.0
417.0,1.7114380223321027e+18,0.47911227154047,0.4315068493150685,0.33945945945945943,0.5020787478601125,0.6164835164835165,0.43566021867115223,1196.0
418.0,1.7114380223421005e+18,0.46866840731070497,0.3995433789954338,0.3302702702702703,0.4986549278552213,0.6164835164835165,0.432296047098402,1193.0
419.0,1.7114380223521e+18,0.4804177545691906,0.4292237442922374,0.3372972972972973,0.504524333577892,0.6274725274725275,0.4348191757779647,1196.0
420.0,1.7114380223621015e+18,0.4765013054830287,0.4212328767123288,0.3345945945945946,0.5006113964294449,0.610989010989011,0.4381833473507149,1195.0
421.0,1.7114380223720988e+18,0.4765013054830287,0.4280821917808219,0.35027027027027025,0.5025678650036683,0.6230769230769231,0.4381833473507149,1196.0
422.0,1.7114380223820992e+18,0.4765013054830287,0.4132420091324201,0.3567567567567568,0.5028124235754463,0.634065934065934,0.4381833473507149,1197.0
423.0,1.7114380223920965e+18,0.4725848563968668,0.4132420091324201,0.33405405405405403,0.5077035950110051,0.6626373626373626,0.43986543313709,1196.0
424.0,1.711438022402092e+18,0.46866840731070497,0.4052511415525114,0.33405405405405403,0.4988994864269993,0.6428571428571429,0.43650126156433977,1197.0
425.0,1.7114380224120945e+18,0.47911227154047,0.4212328767123288,0.3491891891891892,0.504035216434336,0.6285714285714286,0.4381833473507149,1197.0
426.0,1.7114380224220905e+18,0.46475195822454307,0.4029680365296804,0.33135135135135135,0.5015896307165566,0.6505494505494506,0.4238856181665265,1194.0
427.0,1.7114380224321692e+18,0.47127937336814624,0.4178082191780822,0.33297297297297296,0.5035460992907801,0.6230769230769231,0.4289318755256518,1193.0
428.0,1.711438022442088e+18,0.47389033942558745,0.410958904109589,0.3362162162162162,0.5003668378576669,0.6164835164835165,0.4306139613120269,1193.0
429.0,1.7114380224521336e+18,0.47127937336814624,0.4098173515981735,0.3216216216216216,0.5008559550012228,0.6142857142857143,0.43650126156433977,1198.0
430.0,1.7114380224620915e+18,0.47127937336814624,0.4063926940639269,0.3281081081081081,0.49816581071166544,0.634065934065934,0.44575273338940286,1195.0
431.0,1.711438022472089e+18,0.4804177545691906,0.4315068493150685,0.34378378378378377,0.49645390070921985,0.5846153846153846,0.4415475189234651,1196.0
432.0,1.7114380224820882e+18,0.4725848563968668,0.4052511415525114,0.3345945945945946,0.4930300807043287,0.5967032967032967,0.43566021867115223,1194.0
433.0,1.7114380224920893e+18,0.4765013054830287,0.4189497716894977,0.3281081081081081,0.5025678650036683,0.6263736263736264,0.4415475189234651,1195.0
434.0,1.7114380225020913e+18,0.47389033942558745,0.4018264840182648,0.3254054054054054,0.5020787478601125,0.634065934065934,0.43566021867115223,1196.0
435.0,1.711438022512088e+18,0.47780678851174935,0.4178082191780822,0.3286486486486486,0.5023233064318905,0.6175824175824176,0.43313708999158956,1192.0
436.0,1.7114380225221082e+18,0.4725848563968668,0.408675799086758,0.3372972972972973,0.5001222792858889,0.6241758241758242,0.4381833473507149,1196.0
437.0,1.7114380225321062e+18,0.48825065274151436,0.4394977168949772,0.34162162162162163,0.5035460992907801,0.6175824175824176,0.4432296047098402,1196.0
438.0,1.7114380225420813e+18,0.4765013054830287,0.408675799086758,0.33135135135135135,0.4984103692834434,0.6230769230769231,0.4449116904962153,1194.0
439.0,1.7114380225520876e+18,0.47780678851174935,0.4200913242009132,0.3324324324324324,0.5037906578625581,0.6296703296703297,0.4415475189234651,1195.0
440.0,1.7114380225620872e+18,0.4725848563968668,0.4189497716894977,0.3518918918918919,0.5006113964294449,0.6230769230769231,0.44238856181665265,1193.0
441.0,1.7114380225720876e+18,0.4765013054830287,0.4235159817351598,0.33405405405405403,0.5113719735876743,0.6648351648351648,0.4482758620689655,1195.0
442.0,1.71143802258209e+18,0.47389033942558745,0.4132420091324201,0.33837837837837836,0.4971875764245537,0.6065934065934065,0.42052144659377627,1193.0
443.0,1.7114380225921042e+18,0.4804177545691906,0.4223744292237443,0.33675675675675676,0.5020787478601125,0.6384615384615384,0.43566021867115223,1197.0
444.0,1.7114380226020864e+18,0.46736292428198434,0.4041095890410959,0.32972972972972975,0.5003668378576669,0.6285714285714286,0.4415475189234651,1197.0
445.0,1.7114380226120863e+18,0.47780678851174935,0.4223744292237443,0.3410810810810811,0.5025678650036683,0.610989010989011,0.43650126156433977,1197.0
446.0,1.7114380226221056e+18,0.4699738903394256,0.4041095890410959,0.3345945945945946,0.4996331621423331,0.6351648351648351,0.43902439024390244,1198.0
447.0,1.711438022632119e+18,0.4765013054830287,0.4200913242009132,0.3356756756756757,0.5015896307165566,0.6142857142857143,0.4373423044575273,1196.0
448.0,1.7114380226420849e+18,0.4751958224543081,0.410958904109589,0.3497297297297297,0.5006113964294449,0.6054945054945055,0.4381833473507149,1196.0
449.0,1.7114380226520896e+18,0.47780678851174935,0.4200913242009132,0.33297297297297296,0.5064808021521154,0.6483516483516484,0.4600504625735913,1196.0
450.0,1.7114380226620892e+18,0.47127937336814624,0.4052511415525114,0.3254054054054054,0.5008559550012228,0.6175824175824176,0.4339781328847771,1193.0
451.0,1.7114380226720868e+18,0.4869451697127937,0.4235159817351598,0.33135135135135135,0.5035460992907801,0.634065934065934,0.45164003364171573,1197.0
452.0,1.711438022682088e+18,0.47780678851174935,0.4269406392694064,0.3362162162162162,0.499877720714111,0.6428571428571429,0.4348191757779647,1195.0
453.0,1.7114380226920876e+18,0.47911227154047,0.4178082191780822,0.3291891891891892,0.5030569821472243,0.6318681318681318,0.4415475189234651,1195.0
454.0,1.711438022702088e+18,0.46344647519582244,0.4018264840182648,0.33297297297297296,0.4988994864269993,0.6186813186813187,0.4280908326324643,1192.0
455.0,1.7114380227120873e+18,0.47911227154047,0.4178082191780822,0.327027027027027,0.4988994864269993,0.5989010989010989,0.43566021867115223,1195.0
456.0,1.7114380227220877e+18,0.46736292428198434,0.4029680365296804,0.33513513513513515,0.49938860357055515,0.6098901098901099,0.42640874684608915,1193.0
457.0,1.711438022732453e+18,0.4765013054830287,0.4189497716894977,0.3302702702702703,0.5028124235754463,0.6285714285714286,0.4381833473507149,1196.0
458.0,1.7114380227420895e+18,0.4765013054830287,0.4200913242009132,0.35945945945945945,0.5015896307165566,0.6307692307692307,0.4381833473507149,1197.0
459.0,1.711438022752083e+18,0.48172323759791125,0.4235159817351598,0.3324324324324324,0.5023233064318905,0.6131868131868132,0.42977291841883936,1193.0
460.0,1.7114380227620828e+18,0.46736292428198434,0.4041095890410959,0.3345945945945946,0.49938860357055515,0.610989010989011,0.4213624894869638,1194.0
461.0,1.7114380227720806e+18,0.46736292428198434,0.4132420091324201,0.3308108108108108,0.5023233064318905,0.6395604395604395,0.4415475189234651,1194.0
462.0,1.7114380227820823e+18,0.4660574412532637,0.4063926940639269,0.33675675675675676,0.5025678650036683,0.6681318681318681,0.4339781328847771,1193.0
463.0,1.7114380227920878e+18,0.46475195822454307,0.4235159817351598,0.3362162162162162,0.5028124235754463,0.6010989010989011,0.4339781328847771,1195.0
464.0,1.7114380228020818e+18,0.46736292428198434,0.4132420091324201,0.3372972972972973,0.4979212521398875,0.6164835164835165,0.43650126156433977,1198.0
465.0,1.7114380228120804e+18,0.4699738903394256,0.410958904109589,0.31567567567567567,0.4984103692834434,0.6208791208791209,0.4415475189234651,1197.0
466.0,1.7114380228220836e+18,0.4699738903394256,0.4006849315068493,0.31405405405405407,0.49767669356810956,0.6208791208791209,0.4600504625735913,1196.0
467.0,1.711438022832136e+18,0.48172323759791125,0.4235159817351598,0.3324324324324324,0.5077035950110051,0.6714285714285714,0.4415475189234651,1196.0
468.0,1.7114380228421097e+18,0.47127937336814624,0.4052511415525114,0.3345945945945946,0.5008559550012228,0.6681318681318681,0.43566021867115223,1197.0
469.0,1.7114380228520824e+18,0.47389033942558745,0.3961187214611872,0.30594594594594593,0.5015896307165566,0.6428571428571429,0.4819175777964676,1196.0
470.0,1.7114380228620808e+18,0.47911227154047,0.4452054794520548,0.38972972972972975,0.5015896307165566,0.6230769230769231,0.43566021867115223,1196.0
471.0,1.7114380228720837e+18,0.47780678851174935,0.4178082191780822,0.3308108108108108,0.5011005135730008,0.6241758241758242,0.43566021867115223,1195.0
472.0,1.7114380228821332e+18,0.47127937336814624,0.4235159817351598,0.3372972972972973,0.4974321349963316,0.6065934065934065,0.4314550042052145,1192.0
473.0,1.711438022892078e+18,0.46736292428198434,0.4029680365296804,0.33135135135135135,0.5018341892883346,0.6153846153846154,0.4348191757779647,1195.0
474.0,1.711438022902082e+18,0.47127937336814624,0.408675799086758,0.34864864864864864,0.5013450721447786,0.6329670329670329,0.4247266610597141,1194.0
475.0,1.711438022912081e+18,0.4830287206266319,0.4372146118721461,0.38756756756756755,0.5057471264367817,0.6329670329670329,0.4348191757779647,1195.0
476.0,1.7114380229220805e+18,0.4699738903394256,0.408675799086758,0.3324324324324324,0.4988994864269993,0.6241758241758242,0.432296047098402,1193.0
477.0,1.7114380229321183e+18,0.4751958224543081,0.4166666666666667,0.3308108108108108,0.5023233064318905,0.6296703296703297,0.4449116904962153,1194.0
478.0,1.7114380229420867e+18,0.47127937336814624,0.4006849315068493,0.33783783783783783,0.4986549278552213,0.610989010989011,0.4339781328847771,1192.0
479.0,1.7114380229521119e+18,0.4765013054830287,0.4143835616438356,0.3324324324324324,0.5028124235754463,0.6274725274725275,0.43986543313709,1195.0
480.0,1.711438022962108e+18,0.47911227154047,0.4098173515981735,0.33675675675675676,0.5015896307165566,0.6285714285714286,0.464255677039529,1196.0
481.0,1.7114380229721068e+18,0.47780678851174935,0.4155251141552511,0.3318918918918919,0.5037906578625581,0.6285714285714286,0.4415475189234651,1193.0
482.0,1.7114380229821181e+18,0.47389033942558745,0.4029680365296804,0.3281081081081081,0.5003668378576669,0.6230769230769231,0.4339781328847771,1194.0
483.0,1.711438022992103e+18,0.48825065274151436,0.432648401826484,0.3427027027027027,0.5057471264367817,0.6494505494505495,0.4381833473507149,1198.0
484.0,1.7114380230020959e+18,0.47127937336814624,0.4052511415525114,0.34324324324324323,0.49938860357055515,0.6230769230769231,0.4348191757779647,1198.0
485.0,1.7114380230120922e+18,0.4765013054830287,0.4474885844748858,0.33783783783783783,0.5023233064318905,0.6164835164835165,0.4440706476030278,1196.0
486.0,1.711438023022098e+18,0.4725848563968668,0.4143835616438356,0.3345945945945946,0.5074590364392272,0.6472527472527473,0.4381833473507149,1197.0
487.0,1.7114380230320963e+18,0.4765013054830287,0.4178082191780822,0.3308108108108108,0.5020787478601125,0.621978021978022,0.4608915054667788,1196.0
488.0,1.7114380230421036e+18,0.48172323759791125,0.4280821917808219,0.3491891891891892,0.5008559550012228,0.6285714285714286,0.4381833473507149,1198.0
489.0,1.7114380230520988e+18,0.4804177545691906,0.4292237442922374,0.3675675675675676,0.5037906578625581,0.6142857142857143,0.4381833473507149,1198.0
490.0,1.711438023062103e+18,0.4765013054830287,0.4063926940639269,0.33297297297297296,0.5008559550012228,0.6461538461538462,0.4348191757779647,1196.0
491.0,1.7114380230721027e+18,0.48172323759791125,0.4212328767123288,0.33297297297297296,0.5015896307165566,0.6186813186813187,0.43902439024390244,1197.0
492.0,1.7114380230821184e+18,0.47780678851174935,0.4121004566210046,0.33675675675675676,0.49816581071166544,0.621978021978022,0.4432296047098402,1195.0
493.0,1.7114380230920988e+18,0.4830287206266319,0.432648401826484,0.34216216216216216,0.5028124235754463,0.6175824175824176,0.447434819175778,1197.0
494.0,1.7114380231020954e+18,0.4765013054830287,0.3995433789954338,0.3291891891891892,0.4996331621423331,0.6285714285714286,0.44238856181665265,1197.0
495.0,1.7114380231120973e+18,0.47911227154047,0.4235159817351598,0.33513513513513515,0.5023233064318905,0.6230769230769231,0.43566021867115223,1196.0
496.0,1.7114380231220959e+18,0.46736292428198434,0.4041095890410959,0.3362162162162162,0.4996331621423331,0.6197802197802198,0.46846089150546677,1196.0
497.0,1.7114380231321242e+18,0.4765013054830287,0.4155251141552511,0.30648648648648646,0.5035460992907801,0.621978021978022,0.4348191757779647,1196.0
498.0,1.711438023142098e+18,0.4699738903394256,0.3961187214611872,0.31351351351351353,0.4979212521398875,0.6153846153846154,0.4449116904962153,1197.0
499.0,1.7114380231521014e+18,0.47911227154047,0.432648401826484,0.36,0.504524333577892,0.6098901098901099,0.43650126156433977,1195.0
500.0,1.7114380231621007e+18,0.4725848563968668,0.4006849315068493,0.3318918918918919,0.5035460992907801,0.6197802197802198,0.43650126156433977,1198.0
501.0,1.7114380231721009e+18,0.4725848563968668,0.4189497716894977,0.3248648648648649,0.5015896307165566,0.6131868131868132,0.4449116904962153,1197.0
502.0,1.7114380231821174e+18,0.47127937336814624,0.4098173515981735,0.3345945945945946,0.5001222792858889,0.6164835164835165,0.43902439024390244,1198.0
503.0,1.711438023192097e+18,0.4765013054830287,0.4178082191780822,0.33297297297297296,0.5020787478601125,0.6461538461538462,0.43902439024390244,1199.0
504.0,1.711438023202099e+18,0.4699738903394256,0.4006849315068493,0.33405405405405403,0.5003668378576669,0.6296703296703297,0.4482758620689655,1198.0
505.0,1.7114380232120988e+18,0.4765013054830287,0.4143835616438356,0.35405405405405405,0.5030569821472243,0.6285714285714286,0.44070647603027757,1197.0
506.0,1.7114380232221002e+18,0.46866840731070497,0.4041095890410959,0.33513513513513515,0.495964783565664,0.6164835164835165,0.42977291841883936,1193.0
507.0,1.7114380232321157e+18,0.47389033942558745,0.4178082191780822,0.3291891891891892,0.504279775006114,0.6296703296703297,0.4381833473507149,1197.0
508.0,1.7114380232420936e+18,0.4765013054830287,0.410958904109589,0.3518918918918919,0.5035460992907801,0.6373626373626373,0.4499579478553406,1196.0
509.0,1.711438023252096e+18,0.47780678851174935,0.4178082191780822,0.3324324324324324,0.5030569821472243,0.6274725274725275,0.44238856181665265,1195.0
510.0,1.7114380232621248e+18,0.4765013054830287,0.4143835616438356,0.352972972972973,0.5018341892883346,0.6318681318681318,0.4449116904962153,1197.0
511.0,1.7114380232720968e+18,0.4830287206266319,0.4200913242009132,0.3264864864864865,0.5035460992907801,0.6483516483516484,0.45164003364171573,1197.0
512.0,1.7114380232820995e+18,0.46866840731070497,0.4063926940639269,0.3227027027027027,0.4996331621423331,0.6164835164835165,0.4381833473507149,1194.0
513.0,1.7114380232920986e+18,0.4765013054830287,0.4155251141552511,0.3162162162162162,0.5030569821472243,0.6153846153846154,0.43313708999158956,1193.0
514.0,1.711438023302097e+18,0.4765013054830287,0.4178082191780822,0.3291891891891892,0.5020787478601125,0.6307692307692307,0.43566021867115223,1196.0
515.0,1.7114380233120968e+18,0.4699738903394256,0.3984018264840183,0.3054054054054054,0.5023233064318905,0.6362637362637362,0.43650126156433977,1197.0
516.0,1.711438023322097e+18,0.48172323759791125,0.4178082191780822,0.3216216216216216,0.5013450721447786,0.6461538461538462,0.45500420521446594,1196.0
517.0,1.7114380233320988e+18,0.47780678851174935,0.4200913242009132,0.33675675675675676,0.5028124235754463,0.6417582417582418,0.4381833473507149,1198.0
518.0,1.7114380233420974e+18,0.47127937336814624,0.4052511415525114,0.3308108108108108,0.5020787478601125,0.6362637362637362,0.4381833473507149,1195.0
519.0,1.7114380233520955e+18,0.47127937336814624,0.4223744292237443,0.33405405405405403,0.5047688921496698,0.6494505494505495,0.43313708999158956,1194.0
520.0,1.7114380233620956e+18,0.4856396866840731,0.4132420091324201,0.3302702702702703,0.4996331621423331,0.5989010989010989,0.4415475189234651,1195.0
521.0,1.7114380233720942e+18,0.4765013054830287,0.4269406392694064,0.3308108108108108,0.5055025678650037,0.6406593406593407,0.4373423044575273,1194.0
522.0,1.7114380233821133e+18,0.47780678851174935,0.4200913242009132,0.34756756756756757,0.5020787478601125,0.6307692307692307,0.4348191757779647,1198.0
523.0,1.7114380233921144e+18,0.47911227154047,0.4235159817351598,0.33405405405405403,0.5028124235754463,0.6098901098901099,0.43313708999158956,1195.0
524.0,1.7114380234020805e+18,0.4725848563968668,0.408675799086758,0.3345945945945946,0.5008559550012228,0.6384615384615384,0.4499579478553406,1198.0
525.0,1.7114380234121096e+18,0.48172323759791125,0.4315068493150685,0.35567567567567565,0.5020787478601125,0.6065934065934065,0.4306139613120269,1193.0
526.0,1.7114380234220977e+18,0.47127937336814624,0.3995433789954338,0.33135135135135135,0.49816581071166544,0.621978021978022,0.4339781328847771,1194.0
527.0,1.7114380234321185e+18,0.47780678851174935,0.4155251141552511,0.32756756756756755,0.5028124235754463,0.6098901098901099,0.43902439024390244,1196.0
528.0,1.7114380234420992e+18,0.4660574412532637,0.4018264840182648,0.32432432432432434,0.5037906578625581,0.6780219780219781,0.4533221194280908,1197.0
529.0,1.7114380234521037e+18,0.49869451697127937,0.4315068493150685,0.3291891891891892,0.5030569821472243,0.610989010989011,0.4751892346509672,1197.0
530.0,1.7114380234621038e+18,0.48433420365535246,0.4143835616438356,0.32972972972972975,0.5001222792858889,0.6296703296703297,0.4373423044575273,1193.0
531.0,1.7114380234721032e+18,0.48172323759791125,0.4212328767123288,0.33405405405405403,0.5037906578625581,0.6351648351648351,0.43650126156433977,1194.0
532.0,1.7114380234821053e+18,0.4725848563968668,0.410958904109589,0.33783783783783783,0.5008559550012228,0.6483516483516484,0.4415475189234651,1194.0
533.0,1.7114380234920776e+18,0.47780678851174935,0.4257990867579909,0.3443243243243243,0.5018341892883346,0.6164835164835165,0.4373423044575273,1195.0
534.0,1.7114380235020913e+18,0.4725848563968668,0.4075342465753425,0.34054054054054056,0.4971875764245537,0.6153846153846154,0.4449116904962153,1197.0
535.0,1.7114380235120927e+18,0.47911227154047,0.4223744292237443,0.32216216216216215,0.5047688921496698,0.6527472527472528,0.5004205214465938,1195.0
536.0,1.7114380235220782e+18,0.46344647519582244,0.3881278538812785,0.32,0.5035460992907801,0.6384615384615384,0.4289318755256518,1193.0
537.0,1.7114380235320922e+18,0.47780678851174935,0.4235159817351598,0.34,0.5055025678650037,0.6186813186813187,0.44575273338940286,1197.0
538.0,1.7114380235420948e+18,0.47911227154047,0.4029680365296804,0.31405405405405407,0.5055025678650037,0.6505494505494506,0.44238856181665265,1197.0
539.0,1.7114380235520957e+18,0.4765013054830287,0.4178082191780822,0.3248648648648649,0.5015896307165566,0.6274725274725275,0.44238856181665265,1195.0
540.0,1.711438023562095e+18,0.46736292428198434,0.4041095890410959,0.32432432432432434,0.4979212521398875,0.6153846153846154,0.4238856181665265,1193.0
541.0,1.7114380235721124e+18,0.4516971279373368,0.4098173515981735,0.32972972972972975,0.5037906578625581,0.6285714285714286,0.41715727502102606,1194.0
542.0,1.7114380235820946e+18,0.46866840731070497,0.408675799086758,0.3324324324324324,0.49938860357055515,0.6087912087912087,0.41968040370058873,1193.0
543.0,1.71143802359211e+18,0.46736292428198434,0.410958904109589,0.3232432432432432,0.499877720714111,0.6274725274725275,0.4314550042052145,1196.0
544.0,1.7114380236020954e+18,0.4725848563968668,0.408675799086758,0.34162162162162163,0.5028124235754463,0.6230769230769231,0.43650126156433977,1196.0
545.0,1.7114380236120947e+18,0.4765013054830287,0.4178082191780822,0.3286486486486486,0.5013450721447786,0.6032967032967033,0.42977291841883936,1196.0
546.0,1.7114380236220936e+18,0.46475195822454307,0.3995433789954338,0.3172972972972973,0.49620934213744194,0.6142857142857143,0.43313708999158956,1194.0
547.0,1.711438023632094e+18,0.4765013054830287,0.4223744292237443,0.33405405405405403,0.5001222792858889,0.6153846153846154,0.4440706476030278,1196.0
548.0,1.7114380236420902e+18,0.47127937336814624,0.4052511415525114,0.32594594594594595,0.499877720714111,0.6076923076923076,0.4348191757779647,1196.0
549.0,1.7114380236520937e+18,0.46866840731070497,0.4166666666666667,0.3216216216216216,0.5030569821472243,0.6329670329670329,0.4533221194280908,1196.0
550.0,1.711438023662094e+18,0.4608355091383812,0.4018264840182648,0.3216216216216216,0.4979212521398875,0.6208791208791209,0.4381833473507149,1196.0
551.0,1.7114380236720937e+18,0.48172323759791125,0.4189497716894977,0.33783783783783783,0.5033015407190022,0.6373626373626373,0.45164003364171573,1195.0
552.0,1.7114380236820948e+18,0.4751958224543081,0.3995433789954338,0.32756756756756755,0.49767669356810956,0.6318681318681318,0.44911690496215306,1193.0
553.0,1.7114380236920945e+18,0.4908616187989556,0.4406392694063927,0.3162162162162162,0.5074590364392272,0.6593406593406593,0.4415475189234651,1198.0
554.0,1.7114380237020933e+18,0.4765013054830287,0.4006849315068493,0.32594594594594595,0.49938860357055515,0.6395604395604395,0.4432296047098402,1197.0
555.0,1.7114380237120773e+18,0.46736292428198434,0.4132420091324201,0.3308108108108108,0.5006113964294449,0.6208791208791209,0.43566021867115223,1197.0
556.0,1.7114380237221043e+18,0.47127937336814624,0.4041095890410959,0.3254054054054054,0.4988994864269993,0.6362637362637362,0.43902439024390244,1197.0
557.0,1.7114380237320932e+18,0.48433420365535246,0.4223744292237443,0.3324324324324324,0.5020787478601125,0.6142857142857143,0.4449116904962153,1197.0
558.0,1.7114380237420905e+18,0.4725848563968668,0.4223744292237443,0.3659459459459459,0.5015896307165566,0.6406593406593407,0.4415475189234651,1197.0
559.0,1.7114380237520937e+18,0.47911227154047,0.4315068493150685,0.34054054054054056,0.4991440449987772,0.6241758241758242,0.447434819175778,1196.0
560.0,1.7114380237620928e+18,0.4869451697127937,0.4052511415525114,0.32972972972972975,0.4991440449987772,0.6384615384615384,0.4482758620689655,1196.0
561.0,1.7114380237720922e+18,0.48172323759791125,0.4509132420091324,0.38432432432432434,0.5106382978723404,0.6406593406593407,0.46509671993271656,1197.0
562.0,1.711438023782092e+18,0.46736292428198434,0.3938356164383562,0.3232432432432432,0.5015896307165566,0.6274725274725275,0.43650126156433977,1196.0
563.0,1.7114380237920911e+18,0.48433420365535246,0.4452054794520548,0.34378378378378377,0.5055025678650037,0.6329670329670329,0.4592094196804037,1198.0
564.0,1.711438023802093e+18,0.4765013054830287,0.3995433789954338,0.3318918918918919,0.4996331621423331,0.6098901098901099,0.42640874684608915,1196.0
565.0,1.7114380238120937e+18,0.48172323759791125,0.4143835616438356,0.31675675675675674,0.5028124235754463,0.6197802197802198,0.4314550042052145,1194.0
566.0,1.7114380238220928e+18,0.47127937336814624,0.3926940639269406,0.30648648648648646,0.5008559550012228,0.6329670329670329,0.42640874684608915,1195.0
567.0,1.7114380238320934e+18,0.4765013054830287,0.4235159817351598,0.34,0.5018341892883346,0.6494505494505495,0.45164003364171573,1197.0
568.0,1.71143802384209e+18,0.4830287206266319,0.4189497716894977,0.36108108108108106,0.5018341892883346,0.6087912087912087,0.43986543313709,1195.0
569.0,1.7114380238520916e+18,0.4765013054830287,0.4189497716894977,0.33297297297297296,0.5015896307165566,0.5956043956043956,0.4255677039529016,1194.0
570.0,1.7114380238620918e+18,0.4621409921671018,0.4075342465753425,0.3345945945945946,0.5001222792858889,0.6362637362637362,0.4381833473507149,1197.0
571.0,1.7114380238720916e+18,0.48433420365535246,0.4143835616438356,0.31945945945945947,0.5011005135730008,0.6274725274725275,0.4314550042052145,1195.0
572.0,1.7114380238821053e+18,0.4725848563968668,0.4063926940639269,0.3372972972972973,0.5006113964294449,0.6296703296703297,0.43650126156433977,1195.0
573.0,1.7114380238920927e+18,0.47389033942558745,0.4189497716894977,0.3210810810810811,0.5025678650036683,0.6208791208791209,0.4558452481076535,1196.0
574.0,1.711438023902092e+18,0.47911227154047,0.4063926940639269,0.327027027027027,0.5025678650036683,0.6208791208791209,0.43902439024390244,1196.0
575.0,1.7114380239120922e+18,0.4725848563968668,0.4189497716894977,0.3302702702702703,0.49816581071166544,0.5703296703296703,0.4348191757779647,1195.0
576.0,1.7114380239220933e+18,0.46736292428198434,0.4018264840182648,0.3362162162162162,0.49938860357055515,0.6307692307692307,0.4482758620689655,1194.0
577.0,1.711438023932123e+18,0.47780678851174935,0.4200913242009132,0.3362162162162162,0.5037906578625581,0.6197802197802198,0.4339781328847771,1193.0
578.0,1.7114380239420874e+18,0.4699738903394256,0.3984018264840183,0.33297297297297296,0.5011005135730008,0.6241758241758242,0.4314550042052145,1192.0
579.0,1.7114380239520906e+18,0.4765013054830287,0.4292237442922374,0.33405405405405403,0.504524333577892,0.6395604395604395,0.4381833473507149,1195.0
580.0,1.711438023962093e+18,0.47780678851174935,0.4223744292237443,0.3308108108108108,0.5011005135730008,0.6252747252747253,0.44911690496215306,1196.0
581.0,1.71143802397209e+18,0.47780678851174935,0.4223744292237443,0.32972972972972975,0.4937637564196625,0.6,0.432296047098402,1195.0
582.0,1.711438023982095e+18,0.47911227154047,0.4178082191780822,0.3497297297297297,0.4979212521398875,0.6010989010989011,0.43566021867115223,1197.0
583.0,1.7114380239920911e+18,0.4856396866840731,0.4360730593607306,0.3589189189189189,0.5028124235754463,0.6285714285714286,0.4348191757779647,1197.0
584.0,1.711438024002091e+18,0.45691906005221933,0.4121004566210046,0.3237837837837838,0.5055025678650037,0.6593406593406593,0.4440706476030278,1197.0
585.0,1.7114380240120914e+18,0.4699738903394256,0.4394977168949772,0.32432432432432434,0.5020787478601125,0.6054945054945055,0.4179983179142136,1194.0
586.0,1.7114380240220913e+18,0.4765013054830287,0.4246575342465753,0.3281081081081081,0.5011005135730008,0.6318681318681318,0.44575273338940286,1196.0
587.0,1.7114380240320893e+18,0.47127937336814624,0.4223744292237443,0.3254054054054054,0.49938860357055515,0.6021978021978022,0.4247266610597141,1192.0
588.0,1.7114380240420897e+18,0.4516971279373368,0.4178082191780822,0.3535135135135135,0.49327463927610665,0.6395604395604395,0.4499579478553406,1196.0
589.0,1.7114380240520868e+18,0.4765013054830287,0.4143835616438356,0.31891891891891894,0.5028124235754463,0.6208791208791209,0.4432296047098402,1195.0
590.0,1.7114380240620897e+18,0.4765013054830287,0.4189497716894977,0.3572972972972973,0.4986549278552213,0.6098901098901099,0.432296047098402,1192.0
591.0,1.7114380240720886e+18,0.48433420365535246,0.4166666666666667,0.31675675675675674,0.5001222792858889,0.6186813186813187,0.46173254835996635,1196.0
592.0,1.7114380240821005e+18,0.4556135770234987,0.4029680365296804,0.3108108108108108,0.4969430178527757,0.6131868131868132,0.4112699747687132,1191.0
593.0,1.7114380240920924e+18,0.4869451697127937,0.4611872146118721,0.39675675675675676,0.504279775006114,0.6230769230769231,0.4415475189234651,1196.0
594.0,1.7114380241020895e+18,0.4869451697127937,0.4098173515981735,0.3318918918918919,0.5015896307165566,0.6241758241758242,0.447434819175778,1196.0
595.0,1.7114380241120899e+18,0.46736292428198434,0.4166666666666667,0.3183783783783784,0.5006113964294449,0.6,0.4373423044575273,1197.0
596.0,1.7114380241220897e+18,0.5052219321148825,0.4269406392694064,0.34540540540540543,0.5025678650036683,0.6208791208791209,0.4482758620689655,1197.0
597.0,1.711438024132113e+18,0.45300261096605743,0.3995433789954338,0.30486486486486486,0.5052580092932257,0.6406593406593407,0.4499579478553406,1195.0
598.0,1.7114380241420844e+18,0.4934725848563969,0.4817351598173516,0.4237837837837838,0.5030569821472243,0.6274725274725275,0.45164003364171573,1197.0
599.0,1.7114380241520678e+18,0.4725848563968668,0.4155251141552511,0.32756756756756755,0.5037906578625581,0.6208791208791209,0.4339781328847771,1193.0
600.0,1.711438024162088e+18,0.4725848563968668,0.4178082191780822,0.3335135135135135,0.4996331621423331,0.6274725274725275,0.43902439024390244,1196.0
601.0,1.7114380241720883e+18,0.5026109660574413,0.4337899543378995,0.37135135135135133,0.5116165321594522,0.6626373626373626,0.4499579478553406,1196.0
602.0,1.7114380241820867e+18,0.46475195822454307,0.3755707762557078,0.307027027027027,0.4986549278552213,0.6362637362637362,0.4339781328847771,1193.0
603.0,1.7114380241920863e+18,0.4765013054830287,0.4200913242009132,0.3308108108108108,0.5018341892883346,0.6362637362637362,0.4339781328847771,1194.0
604.0,1.711438024202089e+18,0.4556135770234987,0.4075342465753425,0.31135135135135134,0.5037906578625581,0.6208791208791209,0.4348191757779647,1197.0
605.0,1.7114380242120932e+18,0.46475195822454307,0.4132420091324201,0.30864864864864866,0.4984103692834434,0.6010989010989011,0.4280908326324643,1193.0
606.0,1.7114380242220887e+18,0.47389033942558745,0.4041095890410959,0.32432432432432434,0.5015896307165566,0.6483516483516484,0.42977291841883936,1195.0
607.0,1.711438024232097e+18,0.4830287206266319,0.4497716894977169,0.3497297297297297,0.5064808021521154,0.656043956043956,0.4482758620689655,1196.0
608.0,1.7114380242420838e+18,0.47780678851174935,0.4098173515981735,0.33297297297297296,0.49816581071166544,0.6186813186813187,0.4449116904962153,1196.0
609.0,1.7114380242520886e+18,0.46736292428198434,0.4155251141552511,0.3286486486486486,0.5033015407190022,0.5945054945054945,0.4415475189234651,1196.0
610.0,1.7114380242620887e+18,0.4765013054830287,0.3938356164383562,0.32216216216216215,0.4986549278552213,0.6164835164835165,0.4449116904962153,1197.0
611.0,1.7114380242720888e+18,0.47780678851174935,0.4132420091324201,0.36,0.5020787478601125,0.6318681318681318,0.4449116904962153,1196.0
612.0,1.7114380242820913e+18,0.46736292428198434,0.3949771689497717,0.33135135135135135,0.4988994864269993,0.6527472527472528,0.4289318755256518,1193.0
613.0,1.711438024292097e+18,0.4699738903394256,0.408675799086758,0.30972972972972973,0.4984103692834434,0.5934065934065934,0.4449116904962153,1197.0
614.0,1.711438024302089e+18,0.4725848563968668,0.4132420091324201,0.3281081081081081,0.5020787478601125,0.6318681318681318,0.4415475189234651,1197.0
615.0,1.7114380243120886e+18,0.4804177545691906,0.4200913242009132,0.3248648648648649,0.5037906578625581,0.6329670329670329,0.4415475189234651,1196.0
616.0,1.7114380243220908e+18,0.47127937336814624,0.4178082191780822,0.32756756756756755,0.49938860357055515,0.6142857142857143,0.43650126156433977,1195.0
617.0,1.711438024332126e+18,0.4830287206266319,0.4269406392694064,0.33297297297297296,0.504524333577892,0.6428571428571429,0.43902439024390244,1196.0
618.0,1.7114380243420867e+18,0.4660574412532637,0.4098173515981735,0.36,0.5008559550012228,0.6175824175824176,0.43902439024390244,1194.0
619.0,1.7114380243520883e+18,0.4699738903394256,0.4189497716894977,0.3237837837837838,0.5055025678650037,0.6307692307692307,0.4701429772918419,1196.0
620.0,1.711438024362088e+18,0.4556135770234987,0.3767123287671233,0.31891891891891894,0.5020787478601125,0.6241758241758242,0.4280908326324643,1196.0
621.0,1.7114380243720868e+18,0.4621409921671018,0.4280821917808219,0.34216216216216216,0.5047688921496698,0.621978021978022,0.45248107653490327,1196.0
622.0,1.7114380243821033e+18,0.45300261096605743,0.4018264840182648,0.32216216216216215,0.4988994864269993,0.6593406593406593,0.4222035323801514,1192.0
623.0,1.711438024392086e+18,0.49477806788511747,0.4463470319634703,0.34162162162162163,0.5018341892883346,0.6318681318681318,0.43650126156433977,1196.0
624.0,1.711438024402087e+18,0.47127937336814624,0.4041095890410959,0.3389189189189189,0.5011005135730008,0.6186813186813187,0.4339781328847771,1194.0
625.0,1.7114380244120878e+18,0.4765013054830287,0.4178082191780822,0.3281081081081081,0.5011005135730008,0.6164835164835165,0.4415475189234651,1197.0
626.0,1.7114380244220897e+18,0.46866840731070497,0.410958904109589,0.34324324324324323,0.5008559550012228,0.6175824175824176,0.4348191757779647,1196.0
627.0,1.7114380244321075e+18,0.4765013054830287,0.4155251141552511,0.31945945945945947,0.5030569821472243,0.6362637362637362,0.5054667788057191,1196.0
628.0,1.7114380244420795e+18,0.46736292428198434,0.4063926940639269,0.3389189189189189,0.49816581071166544,0.6362637362637362,0.4289318755256518,1192.0
629.0,1.7114380244520814e+18,0.4608355091383812,0.3972602739726027,0.29405405405405405,0.49816581071166544,0.6098901098901099,0.4222035323801514,1191.0
630.0,1.7114380244620598e+18,0.46344647519582244,0.4041095890410959,0.3254054054054054,0.49767669356810956,0.6230769230769231,0.432296047098402,1192.0
631.0,1.7114380244720625e+18,0.47780678851174935,0.4041095890410959,0.3237837837837838,0.5006113964294449,0.6131868131868132,0.4449116904962153,1197.0
632.0,1.7114380244820628e+18,0.46344647519582244,0.408675799086758,0.34486486486486484,0.5003668378576669,0.6010989010989011,0.4255677039529016,1191.0
633.0,1.7114380244920824e+18,0.45430809399477806,0.4235159817351598,0.30324324324324325,0.504279775006114,0.5989010989010989,0.4852817493692178,1193.0
634.0,1.7114380245020838e+18,0.46866840731070497,0.3915525114155251,0.3281081081081081,0.5006113964294449,0.6329670329670329,0.4289318755256518,1193.0
635.0,1.711438024512083e+18,0.47780678851174935,0.4189497716894977,0.3324324324324324,0.5015896307165566,0.6197802197802198,0.4381833473507149,1195.0
636.0,1.711438024522083e+18,0.47780678851174935,0.4052511415525114,0.3708108108108108,0.5011005135730008,0.6131868131868132,0.432296047098402,1193.0
637.0,1.7114380245320773e+18,0.48172323759791125,0.4121004566210046,0.34054054054054056,0.5006113964294449,0.6384615384615384,0.4280908326324643,1192.0
638.0,1.7114380245420792e+18,0.46344647519582244,0.3949771689497717,0.3172972972972973,0.4979212521398875,0.6197802197802198,0.4146341463414634,1193.0
639.0,1.711438024552083e+18,0.5156657963446475,0.4509132420091324,0.3848648648648649,0.5094155050134507,0.6450549450549451,0.4852817493692178,1197.0
640.0,1.7114380245620815e+18,0.4660574412532637,0.410958904109589,0.38054054054054054,0.5015896307165566,0.6285714285714286,0.4280908326324643,1193.0
641.0,1.7114380245720822e+18,0.4765013054830287,0.4189497716894977,0.31891891891891894,0.5028124235754463,0.6472527472527473,0.43902439024390244,1198.0
642.0,1.7114380245820849e+18,0.4765013054830287,0.410958904109589,0.32054054054054054,0.5015896307165566,0.6186813186813187,0.43902439024390244,1196.0
643.0,1.7114380245921014e+18,0.48172323759791125,0.4269406392694064,0.32972972972972975,0.499877720714111,0.5978021978021978,0.43902439024390244,1197.0
644.0,1.7114380246020828e+18,0.47911227154047,0.4018264840182648,0.3389189189189189,0.49816581071166544,0.6076923076923076,0.432296047098402,1192.0
645.0,1.711438024612092e+18,0.48172323759791125,0.4269406392694064,0.3545945945945946,0.5035460992907801,0.621978021978022,0.44575273338940286,1196.0
646.0,1.711438024622082e+18,0.4621409921671018,0.3767123287671233,0.3037837837837838,0.49620934213744194,0.6065934065934065,0.4348191757779647,1197.0
647.0,1.71143802463208e+18,0.49216710182767626,0.4143835616438356,0.29945945945945945,0.5025678650036683,0.6065934065934065,0.4533221194280908,1195.0
648.0,1.7114380246420774e+18,0.4765013054830287,0.4075342465753425,0.3308108108108108,0.504035216434336,0.6318681318681318,0.432296047098402,1193.0
649.0,1.7114380246520783e+18,0.45039164490861616,0.4098173515981735,0.3172972972972973,0.5025678650036683,0.5989010989010989,0.4381833473507149,1195.0
650.0,1.7114380246620751e+18,0.47911227154047,0.4041095890410959,0.32756756756756755,0.49767669356810956,0.5835164835164836,0.4289318755256518,1194.0
651.0,1.71143802467206e+18,0.46736292428198434,0.4200913242009132,0.3324324324324324,0.5025678650036683,0.610989010989011,0.42977291841883936,1191.0
652.0,1.711438024682063e+18,0.48433420365535246,0.4223744292237443,0.3637837837837838,0.504524333577892,0.6593406593406593,0.43902439024390244,1196.0
653.0,1.7114380246920778e+18,0.5013054830287206,0.45662100456621,0.35135135135135137,0.4979212521398875,0.6329670329670329,0.46173254835996635,1195.0
654.0,1.7114380247020772e+18,0.4660574412532637,0.3949771689497717,0.32216216216216215,0.4969430178527757,0.6252747252747253,0.4280908326324643,1193.0
655.0,1.711438024712077e+18,0.4765013054830287,0.4235159817351598,0.3286486486486486,0.504524333577892,0.6274725274725275,0.4339781328847771,1194.0
656.0,1.711438024722077e+18,0.46736292428198434,0.4292237442922374,0.37135135135135133,0.504035216434336,0.5857142857142857,0.42304457527333894,1194.0
657.0,1.7114380247320804e+18,0.47780678851174935,0.4143835616438356,0.31891891891891894,0.5008559550012228,0.6,0.4348191757779647,1194.0
658.0,1.7114380247420813e+18,0.47780678851174935,0.4041095890410959,0.32432432432432434,0.5011005135730008,0.6351648351648351,0.4381833473507149,1196.0
659.0,1.7114380247520842e+18,0.5039164490861618,0.4691780821917808,0.36648648648648646,0.5059916850085595,0.6406593406593407,0.4507989907485282,1196.0
660.0,1.7114380247620823e+18,0.4725848563968668,0.4041095890410959,0.34486486486486484,0.4971875764245537,0.6131868131868132,0.4306139613120269,1193.0
661.0,1.7114380247720832e+18,0.4830287206266319,0.4463470319634703,0.3535135135135135,0.5035460992907801,0.6241758241758242,0.4381833473507149,1195.0
662.0,1.711438024782112e+18,0.4908616187989556,0.4691780821917808,0.40540540540540543,0.5055025678650037,0.6494505494505495,0.4592094196804037,1197.0
663.0,1.7114380247920776e+18,0.4830287206266319,0.4189497716894977,0.32216216216216215,0.5018341892883346,0.6164835164835165,0.4222035323801514,1196.0
664.0,1.711438024802077e+18,0.46344647519582244,0.3995433789954338,0.32,0.5008559550012228,0.6450549450549451,0.4659377628259041,1198.0
665.0,1.7114380248120768e+18,0.4765013054830287,0.4223744292237443,0.35621621621621624,0.5059916850085595,0.6494505494505495,0.4314550042052145,1193.0
666.0,1.7114380248220762e+18,0.4660574412532637,0.3915525114155251,0.3216216216216216,0.49767669356810956,0.6175824175824176,0.432296047098402,1194.0
667.0,1.711438024832077e+18,0.48825065274151436,0.4132420091324201,0.3264864864864865,0.5008559550012228,0.6296703296703297,0.4348191757779647,1198.0
668.0,1.7114380248420767e+18,0.489556135770235,0.4269406392694064,0.36486486486486486,0.504524333577892,0.6010989010989011,0.44911690496215306,1196.0
669.0,1.7114380248520776e+18,0.4765013054830287,0.408675799086758,0.31891891891891894,0.5015896307165566,0.5989010989010989,0.42977291841883936,1192.0
670.0,1.7114380248620846e+18,0.4516971279373368,0.3949771689497717,0.3281081081081081,0.5011005135730008,0.6230769230769231,0.4415475189234651,1196.0
671.0,1.7114380248720837e+18,0.4765013054830287,0.4121004566210046,0.32216216216216215,0.504279775006114,0.6241758241758242,0.4306139613120269,1193.0
672.0,1.7114380248820854e+18,0.46736292428198434,0.4098173515981735,0.3324324324324324,0.5001222792858889,0.6142857142857143,0.4255677039529016,1190.0
673.0,1.7114380248920888e+18,0.47127937336814624,0.410958904109589,0.3216216216216216,0.5020787478601125,0.6164835164835165,0.4339781328847771,1192.0
674.0,1.711438024902084e+18,0.47127937336814624,0.3926940639269406,0.32594594594594595,0.4996331621423331,0.6186813186813187,0.44238856181665265,1194.0
675.0,1.7114380249121075e+18,0.46344647519582244,0.4155251141552511,0.32054054054054054,0.5037906578625581,0.6494505494505495,0.415475189234651,1195.0
676.0,1.7114380249220895e+18,0.47911227154047,0.4554794520547945,0.39513513513513515,0.5064808021521154,0.6307692307692307,0.41968040370058873,1194.0
677.0,1.7114380249320814e+18,0.47127937336814624,0.3972602739726027,0.3210810810810811,0.5011005135730008,0.6318681318681318,0.43566021867115223,1195.0
678.0,1.711438024942077e+18,0.4725848563968668,0.3835616438356164,0.3372972972972973,0.5035460992907801,0.6505494505494506,0.4348191757779647,1194.0
679.0,1.7114380249520824e+18,0.49738903394255873,0.4406392694063927,0.34324324324324323,0.5059916850085595,0.6406593406593407,0.471825063078217,1196.0
680.0,1.7114380249620815e+18,0.4765013054830287,0.3949771689497717,0.31135135135135134,0.49816581071166544,0.6329670329670329,0.447434819175778,1195.0
681.0,1.7114380249720814e+18,0.4765013054830287,0.4223744292237443,0.3345945945945946,0.5037906578625581,0.6285714285714286,0.43566021867115223,1197.0
682.0,1.7114380249821038e+18,0.46866840731070497,0.3858447488584475,0.3308108108108108,0.4974321349963316,0.6483516483516484,0.4381833473507149,1197.0
683.0,1.7114380249920755e+18,0.49869451697127937,0.454337899543379,0.37783783783783786,0.5047688921496698,0.6483516483516484,0.45836837678721615,1198.0
684.0,1.7114380250020803e+18,0.4725848563968668,0.4041095890410959,0.32756756756756755,0.4984103692834434,0.6175824175824176,0.43902439024390244,1195.0
685.0,1.71143802501208e+18,0.4804177545691906,0.4280821917808219,0.3362162162162162,0.5018341892883346,0.6186813186813187,0.42977291841883936,1195.0
686.0,1.71143802502208e+18,0.46866840731070497,0.4018264840182648,0.3302702702702703,0.5020787478601125,0.6197802197802198,0.43650126156433977,1199.0
687.0,1.711438025032098e+18,0.49216710182767626,0.4497716894977169,0.3762162162162162,0.5025678650036683,0.6,0.4272497897392767,1195.0
688.0,1.7114380250420787e+18,0.4699738903394256,0.4200913242009132,0.3464864864864865,0.4991440449987772,0.6164835164835165,0.42977291841883936,1194.0
689.0,1.7114380250520468e+18,0.4804177545691906,0.4143835616438356,0.3232432432432432,0.5028124235754463,0.6230769230769231,0.4247266610597141,1193.0
690.0,1.7114380250620795e+18,0.4660574412532637,0.4052511415525114,0.3372972972972973,0.499877720714111,0.6153846153846154,0.45500420521446594,1196.0
691.0,1.711438025072078e+18,0.4556135770234987,0.4509132420091324,0.3362162162162162,0.5008559550012228,0.6208791208791209,0.4280908326324643,1192.0
692.0,1.7114380250821059e+18,0.4869451697127937,0.4223744292237443,0.3762162162162162,0.5015896307165566,0.6230769230769231,0.44238856181665265,1196.0
693.0,1.711438025092081e+18,0.46736292428198434,0.4063926940639269,0.32054054054054054,0.5008559550012228,0.6120879120879121,0.4280908326324643,1196.0
694.0,1.711438025102074e+18,0.47127937336814624,0.4189497716894977,0.3654054054054054,0.499877720714111,0.6076923076923076,0.4255677039529016,1195.0
695.0,1.711438025112077e+18,0.4660574412532637,0.4155251141552511,0.32756756756756755,0.5079481535827831,0.6626373626373626,0.43566021867115223,1195.0
696.0,1.7114380251220764e+18,0.4621409921671018,0.3995433789954338,0.3345945945945946,0.4969430178527757,0.5989010989010989,0.42052144659377627,1195.0
697.0,1.7114380251320965e+18,0.4595300261096606,0.4121004566210046,0.33405405405405403,0.5050134507214478,0.6351648351648351,0.4432296047098402,1196.0
698.0,1.711438025142072e+18,0.4765013054830287,0.4223744292237443,0.37189189189189187,0.504035216434336,0.6582417582417582,0.4381833473507149,1195.0
699.0,1.7114380251520527e+18,0.4765013054830287,0.4200913242009132,0.327027027027027,0.5025678650036683,0.6285714285714286,0.43986543313709,1197.0
700.0,1.711438025162077e+18,0.47780678851174935,0.4063926940639269,0.33675675675675676,0.5015896307165566,0.6208791208791209,0.43566021867115223,1196.0
701.0,1.7114380251720758e+18,0.4699738903394256,0.4257990867579909,0.3372972972972973,0.5018341892883346,0.6208791208791209,0.4289318755256518,1193.0
702.0,1.7114380251820792e+18,0.4804177545691906,0.4360730593607306,0.3372972972972973,0.499877720714111,0.6252747252747253,0.4348191757779647,1198.0
703.0,1.7114380251920768e+18,0.48172323759791125,0.4246575342465753,0.3308108108108108,0.5013450721447786,0.6318681318681318,0.44070647603027757,1200.0
704.0,1.7114380252020756e+18,0.489556135770235,0.4383561643835616,0.34702702702702704,0.5037906578625581,0.6120879120879121,0.4432296047098402,1198.0
705.0,1.711438025212075e+18,0.47911227154047,0.4292237442922374,0.3545945945945946,0.5020787478601125,0.6043956043956044,0.43650126156433977,1196.0
706.0,1.7114380252220762e+18,0.46344647519582244,0.3995433789954338,0.3264864864864865,0.5018341892883346,0.6087912087912087,0.4247266610597141,1195.0
707.0,1.7114380252320701e+18,0.4765013054830287,0.4280821917808219,0.3324324324324324,0.5035460992907801,0.6208791208791209,0.42977291841883936,1195.0
708.0,1.711438025242073e+18,0.47780678851174935,0.4098173515981735,0.3248648648648649,0.4979212521398875,0.6120879120879121,0.4280908326324643,1193.0
709.0,1.7114380252520786e+18,0.4765013054830287,0.4098173515981735,0.33405405405405403,0.5035460992907801,0.6043956043956044,0.4415475189234651,1194.0
710.0,1.7114380252620762e+18,0.4699738903394256,0.4006849315068493,0.33135135135135135,0.5001222792858889,0.6208791208791209,0.42977291841883936,1193.0
711.0,1.7114380252720753e+18,0.47911227154047,0.410958904109589,0.33135135135135135,0.5023233064318905,0.6186813186813187,0.43313708999158956,1194.0
712.0,1.7114380252820808e+18,0.4725848563968668,0.4121004566210046,0.33783783783783783,0.5001222792858889,0.6241758241758242,0.43650126156433977,1197.0
713.0,1.7114380252920742e+18,0.47911227154047,0.4178082191780822,0.35621621621621624,0.504524333577892,0.6373626373626373,0.4415475189234651,1197.0
714.0,1.7114380253020744e+18,0.47911227154047,0.410958904109589,0.32432432432432434,0.4988994864269993,0.6208791208791209,0.447434819175778,1199.0
715.0,1.7114380253120745e+18,0.48433420365535246,0.4349315068493151,0.3302702702702703,0.5015896307165566,0.6483516483516484,0.432296047098402,1194.0
716.0,1.7114380253220739e+18,0.46475195822454307,0.3995433789954338,0.3362162162162162,0.5074590364392272,0.6450549450549451,0.4432296047098402,1199.0
717.0,1.71143802533208e+18,0.4699738903394256,0.4200913242009132,0.3362162162162162,0.5020787478601125,0.6351648351648351,0.432296047098402,1190.0
718.0,1.711438025342072e+18,0.4699738903394256,0.4121004566210046,0.33783783783783783,0.49620934213744194,0.6329670329670329,0.4339781328847771,1195.0
719.0,1.711438025352079e+18,0.4660574412532637,0.4155251141552511,0.3308108108108108,0.5121056493030081,0.6945054945054945,0.46173254835996635,1196.0
720.0,1.7114380253620746e+18,0.47780678851174935,0.4075342465753425,0.34594594594594597,0.5015896307165566,0.6450549450549451,0.4373423044575273,1197.0
721.0,1.711438025372073e+18,0.4830287206266319,0.4497716894977169,0.33675675675675676,0.5015896307165566,0.6285714285714286,0.45836837678721615,1196.0
722.0,1.7114380253820739e+18,0.48433420365535246,0.4406392694063927,0.35621621621621624,0.499877720714111,0.6329670329670329,0.43650126156433977,1197.0
723.0,1.7114380253920776e+18,0.46866840731070497,0.4178082191780822,0.34702702702702704,0.504035216434336,0.6318681318681318,0.43313708999158956,1195.0
724.0,1.711438025402074e+18,0.46866840731070497,0.3892694063926941,0.31567567567567567,0.5025678650036683,0.6285714285714286,0.4348191757779647,1197.0
725.0,1.711438025412075e+18,0.4869451697127937,0.4246575342465753,0.3491891891891892,0.5055025678650037,0.621978021978022,0.4373423044575273,1196.0
726.0,1.7114380254220774e+18,0.46736292428198434,0.3732876712328767,0.3281081081081081,0.4988994864269993,0.610989010989011,0.42977291841883936,1193.0
727.0,1.7114380254321065e+18,0.47911227154047,0.4406392694063927,0.3491891891891892,0.5025678650036683,0.6175824175824176,0.4415475189234651,1197.0
728.0,1.711438025442075e+18,0.4765013054830287,0.4178082191780822,0.3518918918918919,0.504035216434336,0.6395604395604395,0.4381833473507149,1195.0
729.0,1.7114380254520689e+18,0.46736292428198434,0.4132420091324201,0.32,0.5067253607238934,0.6571428571428571,0.44070647603027757,1196.0
730.0,1.7114380254620739e+18,0.4765013054830287,0.408675799086758,0.33675675675675676,0.4942528735632184,0.6098901098901099,0.43986543313709,1196.0
731.0,1.7114380254720735e+18,0.47127937336814624,0.4452054794520548,0.3345945945945946,0.5015896307165566,0.6164835164835165,0.4373423044575273,1196.0
732.0,1.7114380254821169e+18,0.4869451697127937,0.4360730593607306,0.3535135135135135,0.4969430178527757,0.610989010989011,0.42640874684608915,1191.0
733.0,1.7114380254920755e+18,0.47127937336814624,0.4052511415525114,0.3124324324324324,0.5011005135730008,0.6230769230769231,0.4163162321278385,1194.0
734.0,1.7114380255020718e+18,0.49738903394255873,0.430365296803653,0.3827027027027027,0.5023233064318905,0.6208791208791209,0.4280908326324643,1193.0
735.0,1.7114380255120724e+18,0.4804177545691906,0.3938356164383562,0.312972972972973,0.4991440449987772,0.6120879120879121,0.44911690496215306,1197.0
736.0,1.7114380255220736e+18,0.46344647519582244,0.3881278538812785,0.36702702702702705,0.49620934213744194,0.6098901098901099,0.4415475189234651,1195.0
737.0,1.7114380255320873e+18,0.4725848563968668,0.4041095890410959,0.3021621621621622,0.499877720714111,0.5978021978021978,0.4255677039529016,1193.0
738.0,1.7114380255420677e+18,0.47127937336814624,0.4041095890410959,0.3362162162162162,0.5001222792858889,0.6384615384615384,0.43986543313709,1195.0
739.0,1.7114380255520722e+18,0.46866840731070497,0.4178082191780822,0.3372972972972973,0.504524333577892,0.6802197802197802,0.4558452481076535,1196.0
740.0,1.711438025562074e+18,0.4725848563968668,0.4178082191780822,0.3627027027027027,0.4974321349963316,0.634065934065934,0.4280908326324643,1194.0
741.0,1.7114380255720934e+18,0.4699738903394256,0.3926940639269406,0.31189189189189187,0.5015896307165566,0.6208791208791209,0.43902439024390244,1195.0
742.0,1.7114380255820915e+18,0.47127937336814624,0.408675799086758,0.3621621621621622,0.5015896307165566,0.6373626373626373,0.4465937762825904,1196.0
743.0,1.7114380255920858e+18,0.49477806788511747,0.4497716894977169,0.37351351351351353,0.504524333577892,0.6395604395604395,0.44911690496215306,1198.0
744.0,1.7114380256020777e+18,0.46344647519582244,0.3858447488584475,0.307027027027027,0.4986549278552213,0.6208791208791209,0.4314550042052145,1192.0
745.0,1.7114380256120748e+18,0.4608355091383812,0.4075342465753425,0.3216216216216216,0.5011005135730008,0.6274725274725275,0.4415475189234651,1196.0
746.0,1.711438025622074e+18,0.4908616187989556,0.4315068493150685,0.37027027027027026,0.504035216434336,0.6472527472527473,0.447434819175778,1196.0
747.0,1.71143802563209e+18,0.47780678851174935,0.4166666666666667,0.32756756756756755,0.5015896307165566,0.6208791208791209,0.4381833473507149,1196.0
748.0,1.7114380256420682e+18,0.4556135770234987,0.3995433789954338,0.33405405405405403,0.5008559550012228,0.6318681318681318,0.4482758620689655,1196.0
749.0,1.7114380256520732e+18,0.5143603133159269,0.4463470319634703,0.3308108108108108,0.5079481535827831,0.656043956043956,0.4852817493692178,1197.0
750.0,1.7114380256620698e+18,0.4608355091383812,0.386986301369863,0.29567567567567565,0.495720224993886,0.6164835164835165,0.4255677039529016,1193.0
751.0,1.7114380256720704e+18,0.47911227154047,0.4143835616438356,0.3264864864864865,0.5018341892883346,0.6230769230769231,0.4381833473507149,1198.0
752.0,1.7114380256820703e+18,0.4765013054830287,0.3995433789954338,0.3237837837837838,0.4969430178527757,0.6054945054945055,0.44575273338940286,1195.0
753.0,1.7114380256920922e+18,0.46866840731070497,0.4189497716894977,0.34054054054054056,0.5008559550012228,0.6329670329670329,0.43986543313709,1195.0
754.0,1.7114380257020713e+18,0.4595300261096606,0.430365296803653,0.33783783783783783,0.4974321349963316,0.6087912087912087,0.4255677039529016,1193.0
755.0,1.7114380257120727e+18,0.4765013054830287,0.4383561643835616,0.327027027027027,0.504524333577892,0.6329670329670329,0.4415475189234651,1196.0
756.0,1.7114380257220733e+18,0.46475195822454307,0.4018264840182648,0.3264864864864865,0.4988994864269993,0.6153846153846154,0.44070647603027757,1196.0
757.0,1.711438025732091e+18,0.4725848563968668,0.4121004566210046,0.3286486486486486,0.5035460992907801,0.654945054945055,0.45500420521446594,1195.0
758.0,1.7114380257420777e+18,0.48825065274151436,0.4360730593607306,0.38216216216216214,0.4984103692834434,0.6274725274725275,0.4592094196804037,1196.0
759.0,1.7114380257520727e+18,0.4751958224543081,0.4143835616438356,0.3232432432432432,0.5033015407190022,0.6494505494505495,0.4381833473507149,1194.0
760.0,1.7114380257620726e+18,0.4830287206266319,0.4052511415525114,0.32432432432432434,0.5001222792858889,0.6329670329670329,0.4625735912531539,1196.0
761.0,1.7114380257720783e+18,0.4556135770234987,0.3892694063926941,0.2951351351351351,0.4979212521398875,0.6230769230769231,0.4482758620689655,1196.0
762.0,1.7114380257821002e+18,0.47389033942558745,0.4041095890410959,0.33297297297297296,0.5047688921496698,0.6406593406593407,0.43986543313709,1196.0
763.0,1.7114380257920745e+18,0.4660574412532637,0.3972602739726027,0.3216216216216216,0.5015896307165566,0.6362637362637362,0.4499579478553406,1198.0
764.0,1.7114380258020675e+18,0.4608355091383812,0.3812785388127854,0.3264864864864865,0.4979212521398875,0.6241758241758242,0.4533221194280908,1196.0
765.0,1.7114380258120673e+18,0.47780678851174935,0.4246575342465753,0.3108108108108108,0.5035460992907801,0.6329670329670329,0.4507989907485282,1196.0
766.0,1.7114380258220657e+18,0.48825065274151436,0.4029680365296804,0.31945945945945947,0.5079481535827831,0.654945054945055,0.4449116904962153,1196.0
767.0,1.7114380258320899e+18,0.4869451697127937,0.4235159817351598,0.3291891891891892,0.504524333577892,0.6329670329670329,0.4499579478553406,1196.0
768.0,1.711438025842066e+18,0.4830287206266319,0.4269406392694064,0.3589189189189189,0.5018341892883346,0.6098901098901099,0.4280908326324643,1192.0
769.0,1.7114380258520717e+18,0.46344647519582244,0.4315068493150685,0.32972972972972975,0.5035460992907801,0.6098901098901099,0.42977291841883936,1193.0
770.0,1.7114380258620692e+18,0.4725848563968668,0.3995433789954338,0.3302702702702703,0.4996331621423331,0.6208791208791209,0.432296047098402,1194.0
771.0,1.7114380258720707e+18,0.5,0.4554794520547945,0.40324324324324323,0.5111274150158963,0.6472527472527473,0.432296047098402,1193.0
772.0,1.7114380258821158e+18,0.47127937336814624,0.3961187214611872,0.3216216216216216,0.5015896307165566,0.6186813186813187,0.4339781328847771,1191.0
773.0,1.7114380258920745e+18,0.4725848563968668,0.4189497716894977,0.3216216216216216,0.5035460992907801,0.6098901098901099,0.4373423044575273,1194.0
774.0,1.7114380259020723e+18,0.4725848563968668,0.3938356164383562,0.31891891891891894,0.4996331621423331,0.6054945054945055,0.4339781328847771,1191.0
775.0,1.7114380259120701e+18,0.4725848563968668,0.3995433789954338,0.32972972972972975,0.5050134507214478,0.6362637362637362,0.4575273338940286,1195.0
776.0,1.7114380259220705e+18,0.4660574412532637,0.3972602739726027,0.3362162162162162,0.5011005135730008,0.6428571428571429,0.4373423044575273,1195.0
777.0,1.7114380259320714e+18,0.4869451697127937,0.4280821917808219,0.3248648648648649,0.504524333577892,0.6538461538461539,0.4852817493692178,1197.0
778.0,1.7114380259420695e+18,0.4765013054830287,0.4189497716894977,0.3302702702702703,0.5001222792858889,0.6142857142857143,0.4432296047098402,1197.0
779.0,1.7114380259520714e+18,0.4830287206266319,0.4200913242009132,0.3362162162162162,0.5055025678650037,0.6494505494505495,0.44911690496215306,1198.0
780.0,1.711438025962069e+18,0.47127937336814624,0.4075342465753425,0.3302702702702703,0.4996331621423331,0.6098901098901099,0.4381833473507149,1195.0
781.0,1.7114380259720712e+18,0.4804177545691906,0.4223744292237443,0.32972972972972975,0.5018341892883346,0.6021978021978022,0.42977291841883936,1194.0
782.0,1.711438025982082e+18,0.47127937336814624,0.4098173515981735,0.3389189189189189,0.5008559550012228,0.6043956043956044,0.43313708999158956,1193.0
783.0,1.7114380259920748e+18,0.49216710182767626,0.430365296803653,0.33783783783783783,0.5003668378576669,0.621978021978022,0.4768713204373423,1198.0
784.0,1.7114380260020726e+18,0.4856396866840731,0.4223744292237443,0.36486486486486486,0.5006113964294449,0.6252747252747253,0.4314550042052145,1192.0
785.0,1.711438026012074e+18,0.4765013054830287,0.4200913242009132,0.33675675675675676,0.4996331621423331,0.5978021978021978,0.432296047098402,1192.0
786.0,1.7114380260220695e+18,0.4765013054830287,0.3995433789954338,0.32432432432432434,0.5015896307165566,0.634065934065934,0.45248107653490327,1195.0
787.0,1.7114380260320814e+18,0.4725848563968668,0.4178082191780822,0.3281081081081081,0.5020787478601125,0.6197802197802198,0.4247266610597141,1192.0
788.0,1.7114380260420675e+18,0.48172323759791125,0.4098173515981735,0.3362162162162162,0.4996331621423331,0.6065934065934065,0.4188393608074012,1193.0
789.0,1.7114380260520696e+18,0.48172323759791125,0.4280821917808219,0.34162162162162163,0.5011005135730008,0.6230769230769231,0.42977291841883936,1194.0
790.0,1.7114380260620698e+18,0.48433420365535246,0.4189497716894977,0.3545945945945946,0.5001222792858889,0.6230769230769231,0.42640874684608915,1192.0
791.0,1.711438026072075e+18,0.47780678851174935,0.4132420091324201,0.33945945945945943,0.5037906578625581,0.6318681318681318,0.432296047098402,1194.0
792.0,1.711438026082096e+18,0.4765013054830287,0.4063926940639269,0.35081081081081084,0.4988994864269993,0.6197802197802198,0.4440706476030278,1194.0
793.0,1.711438026092066e+18,0.48825065274151436,0.4372146118721461,0.37405405405405406,0.5099046221570066,0.6802197802197802,0.43986543313709,1196.0
794.0,1.7114380261020654e+18,0.46866840731070497,0.4075342465753425,0.3345945945945946,0.5006113964294449,0.6263736263736264,0.432296047098402,1194.0
795.0,1.7114380261120658e+18,0.46475195822454307,0.4029680365296804,0.3172972972972973,0.504524333577892,0.621978021978022,0.4289318755256518,1193.0
796.0,1.7114380261220708e+18,0.46736292428198434,0.3995433789954338,0.33513513513513515,0.49938860357055515,0.6175824175824176,0.4415475189234651,1196.0
797.0,1.7114380261320973e+18,0.4908616187989556,0.4257990867579909,0.31675675675675674,0.504035216434336,0.6252747252747253,0.46846089150546677,1196.0
798.0,1.71143802614207e+18,0.4725848563968668,0.3938356164383562,0.31567567567567567,0.4991440449987772,0.6142857142857143,0.4339781328847771,1193.0
799.0,1.711438026152076e+18,0.48172323759791125,0.4257990867579909,0.33405405405405403,0.5030569821472243,0.6197802197802198,0.45164003364171573,1195.0
800.0,1.711438026162067e+18,0.46866840731070497,0.4018264840182648,0.3281081081081081,0.5006113964294449,0.6395604395604395,0.45248107653490327,1195.0
801.0,1.7114380261720696e+18,0.47780678851174935,0.4337899543378995,0.34054054054054056,0.5033015407190022,0.6241758241758242,0.4415475189234651,1196.0
802.0,1.7114380261820797e+18,0.4856396866840731,0.4223744292237443,0.3318918918918919,0.5020787478601125,0.6208791208791209,0.44575273338940286,1197.0
803.0,1.7114380261920686e+18,0.46475195822454307,0.4075342465753425,0.3145945945945946,0.49938860357055515,0.621978021978022,0.43986543313709,1196.0
804.0,1.711438026202076e+18,0.47127937336814624,0.4143835616438356,0.3491891891891892,0.5015896307165566,0.6021978021978022,0.43313708999158956,1194.0
805.0,1.7114380262120763e+18,0.4765013054830287,0.4178082191780822,0.34486486486486484,0.5055025678650037,0.6164835164835165,0.4415475189234651,1197.0
806.0,1.711438026222071e+18,0.47911227154047,0.4018264840182648,0.33837837837837836,0.5015896307165566,0.6516483516483517,0.4465937762825904,1197.0
807.0,1.7114380262320763e+18,0.47780678851174935,0.4315068493150685,0.3027027027027027,0.5047688921496698,0.6395604395604395,0.4339781328847771,1194.0
808.0,1.7114380262420675e+18,0.46736292428198434,0.4063926940639269,0.34054054054054056,0.5001222792858889,0.6175824175824176,0.43650126156433977,1197.0
809.0,1.711438026252075e+18,0.48433420365535246,0.4292237442922374,0.33783783783783783,0.5055025678650037,0.6296703296703297,0.4373423044575273,1197.0
810.0,1.71143802626207e+18,0.45691906005221933,0.3949771689497717,0.3362162162162162,0.5079481535827831,0.6472527472527473,0.4289318755256518,1192.0
811.0,1.711438026272069e+18,0.4869451697127937,0.4463470319634703,0.3589189189189189,0.5057471264367817,0.6197802197802198,0.4415475189234651,1196.0
812.0,1.7114380262821007e+18,0.46475195822454307,0.386986301369863,0.3091891891891892,0.49816581071166544,0.6076923076923076,0.4339781328847771,1191.0
813.0,1.7114380262920658e+18,0.5104438642297651,0.502283105022831,0.4135135135135135,0.5133284421618978,0.6362637362637362,0.45836837678721615,1198.0
814.0,1.7114380263020744e+18,0.46866840731070497,0.3995433789954338,0.327027027027027,0.4969430178527757,0.6186813186813187,0.43566021867115223,1195.0
815.0,1.711438026312072e+18,0.4804177545691906,0.4223744292237443,0.3281081081081081,0.5011005135730008,0.6186813186813187,0.43313708999158956,1196.0
816.0,1.711438026322076e+18,0.4869451697127937,0.410958904109589,0.3318918918918919,0.5047688921496698,0.6967032967032967,0.456686291000841,1197.0
817.0,1.7114380263321203e+18,0.5078328981723238,0.4474885844748858,0.34162162162162163,0.5015896307165566,0.6450549450549451,0.4306139613120269,1195.0
818.0,1.7114380263420795e+18,0.46866840731070497,0.3972602739726027,0.3216216216216216,0.49816581071166544,0.6164835164835165,0.43313708999158956,1193.0
819.0,1.7114380263520794e+18,0.4804177545691906,0.4178082191780822,0.3248648648648649,0.5015896307165566,0.6142857142857143,0.43986543313709,1196.0
820.0,1.7114380263620716e+18,0.48825065274151436,0.4132420091324201,0.33837837837837836,0.5023233064318905,0.6472527472527473,0.4625735912531539,1197.0
821.0,1.711438026372075e+18,0.4830287206266319,0.410958904109589,0.31891891891891894,0.4986549278552213,0.6142857142857143,0.43902439024390244,1196.0
822.0,1.711438026382101e+18,0.48433420365535246,0.4132420091324201,0.3254054054054054,0.4991440449987772,0.6043956043956044,0.44575273338940286,1196.0
823.0,1.7114380263920745e+18,0.47127937336814624,0.4063926940639269,0.31945945945945947,0.499877720714111,0.6186813186813187,0.4381833473507149,1198.0
824.0,1.711438026402069e+18,0.48172323759791125,0.4018264840182648,0.3427027027027027,0.5008559550012228,0.6208791208791209,0.4381833473507149,1200.0
825.0,1.711438026412071e+18,0.47780678851174935,0.4178082191780822,0.3264864864864865,0.49620934213744194,0.6054945054945055,0.4314550042052145,1193.0
826.0,1.711438026422077e+18,0.4804177545691906,0.408675799086758,0.33135135135135135,0.4979212521398875,0.6010989010989011,0.44575273338940286,1197.0
827.0,1.7114380264320635e+18,0.4621409921671018,0.4178082191780822,0.33135135135135135,0.5003668378576669,0.621978021978022,0.4339781328847771,1191.0
828.0,1.711438026442085e+18,0.4765013054830287,0.4029680365296804,0.33837837837837836,0.4991440449987772,0.6164835164835165,0.43902439024390244,1196.0
829.0,1.7114380264520694e+18,0.4830287206266319,0.4315068493150685,0.3124324324324324,0.5008559550012228,0.6186813186813187,0.4339781328847771,1193.0
830.0,1.7114380264620736e+18,0.4725848563968668,0.4132420091324201,0.3427027027027027,0.5006113964294449,0.6164835164835165,0.43566021867115223,1196.0
831.0,1.7114380264720855e+18,0.4765013054830287,0.4212328767123288,0.33135135135135135,0.5037906578625581,0.6274725274725275,0.4449116904962153,1196.0
832.0,1.711438026482078e+18,0.47780678851174935,0.3995433789954338,0.3178378378378378,0.5006113964294449,0.621978021978022,0.4432296047098402,1192.0
833.0,1.711438026492074e+18,0.47780678851174935,0.4269406392694064,0.33513513513513515,0.504524333577892,0.6450549450549451,0.4381833473507149,1195.0
834.0,1.711438026502068e+18,0.47127937336814624,0.4052511415525114,0.33297297297297296,0.49938860357055515,0.6230769230769231,0.4381833473507149,1196.0
835.0,1.7114380265120707e+18,0.46866840731070497,0.4189497716894977,0.3308108108108108,0.5035460992907801,0.6230769230769231,0.40454163162321277,1192.0
836.0,1.7114380265220736e+18,0.47127937336814624,0.4132420091324201,0.3362162162162162,0.49498654927855223,0.5923076923076923,0.4179983179142136,1192.0
837.0,1.7114380265320755e+18,0.4699738903394256,0.410958904109589,0.31945945945945947,0.5006113964294449,0.6208791208791209,0.43650126156433977,1195.0
838.0,1.7114380265420744e+18,0.47780678851174935,0.4235159817351598,0.36,0.5011005135730008,0.6604395604395604,0.43986543313709,1195.0
839.0,1.7114380265520686e+18,0.4699738903394256,0.4041095890410959,0.31891891891891894,0.5030569821472243,0.6329670329670329,0.43566021867115223,1197.0
840.0,1.7114380265620728e+18,0.49216710182767626,0.4406392694063927,0.3902702702702703,0.504035216434336,0.6263736263736264,0.4533221194280908,1196.0
841.0,1.7114380265720942e+18,0.47127937336814624,0.4075342465753425,0.31675675675675674,0.5013450721447786,0.6274725274725275,0.4440706476030278,1196.0
842.0,1.7114380265820746e+18,0.46736292428198434,0.3995433789954338,0.3362162162162162,0.499877720714111,0.6252747252747253,0.4348191757779647,1196.0
843.0,1.7114380265920645e+18,0.46736292428198434,0.4121004566210046,0.33513513513513515,0.4996331621423331,0.6142857142857143,0.42640874684608915,1194.0
844.0,1.7114380266020654e+18,0.4830287206266319,0.4703196347031963,0.4427027027027027,0.504035216434336,0.6384615384615384,0.43902439024390244,1194.0
845.0,1.7114380266120655e+18,0.47389033942558745,0.4189497716894977,0.32594594594594595,0.5006113964294449,0.6307692307692307,0.43566021867115223,1196.0
846.0,1.711438026622063e+18,0.47389033942558745,0.3995433789954338,0.3281081081081081,0.49816581071166544,0.5956043956043956,0.4213624894869638,1193.0
847.0,1.7114380266320653e+18,0.47780678851174935,0.4257990867579909,0.33297297297297296,0.5035460992907801,0.6274725274725275,0.45500420521446594,1197.0
848.0,1.7114380266420677e+18,0.4856396866840731,0.4143835616438356,0.3302702702702703,0.4969430178527757,0.6274725274725275,0.43650126156433977,1197.0
849.0,1.7114380266520676e+18,0.4765013054830287,0.4189497716894977,0.32054054054054054,0.5035460992907801,0.6252747252747253,0.43986543313709,1195.0
850.0,1.7114380266620777e+18,0.47127937336814624,0.4006849315068493,0.32594594594594595,0.5006113964294449,0.6329670329670329,0.43986543313709,1197.0
851.0,1.7114380266720673e+18,0.4869451697127937,0.4280821917808219,0.33837837837837836,0.5018341892883346,0.6362637362637362,0.4373423044575273,1195.0
852.0,1.7114380266820733e+18,0.47911227154047,0.3949771689497717,0.3043243243243243,0.4996331621423331,0.6274725274725275,0.4415475189234651,1193.0
853.0,1.7114380266920727e+18,0.47780678851174935,0.4292237442922374,0.32432432432432434,0.5018341892883346,0.6098901098901099,0.4339781328847771,1193.0
854.0,1.7114380267020708e+18,0.46866840731070497,0.3915525114155251,0.3318918918918919,0.4991440449987772,0.6131868131868132,0.42977291841883936,1192.0
855.0,1.7114380267120745e+18,0.47911227154047,0.4269406392694064,0.34756756756756757,0.504524333577892,0.6406593406593407,0.4507989907485282,1196.0
856.0,1.7114380267220828e+18,0.47127937336814624,0.3938356164383562,0.3216216216216216,0.49767669356810956,0.6329670329670329,0.456686291000841,1196.0
857.0,1.7114380267320676e+18,0.47911227154047,0.432648401826484,0.35135135135135137,0.5035460992907801,0.6230769230769231,0.43313708999158956,1193.0
858.0,1.7114380267420726e+18,0.46736292428198434,0.3926940639269406,0.3232432432432432,0.4986549278552213,0.6241758241758242,0.4348191757779647,1196.0
859.0,1.711438026752072e+18,0.4725848563968668,0.4223744292237443,0.3362162162162162,0.5047688921496698,0.6428571428571429,0.4314550042052145,1194.0
860.0,1.7114380267620856e+18,0.4765013054830287,0.4121004566210046,0.3389189189189189,0.5025678650036683,0.6241758241758242,0.4432296047098402,1197.0
861.0,1.7114380267720727e+18,0.4765013054830287,0.4212328767123288,0.32432432432432434,0.5023233064318905,0.6241758241758242,0.4314550042052145,1193.0
862.0,1.711438026782085e+18,0.47780678851174935,0.410958904109589,0.3481081081081081,0.5030569821472243,0.6296703296703297,0.45164003364171573,1196.0
863.0,1.711438026792073e+18,0.4765013054830287,0.4235159817351598,0.3427027027027027,0.5025678650036683,0.6164835164835165,0.4348191757779647,1195.0
864.0,1.711438026802072e+18,0.46866840731070497,0.4155251141552511,0.36162162162162165,0.4988994864269993,0.6164835164835165,0.43566021867115223,1197.0
865.0,1.7114380268120755e+18,0.47389033942558745,0.4155251141552511,0.3286486486486486,0.5025678650036683,0.6296703296703297,0.4373423044575273,1197.0
866.0,1.71143802682208e+18,0.47127937336814624,0.4052511415525114,0.34702702702702704,0.49938860357055515,0.6197802197802198,0.4373423044575273,1196.0
867.0,1.7114380268320745e+18,0.4908616187989556,0.4394977168949772,0.3605405405405405,0.5059916850085595,0.634065934065934,0.4465937762825904,1195.0
868.0,1.711438026842077e+18,0.4660574412532637,0.3961187214611872,0.32594594594594595,0.5011005135730008,0.6417582417582418,0.432296047098402,1194.0
869.0,1.711438026852069e+18,0.4556135770234987,0.4018264840182648,0.31513513513513514,0.504279775006114,0.6252747252747253,0.45164003364171573,1197.0
870.0,1.7114380268620818e+18,0.4869451697127937,0.4075342465753425,0.3302702702702703,0.49938860357055515,0.6230769230769231,0.4432296047098402,1197.0
871.0,1.7114380268724626e+18,0.4765013054830287,0.4235159817351598,0.3389189189189189,0.5050134507214478,0.6175824175824176,0.44070647603027757,1196.0
872.0,1.711438026882065e+18,0.47911227154047,0.4029680365296804,0.31189189189189187,0.5020787478601125,0.6329670329670329,0.4432296047098402,1194.0
873.0,1.7114380268920786e+18,0.4725848563968668,0.4200913242009132,0.3362162162162162,0.5035460992907801,0.6153846153846154,0.4280908326324643,1191.0
874.0,1.7114380269020692e+18,0.48172323759791125,0.4337899543378995,0.3481081081081081,0.5008559550012228,0.6010989010989011,0.43566021867115223,1195.0
875.0,1.7114380269120701e+18,0.45691906005221933,0.408675799086758,0.3172972972972973,0.5030569821472243,0.6483516483516484,0.45164003364171573,1196.0
876.0,1.7114380269220877e+18,0.47127937336814624,0.3972602739726027,0.3172972972972973,0.49816581071166544,0.6197802197802198,0.4314550042052145,1194.0
877.0,1.7114380269320832e+18,0.4699738903394256,0.4257990867579909,0.35027027027027025,0.5025678650036683,0.6329670329670329,0.44070647603027757,1196.0
878.0,1.711438026942077e+18,0.4869451697127937,0.4269406392694064,0.37945945945945947,0.504524333577892,0.6285714285714286,0.4482758620689655,1196.0
879.0,1.7114380269520735e+18,0.4699738903394256,0.4178082191780822,0.3362162162162162,0.5050134507214478,0.6329670329670329,0.43902439024390244,1197.0
880.0,1.7114380269620746e+18,0.4660574412532637,0.3972602739726027,0.3324324324324324,0.499877720714111,0.6153846153846154,0.4381833473507149,1195.0
881.0,1.7114380269720911e+18,0.46475195822454307,0.4166666666666667,0.34216216216216216,0.5020787478601125,0.6230769230769231,0.4533221194280908,1197.0
882.0,1.7114380269820682e+18,0.48172323759791125,0.4257990867579909,0.35945945945945945,0.5015896307165566,0.6098901098901099,0.4255677039529016,1194.0
883.0,1.711438026992071e+18,0.47127937336814624,0.4269406392694064,0.33405405405405403,0.5018341892883346,0.6164835164835165,0.43313708999158956,1195.0
884.0,1.7114380270020756e+18,0.4660574412532637,0.3995433789954338,0.327027027027027,0.4996331621423331,0.6241758241758242,0.4482758620689655,1196.0
885.0,1.7114380270120758e+18,0.48172323759791125,0.4406392694063927,0.3535135135135135,0.5035460992907801,0.6318681318681318,0.4381833473507149,1196.0
886.0,1.7114380270220818e+18,0.46736292428198434,0.3961187214611872,0.33405405405405403,0.5015896307165566,0.6395604395604395,0.4339781328847771,1194.0
887.0,1.7114380270320952e+18,0.46344647519582244,0.4006849315068493,0.3027027027027027,0.4986549278552213,0.6208791208791209,0.432296047098402,1194.0
888.0,1.7114380270420746e+18,0.47127937336814624,0.4223744292237443,0.36108108108108106,0.5015896307165566,0.6362637362637362,0.44238856181665265,1194.0
889.0,1.7114380270520748e+18,0.47127937336814624,0.4178082191780822,0.3291891891891892,0.5028124235754463,0.6153846153846154,0.43313708999158956,1195.0
890.0,1.7114380270620736e+18,0.4595300261096606,0.3995433789954338,0.3302702702702703,0.49938860357055515,0.6197802197802198,0.43986543313709,1195.0
891.0,1.7114380270720689e+18,0.4765013054830287,0.4269406392694064,0.3410810810810811,0.5108828564441183,0.6802197802197802,0.45248107653490327,1196.0
892.0,1.711438027082072e+18,0.48172323759791125,0.4006849315068493,0.3281081081081081,0.5011005135730008,0.6241758241758242,0.4415475189234651,1195.0
893.0,1.711438027092074e+18,0.47911227154047,0.4155251141552511,0.3227027027027027,0.5037906578625581,0.6307692307692307,0.45500420521446594,1196.0
894.0,1.7114380271020703e+18,0.47127937336814624,0.4143835616438356,0.36324324324324325,0.5008559550012228,0.6208791208791209,0.456686291000841,1197.0
895.0,1.7114380271120722e+18,0.48825065274151436,0.432648401826484,0.36,0.5023233064318905,0.6197802197802198,0.4432296047098402,1195.0
896.0,1.7114380271220762e+18,0.46866840731070497,0.3995433789954338,0.3324324324324324,0.5006113964294449,0.6494505494505495,0.4381833473507149,1195.0
897.0,1.7114380271320855e+18,0.47127937336814624,0.4280821917808219,0.33405405405405403,0.49523110785033014,0.621978021978022,0.4381833473507149,1197.0
898.0,1.7114380271420703e+18,0.4621409921671018,0.4006849315068493,0.33513513513513515,0.4984103692834434,0.6285714285714286,0.43650126156433977,1196.0
899.0,1.7114380271520591e+18,0.48172323759791125,0.4292237442922374,0.34594594594594597,0.5037906578625581,0.6274725274725275,0.4415475189234651,1195.0
900.0,1.7114380271620856e+18,0.4621409921671018,0.3938356164383562,0.34054054054054056,0.5028124235754463,0.6296703296703297,0.43986543313709,1196.0
901.0,1.711438027172097e+18,0.4908616187989556,0.4497716894977169,0.37945945945945947,0.5050134507214478,0.6373626373626373,0.4415475189234651,1195.0
902.0,1.71143802718208e+18,0.47127937336814624,0.3926940639269406,0.327027027027027,0.4984103692834434,0.6186813186813187,0.44911690496215306,1196.0
903.0,1.7114380271920755e+18,0.4765013054830287,0.4178082191780822,0.3172972972972973,0.4991440449987772,0.5923076923076923,0.4179983179142136,1194.0
904.0,1.7114380272020685e+18,0.4765013054830287,0.4098173515981735,0.33945945945945943,0.49938860357055515,0.6065934065934065,0.43650126156433977,1196.0
905.0,1.711438027212095e+18,0.4751958224543081,0.4292237442922374,0.3362162162162162,0.5020787478601125,0.621978021978022,0.43986543313709,1195.0
906.0,1.7114380272220708e+18,0.4725848563968668,0.4063926940639269,0.34,0.4996331621423331,0.6208791208791209,0.432296047098402,1192.0
907.0,1.711438027232108e+18,0.48172323759791125,0.4246575342465753,0.33513513513513515,0.504035216434336,0.6285714285714286,0.4415475189234651,1196.0
908.0,1.7114380272420662e+18,0.48433420365535246,0.410958904109589,0.33675675675675676,0.4927855221325507,0.6230769230769231,0.44238856181665265,1195.0
909.0,1.7114380272520876e+18,0.4751958224543081,0.4098173515981735,0.31891891891891894,0.5015896307165566,0.6197802197802198,0.4373423044575273,1197.0
910.0,1.7114380272620695e+18,0.4830287206266319,0.4235159817351598,0.3654054054054054,0.5015896307165566,0.6252747252747253,0.43566021867115223,1198.0
911.0,1.7114380272720704e+18,0.4751958224543081,0.410958904109589,0.307027027027027,0.5047688921496698,0.6065934065934065,0.456686291000841,1195.0
912.0,1.7114380272820838e+18,0.4595300261096606,0.4041095890410959,0.3216216216216216,0.4986549278552213,0.6274725274725275,0.4306139613120269,1192.0
913.0,1.711438027292082e+18,0.4725848563968668,0.4143835616438356,0.32216216216216215,0.5013450721447786,0.6120879120879121,0.43650126156433977,1194.0
914.0,1.7114380273020685e+18,0.4765013054830287,0.4029680365296804,0.312972972972973,0.5001222792858889,0.6120879120879121,0.4482758620689655,1195.0
915.0,1.71143802731207e+18,0.47911227154047,0.4052511415525114,0.3091891891891892,0.5003668378576669,0.6208791208791209,0.4280908326324643,1193.0
916.0,1.7114380273220662e+18,0.4869451697127937,0.410958904109589,0.3410810810810811,0.4988994864269993,0.6428571428571429,0.432296047098402,1192.0
917.0,1.7114380273321042e+18,0.47780678851174935,0.4269406392694064,0.33783783783783783,0.5025678650036683,0.6164835164835165,0.4247266610597141,1192.0
918.0,1.7114380273420705e+18,0.4660574412532637,0.3881278538812785,0.32054054054054054,0.5006113964294449,0.6208791208791209,0.43986543313709,1197.0
919.0,1.7114380273520724e+18,0.47389033942558745,0.4189497716894977,0.3302702702702703,0.5006113964294449,0.6274725274725275,0.4482758620689655,1195.0
920.0,1.7114380273620582e+18,0.4608355091383812,0.3926940639269406,0.3075675675675676,0.49938860357055515,0.6120879120879121,0.4533221194280908,1196.0
921.0,1.711438027372074e+18,0.4725848563968668,0.4178082191780822,0.327027027027027,0.5020787478601125,0.6208791208791209,0.43650126156433977,1197.0
922.0,1.7114380273820803e+18,0.47127937336814624,0.4041095890410959,0.3372972972972973,0.5003668378576669,0.6186813186813187,0.43986543313709,1195.0
923.0,1.7114380273920773e+18,0.489556135770235,0.45662100456621,0.3908108108108108,0.5069699192956714,0.621978021978022,0.43902439024390244,1196.0
924.0,1.711438027402077e+18,0.47389033942558745,0.4018264840182648,0.3443243243243243,0.5020787478601125,0.634065934065934,0.44070647603027757,1197.0
925.0,1.7114380274120696e+18,0.48172323759791125,0.4235159817351598,0.33837837837837836,0.5028124235754463,0.6197802197802198,0.43313708999158956,1192.0
926.0,1.7114380274220723e+18,0.45822454308093996,0.3858447488584475,0.3302702702702703,0.5003668378576669,0.6626373626373626,0.43566021867115223,1196.0
927.0,1.7114380274320806e+18,0.48172323759791125,0.4452054794520548,0.31945945945945947,0.5037906578625581,0.6329670329670329,0.4339781328847771,1194.0
928.0,1.7114380274420677e+18,0.46866840731070497,0.3984018264840183,0.32972972972972975,0.4996331621423331,0.6021978021978022,0.43902439024390244,1196.0
929.0,1.7114380274520689e+18,0.4765013054830287,0.4223744292237443,0.32594594594594595,0.5023233064318905,0.6197802197802198,0.432296047098402,1194.0
930.0,1.7114380274620754e+18,0.46475195822454307,0.3926940639269406,0.32432432432432434,0.5008559550012228,0.6329670329670329,0.4482758620689655,1197.0
931.0,1.7114380274720686e+18,0.46344647519582244,0.3915525114155251,0.28054054054054056,0.5008559550012228,0.6208791208791209,0.4415475189234651,1196.0
932.0,1.7114380274820959e+18,0.49738903394255873,0.4121004566210046,0.34702702702702704,0.5011005135730008,0.621978021978022,0.4449116904962153,1194.0
933.0,1.7114380274920663e+18,0.4621409921671018,0.4132420091324201,0.30324324324324325,0.4969430178527757,0.6296703296703297,0.4987384356602187,1197.0
934.0,1.7114380275020718e+18,0.5195822454308094,0.5057077625570776,0.4681081081081081,0.5059916850085595,0.6428571428571429,0.4415475189234651,1197.0
935.0,1.711438027512071e+18,0.46344647519582244,0.3972602739726027,0.29567567567567565,0.49816581071166544,0.6153846153846154,0.432296047098402,1194.0
936.0,1.7114380275220677e+18,0.47780678851174935,0.3892694063926941,0.33405405405405403,0.5001222792858889,0.6406593406593407,0.4449116904962153,1197.0
937.0,1.7114380275320714e+18,0.48433420365535246,0.4200913242009132,0.3227027027027027,0.5067253607238934,0.6538461538461539,0.4541631623212784,1196.0
938.0,1.711438027542064e+18,0.48172323759791125,0.4052511415525114,0.3345945945945946,0.4986549278552213,0.610989010989011,0.4348191757779647,1195.0
939.0,1.7114380275520832e+18,0.47127937336814624,0.4063926940639269,0.31027027027027027,0.499877720714111,0.6428571428571429,0.43986543313709,1194.0
940.0,1.711438027562083e+18,0.4765013054830287,0.3984018264840183,0.3410810810810811,0.5020787478601125,0.634065934065934,0.4280908326324643,1192.0
941.0,1.71143802757208e+18,0.4751958224543081,0.4223744292237443,0.3216216216216216,0.4991440449987772,0.6153846153846154,0.4314550042052145,1193.0
942.0,1.7114380275820746e+18,0.46344647519582244,0.3858447488584475,0.31405405405405407,0.49474199070677427,0.6230769230769231,0.4339781328847771,1193.0
943.0,1.7114380275921075e+18,0.4869451697127937,0.4406392694063927,0.3356756756756757,0.5064808021521154,0.6450549450549451,0.4432296047098402,1197.0
944.0,1.7114380276020777e+18,0.48433420365535246,0.4406392694063927,0.41243243243243244,0.5028124235754463,0.6230769230769231,0.4432296047098402,1194.0
945.0,1.7114380276120724e+18,0.48433420365535246,0.4269406392694064,0.32432432432432434,0.5033015407190022,0.6230769230769231,0.4306139613120269,1194.0
946.0,1.7114380276220703e+18,0.5026109660574413,0.4143835616438356,0.33135135135135135,0.5037906578625581,0.6450549450549451,0.4575273338940286,1195.0
947.0,1.7114380276320753e+18,0.4660574412532637,0.4269406392694064,0.3237837837837838,0.5008559550012228,0.6274725274725275,0.41715727502102606,1194.0
948.0,1.7114380276420646e+18,0.47911227154047,0.4063926940639269,0.3481081081081081,0.5055025678650037,0.6307692307692307,0.42977291841883936,1194.0
949.0,1.7114380276520704e+18,0.47911227154047,0.4292237442922374,0.32972972972972975,0.5037906578625581,0.6527472527472528,0.43986543313709,1196.0
950.0,1.711438027662064e+18,0.5195822454308094,0.4200913242009132,0.3427027027027027,0.5062362435803375,0.6505494505494506,0.48696383515559294,1195.0
951.0,1.7114380276720676e+18,0.4765013054830287,0.4292237442922374,0.3183783783783784,0.5018341892883346,0.6142857142857143,0.4289318755256518,1193.0
952.0,1.7114380276820826e+18,0.4765013054830287,0.4029680365296804,0.3324324324324324,0.5006113964294449,0.6230769230769231,0.4348191757779647,1193.0
953.0,1.7114380276920696e+18,0.46736292428198434,0.4200913242009132,0.33675675675675676,0.5006113964294449,0.634065934065934,0.4415475189234651,1194.0
954.0,1.7114380277020718e+18,0.4725848563968668,0.4052511415525114,0.3410810810810811,0.499877720714111,0.6142857142857143,0.4314550042052145,1192.0
955.0,1.7114380277120727e+18,0.4725848563968668,0.4280821917808219,0.3362162162162162,0.5006113964294449,0.6131868131868132,0.42977291841883936,1192.0
956.0,1.7114380277220705e+18,0.4765013054830287,0.4052511415525114,0.34702702702702704,0.5001222792858889,0.6296703296703297,0.4415475189234651,1194.0
957.0,1.7114380277320975e+18,0.48172323759791125,0.4212328767123288,0.33513513513513515,0.5059916850085595,0.6252747252747253,0.43650126156433977,1193.0
958.0,1.7114380277420933e+18,0.44386422976501305,0.3892694063926941,0.31567567567567567,0.5011005135730008,0.6164835164835165,0.4785534062237174,1194.0
959.0,1.711438027752069e+18,0.4725848563968668,0.410958904109589,0.292972972972973,0.5008559550012228,0.6120879120879121,0.4339781328847771,1195.0
960.0,1.7114380277620667e+18,0.47389033942558745,0.3995433789954338,0.33405405405405403,0.5008559550012228,0.6164835164835165,0.432296047098402,1192.0
961.0,1.7114380277720701e+18,0.46866840731070497,0.4143835616438356,0.33135135135135135,0.4996331621423331,0.5978021978021978,0.44070647603027757,1196.0
962.0,1.711438027782085e+18,0.47127937336814624,0.4041095890410959,0.35243243243243244,0.5001222792858889,0.6329670329670329,0.43566021867115223,1195.0
963.0,1.7114380277920788e+18,0.4804177545691906,0.4189497716894977,0.3286486486486486,0.5020787478601125,0.6252747252747253,0.43313708999158956,1193.0
964.0,1.7114380278020705e+18,0.4869451697127937,0.4235159817351598,0.3264864864864865,0.5035460992907801,0.6153846153846154,0.4179983179142136,1193.0
965.0,1.711438027812065e+18,0.4608355091383812,0.4018264840182648,0.31027027027027027,0.5015896307165566,0.6065934065934065,0.4222035323801514,1194.0
966.0,1.7114380278220703e+18,0.47127937336814624,0.3904109589041096,0.3145945945945946,0.4974321349963316,0.6197802197802198,0.43902439024390244,1196.0
967.0,1.7114380278320817e+18,0.47911227154047,0.4235159817351598,0.32972972972972975,0.4966984592809978,0.6318681318681318,0.43650126156433977,1196.0
968.0,1.711438027842069e+18,0.43733681462140994,0.3949771689497717,0.3232432432432432,0.4991440449987772,0.6186813186813187,0.4785534062237174,1197.0
969.0,1.711438027852068e+18,0.49738903394255873,0.432648401826484,0.34162162162162163,0.499877720714111,0.6230769230769231,0.4306139613120269,1193.0
970.0,1.7114380278620756e+18,0.4660574412532637,0.3961187214611872,0.33297297297297296,0.5006113964294449,0.6274725274725275,0.43986543313709,1195.0
971.0,1.7114380278720727e+18,0.4621409921671018,0.4235159817351598,0.33405405405405403,0.5025678650036683,0.6274725274725275,0.4432296047098402,1196.0
972.0,1.7114380278820838e+18,0.4765013054830287,0.4052511415525114,0.3308108108108108,0.5006113964294449,0.6362637362637362,0.4440706476030278,1193.0
973.0,1.7114380278920584e+18,0.4765013054830287,0.4269406392694064,0.3362162162162162,0.5015896307165566,0.6197802197802198,0.43902439024390244,1193.0
974.0,1.7114380279020803e+18,0.4765013054830287,0.408675799086758,0.33675675675675676,0.5018341892883346,0.6406593406593407,0.4348191757779647,1197.0
975.0,1.7114380279120704e+18,0.4960835509138381,0.4680365296803653,0.4172972972972973,0.5064808021521154,0.6329670329670329,0.4592094196804037,1195.0
976.0,1.7114380279220723e+18,0.4595300261096606,0.3915525114155251,0.3291891891891892,0.5035460992907801,0.6131868131868132,0.4280908326324643,1192.0
977.0,1.7114380279320899e+18,0.47127937336814624,0.4269406392694064,0.3345945945945946,0.5052580092932257,0.6153846153846154,0.43650126156433977,1195.0
978.0,1.7114380279420682e+18,0.4516971279373368,0.3995433789954338,0.3345945945945946,0.5006113964294449,0.621978021978022,0.46509671993271656,1196.0
979.0,1.7114380279520696e+18,0.47127937336814624,0.4235159817351598,0.33405405405405403,0.5018341892883346,0.6329670329670329,0.43902439024390244,1196.0
980.0,1.7114380279620644e+18,0.46736292428198434,0.4006849315068493,0.3335135135135135,0.5015896307165566,0.634065934065934,0.4415475189234651,1196.0
981.0,1.7114380279720653e+18,0.47127937336814624,0.4235159817351598,0.32432432432432434,0.504035216434336,0.6318681318681318,0.43650126156433977,1195.0
982.0,1.7114380279820774e+18,0.4621409921671018,0.3835616438356164,0.3232432432432432,0.5037906578625581,0.6571428571428571,0.43902439024390244,1198.0
983.0,1.711438027992081e+18,0.489556135770235,0.4452054794520548,0.34540540540540543,0.5084372707263389,0.6230769230769231,0.44070647603027757,1195.0
984.0,1.7114380280020692e+18,0.4765013054830287,0.4006849315068493,0.3372972972972973,0.5013450721447786,0.6274725274725275,0.43566021867115223,1196.0
985.0,1.71143802801207e+18,0.4765013054830287,0.4178082191780822,0.3335135135135135,0.5011005135730008,0.6318681318681318,0.43566021867115223,1195.0
986.0,1.7114380280220872e+18,0.4804177545691906,0.4280821917808219,0.3989189189189189,0.5037906578625581,0.6252747252747253,0.45164003364171573,1195.0
987.0,1.7114380280320694e+18,0.48825065274151436,0.4200913242009132,0.31675675675675674,0.5028124235754463,0.6197802197802198,0.43313708999158956,1192.0
988.0,1.7114380280420803e+18,0.4869451697127937,0.4063926940639269,0.3308108108108108,0.5028124235754463,0.6318681318681318,0.44070647603027757,1196.0
989.0,1.7114380280520645e+18,0.4908616187989556,0.4383561643835616,0.36162162162162165,0.504524333577892,0.6329670329670329,0.4440706476030278,1196.0
990.0,1.711438028062096e+18,0.5,0.4337899543378995,0.40540540540540543,0.504524333577892,0.6373626373626373,0.4482758620689655,1195.0
991.0,1.7114380280720745e+18,0.49216710182767626,0.4292237442922374,0.3281081081081081,0.5008559550012228,0.6153846153846154,0.4339781328847771,1193.0
992.0,1.7114380280820762e+18,0.47911227154047,0.3961187214611872,0.3302702702702703,0.5008559550012228,0.6208791208791209,0.42977291841883936,1192.0
993.0,1.7114380280920663e+18,0.5143603133159269,0.4178082191780822,0.3016216216216216,0.5025678650036683,0.6373626373626373,0.4381833473507149,1196.0
994.0,1.7114380281020805e+18,0.4765013054830287,0.4052511415525114,0.327027027027027,0.499877720714111,0.6318681318681318,0.43986543313709,1198.0
995.0,1.7114380281120724e+18,0.48172323759791125,0.4212328767123288,0.32756756756756755,0.5018341892883346,0.6230769230769231,0.4373423044575273,1195.0
996.0,1.7114380281220698e+18,0.47127937336814624,0.3881278538812785,0.30648648648648646,0.499877720714111,0.6296703296703297,0.44238856181665265,1197.0
997.0,1.7114380281320893e+18,0.4934725848563969,0.4417808219178082,0.3302702702702703,0.5064808021521154,0.6197802197802198,0.4440706476030278,1196.0
998.0,1.711438028142076e+18,0.48172323759791125,0.4029680365296804,0.31891891891891894,0.4986549278552213,0.6318681318681318,0.44238856181665265,1196.0
999.0,1.7114380281520745e+18,0.4765013054830287,0.4383561643835616,0.34540540540540543,0.5020787478601125,0.634065934065934,0.45836837678721615,1196.0
1000.0,1.7114380281620808e+18,0.5039164490861618,0.3972602739726027,0.31945945945945947,0.49816581071166544,0.6175824175824176,0.4415475189234651,1195.0
