202.0,1.710318251403116e+18,0.49216710182767626,0.4269406392694064,0.34162162162162163,0.48691611640988014,0.6241758241758242,0.4339781328847771,1194.0
203.0,1.7103182514131535e+18,0.4830287206266319,0.4589041095890411,0.34054054054054056,0.504279775006114,0.6450549450549451,0.4465937762825904,1195.0
204.0,1.710318251423118e+18,0.48172323759791125,0.4075342465753425,0.3362162162162162,0.5028124235754463,0.5791208791208792,0.42640874684608915,1193.0
205.0,1.710318251433123e+18,0.48172323759791125,0.4429223744292237,0.34324324324324323,0.495720224993886,0.6021978021978022,0.43650126156433977,1197.0
206.0,1.7103182514431145e+18,0.4856396866840731,0.4235159817351598,0.3551351351351351,0.4996331621423331,0.6274725274725275,0.43902439024390244,1198.0
207.0,1.7103182514531162e+18,0.48433420365535246,0.3995433789954338,0.3027027027027027,0.49082905355832723,0.6186813186813187,0.44238856181665265,1195.0
208.0,1.7103182514631163e+18,0.48433420365535246,0.4178082191780822,0.34324324324324323,0.49523110785033014,0.6054945054945055,0.4247266610597141,1196.0
209.0,1.7103182514731151e+18,0.4595300261096606,0.4178082191780822,0.3491891891891892,0.4966984592809978,0.6252747252747253,0.4415475189234651,1197.0
210.0,1.7103182514831155e+18,0.47911227154047,0.410958904109589,0.3237837837837838,0.5059916850085595,0.6285714285714286,0.43650126156433977,1197.0
211.0,1.7103182514931164e+18,0.4830287206266319,0.4315068493150685,0.3389189189189189,0.5113719735876743,0.6461538461538462,0.4465937762825904,1197.0
212.0,1.7103182515031188e+18,0.47911227154047,0.4269406392694064,0.34054054054054056,0.5035460992907801,0.6318681318681318,0.4373423044575273,1196.0
213.0,1.7103182515131167e+18,0.48172323759791125,0.4235159817351598,0.35945945945945945,0.5025678650036683,0.6329670329670329,0.44575273338940286,1197.0
214.0,1.7103182515231176e+18,0.4556135770234987,0.3972602739726027,0.3318918918918919,0.495720224993886,0.5978021978021978,0.4280908326324643,1193.0
215.0,1.7103182515331167e+18,0.4765013054830287,0.4189497716894977,0.33675675675675676,0.5047688921496698,0.6318681318681318,0.44238856181665265,1194.0
216.0,1.710318251543119e+18,0.4869451697127937,0.4406392694063927,0.34324324324324323,0.5084372707263389,0.6274725274725275,0.432296047098402,1193.0
217.0,1.710318251553118e+18,0.4765013054830287,0.4178082191780822,0.34054054054054056,0.5033015407190022,0.6274725274725275,0.4449116904962153,1196.0
218.0,1.7103182515631214e+18,0.4765013054830287,0.4200913242009132,0.3427027027027027,0.5037906578625581,0.6153846153846154,0.432296047098402,1195.0
219.0,1.7103182515731185e+18,0.4725848563968668,0.4075342465753425,0.3216216216216216,0.5035460992907801,0.6274725274725275,0.4449116904962153,1198.0
220.0,1.7103182515831212e+18,0.49477806788511747,0.478310502283105,0.37243243243243246,0.49645390070921985,0.6164835164835165,0.43566021867115223,1196.0
221.0,1.710318251593122e+18,0.47911227154047,0.4121004566210046,0.33513513513513515,0.5067253607238934,0.6351648351648351,0.44575273338940286,1198.0
222.0,1.7103182516031214e+18,0.4765013054830287,0.4075342465753425,0.3172972972972973,0.49816581071166544,0.6164835164835165,0.43313708999158956,1194.0
223.0,1.7103182516131218e+18,0.47911227154047,0.4052511415525114,0.33945945945945943,0.5067253607238934,0.6450549450549451,0.44575273338940286,1196.0
224.0,1.7103182516231127e+18,0.5039164490861618,0.4497716894977169,0.3545945945945946,0.4744436292492052,0.5857142857142857,0.43650126156433977,1195.0
225.0,1.7103182516331213e+18,0.47389033942558745,0.4063926940639269,0.34162162162162163,0.5001222792858889,0.6197802197802198,0.4381833473507149,1196.0
226.0,1.7103182516431227e+18,0.48433420365535246,0.4041095890410959,0.3427027027027027,0.5084372707263389,0.6373626373626373,0.4415475189234651,1197.0
227.0,1.710318251653111e+18,0.4765013054830287,0.4143835616438356,0.3497297297297297,0.4984103692834434,0.6252747252747253,0.4432296047098402,1196.0
228.0,1.7103182516631104e+18,0.46866840731070497,0.4337899543378995,0.3362162162162162,0.5135730007336757,0.6362637362637362,0.44070647603027757,1197.0
229.0,1.7103182516731113e+18,0.47780678851174935,0.4132420091324201,0.3372972972972973,0.504279775006114,0.6307692307692307,0.4482758620689655,1195.0
230.0,1.71031825168311e+18,0.49477806788511747,0.4452054794520548,0.3427027027027027,0.504035216434336,0.6362637362637362,0.4415475189234651,1197.0
231.0,1.7103182516931228e+18,0.4765013054830287,0.4063926940639269,0.3308108108108108,0.48985081927121543,0.6142857142857143,0.4432296047098402,1196.0
232.0,1.7103182517031145e+18,0.46736292428198434,0.4200913242009132,0.33513513513513515,0.5008559550012228,0.6208791208791209,0.4314550042052145,1195.0
233.0,1.7103182517131128e+18,0.5496083550913838,0.4520547945205479,0.36,0.4839814135485449,0.6285714285714286,0.43650126156433977,1193.0
234.0,1.7103182517231135e+18,0.4830287206266319,0.4006849315068493,0.3302702702702703,0.499877720714111,0.6329670329670329,0.4507989907485282,1197.0
235.0,1.7103182517331133e+18,0.48825065274151436,0.4143835616438356,0.3362162162162162,0.49645390070921985,0.6142857142857143,0.44238856181665265,1196.0
236.0,1.7103182517431165e+18,0.47389033942558745,0.4269406392694064,0.34594594594594597,0.5030569821472243,0.6230769230769231,0.43986543313709,1197.0
237.0,1.7103182517531128e+18,0.4830287206266319,0.4121004566210046,0.3091891891891892,0.5130838835901198,0.6428571428571429,0.4449116904962153,1196.0
238.0,1.7103182517631176e+18,0.4725848563968668,0.4200913242009132,0.33945945945945943,0.49229640498899485,0.6175824175824176,0.4339781328847771,1195.0
239.0,1.710318251773111e+18,0.4908616187989556,0.4189497716894977,0.34540540540540543,0.524578136463683,0.6714285714285714,0.4558452481076535,1198.0
240.0,1.710318251783114e+18,0.489556135770235,0.4280821917808219,0.33405405405405403,0.5020787478601125,0.6274725274725275,0.4373423044575273,1196.0
241.0,1.7103182517931123e+18,0.4765013054830287,0.4155251141552511,0.3335135135135135,0.5025678650036683,0.6318681318681318,0.4449116904962153,1200.0
242.0,1.7103182518031114e+18,0.47911227154047,0.4223744292237443,0.34594594594594597,0.4979212521398875,0.634065934065934,0.43902439024390244,1196.0
243.0,1.7103182518131092e+18,0.47911227154047,0.4383561643835616,0.34486486486486484,0.4839814135485449,0.5846153846153846,0.43902439024390244,1198.0
244.0,1.7103182518231101e+18,0.4869451697127937,0.4223744292237443,0.33135135135135135,0.5028124235754463,0.6241758241758242,0.4348191757779647,1197.0
245.0,1.7103182518331103e+18,0.48433420365535246,0.4132420091324201,0.31675675675675674,0.49620934213744194,0.6406593406593407,0.447434819175778,1200.0
246.0,1.7103182518431104e+18,0.4830287206266319,0.432648401826484,0.35081081081081084,0.5074590364392272,0.6494505494505495,0.4432296047098402,1198.0
247.0,1.7103182518531095e+18,0.4699738903394256,0.4063926940639269,0.3362162162162162,0.504279775006114,0.6362637362637362,0.4465937762825904,1200.0
248.0,1.710318251863111e+18,0.4804177545691906,0.4178082191780822,0.3372972972972973,0.5108828564441183,0.6329670329670329,0.4373423044575273,1197.0
249.0,1.7103182518731103e+18,0.46866840731070497,0.386986301369863,0.3335135135135135,0.4803130349718758,0.610989010989011,0.4449116904962153,1196.0
250.0,1.710318251883113e+18,0.44386422976501305,0.3812785388127854,0.33405405405405403,0.47077525067253606,0.5824175824175825,0.432296047098402,1194.0
251.0,1.7103182518931113e+18,0.4856396866840731,0.4257990867579909,0.3389189189189189,0.5055025678650037,0.6406593406593407,0.44575273338940286,1197.0
252.0,1.7103182519031117e+18,0.46736292428198434,0.4132420091324201,0.32972972972972975,0.5028124235754463,0.6274725274725275,0.4348191757779647,1196.0
253.0,1.7103182519131123e+18,0.4804177545691906,0.3926940639269406,0.36108108108108106,0.5089263878698949,0.6472527472527473,0.4432296047098402,1195.0
254.0,1.7103182519231094e+18,0.47780678851174935,0.4166666666666667,0.3535135135135135,0.49474199070677427,0.5945054945054945,0.4314550042052145,1193.0
255.0,1.7103182519331105e+18,0.49216710182767626,0.4098173515981735,0.3264864864864865,0.4984103692834434,0.6285714285714286,0.4482758620689655,1194.0
256.0,1.7103182519431101e+18,0.47780678851174935,0.4394977168949772,0.3389189189189189,0.4966984592809978,0.6087912087912087,0.4381833473507149,1197.0
257.0,1.710318251953109e+18,0.48433420365535246,0.4292237442922374,0.33297297297297296,0.5059916850085595,0.6318681318681318,0.44070647603027757,1197.0
258.0,1.710318251963108e+18,0.46736292428198434,0.4132420091324201,0.3389189189189189,0.5047688921496698,0.6230769230769231,0.4306139613120269,1195.0
259.0,1.7103182519731108e+18,0.48172323759791125,0.4143835616438356,0.3345945945945946,0.5057471264367817,0.6362637362637362,0.4482758620689655,1197.0
260.0,1.7103182519831107e+18,0.48172323759791125,0.4246575342465753,0.3583783783783784,0.4759109806798728,0.5824175824175825,0.4272497897392767,1196.0
261.0,1.7103182519931118e+18,0.46736292428198434,0.4143835616438356,0.3318918918918919,0.4927855221325507,0.5857142857142857,0.4373423044575273,1196.0
262.0,1.7103182520031114e+18,0.48825065274151436,0.4360730593607306,0.34162162162162163,0.5069699192956714,0.6384615384615384,0.43902439024390244,1195.0
263.0,1.7103182520131126e+18,0.47389033942558745,0.3995433789954338,0.33297297297297296,0.5015896307165566,0.6362637362637362,0.447434819175778,1198.0
264.0,1.7103182520231089e+18,0.47780678851174935,0.4018264840182648,0.3443243243243243,0.504524333577892,0.6362637362637362,0.43986543313709,1197.0
265.0,1.7103182520331425e+18,0.4765013054830287,0.4098173515981735,0.3427027027027027,0.5008559550012228,0.6208791208791209,0.4440706476030278,1197.0
266.0,1.7103182520431352e+18,0.4934725848563969,0.4383561643835616,0.34378378378378377,0.5023233064318905,0.6329670329670329,0.43902439024390244,1197.0
267.0,1.7103182520530972e+18,0.47780678851174935,0.410958904109589,0.3362162162162162,0.5059916850085595,0.6395604395604395,0.4432296047098402,1195.0
268.0,1.7103182520631112e+18,0.4725848563968668,0.4235159817351598,0.3324324324324324,0.4925409635607728,0.6021978021978022,0.432296047098402,1192.0
269.0,1.710318252073111e+18,0.4804177545691906,0.4178082191780822,0.34216216216216216,0.5033015407190022,0.6274725274725275,0.4440706476030278,1197.0
270.0,1.710318252083127e+18,0.48825065274151436,0.4452054794520548,0.33135135135135135,0.5013450721447786,0.6208791208791209,0.43650126156433977,1196.0
271.0,1.7103182520931418e+18,0.4804177545691906,0.4166666666666667,0.3237837837837838,0.5169968207385669,0.6538461538461539,0.4507989907485282,1195.0
272.0,1.7103182521031304e+18,0.4869451697127937,0.4383561643835616,0.3389189189189189,0.5096600635852286,0.6406593406593407,0.4381833473507149,1196.0
273.0,1.7103182521131272e+18,0.4765013054830287,0.4098173515981735,0.3362162162162162,0.504035216434336,0.634065934065934,0.4440706476030278,1196.0
274.0,1.7103182521231132e+18,0.47780678851174935,0.4235159817351598,0.3362162162162162,0.5018341892883346,0.6296703296703297,0.4373423044575273,1197.0
275.0,1.7103182521331139e+18,0.4751958224543081,0.4143835616438356,0.3497297297297297,0.491807287845439,0.610989010989011,0.4381833473507149,1195.0
276.0,1.7103182521431798e+18,0.46475195822454307,0.4121004566210046,0.34162162162162163,0.5050134507214478,0.6241758241758242,0.43566021867115223,1197.0
277.0,1.7103182521531228e+18,0.4830287206266319,0.4018264840182648,0.33405405405405403,0.5077035950110051,0.6362637362637362,0.447434819175778,1197.0
278.0,1.7103182521631145e+18,0.48172323759791125,0.4246575342465753,0.33837837837837836,0.5074590364392272,0.6329670329670329,0.43650126156433977,1197.0
279.0,1.7103182521731167e+18,0.4751958224543081,0.408675799086758,0.3362162162162162,0.5025678650036683,0.6307692307692307,0.4449116904962153,1194.0
280.0,1.7103182521831186e+18,0.47127937336814624,0.410958904109589,0.3227027027027027,0.5020787478601125,0.6230769230769231,0.4381833473507149,1196.0
281.0,1.71031825219312e+18,0.4660574412532637,0.4052511415525114,0.3172972972972973,0.5006113964294449,0.5879120879120879,0.4314550042052145,1194.0
282.0,1.7103182522031217e+18,0.4725848563968668,0.410958904109589,0.3356756756756757,0.5116165321594522,0.6329670329670329,0.43902439024390244,1197.0
283.0,1.7103182522131177e+18,0.47911227154047,0.4383561643835616,0.3372972972972973,0.5096600635852286,0.6450549450549451,0.4465937762825904,1198.0
284.0,1.7103182522231278e+18,0.48433420365535246,0.4257990867579909,0.3232432432432432,0.49498654927855223,0.6065934065934065,0.4381833473507149,1196.0
285.0,1.7103182522331387e+18,0.4699738903394256,0.4280821917808219,0.3535135135135135,0.5025678650036683,0.6274725274725275,0.4482758620689655,1199.0
286.0,1.7103182522431368e+18,0.5039164490861618,0.4474885844748858,0.34054054054054056,0.504524333577892,0.6329670329670329,0.43902439024390244,1197.0
287.0,1.7103182522531313e+18,0.4725848563968668,0.4052511415525114,0.33297297297297296,0.48691611640988014,0.6054945054945055,0.4373423044575273,1198.0
288.0,1.7103182522631148e+18,0.4765013054830287,0.4178082191780822,0.34378378378378377,0.4744436292492052,0.5736263736263736,0.4280908326324643,1195.0
289.0,1.710318252273119e+18,0.4751958224543081,0.4121004566210046,0.32432432432432434,0.49033993641477136,0.5934065934065934,0.4440706476030278,1196.0
290.0,1.7103182522831145e+18,0.47127937336814624,0.4178082191780822,0.3497297297297297,0.49474199070677427,0.6065934065934065,0.4289318755256518,1195.0
291.0,1.710318252293116e+18,0.4830287206266319,0.4223744292237443,0.327027027027027,0.495720224993886,0.6329670329670329,0.4432296047098402,1198.0
292.0,1.710318252303112e+18,0.49216710182767626,0.408675799086758,0.3172972972972973,0.5035460992907801,0.6362637362637362,0.4381833473507149,1196.0
293.0,1.710318252313115e+18,0.4765013054830287,0.3949771689497717,0.3335135135135135,0.4969430178527757,0.6274725274725275,0.44575273338940286,1195.0
294.0,1.710318252323111e+18,0.48433420365535246,0.4417808219178082,0.35135135135135137,0.5106382978723404,0.6307692307692307,0.43566021867115223,1197.0
295.0,1.7103182523331116e+18,0.47127937336814624,0.4360730593607306,0.34756756756756757,0.5113719735876743,0.6373626373626373,0.4415475189234651,1196.0
296.0,1.7103182523431101e+18,0.47780678851174935,0.4235159817351598,0.3410810810810811,0.5133284421618978,0.6417582417582418,0.4373423044575273,1196.0
297.0,1.7103182523531113e+18,0.46736292428198434,0.4098173515981735,0.33405405405405403,0.4900953778429934,0.6274725274725275,0.4415475189234651,1196.0
298.0,1.7103182523631112e+18,0.47127937336814624,0.4132420091324201,0.3318918918918919,0.4810467106872096,0.5967032967032967,0.4238856181665265,1192.0
299.0,1.710318252373109e+18,0.48825065274151436,0.4223744292237443,0.3345945945945946,0.5133284421618978,0.6593406593406593,0.4533221194280908,1195.0
300.0,1.7103182523831112e+18,0.46736292428198434,0.3972602739726027,0.32216216216216215,0.47957935925654194,0.5912087912087912,0.432296047098402,1190.0
301.0,1.7103182523931092e+18,0.46736292428198434,0.3995433789954338,0.3345945945945946,0.5074590364392272,0.6373626373626373,0.44238856181665265,1194.0
302.0,1.710318252403113e+18,0.47911227154047,0.4235159817351598,0.3362162162162162,0.504524333577892,0.6153846153846154,0.4339781328847771,1193.0
303.0,1.7103182524131139e+18,0.4765013054830287,0.4052511415525114,0.33405405405405403,0.5052580092932257,0.6252747252747253,0.4465937762825904,1198.0
304.0,1.710318252423114e+18,0.4216710182767624,0.3904109589041096,0.3410810810810811,0.5015896307165566,0.6175824175824176,0.42640874684608915,1193.0
305.0,1.7103182524331092e+18,0.49869451697127937,0.4132420091324201,0.34756756756756757,0.5013450721447786,0.6307692307692307,0.4465937762825904,1197.0
306.0,1.710318252443112e+18,0.47911227154047,0.4132420091324201,0.34540540540540543,0.5064808021521154,0.6351648351648351,0.4381833473507149,1197.0
307.0,1.7103182524531146e+18,0.47780678851174935,0.4132420091324201,0.34054054054054056,0.5033015407190022,0.6461538461538462,0.4482758620689655,1200.0
308.0,1.7103182524631122e+18,0.4765013054830287,0.4178082191780822,0.3427027027027027,0.5028124235754463,0.6307692307692307,0.43902439024390244,1197.0
309.0,1.7103182524731118e+18,0.4699738903394256,0.3995433789954338,0.3691891891891892,0.5008559550012228,0.6362637362637362,0.4432296047098402,1196.0
310.0,1.7103182524831114e+18,0.4725848563968668,0.4132420091324201,0.33297297297297296,0.520665199315236,0.6241758241758242,0.43566021867115223,1197.0
311.0,1.7103182524931105e+18,0.4869451697127937,0.4246575342465753,0.3335135135135135,0.4781120078258743,0.6076923076923076,0.44238856181665265,1196.0
312.0,1.7103182525031112e+18,0.46475195822454307,0.4155251141552511,0.3308108108108108,0.5023233064318905,0.6329670329670329,0.4381833473507149,1196.0
313.0,1.7103182525131123e+18,0.47911227154047,0.4098173515981735,0.33297297297297296,0.5035460992907801,0.6450549450549451,0.4432296047098402,1198.0
314.0,1.7103182525231114e+18,0.48433420365535246,0.4178082191780822,0.33513513513513515,0.5074590364392272,0.6472527472527473,0.43902439024390244,1196.0
315.0,1.710318252533113e+18,0.4869451697127937,0.408675799086758,0.36162162162162165,0.48642699926632427,0.6318681318681318,0.45164003364171573,1195.0
316.0,1.710318252543115e+18,0.4765013054830287,0.408675799086758,0.3427027027027027,0.504035216434336,0.6307692307692307,0.4415475189234651,1197.0
317.0,1.7103182525531144e+18,0.47911227154047,0.3995433789954338,0.34486486486486484,0.5013450721447786,0.6296703296703297,0.4465937762825904,1195.0
318.0,1.7103182525631124e+18,0.4804177545691906,0.4143835616438356,0.3318918918918919,0.5074590364392272,0.6384615384615384,0.4415475189234651,1196.0
319.0,1.710318252573112e+18,0.4765013054830287,0.4143835616438356,0.33405405405405403,0.5008559550012228,0.6241758241758242,0.4449116904962153,1197.0
320.0,1.7103182525831122e+18,0.48433420365535246,0.4315068493150685,0.34054054054054056,0.4886280264123258,0.6417582417582418,0.4415475189234651,1197.0
321.0,1.7103182525931146e+18,0.4412532637075718,0.4155251141552511,0.3075675675675676,0.4771337735387625,0.5692307692307692,0.4280908326324643,1194.0
322.0,1.7103182526031132e+18,0.4765013054830287,0.432648401826484,0.34378378378378377,0.4991440449987772,0.6384615384615384,0.4339781328847771,1195.0
323.0,1.7103182526131128e+18,0.48825065274151436,0.4360730593607306,0.3372972972972973,0.4988994864269993,0.6428571428571429,0.4499579478553406,1197.0
324.0,1.710318252623114e+18,0.4556135770234987,0.3892694063926941,0.3232432432432432,0.4984103692834434,0.6131868131868132,0.4289318755256518,1195.0
325.0,1.710318252633111e+18,0.46475195822454307,0.3915525114155251,0.3497297297297297,0.5064808021521154,0.656043956043956,0.45164003364171573,1196.0
326.0,1.7103182526431096e+18,0.4725848563968668,0.408675799086758,0.3372972972972973,0.4900953778429934,0.6175824175824176,0.43566021867115223,1197.0
327.0,1.7103182526531146e+18,0.4765013054830287,0.4041095890410959,0.33297297297297296,0.4974321349963316,0.6274725274725275,0.4465937762825904,1198.0
328.0,1.7103182526631132e+18,0.48172323759791125,0.4372146118721461,0.3318918918918919,0.4927855221325507,0.6142857142857143,0.44070647603027757,1196.0
329.0,1.710318252673112e+18,0.48172323759791125,0.4577625570776256,0.35621621621621624,0.5086818292981169,0.6417582417582418,0.4440706476030278,1197.0
330.0,1.7103182526831114e+18,0.4725848563968668,0.4269406392694064,0.3491891891891892,0.48789435069699194,0.6164835164835165,0.4314550042052145,1194.0
331.0,1.7103182526931113e+18,0.4765013054830287,0.3995433789954338,0.32216216216216215,0.5099046221570066,0.6472527472527473,0.4482758620689655,1195.0
332.0,1.7103182527031117e+18,0.4725848563968668,0.4189497716894977,0.33837837837837836,0.49767669356810956,0.6032967032967033,0.4314550042052145,1193.0
333.0,1.7103182527131118e+18,0.45822454308093996,0.3984018264840183,0.3281081081081081,0.5057471264367817,0.6351648351648351,0.43986543313709,1196.0
334.0,1.7103182527231127e+18,0.4621409921671018,0.4006849315068493,0.35027027027027025,0.49816581071166544,0.5967032967032967,0.4314550042052145,1196.0
335.0,1.7103182527331098e+18,0.47389033942558745,0.4155251141552511,0.3362162162162162,0.5011005135730008,0.6362637362637362,0.4465937762825904,1194.0
336.0,1.7103182527431114e+18,0.4751958224543081,0.4372146118721461,0.33945945945945943,0.5067253607238934,0.6274725274725275,0.43650126156433977,1197.0
337.0,1.710318252753111e+18,0.47389033942558745,0.4189497716894977,0.3410810810810811,0.5177304964539007,0.6494505494505495,0.4465937762825904,1197.0
338.0,1.7103182527631155e+18,0.47780678851174935,0.4280821917808219,0.34054054054054056,0.5101491807287846,0.6395604395604395,0.4348191757779647,1196.0
339.0,1.7103182527731092e+18,0.49216710182767626,0.408675799086758,0.3308108108108108,0.5018341892883346,0.6208791208791209,0.4440706476030278,1195.0
340.0,1.710318252783123e+18,0.49738903394255873,0.4360730593607306,0.34162162162162163,0.5057471264367817,0.6241758241758242,0.4373423044575273,1195.0
341.0,1.710318252793112e+18,0.489556135770235,0.4178082191780822,0.33783783783783783,0.491807287845439,0.6274725274725275,0.44238856181665265,1197.0
342.0,1.7103182528031104e+18,0.47127937336814624,0.4200913242009132,0.3324324324324324,0.5235999021765713,0.634065934065934,0.4348191757779647,1196.0
343.0,1.710318252813115e+18,0.5052219321148825,0.4577625570776256,0.35081081081081084,0.5155294693078992,0.6373626373626373,0.4507989907485282,1196.0
344.0,1.7103182528231117e+18,0.4830287206266319,0.430365296803653,0.36324324324324325,0.5145512350207875,0.610989010989011,0.432296047098402,1192.0
345.0,1.7103182528331116e+18,0.49216710182767626,0.4178082191780822,0.33675675675675676,0.49474199070677427,0.6329670329670329,0.447434819175778,1198.0
346.0,1.7103182528431104e+18,0.4608355091383812,0.4178082191780822,0.3308108108108108,0.4631939349474199,0.5538461538461539,0.4247266610597141,1195.0
347.0,1.7103182528531154e+18,0.47780678851174935,0.4132420091324201,0.3372972972972973,0.5069699192956714,0.6494505494505495,0.44575273338940286,1196.0
348.0,1.7103182528631137e+18,0.47780678851174935,0.4474885844748858,0.34054054054054056,0.49498654927855223,0.5857142857142857,0.4289318755256518,1193.0
349.0,1.7103182528731123e+18,0.47780678851174935,0.4052511415525114,0.33405405405405403,0.49498654927855223,0.6131868131868132,0.44238856181665265,1198.0
350.0,1.710318252883114e+18,0.48433420365535246,0.4246575342465753,0.33675675675675676,0.4988994864269993,0.6175824175824176,0.43902439024390244,1195.0
351.0,1.710318252893113e+18,0.4830287206266319,0.4235159817351598,0.33837837837837836,0.5047688921496698,0.6362637362637362,0.4499579478553406,1197.0
352.0,1.7103182529031155e+18,0.48825065274151436,0.4280821917808219,0.3345945945945946,0.5015896307165566,0.6098901098901099,0.4306139613120269,1193.0
353.0,1.710318252913115e+18,0.4608355091383812,0.4155251141552511,0.3389189189189189,0.48813890926876985,0.5802197802197803,0.42977291841883936,1194.0
354.0,1.7103182529231114e+18,0.4725848563968668,0.4075342465753425,0.33297297297297296,0.49767669356810956,0.6373626373626373,0.4373423044575273,1197.0
355.0,1.7103182529331123e+18,0.48172323759791125,0.408675799086758,0.33675675675675676,0.5055025678650037,0.6351648351648351,0.4482758620689655,1196.0
356.0,1.7103182529431112e+18,0.48172323759791125,0.4269406392694064,0.3389189189189189,0.5015896307165566,0.6274725274725275,0.4348191757779647,1196.0
357.0,1.710318252953111e+18,0.48172323759791125,0.4246575342465753,0.3324324324324324,0.5008559550012228,0.6373626373626373,0.447434819175778,1198.0
358.0,1.7103182529631145e+18,0.47780678851174935,0.4520547945205479,0.33783783783783783,0.5028124235754463,0.6362637362637362,0.4381833473507149,1197.0
359.0,1.7103182529731177e+18,0.4765013054830287,0.3767123287671233,0.2951351351351351,0.5138175593054537,0.6582417582417582,0.45500420521446594,1198.0
360.0,1.710318252983114e+18,0.4699738903394256,0.4337899543378995,0.3302702702702703,0.495720224993886,0.6153846153846154,0.42304457527333894,1195.0
361.0,1.7103182529931139e+18,0.47780678851174935,0.4006849315068493,0.3318918918918919,0.5162631450232331,0.6362637362637362,0.44575273338940286,1196.0
362.0,1.710318253003115e+18,0.4556135770234987,0.4155251141552511,0.34054054054054056,0.5143066764490095,0.6428571428571429,0.43986543313709,1195.0
363.0,1.710318253013114e+18,0.4908616187989556,0.3698630136986301,0.3356756756756757,0.4944974321349963,0.6307692307692307,0.44911690496215306,1196.0
364.0,1.7103182530231132e+18,0.45691906005221933,0.4429223744292237,0.34,0.5084372707263389,0.6230769230769231,0.4306139613120269,1194.0
365.0,1.7103182530331146e+18,0.4830287206266319,0.4189497716894977,0.3389189189189189,0.4988994864269993,0.621978021978022,0.44575273338940286,1197.0
366.0,1.7103182530431165e+18,0.4490861618798956,0.4406392694063927,0.3345945945945946,0.5037906578625581,0.6417582417582418,0.4339781328847771,1196.0
367.0,1.710318253053116e+18,0.4869451697127937,0.4075342465753425,0.3291891891891892,0.4984103692834434,0.6241758241758242,0.44238856181665265,1198.0
368.0,1.7103182530631178e+18,0.49738903394255873,0.4383561643835616,0.34594594594594597,0.5001222792858889,0.6329670329670329,0.4432296047098402,1195.0
369.0,1.7103182530731139e+18,0.4765013054830287,0.4121004566210046,0.3286486486486486,0.5006113964294449,0.6252747252747253,0.4440706476030278,1197.0
370.0,1.710318253083113e+18,0.47911227154047,0.4223744292237443,0.34,0.495964783565664,0.6230769230769231,0.43650126156433977,1197.0
371.0,1.7103182530931139e+18,0.4934725848563969,0.4246575342465753,0.3281081081081081,0.5218879921741257,0.6494505494505495,0.447434819175778,1198.0
372.0,1.7103182531031155e+18,0.45691906005221933,0.3972602739726027,0.31945945945945947,0.5096600635852286,0.6329670329670329,0.43986543313709,1196.0
373.0,1.7103182531131133e+18,0.4804177545691906,0.4235159817351598,0.33675675675675676,0.5035460992907801,0.6362637362637362,0.4465937762825904,1197.0
374.0,1.7103182531231137e+18,0.4595300261096606,0.408675799086758,0.3362162162162162,0.5074590364392272,0.6362637362637362,0.4415475189234651,1197.0
375.0,1.7103182531331187e+18,0.4751958224543081,0.4200913242009132,0.3345945945945946,0.5094155050134507,0.6296703296703297,0.4415475189234651,1195.0
376.0,1.7103182531431263e+18,0.47780678851174935,0.4178082191780822,0.3443243243243243,0.5064808021521154,0.6296703296703297,0.4306139613120269,1194.0
377.0,1.7103182531531151e+18,0.4765013054830287,0.4360730593607306,0.33783783783783783,0.48202494497432136,0.6175824175824176,0.43986543313709,1196.0
378.0,1.7103182531631127e+18,0.48825065274151436,0.4280821917808219,0.34324324324324323,0.5035460992907801,0.6252747252747253,0.4381833473507149,1195.0
379.0,1.7103182531731105e+18,0.47389033942558745,0.4166666666666667,0.3362162162162162,0.5094155050134507,0.6373626373626373,0.4499579478553406,1196.0
380.0,1.7103182531831112e+18,0.4765013054830287,0.4063926940639269,0.3302702702702703,0.5091709464416728,0.6362637362637362,0.44238856181665265,1198.0
381.0,1.7103182531931139e+18,0.48825065274151436,0.4726027397260274,0.3410810810810811,0.4844705306921008,0.5934065934065934,0.4314550042052145,1194.0
382.0,1.7103182532031117e+18,0.49738903394255873,0.4280821917808219,0.3389189189189189,0.5069699192956714,0.6450549450549451,0.4339781328847771,1194.0
383.0,1.7103182532131108e+18,0.4869451697127937,0.4063926940639269,0.3237837837837838,0.504524333577892,0.6329670329670329,0.44575273338940286,1196.0
384.0,1.7103182532231117e+18,0.4765013054830287,0.4189497716894977,0.3372972972972973,0.48911714355588165,0.6043956043956044,0.42977291841883936,1195.0
385.0,1.7103182532331172e+18,0.46866840731070497,0.4018264840182648,0.3324324324324324,0.4991440449987772,0.6098901098901099,0.44070647603027757,1198.0
386.0,1.7103182532431132e+18,0.4804177545691906,0.4680365296803653,0.34054054054054056,0.4986549278552213,0.6208791208791209,0.4348191757779647,1197.0
387.0,1.7103182532531162e+18,0.4765013054830287,0.3926940639269406,0.31513513513513514,0.487649792125214,0.6263736263736264,0.4465937762825904,1196.0
388.0,1.7103182532631142e+18,0.4660574412532637,0.4337899543378995,0.3254054054054054,0.508192712154561,0.634065934065934,0.43650126156433977,1197.0
389.0,1.7103182532731128e+18,0.4804177545691906,0.4189497716894977,0.33135135135135135,0.49082905355832723,0.6329670329670329,0.44238856181665265,1197.0
390.0,1.7103182532831137e+18,0.4804177545691906,0.4052511415525114,0.34054054054054056,0.5157740278796772,0.6538461538461539,0.44238856181665265,1196.0
391.0,1.710318253293114e+18,0.46866840731070497,0.4029680365296804,0.3308108108108108,0.49474199070677427,0.6,0.4415475189234651,1198.0
392.0,1.7103182533031142e+18,0.4830287206266319,0.4235159817351598,0.33783783783783783,0.5020787478601125,0.6230769230769231,0.43986543313709,1198.0
393.0,1.710318253313115e+18,0.49738903394255873,0.4360730593607306,0.33513513513513515,0.5201760821716801,0.6472527472527473,0.43986543313709,1197.0
394.0,1.7103182533231168e+18,0.47911227154047,0.4269406392694064,0.33837837837837836,0.495964783565664,0.6153846153846154,0.43566021867115223,1195.0
395.0,1.7103182533331151e+18,0.47911227154047,0.4178082191780822,0.32594594594594595,0.49767669356810956,0.6362637362637362,0.4449116904962153,1194.0
396.0,1.7103182533431163e+18,0.47780678851174935,0.4235159817351598,0.3362162162162162,0.5121056493030081,0.6285714285714286,0.4314550042052145,1194.0
397.0,1.7103182533531167e+18,0.47127937336814624,0.4200913242009132,0.3318918918918919,0.48691611640988014,0.6153846153846154,0.43986543313709,1197.0
398.0,1.710318253363117e+18,0.5039164490861618,0.4292237442922374,0.3551351351351351,0.5015896307165566,0.5901098901098901,0.4255677039529016,1194.0
399.0,1.710318253373117e+18,0.49216710182767626,0.3984018264840183,0.34378378378378377,0.5064808021521154,0.6406593406593407,0.447434819175778,1197.0
400.0,1.7103182533831176e+18,0.48172323759791125,0.4132420091324201,0.33135135135135135,0.5064808021521154,0.6362637362637362,0.43902439024390244,1197.0
401.0,1.7103182533931154e+18,0.47389033942558745,0.4121004566210046,0.3362162162162162,0.4913181707018831,0.5758241758241758,0.4348191757779647,1197.0
402.0,1.7103182534031183e+18,0.4765013054830287,0.4223744292237443,0.30594594594594593,0.5047688921496698,0.6131868131868132,0.432296047098402,1194.0
403.0,1.7103182534131185e+18,0.4751958224543081,0.4063926940639269,0.35405405405405405,0.49474199070677427,0.6208791208791209,0.4415475189234651,1196.0
404.0,1.710318253423119e+18,0.47911227154047,0.408675799086758,0.33405405405405403,0.4930300807043287,0.5956043956043956,0.4255677039529016,1192.0
405.0,1.7103182534331192e+18,0.46866840731070497,0.3926940639269406,0.3286486486486486,0.5018341892883346,0.6384615384615384,0.44911690496215306,1196.0
406.0,1.7103182534431212e+18,0.48433420365535246,0.4178082191780822,0.34324324324324323,0.4996331621423331,0.6318681318681318,0.4381833473507149,1196.0
407.0,1.7103182534531213e+18,0.4804177545691906,0.4143835616438356,0.3345945945945946,0.4966984592809978,0.6274725274725275,0.4482758620689655,1195.0
408.0,1.7103182534631186e+18,0.4451697127937337,0.4052511415525114,0.33297297297297296,0.45977011494252873,0.5571428571428572,0.4179983179142136,1192.0
409.0,1.7103182534731205e+18,0.49216710182767626,0.4554794520547945,0.3491891891891892,0.504524333577892,0.6329670329670329,0.4440706476030278,1196.0
410.0,1.7103182534831194e+18,0.4830287206266319,0.410958904109589,0.33783783783783783,0.4800684764000978,0.6197802197802198,0.4381833473507149,1197.0
411.0,1.7103182534931192e+18,0.47127937336814624,0.4063926940639269,0.33405405405405403,0.504524333577892,0.6318681318681318,0.4415475189234651,1194.0
412.0,1.7103182535031204e+18,0.46736292428198434,0.4029680365296804,0.32432432432432434,0.4859378821227684,0.6065934065934065,0.4255677039529016,1194.0
413.0,1.7103182535131223e+18,0.48825065274151436,0.4178082191780822,0.33675675675675676,0.524578136463683,0.6681318681318681,0.45164003364171573,1196.0
414.0,1.7103182535231235e+18,0.4765013054830287,0.4235159817351598,0.3291891891891892,0.5074590364392272,0.6373626373626373,0.43902439024390244,1196.0
415.0,1.710318253533121e+18,0.45300261096605743,0.4360730593607306,0.3216216216216216,0.49400831499144043,0.6175824175824176,0.4381833473507149,1195.0
416.0,1.7103182535431217e+18,0.47389033942558745,0.3995433789954338,0.32756756756756755,0.5067253607238934,0.6065934065934065,0.432296047098402,1193.0
417.0,1.710318253553122e+18,0.4830287206266319,0.410958904109589,0.34756756756756757,0.4842259721203228,0.5835164835164836,0.4348191757779647,1197.0
418.0,1.7103182535631757e+18,0.47911227154047,0.4691780821917808,0.35135135135135137,0.49767669356810956,0.6175824175824176,0.4373423044575273,1196.0
419.0,1.7103182535731244e+18,0.46736292428198434,0.3904109589041096,0.3254054054054054,0.5099046221570066,0.6329670329670329,0.4415475189234651,1198.0
420.0,1.7103182535831245e+18,0.4830287206266319,0.3892694063926941,0.33945945945945943,0.5006113964294449,0.634065934065934,0.4373423044575273,1198.0
421.0,1.7103182535931246e+18,0.47911227154047,0.4075342465753425,0.34054054054054056,0.5072144778674492,0.6428571428571429,0.4465937762825904,1194.0
422.0,1.7103182536031252e+18,0.4765013054830287,0.4132420091324201,0.33783783783783783,0.5147957935925654,0.6516483516483517,0.4449116904962153,1196.0
423.0,1.7103182536131223e+18,0.4725848563968668,0.4143835616438356,0.34540540540540543,0.5079481535827831,0.6472527472527473,0.44238856181665265,1198.0
424.0,1.710318253623109e+18,0.4660574412532637,0.4155251141552511,0.3281081081081081,0.5015896307165566,0.6153846153846154,0.43566021867115223,1198.0
425.0,1.7103182536331082e+18,0.4177545691906005,0.3972602739726027,0.34540540540540543,0.5033015407190022,0.6472527472527473,0.4465937762825904,1198.0
426.0,1.7103182536431101e+18,0.4464751958224543,0.4063926940639269,0.32,0.5162631450232331,0.643956043956044,0.4373423044575273,1197.0
427.0,1.7103182536531264e+18,0.4856396866840731,0.4178082191780822,0.34540540540540543,0.49938860357055515,0.6406593406593407,0.44911690496215306,1196.0
428.0,1.7103182536631104e+18,0.489556135770235,0.4269406392694064,0.3410810810810811,0.5118610907312301,0.6406593406593407,0.43902439024390244,1196.0
429.0,1.710318253673126e+18,0.46866840731070497,0.4178082191780822,0.33837837837837836,0.4827586206896552,0.589010989010989,0.42977291841883936,1196.0
430.0,1.7103182536831278e+18,0.4830287206266319,0.4440639269406393,0.3389189189189189,0.5025678650036683,0.6285714285714286,0.4381833473507149,1195.0
431.0,1.7103182536931116e+18,0.47127937336814624,0.4178082191780822,0.34054054054054056,0.5084372707263389,0.634065934065934,0.4465937762825904,1196.0
432.0,1.71031825370311e+18,0.46736292428198434,0.4143835616438356,0.34162162162162163,0.520665199315236,0.6593406593406593,0.43566021867115223,1196.0
433.0,1.7103182537131113e+18,0.4765013054830287,0.3995433789954338,0.33837837837837836,0.4930300807043287,0.6142857142857143,0.43986543313709,1197.0
434.0,1.7103182537231107e+18,0.47911227154047,0.4257990867579909,0.3427027027027027,0.5138175593054537,0.6252747252747253,0.4339781328847771,1194.0
435.0,1.7103182537331103e+18,0.46344647519582244,0.386986301369863,0.3362162162162162,0.5138175593054537,0.6758241758241759,0.45164003364171573,1194.0
436.0,1.7103182537431114e+18,0.5117493472584856,0.4360730593607306,0.3389189189189189,0.5182196135974566,0.656043956043956,0.4482758620689655,1195.0
437.0,1.7103182537531133e+18,0.5456919060052219,0.4954337899543379,0.3497297297297297,0.48618244069454636,0.6197802197802198,0.4600504625735913,1198.0
438.0,1.7103182537631127e+18,0.5078328981723238,0.4657534246575342,0.37567567567567567,0.5211543164587918,0.6692307692307692,0.4533221194280908,1199.0
439.0,1.7103182537731167e+18,0.49477806788511747,0.4155251141552511,0.33297297297297296,0.4803130349718758,0.5967032967032967,0.43566021867115223,1197.0
440.0,1.710318253783113e+18,0.5339425587467362,0.4600456621004566,0.3362162162162162,0.528980190755686,0.6593406593406593,0.4449116904962153,1197.0
441.0,1.710318253793112e+18,0.5326370757180157,0.3835616438356164,0.34486486486486484,0.48373685497676694,0.5791208791208792,0.45248107653490327,1197.0
442.0,1.7103182538031153e+18,0.4960835509138381,0.4486301369863014,0.34864864864864864,0.504279775006114,0.6428571428571429,0.4381833473507149,1197.0
443.0,1.7103182538131146e+18,0.48433420365535246,0.4349315068493151,0.3491891891891892,0.49938860357055515,0.6252747252747253,0.447434819175778,1196.0
444.0,1.7103182538231142e+18,0.489556135770235,0.45662100456621,0.3427027027027027,0.46784054781120077,0.6054945054945055,0.4348191757779647,1196.0
445.0,1.710318253833109e+18,0.4086161879895561,0.3150684931506849,0.31513513513513514,0.5067253607238934,0.6395604395604395,0.43650126156433977,1197.0
446.0,1.7103182538431112e+18,0.47127937336814624,0.386986301369863,0.3291891891891892,0.5167522621667889,0.5923076923076923,0.43566021867115223,1199.0
447.0,1.710318253853111e+18,0.5026109660574413,0.4246575342465753,0.3254054054054054,0.46955245781364635,0.5901098901098901,0.4188393608074012,1196.0
448.0,1.7103182538631137e+18,0.47389033942558745,0.430365296803653,0.3281081081081081,0.5128393250183418,0.6428571428571429,0.4255677039529016,1195.0
449.0,1.710318253873111e+18,0.47911227154047,0.3881278538812785,0.31675675675675674,0.5099046221570066,0.5769230769230769,0.4280908326324643,1194.0
450.0,1.7103182538831124e+18,0.5039164490861618,0.4486301369863014,0.3427027027027027,0.5067253607238934,0.6582417582417582,0.4415475189234651,1198.0
451.0,1.7103182538931087e+18,0.48433420365535246,0.4098173515981735,0.34540540540540543,0.504279775006114,0.6516483516483517,0.45836837678721615,1197.0
452.0,1.7103182539031178e+18,0.4281984334203655,0.3824200913242009,0.3345945945945946,0.495964783565664,0.6362637362637362,0.432296047098402,1195.0
453.0,1.7103182539131126e+18,0.47389033942558745,0.4143835616438356,0.34594594594594597,0.495720224993886,0.6571428571428571,0.45836837678721615,1197.0
454.0,1.7103182539231117e+18,0.4830287206266319,0.4166666666666667,0.3362162162162162,0.5059916850085595,0.6208791208791209,0.43902439024390244,1197.0
455.0,1.7103182539331126e+18,0.4830287206266319,0.4223744292237443,0.3362162162162162,0.504524333577892,0.6307692307692307,0.44238856181665265,1196.0
456.0,1.7103182539431173e+18,0.4751958224543081,0.410958904109589,0.33675675675675676,0.5099046221570066,0.6318681318681318,0.41968040370058873,1194.0
457.0,1.7103182539531118e+18,0.4608355091383812,0.3744292237442922,0.31405405405405407,0.45365615064808024,0.5527472527472528,0.4381833473507149,1195.0
458.0,1.7103182539631206e+18,0.4830287206266319,0.4611872146118721,0.35027027027027025,0.4739545121056493,0.5824175824175825,0.41715727502102606,1195.0
459.0,1.7103182539731095e+18,0.4751958224543081,0.4178082191780822,0.31405405405405407,0.4966984592809978,0.6076923076923076,0.43650126156433977,1197.0
460.0,1.7103182539831158e+18,0.4164490861618799,0.3732876712328767,0.3551351351351351,0.48985081927121543,0.567032967032967,0.4188393608074012,1194.0
461.0,1.7103182539931123e+18,0.37989556135770236,0.363013698630137,0.34054054054054056,0.5174859378821227,0.6417582417582418,0.43902439024390244,1197.0
462.0,1.710318254003114e+18,0.47389033942558745,0.3995433789954338,0.3172972972972973,0.5062362435803375,0.6054945054945055,0.432296047098402,1193.0
463.0,1.7103182540131113e+18,0.4412532637075718,0.4143835616438356,0.3318918918918919,0.4844705306921008,0.6186813186813187,0.43902439024390244,1197.0
464.0,1.7103182540231148e+18,0.45300261096605743,0.3732876712328767,0.3410810810810811,0.49645390070921985,0.6120879120879121,0.43902439024390244,1198.0
465.0,1.7103182540331128e+18,0.45691906005221933,0.4041095890410959,0.32432432432432434,0.48495964783565665,0.5923076923076923,0.43902439024390244,1196.0
466.0,1.7103182540431117e+18,0.5,0.4337899543378995,0.34162162162162163,0.4937637564196625,0.656043956043956,0.44575273338940286,1198.0
467.0,1.7103182540531136e+18,0.5065274151436031,0.4200913242009132,0.32756756756756755,0.5035460992907801,0.6175824175824176,0.45164003364171573,1197.0
468.0,1.7103182540631112e+18,0.4960835509138381,0.4554794520547945,0.3281081081081081,0.5177304964539007,0.6417582417582418,0.4415475189234651,1198.0
469.0,1.7103182540731103e+18,0.4804177545691906,0.4235159817351598,0.3362162162162162,0.4896062606994375,0.6296703296703297,0.44575273338940286,1197.0
470.0,1.7103182540831145e+18,0.45691906005221933,0.3789954337899543,0.33405405405405403,0.5074590364392272,0.5923076923076923,0.42304457527333894,1194.0
471.0,1.7103182540931123e+18,0.5026109660574413,0.4200913242009132,0.33837837837837836,0.5103937393005625,0.667032967032967,0.45248107653490327,1195.0
472.0,1.7103182541031142e+18,0.49216710182767626,0.4269406392694064,0.3410810810810811,0.5047688921496698,0.6274725274725275,0.43986543313709,1193.0
473.0,1.7103182541131103e+18,0.48172323759791125,0.4292237442922374,0.33783783783783783,0.4776228906823184,0.5846153846153846,0.4415475189234651,1196.0
474.0,1.710318254123111e+18,0.4621409921671018,0.4360730593607306,0.3232432432432432,0.5143066764490095,0.6274725274725275,0.43313708999158956,1193.0
475.0,1.7103182541331113e+18,0.48825065274151436,0.432648401826484,0.3308108108108108,0.5072144778674492,0.6362637362637362,0.44911690496215306,1196.0
476.0,1.7103182541431232e+18,0.4869451697127937,0.4315068493150685,0.35405405405405405,0.5084372707263389,0.6362637362637362,0.43566021867115223,1198.0
477.0,1.7103182541531177e+18,0.4908616187989556,0.4246575342465753,0.3389189189189189,0.5121056493030081,0.6098901098901099,0.4415475189234651,1196.0
478.0,1.7103182541631094e+18,0.4869451697127937,0.4269406392694064,0.3281081081081081,0.5037906578625581,0.6351648351648351,0.4339781328847771,1193.0
479.0,1.710318254173111e+18,0.48433420365535246,0.4292237442922374,0.33945945945945943,0.5001222792858889,0.6362637362637362,0.44575273338940286,1197.0
480.0,1.7103182541831183e+18,0.4869451697127937,0.4280821917808219,0.3232432432432432,0.4954756664221081,0.6065934065934065,0.4280908326324643,1194.0
481.0,1.7103182541931116e+18,0.48172323759791125,0.4143835616438356,0.3427027027027027,0.5079481535827831,0.6450549450549451,0.45164003364171573,1195.0
482.0,1.7103182542031132e+18,0.47127937336814624,0.4143835616438356,0.33945945945945943,0.4697970163854243,0.5857142857142857,0.42640874684608915,1193.0
483.0,1.7103182542131095e+18,0.49216710182767626,0.4235159817351598,0.33945945945945943,0.5162631450232331,0.634065934065934,0.4449116904962153,1198.0
484.0,1.7103182542231173e+18,0.4869451697127937,0.4132420091324201,0.3232432432432432,0.4954756664221081,0.6296703296703297,0.4348191757779647,1197.0
485.0,1.7103182542331113e+18,0.46344647519582244,0.4041095890410959,0.34216216216216216,0.5118610907312301,0.6175824175824176,0.43902439024390244,1198.0
486.0,1.7103182542431122e+18,0.49738903394255873,0.4360730593607306,0.3410810810810811,0.5099046221570066,0.6373626373626373,0.43902439024390244,1197.0
487.0,1.710318254253114e+18,0.47780678851174935,0.410958904109589,0.32756756756756755,0.5096600635852286,0.6318681318681318,0.4373423044575273,1196.0
488.0,1.7103182542631112e+18,0.4830287206266319,0.3961187214611872,0.312972972972973,0.5047688921496698,0.6065934065934065,0.4314550042052145,1195.0
489.0,1.7103182542731108e+18,0.4556135770234987,0.3824200913242009,0.32756756756756755,0.4827586206896552,0.6142857142857143,0.4415475189234651,1200.0
490.0,1.7103182542831094e+18,0.489556135770235,0.4349315068493151,0.34756756756756757,0.504035216434336,0.6274725274725275,0.4381833473507149,1198.0
491.0,1.7103182542931085e+18,0.4830287206266319,0.4269406392694064,0.34486486486486484,0.4969430178527757,0.6329670329670329,0.44575273338940286,1198.0
492.0,1.7103182543031096e+18,0.47127937336814624,0.4383561643835616,0.33945945945945943,0.5074590364392272,0.6087912087912087,0.4348191757779647,1196.0
493.0,1.7103182543131103e+18,0.4908616187989556,0.4269406392694064,0.35135135135135137,0.5140621178772316,0.6483516483516484,0.44911690496215306,1195.0
494.0,1.7103182543231142e+18,0.4869451697127937,0.4497716894977169,0.3427027027027027,0.5006113964294449,0.6252747252747253,0.4339781328847771,1195.0
495.0,1.7103182543331126e+18,0.5091383812010444,0.454337899543379,0.3318918918918919,0.4991440449987772,0.6406593406593407,0.4449116904962153,1196.0
496.0,1.7103182543431148e+18,0.4621409921671018,0.3961187214611872,0.34054054054054056,0.5006113964294449,0.5824175824175825,0.4255677039529016,1193.0
497.0,1.710318254353115e+18,0.49216710182767626,0.4121004566210046,0.34756756756756757,0.5118610907312301,0.6505494505494506,0.4482758620689655,1196.0
498.0,1.7103182543631127e+18,0.49216710182767626,0.454337899543379,0.34756756756756757,0.5052580092932257,0.6274725274725275,0.432296047098402,1195.0
499.0,1.710318254373114e+18,0.4725848563968668,0.408675799086758,0.34540540540540543,0.4805575935436537,0.6010989010989011,0.43650126156433977,1197.0
500.0,1.710318254383113e+18,0.46866840731070497,0.3892694063926941,0.33513513513513515,0.5055025678650037,0.6175824175824176,0.4339781328847771,1195.0
501.0,1.710318254393113e+18,0.4556135770234987,0.4098173515981735,0.33675675675675676,0.5211543164587918,0.6516483516483517,0.4499579478553406,1197.0
502.0,1.7103182544031145e+18,0.47780678851174935,0.4269406392694064,0.34216216216216216,0.4900953778429934,0.6098901098901099,0.43313708999158956,1195.0
503.0,1.7103182544131126e+18,0.47780678851174935,0.4075342465753425,0.33837837837837836,0.5006113964294449,0.6065934065934065,0.4415475189234651,1196.0
504.0,1.7103182544231288e+18,0.47911227154047,0.4383561643835616,0.3410810810810811,0.5103937393005625,0.6626373626373626,0.4432296047098402,1197.0
505.0,1.710318254433115e+18,0.47127937336814624,0.4292237442922374,0.33675675675675676,0.48911714355588165,0.6120879120879121,0.4415475189234651,1197.0
506.0,1.7103182544431196e+18,0.4869451697127937,0.4406392694063927,0.34162162162162163,0.5084372707263389,0.6351648351648351,0.43566021867115223,1197.0
507.0,1.7103182544531302e+18,0.49738903394255873,0.4360730593607306,0.3372972972972973,0.47175348495964786,0.5989010989010989,0.4415475189234651,1197.0
508.0,1.7103182544631114e+18,0.49216710182767626,0.4280821917808219,0.34486486486486484,0.5135730007336757,0.6472527472527473,0.4432296047098402,1199.0
509.0,1.710318254473114e+18,0.47127937336814624,0.4337899543378995,0.3362162162162162,0.4954756664221081,0.6384615384615384,0.4465937762825904,1196.0
510.0,1.7103182544831117e+18,0.4725848563968668,0.4178082191780822,0.3281081081081081,0.5008559550012228,0.5846153846153846,0.42640874684608915,1194.0
511.0,1.7103182544931144e+18,0.4765013054830287,0.4029680365296804,0.34054054054054056,0.483492296404989,0.6175824175824176,0.44911690496215306,1197.0
512.0,1.710318254503116e+18,0.4830287206266319,0.4269406392694064,0.3491891891891892,0.4854487649792125,0.5835164835164836,0.42640874684608915,1193.0
513.0,1.710318254513116e+18,0.4869451697127937,0.4531963470319635,0.35783783783783785,0.5015896307165566,0.6395604395604395,0.447434819175778,1197.0
514.0,1.710318254523119e+18,0.49738903394255873,0.4360730593607306,0.33837837837837836,0.5113719735876743,0.6329670329670329,0.43566021867115223,1198.0
515.0,1.71031825453311e+18,0.44778067885117495,0.3949771689497717,0.32756756756756755,0.5079481535827831,0.6428571428571429,0.4415475189234651,1195.0
516.0,1.7103182545431183e+18,0.47780678851174935,0.4200913242009132,0.372972972972973,0.5079481535827831,0.6296703296703297,0.4306139613120269,1193.0
517.0,1.7103182545531302e+18,0.46475195822454307,0.4098173515981735,0.3427027027027027,0.5108828564441183,0.6384615384615384,0.43902439024390244,1197.0
518.0,1.7103182545631168e+18,0.5,0.4463470319634703,0.327027027027027,0.5057471264367817,0.6263736263736264,0.43566021867115223,1200.0
519.0,1.7103182545731123e+18,0.4765013054830287,0.410958904109589,0.33135135135135135,0.495720224993886,0.6274725274725275,0.4449116904962153,1197.0
520.0,1.7103182545831142e+18,0.46866840731070497,0.4200913242009132,0.34054054054054056,0.5018341892883346,0.6450549450549451,0.43313708999158956,1196.0
521.0,1.7103182545931113e+18,0.47911227154047,0.4257990867579909,0.3443243243243243,0.5047688921496698,0.6406593406593407,0.44575273338940286,1197.0
522.0,1.710318254603117e+18,0.48172323759791125,0.4280821917808219,0.33405405405405403,0.4937637564196625,0.6307692307692307,0.4314550042052145,1195.0
523.0,1.7103182546131735e+18,0.4608355091383812,0.3949771689497717,0.3335135135135135,0.4930300807043287,0.6285714285714286,0.4432296047098402,1200.0
524.0,1.7103182546231862e+18,0.48172323759791125,0.4200913242009132,0.32054054054054054,0.5069699192956714,0.6142857142857143,0.432296047098402,1193.0
525.0,1.710318254633125e+18,0.45300261096605743,0.3858447488584475,0.33405405405405403,0.5089263878698949,0.6406593406593407,0.4465937762825904,1200.0
526.0,1.7103182546431332e+18,0.4869451697127937,0.4417808219178082,0.3286486486486486,0.5069699192956714,0.6384615384615384,0.4381833473507149,1199.0
527.0,1.710318254653124e+18,0.4934725848563969,0.4349315068493151,0.3291891891891892,0.4900953778429934,0.5923076923076923,0.43902439024390244,1197.0
528.0,1.7103182546631245e+18,0.46866840731070497,0.4246575342465753,0.3162162162162162,0.5089263878698949,0.6054945054945055,0.432296047098402,1195.0
529.0,1.710318254673119e+18,0.47911227154047,0.410958904109589,0.34324324324324323,0.5133284421618978,0.6461538461538462,0.4499579478553406,1199.0
530.0,1.7103182546831388e+18,0.4804177545691906,0.4132420091324201,0.33513513513513515,0.512594766446564,0.6461538461538462,0.4381833473507149,1196.0
531.0,1.7103182546931146e+18,0.48172323759791125,0.4121004566210046,0.33783783783783783,0.5028124235754463,0.6362637362637362,0.4449116904962153,1196.0
532.0,1.71031825470312e+18,0.47127937336814624,0.4360730593607306,0.34324324324324323,0.5050134507214478,0.6274725274725275,0.43313708999158956,1195.0
533.0,1.710318254713112e+18,0.4725848563968668,0.4075342465753425,0.3254054054054054,0.5023233064318905,0.6241758241758242,0.43986543313709,1197.0
534.0,1.710318254723112e+18,0.47389033942558745,0.4189497716894977,0.3362162162162162,0.5030569821472243,0.6285714285714286,0.43313708999158956,1195.0
535.0,1.7103182547331128e+18,0.46736292428198434,0.4075342465753425,0.3308108108108108,0.5037906578625581,0.6384615384615384,0.4482758620689655,1195.0
536.0,1.710318254743114e+18,0.4804177545691906,0.4223744292237443,0.3372972972972973,0.5023233064318905,0.6197802197802198,0.432296047098402,1194.0
537.0,1.710318254753113e+18,0.43342036553524804,0.3458904109589041,0.30108108108108106,0.5099046221570066,0.6384615384615384,0.43566021867115223,1197.0
538.0,1.7103182547631135e+18,0.46475195822454307,0.4098173515981735,0.3232432432432432,0.47664465639520665,0.6274725274725275,0.4381833473507149,1197.0
539.0,1.710318254773113e+18,0.4856396866840731,0.4189497716894977,0.3232432432432432,0.5216434336023478,0.610989010989011,0.4415475189234651,1195.0
540.0,1.7103182547831188e+18,0.4804177545691906,0.4223744292237443,0.34162162162162163,0.5020787478601125,0.6164835164835165,0.4348191757779647,1197.0
541.0,1.7103182547931346e+18,0.47911227154047,0.4178082191780822,0.3362162162162162,0.5055025678650037,0.6329670329670329,0.4440706476030278,1198.0
542.0,1.7103182548031199e+18,0.46866840731070497,0.4223744292237443,0.33837837837837836,0.5074590364392272,0.6197802197802198,0.4306139613120269,1193.0
543.0,1.710318254813116e+18,0.48825065274151436,0.4143835616438356,0.3254054054054054,0.5079481535827831,0.6318681318681318,0.4482758620689655,1198.0
544.0,1.7103182548231273e+18,0.47389033942558745,0.4315068493150685,0.34378378378378377,0.45267791636096844,0.554945054945055,0.42640874684608915,1196.0
545.0,1.7103182548331192e+18,0.4621409921671018,0.4292237442922374,0.3427027027027027,0.5035460992907801,0.6406593406593407,0.44911690496215306,1195.0
546.0,1.7103182548431186e+18,0.4804177545691906,0.4189497716894977,0.3362162162162162,0.5101491807287846,0.6142857142857143,0.42977291841883936,1194.0
547.0,1.7103182548531233e+18,0.4765013054830287,0.410958904109589,0.31513513513513514,0.4979212521398875,0.6296703296703297,0.43986543313709,1197.0
548.0,1.7103182548631201e+18,0.4830287206266319,0.4189497716894977,0.3410810810810811,0.5069699192956714,0.6329670329670329,0.43902439024390244,1197.0
549.0,1.7103182548731233e+18,0.47911227154047,0.4018264840182648,0.32756756756756755,0.5028124235754463,0.634065934065934,0.4465937762825904,1197.0
550.0,1.7103182548831217e+18,0.4765013054830287,0.410958904109589,0.3345945945945946,0.5062362435803375,0.6318681318681318,0.4373423044575273,1197.0
551.0,1.7103182548931223e+18,0.49477806788511747,0.4280821917808219,0.3362162162162162,0.5079481535827831,0.6395604395604395,0.4440706476030278,1197.0
552.0,1.7103182549031224e+18,0.4608355091383812,0.4200913242009132,0.32216216216216215,0.5147957935925654,0.6285714285714286,0.4280908326324643,1195.0
553.0,1.7103182549131208e+18,0.4869451697127937,0.4178082191780822,0.3345945945945946,0.5047688921496698,0.6406593406593407,0.4499579478553406,1197.0
554.0,1.710318254923122e+18,0.4725848563968668,0.410958904109589,0.3362162162162162,0.504035216434336,0.6208791208791209,0.4339781328847771,1193.0
555.0,1.7103182549331238e+18,0.47780678851174935,0.410958904109589,0.34594594594594597,0.5113719735876743,0.6472527472527473,0.44911690496215306,1196.0
556.0,1.7103182549431227e+18,0.45039164490861616,0.365296803652968,0.31027027027027027,0.5050134507214478,0.6296703296703297,0.4314550042052145,1194.0
557.0,1.7103182549531254e+18,0.47780678851174935,0.4223744292237443,0.3281081081081081,0.5116165321594522,0.6274725274725275,0.4482758620689655,1196.0
558.0,1.710318254963123e+18,0.4725848563968668,0.4235159817351598,0.3302702702702703,0.5030569821472243,0.6186813186813187,0.432296047098402,1193.0
559.0,1.7103182549731228e+18,0.4856396866840731,0.4212328767123288,0.33837837837837836,0.4859378821227684,0.6153846153846154,0.44911690496215306,1196.0
560.0,1.7103182549831255e+18,0.46866840731070497,0.4132420091324201,0.3345945945945946,0.49474199070677427,0.5703296703296703,0.4213624894869638,1192.0
561.0,1.7103182549931354e+18,0.4830287206266319,0.4200913242009132,0.3308108108108108,0.4896062606994375,0.6285714285714286,0.4432296047098402,1200.0
562.0,1.7103182550031063e+18,0.4765013054830287,0.4200913242009132,0.3345945945945946,0.4900953778429934,0.5945054945054945,0.432296047098402,1192.0
563.0,1.710318255013125e+18,0.4765013054830287,0.4041095890410959,0.3356756756756757,0.5030569821472243,0.634065934065934,0.4507989907485282,1195.0
564.0,1.710318255023126e+18,0.4869451697127937,0.4292237442922374,0.3308108108108108,0.48324773783321107,0.5802197802197803,0.4306139613120269,1195.0
565.0,1.7103182550331277e+18,0.4660574412532637,0.4178082191780822,0.3481081081081081,0.5177304964539007,0.6637362637362637,0.45164003364171573,1198.0
566.0,1.710318255043113e+18,0.4856396866840731,0.4189497716894977,0.33783783783783783,0.5037906578625581,0.6043956043956044,0.432296047098402,1195.0
567.0,1.7103182550531274e+18,0.47780678851174935,0.4143835616438356,0.3362162162162162,0.49767669356810956,0.6153846153846154,0.4449116904962153,1195.0
568.0,1.7103182550631122e+18,0.4725848563968668,0.4212328767123288,0.33675675675675676,0.48251406211787723,0.5978021978021978,0.42977291841883936,1196.0
569.0,1.710318255073126e+18,0.46866840731070497,0.386986301369863,0.3281081081081081,0.5143066764490095,0.6582417582417582,0.45164003364171573,1197.0
570.0,1.710318255083147e+18,0.4765013054830287,0.430365296803653,0.33837837837837836,0.5064808021521154,0.6307692307692307,0.432296047098402,1194.0
571.0,1.7103182550931162e+18,0.47911227154047,0.4132420091324201,0.33513513513513515,0.5216434336023478,0.6527472527472528,0.4482758620689655,1197.0
572.0,1.7103182551031299e+18,0.4725848563968668,0.4166666666666667,0.33675675675675676,0.5172413793103449,0.6351648351648351,0.4306139613120269,1195.0
573.0,1.7103182551131136e+18,0.4660574412532637,0.3995433789954338,0.3372972972972973,0.4937637564196625,0.6186813186813187,0.44575273338940286,1196.0
574.0,1.7103182551231127e+18,0.47780678851174935,0.4178082191780822,0.3345945945945946,0.5179750550256786,0.6252747252747253,0.4339781328847771,1194.0
575.0,1.710318255133111e+18,0.47911227154047,0.4223744292237443,0.3178378378378378,0.45659085350941553,0.567032967032967,0.43986543313709,1196.0
576.0,1.7103182551431194e+18,0.48825065274151436,0.4235159817351598,0.32756756756756755,0.4839814135485449,0.5802197802197803,0.4280908326324643,1192.0
577.0,1.7103182551531333e+18,0.4765013054830287,0.4075342465753425,0.3345945945945946,0.5059916850085595,0.6472527472527473,0.45248107653490327,1196.0
578.0,1.7103182551631076e+18,0.4164490861618799,0.3767123287671233,0.3286486486486486,0.47053069210075815,0.5824175824175825,0.4179983179142136,1193.0
579.0,1.7103182551731098e+18,0.48433420365535246,0.4189497716894977,0.3281081081081081,0.5084372707263389,0.6329670329670329,0.4482758620689655,1197.0
580.0,1.7103182551831178e+18,0.47780678851174935,0.4394977168949772,0.34,0.4842259721203228,0.5758241758241758,0.4272497897392767,1191.0
581.0,1.7103182551931185e+18,0.4765013054830287,0.4063926940639269,0.33675675675675676,0.48740523355343607,0.6417582417582418,0.45164003364171573,1196.0
582.0,1.710318255203114e+18,0.4765013054830287,0.4292237442922374,0.3372972972972973,0.5096600635852286,0.6307692307692307,0.4272497897392767,1193.0
583.0,1.710318255213116e+18,0.46866840731070497,0.4052511415525114,0.3345945945945946,0.49816581071166544,0.6098901098901099,0.4415475189234651,1197.0
584.0,1.7103182552231145e+18,0.45691906005221933,0.4075342465753425,0.34324324324324323,0.5130838835901198,0.6010989010989011,0.42640874684608915,1194.0
585.0,1.7103182552331328e+18,0.46736292428198434,0.4075342465753425,0.3237837837837838,0.4988994864269993,0.6010989010989011,0.43650126156433977,1197.0
586.0,1.7103182552431153e+18,0.4765013054830287,0.4337899543378995,0.3464864864864865,0.5167522621667889,0.6241758241758242,0.43566021867115223,1197.0
587.0,1.7103182552531108e+18,0.4856396866840731,0.4132420091324201,0.3372972972972973,0.5067253607238934,0.6395604395604395,0.4449116904962153,1198.0
588.0,1.7103182552631124e+18,0.4765013054830287,0.4235159817351598,0.34486486486486484,0.5055025678650037,0.6296703296703297,0.432296047098402,1195.0
589.0,1.7103182552731139e+18,0.48172323759791125,0.4280821917808219,0.34216216216216216,0.4954756664221081,0.6296703296703297,0.4482758620689655,1197.0
590.0,1.710318255283115e+18,0.45300261096605743,0.4063926940639269,0.3345945945945946,0.5089263878698949,0.6252747252747253,0.42977291841883936,1194.0
591.0,1.7103182552931205e+18,0.47780678851174935,0.410958904109589,0.33135135135135135,0.4746881878209831,0.6120879120879121,0.4381833473507149,1196.0
592.0,1.7103182553031409e+18,0.4765013054830287,0.4235159817351598,0.3362162162162162,0.5152849107361213,0.643956043956044,0.4348191757779647,1196.0
593.0,1.7103182553131139e+18,0.47780678851174935,0.4041095890410959,0.33513513513513515,0.5064808021521154,0.6384615384615384,0.4449116904962153,1199.0
594.0,1.7103182553231163e+18,0.47911227154047,0.4337899543378995,0.33513513513513515,0.4966984592809978,0.6153846153846154,0.432296047098402,1194.0
595.0,1.7103182553331126e+18,0.47780678851174935,0.4132420091324201,0.34486486486486484,0.5037906578625581,0.6296703296703297,0.4432296047098402,1195.0
596.0,1.7103182553431137e+18,0.4765013054830287,0.4223744292237443,0.33837837837837836,0.5025678650036683,0.6252747252747253,0.4339781328847771,1194.0
597.0,1.7103182553531116e+18,0.4765013054830287,0.410958904109589,0.3362162162162162,0.46637319638053315,0.5747252747252747,0.4373423044575273,1195.0
598.0,1.7103182553631176e+18,0.46736292428198434,0.4132420091324201,0.32972972972972975,0.5143066764490095,0.6274725274725275,0.43313708999158956,1194.0
599.0,1.7103182553731123e+18,0.4556135770234987,0.3915525114155251,0.31027027027027027,0.49474199070677427,0.6230769230769231,0.44238856181665265,1196.0
600.0,1.7103182553831188e+18,0.4856396866840731,0.4200913242009132,0.3286486486486486,0.49082905355832723,0.6164835164835165,0.4314550042052145,1194.0
601.0,1.7103182553931192e+18,0.49738903394255873,0.4429223744292237,0.34540540540540543,0.4954756664221081,0.6175824175824176,0.4440706476030278,1197.0
602.0,1.710318255403119e+18,0.4804177545691906,0.4292237442922374,0.3372972972972973,0.5047688921496698,0.6263736263736264,0.43313708999158956,1193.0
603.0,1.7103182554131295e+18,0.47389033942558745,0.4166666666666667,0.3308108108108108,0.5077035950110051,0.621978021978022,0.4415475189234651,1197.0
604.0,1.710318255423122e+18,0.47127937336814624,0.4269406392694064,0.3345945945945946,0.4971875764245537,0.610989010989011,0.4314550042052145,1192.0
605.0,1.710318255433119e+18,0.4725848563968668,0.4189497716894977,0.33513513513513515,0.5255563707507949,0.6637362637362637,0.45500420521446594,1197.0
606.0,1.710318255443125e+18,0.4830287206266319,0.4189497716894977,0.3389189189189189,0.5147957935925654,0.6461538461538462,0.4381833473507149,1197.0
607.0,1.7103182554531208e+18,0.48172323759791125,0.4155251141552511,0.32972972972972975,0.5035460992907801,0.6307692307692307,0.44911690496215306,1197.0
608.0,1.7103182554631314e+18,0.4804177545691906,0.4178082191780822,0.33945945945945943,0.5023233064318905,0.6208791208791209,0.42977291841883936,1195.0
609.0,1.7103182554731233e+18,0.46475195822454307,0.4098173515981735,0.3362162162162162,0.5033015407190022,0.6274725274725275,0.4465937762825904,1195.0
610.0,1.7103182554831124e+18,0.4699738903394256,0.4200913242009132,0.3318918918918919,0.5074590364392272,0.6208791208791209,0.4306139613120269,1195.0
611.0,1.7103182554931108e+18,0.4765013054830287,0.408675799086758,0.3318918918918919,0.49767669356810956,0.6362637362637362,0.4482758620689655,1196.0
612.0,1.7103182555031378e+18,0.47389033942558745,0.4280821917808219,0.3372972972972973,0.504035216434336,0.6285714285714286,0.432296047098402,1196.0
613.0,1.7103182555131346e+18,0.4869451697127937,0.4132420091324201,0.33675675675675676,0.49938860357055515,0.6318681318681318,0.44575273338940286,1197.0
614.0,1.7103182555231263e+18,0.4765013054830287,0.4292237442922374,0.3318918918918919,0.5145512350207875,0.6450549450549451,0.43566021867115223,1196.0
615.0,1.7103182555331226e+18,0.489556135770235,0.4212328767123288,0.3324324324324324,0.5035460992907801,0.6461538461538462,0.45248107653490327,1193.0
616.0,1.7103182555431127e+18,0.46736292428198434,0.4178082191780822,0.3227027027027027,0.49351919784788456,0.6175824175824176,0.43566021867115223,1196.0
617.0,1.7103182555531855e+18,0.46344647519582244,0.3926940639269406,0.3324324324324324,0.4839814135485449,0.6131868131868132,0.4415475189234651,1197.0
618.0,1.7103182555631124e+18,0.4765013054830287,0.4269406392694064,0.3427027027027027,0.487649792125214,0.6,0.432296047098402,1196.0
619.0,1.7103182555731136e+18,0.47780678851174935,0.4132420091324201,0.33945945945945943,0.5035460992907801,0.6384615384615384,0.44911690496215306,1195.0
620.0,1.710318255583118e+18,0.48433420365535246,0.4337899543378995,0.3372972972972973,0.4944974321349963,0.610989010989011,0.4289318755256518,1192.0
621.0,1.7103182555931139e+18,0.43994778067885115,0.3710045662100457,0.3464864864864865,0.5160185864514552,0.6296703296703297,0.43986543313709,1196.0
622.0,1.7103182556031188e+18,0.4804177545691906,0.4383561643835616,0.3318918918918919,0.5064808021521154,0.5989010989010989,0.42977291841883936,1193.0
623.0,1.7103182556131154e+18,0.4765013054830287,0.408675799086758,0.3362162162162162,0.49938860357055515,0.6230769230769231,0.4415475189234651,1196.0
624.0,1.7103182556231112e+18,0.46866840731070497,0.410958904109589,0.3286486486486486,0.4986549278552213,0.6175824175824176,0.4306139613120269,1194.0
625.0,1.7103182556331128e+18,0.4830287206266319,0.4063926940639269,0.34162162162162163,0.4937637564196625,0.6120879120879121,0.4499579478553406,1198.0
626.0,1.7103182556431122e+18,0.47911227154047,0.4132420091324201,0.3232432432432432,0.491807287845439,0.6208791208791209,0.43313708999158956,1196.0
627.0,1.710318255653111e+18,0.4830287206266319,0.4143835616438356,0.3302702702702703,0.49620934213744194,0.6252747252747253,0.45164003364171573,1200.0
628.0,1.7103182556631444e+18,0.48433420365535246,0.4360730593607306,0.3389189189189189,0.504279775006114,0.6296703296703297,0.4348191757779647,1197.0
629.0,1.7103182556731167e+18,0.4804177545691906,0.4360730593607306,0.3491891891891892,0.5020787478601125,0.6054945054945055,0.4415475189234651,1197.0
630.0,1.7103182556831142e+18,0.47389033942558745,0.4018264840182648,0.31891891891891894,0.48789435069699194,0.6054945054945055,0.4289318755256518,1193.0
631.0,1.7103182556931372e+18,0.47127937336814624,0.4029680365296804,0.3318918918918919,0.4930300807043287,0.6186813186813187,0.4482758620689655,1197.0
632.0,1.7103182557031201e+18,0.48172323759791125,0.4223744292237443,0.34324324324324323,0.5030569821472243,0.6230769230769231,0.43313708999158956,1194.0
633.0,1.7103182557131203e+18,0.47911227154047,0.410958904109589,0.3410810810810811,0.4759109806798728,0.5989010989010989,0.4381833473507149,1196.0
634.0,1.7103182557231127e+18,0.4765013054830287,0.4200913242009132,0.34054054054054056,0.49205184641721694,0.6120879120879121,0.4289318755256518,1194.0
635.0,1.710318255733113e+18,0.4869451697127937,0.4121004566210046,0.3362162162162162,0.5106382978723404,0.6373626373626373,0.4507989907485282,1195.0
636.0,1.7103182557431153e+18,0.4765013054830287,0.4315068493150685,0.34594594594594597,0.499877720714111,0.6175824175824176,0.432296047098402,1194.0
637.0,1.7103182557531139e+18,0.48825065274151436,0.4280821917808219,0.3410810810810811,0.48911714355588165,0.6164835164835165,0.44575273338940286,1195.0
638.0,1.710318255763158e+18,0.4765013054830287,0.4155251141552511,0.3362162162162162,0.5055025678650037,0.634065934065934,0.432296047098402,1194.0
639.0,1.7103182557731256e+18,0.46475195822454307,0.4063926940639269,0.3286486486486486,0.49400831499144043,0.5835164835164836,0.4381833473507149,1196.0
640.0,1.7103182557831227e+18,0.47911227154047,0.4223744292237443,0.3372972972972973,0.5074590364392272,0.6296703296703297,0.42977291841883936,1194.0
641.0,1.710318255793136e+18,0.47911227154047,0.4121004566210046,0.327027027027027,0.5062362435803375,0.6362637362637362,0.44911690496215306,1198.0
642.0,1.710318255803114e+18,0.4725848563968668,0.4223744292237443,0.32756756756756755,0.48324773783321107,0.5868131868131868,0.4306139613120269,1193.0
643.0,1.7103182558131136e+18,0.47911227154047,0.4098173515981735,0.33135135135135135,0.5013450721447786,0.6406593406593407,0.44911690496215306,1197.0
644.0,1.710318255823115e+18,0.46736292428198434,0.4223744292237443,0.33513513513513515,0.5128393250183418,0.6164835164835165,0.4289318755256518,1195.0
645.0,1.710318255833113e+18,0.4869451697127937,0.4383561643835616,0.35027027027027025,0.49767669356810956,0.6296703296703297,0.44575273338940286,1196.0
646.0,1.7103182558431127e+18,0.45300261096605743,0.4246575342465753,0.3481081081081081,0.5064808021521154,0.6329670329670329,0.4339781328847771,1194.0
647.0,1.7103182558531156e+18,0.48433420365535246,0.4269406392694064,0.3372972972972973,0.504524333577892,0.6450549450549451,0.4482758620689655,1196.0
648.0,1.7103182558631304e+18,0.48433420365535246,0.4315068493150685,0.33513513513513515,0.5011005135730008,0.6274725274725275,0.43902439024390244,1198.0
649.0,1.7103182558731208e+18,0.48172323759791125,0.4098173515981735,0.3302702702702703,0.5015896307165566,0.6384615384615384,0.4449116904962153,1197.0
650.0,1.710318255883152e+18,0.4725848563968668,0.4178082191780822,0.33837837837837836,0.5025678650036683,0.6296703296703297,0.432296047098402,1193.0
651.0,1.7103182558931113e+18,0.5026109660574413,0.4315068493150685,0.34324324324324323,0.5047688921496698,0.634065934065934,0.4465937762825904,1196.0
652.0,1.7103182559031122e+18,0.47911227154047,0.4269406392694064,0.34054054054054056,0.504279775006114,0.6186813186813187,0.4373423044575273,1197.0
653.0,1.7103182559131167e+18,0.4934725848563969,0.4143835616438356,0.3427027027027027,0.5037906578625581,0.6274725274725275,0.4482758620689655,1198.0
654.0,1.7103182559231148e+18,0.46475195822454307,0.4212328767123288,0.3491891891891892,0.5006113964294449,0.6274725274725275,0.432296047098402,1193.0
655.0,1.710318255933112e+18,0.489556135770235,0.4246575342465753,0.33837837837837836,0.49498654927855223,0.6428571428571429,0.45164003364171573,1195.0
656.0,1.7103182559431112e+18,0.47911227154047,0.4269406392694064,0.34216216216216216,0.5047688921496698,0.634065934065934,0.4339781328847771,1193.0
657.0,1.7103182559531126e+18,0.4830287206266319,0.4041095890410959,0.3318918918918919,0.5035460992907801,0.634065934065934,0.4499579478553406,1198.0
658.0,1.7103182559631332e+18,0.48172323759791125,0.4257990867579909,0.33783783783783783,0.4856933235509905,0.6230769230769231,0.4348191757779647,1198.0
659.0,1.710318255973114e+18,0.4869451697127937,0.4223744292237443,0.33405405405405403,0.4969430178527757,0.6362637362637362,0.45164003364171573,1198.0
660.0,1.7103182559831245e+18,0.48172323759791125,0.4178082191780822,0.33675675675675676,0.5199315235999021,0.6472527472527473,0.4339781328847771,1193.0
661.0,1.7103182559931215e+18,0.4869451697127937,0.4178082191780822,0.3308108108108108,0.504035216434336,0.6142857142857143,0.4440706476030278,1196.0
662.0,1.7103182560031196e+18,0.4699738903394256,0.4052511415525114,0.3356756756756757,0.5057471264367817,0.6164835164835165,0.43313708999158956,1194.0
663.0,1.710318256013112e+18,0.4765013054830287,0.4155251141552511,0.3335135135135135,0.5037906578625581,0.6351648351648351,0.44575273338940286,1195.0
664.0,1.710318256023114e+18,0.4751958224543081,0.4223744292237443,0.34,0.504524333577892,0.6241758241758242,0.4381833473507149,1196.0
665.0,1.7103182560331054e+18,0.4725848563968668,0.4075342465753425,0.34054054054054056,0.5015896307165566,0.6373626373626373,0.4499579478553406,1197.0
666.0,1.7103182560431142e+18,0.45039164490861616,0.3675799086757991,0.3324324324324324,0.5067253607238934,0.6285714285714286,0.43566021867115223,1199.0
667.0,1.7103182560531139e+18,0.4699738903394256,0.4075342465753425,0.3518918918918919,0.5025678650036683,0.6241758241758242,0.4440706476030278,1196.0
668.0,1.7103182560631237e+18,0.4660574412532637,0.4006849315068493,0.31027027027027027,0.5072144778674492,0.6241758241758242,0.4339781328847771,1195.0
669.0,1.7103182560731356e+18,0.4804177545691906,0.4143835616438356,0.3324324324324324,0.5003668378576669,0.6417582417582418,0.4465937762825904,1196.0
670.0,1.7103182560831544e+18,0.4621409921671018,0.4018264840182648,0.32972972972972975,0.5001222792858889,0.5604395604395604,0.4222035323801514,1193.0
671.0,1.7103182560931098e+18,0.4765013054830287,0.3949771689497717,0.3291891891891892,0.5128393250183418,0.6472527472527473,0.4482758620689655,1196.0
672.0,1.7103182561031078e+18,0.4804177545691906,0.4292237442922374,0.34324324324324323,0.5074590364392272,0.6230769230769231,0.4280908326324643,1195.0
673.0,1.7103182561131105e+18,0.4908616187989556,0.4166666666666667,0.32594594594594595,0.4969430178527757,0.610989010989011,0.4465937762825904,1196.0
674.0,1.7103182561231063e+18,0.4608355091383812,0.3972602739726027,0.32054054054054054,0.4988994864269993,0.6362637362637362,0.43650126156433977,1197.0
675.0,1.7103182561331087e+18,0.4751958224543081,0.4029680365296804,0.3281081081081081,0.5062362435803375,0.6131868131868132,0.43902439024390244,1195.0
676.0,1.710318256143108e+18,0.4725848563968668,0.4121004566210046,0.3216216216216216,0.5152849107361213,0.6230769230769231,0.42640874684608915,1194.0
677.0,1.710318256153109e+18,0.48825065274151436,0.4132420091324201,0.33405405405405403,0.5037906578625581,0.6417582417582418,0.45164003364171573,1196.0
678.0,1.7103182561631532e+18,0.49477806788511747,0.4372146118721461,0.3427027027027027,0.5067253607238934,0.6318681318681318,0.432296047098402,1193.0
679.0,1.710318256173119e+18,0.4869451697127937,0.4235159817351598,0.33945945945945943,0.48911714355588165,0.6120879120879121,0.4440706476030278,1194.0
680.0,1.7103182561831127e+18,0.4830287206266319,0.4098173515981735,0.3637837837837838,0.512350207874786,0.6362637362637362,0.43902439024390244,1195.0
681.0,1.7103182561931103e+18,0.4765013054830287,0.3995433789954338,0.32432432432432434,0.5059916850085595,0.6417582417582418,0.45164003364171573,1195.0
682.0,1.7103182562031155e+18,0.4830287206266319,0.432648401826484,0.33513513513513515,0.5035460992907801,0.5923076923076923,0.4280908326324643,1191.0
683.0,1.710318256213139e+18,0.4765013054830287,0.4212328767123288,0.3281081081081081,0.4844705306921008,0.5934065934065934,0.4381833473507149,1196.0
684.0,1.7103182562231086e+18,0.4725848563968668,0.4052511415525114,0.33837837837837836,0.5055025678650037,0.6142857142857143,0.43566021867115223,1197.0
685.0,1.710318256233114e+18,0.4765013054830287,0.4098173515981735,0.33135135135135135,0.49082905355832723,0.6230769230769231,0.44575273338940286,1195.0
686.0,1.710318256243111e+18,0.47127937336814624,0.4406392694063927,0.3232432432432432,0.5169968207385669,0.6351648351648351,0.43902439024390244,1196.0
687.0,1.710318256253112e+18,0.489556135770235,0.4474885844748858,0.3551351351351351,0.48789435069699194,0.6318681318681318,0.447434819175778,1196.0
688.0,1.7103182562631342e+18,0.48172323759791125,0.4166666666666667,0.3427027027027027,0.5033015407190022,0.6307692307692307,0.43566021867115223,1195.0
689.0,1.710318256273111e+18,0.4595300261096606,0.3835616438356164,0.3324324324324324,0.5074590364392272,0.6461538461538462,0.44575273338940286,1196.0
690.0,1.7103182562831068e+18,0.4765013054830287,0.4200913242009132,0.32594594594594595,0.4886280264123258,0.6076923076923076,0.4314550042052145,1194.0
691.0,1.7103182562931205e+18,0.4804177545691906,0.4098173515981735,0.32972972972972975,0.4996331621423331,0.6384615384615384,0.447434819175778,1195.0
692.0,1.7103182563031137e+18,0.46866840731070497,0.3961187214611872,0.34054054054054056,0.504279775006114,0.6329670329670329,0.43650126156433977,1193.0
693.0,1.7103182563131151e+18,0.47911227154047,0.4018264840182648,0.33945945945945943,0.512594766446564,0.6582417582417582,0.4499579478553406,1196.0
694.0,1.710318256323114e+18,0.4765013054830287,0.4280821917808219,0.3281081081081081,0.5143066764490095,0.6472527472527473,0.43650126156433977,1197.0
695.0,1.7103182563331167e+18,0.46736292428198434,0.4018264840182648,0.3372972972972973,0.5047688921496698,0.6395604395604395,0.44575273338940286,1194.0
696.0,1.7103182563431158e+18,0.48433420365535246,0.4178082191780822,0.3183783783783784,0.5064808021521154,0.6472527472527473,0.43986543313709,1196.0
697.0,1.710318256353115e+18,0.47127937336814624,0.3904109589041096,0.31513513513513514,0.4930300807043287,0.6208791208791209,0.4415475189234651,1197.0
698.0,1.7103182563631263e+18,0.49477806788511747,0.4337899543378995,0.34054054054054056,0.504035216434336,0.6274725274725275,0.4339781328847771,1194.0
699.0,1.7103182563731356e+18,0.4556135770234987,0.3904109589041096,0.32756756756756755,0.49205184641721694,0.6098901098901099,0.44238856181665265,1197.0
700.0,1.7103182563831347e+18,0.4765013054830287,0.410958904109589,0.32756756756756755,0.5133284421618978,0.6450549450549451,0.43566021867115223,1197.0
701.0,1.7103182563931136e+18,0.48172323759791125,0.4223744292237443,0.31513513513513514,0.4986549278552213,0.6263736263736264,0.4482758620689655,1197.0
702.0,1.71031825640312e+18,0.4830287206266319,0.4246575342465753,0.3372972972972973,0.5069699192956714,0.6307692307692307,0.43650126156433977,1197.0
703.0,1.7103182564131146e+18,0.4804177545691906,0.4155251141552511,0.34378378378378377,0.5055025678650037,0.6362637362637362,0.4449116904962153,1198.0
704.0,1.710318256423115e+18,0.4869451697127937,0.4246575342465753,0.3345945945945946,0.5018341892883346,0.6417582417582418,0.43650126156433977,1198.0
705.0,1.71031825643315e+18,0.4765013054830287,0.4132420091324201,0.3324324324324324,0.5035460992907801,0.6351648351648351,0.4465937762825904,1197.0
706.0,1.7103182564431101e+18,0.4804177545691906,0.4075342465753425,0.3318918918918919,0.512350207874786,0.6164835164835165,0.432296047098402,1193.0
707.0,1.7103182564531144e+18,0.48172323759791125,0.4269406392694064,0.34054054054054056,0.5160185864514552,0.6362637362637362,0.44575273338940286,1196.0
708.0,1.7103182564631135e+18,0.47127937336814624,0.4041095890410959,0.32594594594594595,0.49767669356810956,0.6274725274725275,0.4289318755256518,1196.0
709.0,1.7103182564731177e+18,0.4725848563968668,0.4006849315068493,0.31189189189189187,0.4812912692589875,0.589010989010989,0.4415475189234651,1197.0
710.0,1.7103182564831124e+18,0.4804177545691906,0.4315068493150685,0.34594594594594597,0.48691611640988014,0.6010989010989011,0.43313708999158956,1195.0
711.0,1.710318256493114e+18,0.4765013054830287,0.4132420091324201,0.3324324324324324,0.4971875764245537,0.6274725274725275,0.4449116904962153,1195.0
712.0,1.710318256503111e+18,0.47911227154047,0.4178082191780822,0.32594594594594595,0.5101491807287846,0.6252747252747253,0.4306139613120269,1194.0
713.0,1.7103182565131167e+18,0.4660574412532637,0.4006849315068493,0.33837837837837836,0.4986549278552213,0.5989010989010989,0.4432296047098402,1197.0
714.0,1.7103182565231117e+18,0.47127937336814624,0.4155251141552511,0.33837837837837836,0.504524333577892,0.6274725274725275,0.4373423044575273,1197.0
715.0,1.7103182565331133e+18,0.4765013054830287,0.4155251141552511,0.3427027027027027,0.5030569821472243,0.6318681318681318,0.4499579478553406,1196.0
716.0,1.710318256543117e+18,0.4595300261096606,0.3995433789954338,0.33135135135135135,0.5079481535827831,0.6318681318681318,0.43566021867115223,1197.0
717.0,1.7103182565531139e+18,0.47127937336814624,0.3995433789954338,0.32216216216216215,0.5015896307165566,0.634065934065934,0.44911690496215306,1197.0
718.0,1.7103182565631421e+18,0.4765013054830287,0.4200913242009132,0.3248648648648649,0.5047688921496698,0.6197802197802198,0.43566021867115223,1195.0
719.0,1.7103182565731103e+18,0.4765013054830287,0.4052511415525114,0.3210810810810811,0.49816581071166544,0.6230769230769231,0.44070647603027757,1196.0
720.0,1.710318256583118e+18,0.48825065274151436,0.4280821917808219,0.33405405405405403,0.5079481535827831,0.6373626373626373,0.43650126156433977,1196.0
721.0,1.7103182565931123e+18,0.47389033942558745,0.4189497716894977,0.33837837837837836,0.5074590364392272,0.643956043956044,0.4482758620689655,1196.0
722.0,1.7103182566031142e+18,0.47780678851174935,0.4200913242009132,0.3372972972972973,0.5101491807287846,0.6285714285714286,0.43566021867115223,1197.0
723.0,1.7103182566131128e+18,0.4608355091383812,0.3755707762557078,0.3216216216216216,0.5133284421618978,0.6318681318681318,0.4440706476030278,1196.0
724.0,1.710318256623115e+18,0.4699738903394256,0.4052511415525114,0.3356756756756757,0.5015896307165566,0.6087912087912087,0.4272497897392767,1194.0
725.0,1.7103182566331144e+18,0.4856396866840731,0.4269406392694064,0.3389189189189189,0.4986549278552213,0.6395604395604395,0.447434819175778,1198.0
726.0,1.7103182566431145e+18,0.45691906005221933,0.4018264840182648,0.3362162162162162,0.5064808021521154,0.6307692307692307,0.432296047098402,1196.0
727.0,1.710318256653114e+18,0.47127937336814624,0.4075342465753425,0.33783783783783783,0.5030569821472243,0.6351648351648351,0.44911690496215306,1198.0
728.0,1.710318256663128e+18,0.47127937336814624,0.4189497716894977,0.34162162162162163,0.5055025678650037,0.6274725274725275,0.4339781328847771,1194.0
729.0,1.7103182566731113e+18,0.489556135770235,0.4223744292237443,0.3389189189189189,0.5094155050134507,0.6384615384615384,0.44911690496215306,1196.0
730.0,1.7103182566831137e+18,0.48433420365535246,0.4315068493150685,0.3286486486486486,0.5064808021521154,0.6307692307692307,0.43650126156433977,1196.0
731.0,1.7103182566931218e+18,0.4830287206266319,0.4166666666666667,0.33405405405405403,0.504035216434336,0.6384615384615384,0.4482758620689655,1196.0
732.0,1.7103182567031183e+18,0.4621409921671018,0.4121004566210046,0.3335135135135135,0.5157740278796772,0.6384615384615384,0.4339781328847771,1191.0
733.0,1.7103182567131185e+18,0.4856396866840731,0.4269406392694064,0.34378378378378377,0.5018341892883346,0.6329670329670329,0.44575273338940286,1195.0
734.0,1.7103182567231186e+18,0.47780678851174935,0.4143835616438356,0.3232432432432432,0.4979212521398875,0.6043956043956044,0.432296047098402,1193.0
735.0,1.710318256733119e+18,0.48172323759791125,0.410958904109589,0.31189189189189187,0.5008559550012228,0.634065934065934,0.4499579478553406,1194.0
736.0,1.710318256743119e+18,0.47780678851174935,0.4269406392694064,0.3464864864864865,0.49229640498899485,0.5945054945054945,0.43313708999158956,1194.0
737.0,1.710318256753119e+18,0.4765013054830287,0.4063926940639269,0.34324324324324323,0.4988994864269993,0.6362637362637362,0.44911690496215306,1198.0
738.0,1.7103182567631506e+18,0.48433420365535246,0.4212328767123288,0.3410810810810811,0.5069699192956714,0.6252747252747253,0.43313708999158956,1194.0
739.0,1.7103182567731177e+18,0.49216710182767626,0.4098173515981735,0.33135135135135135,0.5099046221570066,0.6417582417582418,0.4482758620689655,1196.0
740.0,1.7103182567831176e+18,0.4765013054830287,0.4143835616438356,0.34,0.516507703595011,0.6373626373626373,0.4348191757779647,1198.0
741.0,1.7103182567931182e+18,0.47780678851174935,0.4041095890410959,0.3227027027027027,0.5062362435803375,0.6373626373626373,0.44575273338940286,1196.0
742.0,1.7103182568031183e+18,0.4765013054830287,0.4155251141552511,0.3345945945945946,0.5074590364392272,0.6274725274725275,0.43650126156433977,1196.0
743.0,1.7103182568131208e+18,0.4804177545691906,0.4178082191780822,0.33837837837837836,0.49645390070921985,0.6274725274725275,0.4440706476030278,1197.0
744.0,1.7103182568231194e+18,0.4725848563968668,0.4235159817351598,0.34540540540540543,0.5057471264367817,0.6296703296703297,0.4381833473507149,1197.0
745.0,1.7103182568331195e+18,0.47389033942558745,0.4018264840182648,0.33837837837837836,0.4930300807043287,0.5923076923076923,0.4415475189234651,1195.0
746.0,1.710318256843122e+18,0.49738903394255873,0.454337899543379,0.3535135135135135,0.5077035950110051,0.6307692307692307,0.43313708999158956,1196.0
747.0,1.7103182568531197e+18,0.4725848563968668,0.386986301369863,0.31675675675675674,0.5074590364392272,0.6318681318681318,0.44238856181665265,1197.0
748.0,1.7103182568631206e+18,0.4725848563968668,0.410958904109589,0.3124324324324324,0.5050134507214478,0.6296703296703297,0.43313708999158956,1194.0
749.0,1.7103182568731203e+18,0.4751958224543081,0.4075342465753425,0.3324324324324324,0.5096600635852286,0.6351648351648351,0.4465937762825904,1196.0
750.0,1.7103182568831232e+18,0.4765013054830287,0.4029680365296804,0.3264864864864865,0.5094155050134507,0.6406593406593407,0.4339781328847771,1193.0
751.0,1.7103182568931238e+18,0.46736292428198434,0.4132420091324201,0.31891891891891894,0.5108828564441183,0.6417582417582418,0.4440706476030278,1195.0
752.0,1.710318256903125e+18,0.4856396866840731,0.4429223744292237,0.3345945945945946,0.5094155050134507,0.6197802197802198,0.43313708999158956,1194.0
753.0,1.7103182569131372e+18,0.46344647519582244,0.3961187214611872,0.33405405405405403,0.5162631450232331,0.6296703296703297,0.4432296047098402,1196.0
754.0,1.710318256923123e+18,0.4765013054830287,0.4223744292237443,0.34378378378378377,0.5201760821716801,0.6362637362637362,0.432296047098402,1194.0
755.0,1.710318256933123e+18,0.4765013054830287,0.4189497716894977,0.3427027027027027,0.5111274150158963,0.6417582417582418,0.4482758620689655,1197.0
756.0,1.7103182569431094e+18,0.4725848563968668,0.4315068493150685,0.35135135135135137,0.5069699192956714,0.6307692307692307,0.432296047098402,1192.0
757.0,1.710318256953107e+18,0.48172323759791125,0.4075342465753425,0.34702702702702704,0.5084372707263389,0.634065934065934,0.4499579478553406,1196.0
758.0,1.710318256963132e+18,0.49477806788511747,0.4486301369863014,0.35783783783783785,0.5182196135974566,0.6450549450549451,0.4432296047098402,1197.0
759.0,1.7103182569731249e+18,0.46475195822454307,0.3995433789954338,0.3345945945945946,0.5106382978723404,0.6417582417582418,0.447434819175778,1195.0
760.0,1.710318256983125e+18,0.4765013054830287,0.4452054794520548,0.3362162162162162,0.483492296404989,0.6076923076923076,0.432296047098402,1193.0
761.0,1.710318256993125e+18,0.4751958224543081,0.410958904109589,0.34162162162162163,0.4771337735387625,0.5747252747252747,0.4415475189234651,1196.0
762.0,1.7103182570031114e+18,0.45822454308093996,0.408675799086758,0.3372972972972973,0.47909024211298606,0.6,0.42640874684608915,1194.0
763.0,1.7103182570131118e+18,0.46866840731070497,0.4223744292237443,0.3248648648648649,0.5006113964294449,0.6241758241758242,0.44238856181665265,1195.0
764.0,1.7103182570231127e+18,0.48172323759791125,0.4235159817351598,0.33783783783783783,0.49767669356810956,0.6175824175824176,0.43313708999158956,1195.0
765.0,1.710318257033112e+18,0.47389033942558745,0.4041095890410959,0.33297297297297296,0.504035216434336,0.6329670329670329,0.447434819175778,1197.0
766.0,1.7103182570431122e+18,0.47911227154047,0.4075342465753425,0.34,0.5023233064318905,0.6329670329670329,0.4373423044575273,1199.0
767.0,1.7103182570531433e+18,0.4595300261096606,0.3778538812785388,0.3291891891891892,0.4842259721203228,0.6142857142857143,0.44575273338940286,1197.0
768.0,1.7103182570631145e+18,0.49216710182767626,0.4223744292237443,0.34702702702702704,0.5072144778674492,0.634065934065934,0.4381833473507149,1197.0
769.0,1.7103182570731041e+18,0.49738903394255873,0.4235159817351598,0.34756756756756757,0.5055025678650037,0.643956043956044,0.4533221194280908,1196.0
770.0,1.7103182570831086e+18,0.48172323759791125,0.4189497716894977,0.3356756756756757,0.4854487649792125,0.5802197802197803,0.4280908326324643,1196.0
771.0,1.7103182570931098e+18,0.4699738903394256,0.4029680365296804,0.33405405405405403,0.49400831499144043,0.6373626373626373,0.4415475189234651,1198.0
772.0,1.710318257103108e+18,0.4725848563968668,0.3824200913242009,0.30486486486486486,0.5074590364392272,0.6406593406593407,0.4381833473507149,1197.0
773.0,1.71031825711311e+18,0.47127937336814624,0.3972602739726027,0.3362162162162162,0.47224260210320373,0.6010989010989011,0.44238856181665265,1197.0
774.0,1.710318257123106e+18,0.49216710182767626,0.4337899543378995,0.3227027027027027,0.5035460992907801,0.6274725274725275,0.4381833473507149,1196.0
775.0,1.7103182571331085e+18,0.47911227154047,0.4132420091324201,0.3362162162162162,0.5013450721447786,0.6428571428571429,0.45164003364171573,1193.0
776.0,1.7103182571431089e+18,0.49216710182767626,0.4178082191780822,0.3362162162162162,0.5250672536072389,0.6362637362637362,0.4381833473507149,1195.0
777.0,1.7103182571531085e+18,0.489556135770235,0.4315068493150685,0.3427027027027027,0.4937637564196625,0.6703296703296703,0.4482758620689655,1195.0
778.0,1.7103182571631375e+18,0.47127937336814624,0.4178082191780822,0.3286486486486486,0.5121056493030081,0.6406593406593407,0.43650126156433977,1196.0
779.0,1.7103182571731144e+18,0.47389033942558745,0.3995433789954338,0.33675675675675676,0.5103937393005625,0.6384615384615384,0.45164003364171573,1195.0
780.0,1.710318257183111e+18,0.45691906005221933,0.4178082191780822,0.33405405405405403,0.5057471264367817,0.6054945054945055,0.42977291841883936,1193.0
781.0,1.710318257193111e+18,0.48825065274151436,0.4212328767123288,0.3210810810810811,0.5006113964294449,0.6384615384615384,0.44911690496215306,1195.0
782.0,1.7103182572031178e+18,0.4464751958224543,0.4269406392694064,0.3372972972972973,0.47370995353387135,0.5593406593406594,0.4213624894869638,1192.0
783.0,1.7103182572131116e+18,0.47911227154047,0.4075342465753425,0.3372972972972973,0.5074590364392272,0.6461538461538462,0.45500420521446594,1196.0
784.0,1.7103182572231096e+18,0.48172323759791125,0.4132420091324201,0.3464864864864865,0.5037906578625581,0.6230769230769231,0.4373423044575273,1196.0
785.0,1.71031825723311e+18,0.47911227154047,0.4383561643835616,0.3427027027027027,0.49767669356810956,0.6318681318681318,0.4482758620689655,1197.0
786.0,1.7103182572431107e+18,0.4386422976501306,0.3812785388127854,0.34702702702702704,0.5172413793103449,0.6252747252747253,0.43313708999158956,1195.0
787.0,1.7103182572531105e+18,0.4765013054830287,0.4143835616438356,0.33135135135135135,0.5015896307165566,0.6274725274725275,0.4449116904962153,1197.0
788.0,1.710318257263136e+18,0.4869451697127937,0.4372146118721461,0.3410810810810811,0.4375152849107361,0.5703296703296703,0.42977291841883936,1194.0
789.0,1.7103182572731082e+18,0.4490861618798956,0.386986301369863,0.3362162162162162,0.512594766446564,0.6428571428571429,0.45164003364171573,1200.0
790.0,1.710318257283114e+18,0.49738903394255873,0.4292237442922374,0.35243243243243244,0.5077035950110051,0.6362637362637362,0.43986543313709,1197.0
791.0,1.7103182572931098e+18,0.4830287206266319,0.408675799086758,0.3497297297297297,0.5059916850085595,0.6362637362637362,0.4482758620689655,1197.0
792.0,1.7103182573031475e+18,0.48433420365535246,0.4189497716894977,0.34702702702702704,0.5133284421618978,0.6230769230769231,0.43650126156433977,1198.0
793.0,1.7103182573131172e+18,0.489556135770235,0.4121004566210046,0.3345945945945946,0.5020787478601125,0.6395604395604395,0.45500420521446594,1193.0
794.0,1.71031825732312e+18,0.4660574412532637,0.4063926940639269,0.31513513513513514,0.512594766446564,0.6329670329670329,0.4306139613120269,1195.0
795.0,1.710318257333117e+18,0.47911227154047,0.4132420091324201,0.3345945945945946,0.49523110785033014,0.6197802197802198,0.4449116904962153,1194.0
796.0,1.710318257343119e+18,0.47780678851174935,0.4235159817351598,0.33675675675675676,0.4966984592809978,0.6175824175824176,0.432296047098402,1194.0
797.0,1.7103182573531177e+18,0.4869451697127937,0.45662100456621,0.33513513513513515,0.499877720714111,0.6263736263736264,0.4465937762825904,1198.0
798.0,1.7103182573631498e+18,0.47127937336814624,0.4063926940639269,0.31891891891891894,0.5055025678650037,0.6318681318681318,0.4314550042052145,1194.0
799.0,1.7103182573731364e+18,0.4765013054830287,0.4063926940639269,0.3362162162162162,0.49229640498899485,0.6296703296703297,0.4465937762825904,1196.0
800.0,1.710318257383118e+18,0.47389033942558745,0.4292237442922374,0.3427027027027027,0.5096600635852286,0.6296703296703297,0.43566021867115223,1198.0
801.0,1.7103182573931156e+18,0.47127937336814624,0.4063926940639269,0.3318918918918919,0.5011005135730008,0.6153846153846154,0.4440706476030278,1196.0
802.0,1.7103182574031153e+18,0.48433420365535246,0.4372146118721461,0.34594594594594597,0.47933480068476403,0.5912087912087912,0.43313708999158956,1194.0
803.0,1.7103182574131151e+18,0.3681462140992167,0.3162100456621005,0.32594594594594595,0.49205184641721694,0.5978021978021978,0.4247266610597141,1195.0
804.0,1.7103182574231132e+18,0.4869451697127937,0.4703196347031963,0.33675675675675676,0.5055025678650037,0.6241758241758242,0.43650126156433977,1195.0
805.0,1.7103182574331128e+18,0.46866840731070497,0.4052511415525114,0.33297297297297296,0.5015896307165566,0.6274725274725275,0.4482758620689655,1197.0
806.0,1.710318257443114e+18,0.4751958224543081,0.4143835616438356,0.33513513513513515,0.5025678650036683,0.6241758241758242,0.4339781328847771,1194.0
807.0,1.71031825745311e+18,0.4725848563968668,0.4189497716894977,0.3427027027027027,0.5211543164587918,0.667032967032967,0.4541631623212784,1197.0
808.0,1.7103182574631675e+18,0.4830287206266319,0.4372146118721461,0.34540540540540543,0.5387625336268036,0.6802197802197802,0.4440706476030278,1198.0
809.0,1.7103182574731218e+18,0.4869451697127937,0.4098173515981735,0.34486486486486484,0.5106382978723404,0.6230769230769231,0.43902439024390244,1196.0
810.0,1.7103182574831132e+18,0.5,0.4269406392694064,0.3389189189189189,0.5052580092932257,0.6263736263736264,0.4339781328847771,1196.0
811.0,1.7103182574931105e+18,0.47780678851174935,0.4098173515981735,0.3356756756756757,0.5015896307165566,0.6318681318681318,0.4449116904962153,1198.0
812.0,1.7103182575031127e+18,0.4765013054830287,0.4212328767123288,0.3362162162162162,0.5028124235754463,0.6241758241758242,0.43566021867115223,1197.0
813.0,1.710318257513114e+18,0.46344647519582244,0.3961187214611872,0.33405405405405403,0.5099046221570066,0.634065934065934,0.44238856181665265,1197.0
814.0,1.7103182575231104e+18,0.47780678851174935,0.4292237442922374,0.3410810810810811,0.5103937393005625,0.6472527472527473,0.43902439024390244,1195.0
815.0,1.7103182575331105e+18,0.48172323759791125,0.4178082191780822,0.3410810810810811,0.5055025678650037,0.6582417582417582,0.4482758620689655,1197.0
816.0,1.710318257543113e+18,0.4556135770234987,0.4223744292237443,0.34054054054054056,0.5028124235754463,0.610989010989011,0.4280908326324643,1193.0
817.0,1.7103182575531151e+18,0.48172323759791125,0.4212328767123288,0.34054054054054056,0.49816581071166544,0.6197802197802198,0.4449116904962153,1196.0
818.0,1.710318257563137e+18,0.48172323759791125,0.4360730593607306,0.3264864864864865,0.5103937393005625,0.6230769230769231,0.42977291841883936,1196.0
819.0,1.710318257573117e+18,0.47127937336814624,0.4143835616438356,0.3362162162162162,0.5062362435803375,0.6362637362637362,0.44238856181665265,1197.0
820.0,1.7103182575831145e+18,0.46736292428198434,0.4394977168949772,0.33945945945945943,0.5015896307165566,0.634065934065934,0.4381833473507149,1196.0
821.0,1.7103182575931123e+18,0.47389033942558745,0.410958904109589,0.3324324324324324,0.5013450721447786,0.6274725274725275,0.4482758620689655,1198.0
822.0,1.7103182576031089e+18,0.47911227154047,0.4098173515981735,0.3621621621621622,0.4942528735632184,0.6054945054945055,0.42977291841883936,1192.0
823.0,1.7103182576131087e+18,0.4856396866840731,0.4166666666666667,0.3372972972972973,0.49816581071166544,0.6285714285714286,0.44911690496215306,1197.0
824.0,1.7103182576231094e+18,0.4595300261096606,0.3995433789954338,0.32756756756756755,0.5133284421618978,0.6241758241758242,0.432296047098402,1194.0
825.0,1.7103182576331057e+18,0.4516971279373368,0.3915525114155251,0.31513513513513514,0.5138175593054537,0.6230769230769231,0.44575273338940286,1195.0
826.0,1.7103182576431076e+18,0.4699738903394256,0.4200913242009132,0.3254054054054054,0.5052580092932257,0.6329670329670329,0.42977291841883936,1194.0
827.0,1.71031825765314e+18,0.4804177545691906,0.4143835616438356,0.3281081081081081,0.4781120078258743,0.6021978021978022,0.44238856181665265,1196.0
828.0,1.7103182576631252e+18,0.4725848563968668,0.4155251141552511,0.3318918918918919,0.5047688921496698,0.6230769230769231,0.4289318755256518,1194.0
829.0,1.7103182576731223e+18,0.4660574412532637,0.3995433789954338,0.33135135135135135,0.5011005135730008,0.6164835164835165,0.4415475189234651,1195.0
830.0,1.710318257683114e+18,0.46475195822454307,0.4257990867579909,0.33945945945945943,0.5035460992907801,0.6274725274725275,0.4314550042052145,1192.0
831.0,1.7103182576931154e+18,0.4804177545691906,0.4315068493150685,0.34540540540540543,0.5006113964294449,0.634065934065934,0.4465937762825904,1197.0
832.0,1.7103182577031183e+18,0.4804177545691906,0.4223744292237443,0.3335135135135135,0.512350207874786,0.6384615384615384,0.4373423044575273,1195.0
833.0,1.7103182577131167e+18,0.4830287206266319,0.4155251141552511,0.3286486486486486,0.48520420640743456,0.6230769230769231,0.4440706476030278,1198.0
834.0,1.7103182577231145e+18,0.4869451697127937,0.4337899543378995,0.34324324324324323,0.5135730007336757,0.6428571428571429,0.4348191757779647,1196.0
835.0,1.7103182577331174e+18,0.46866840731070497,0.3961187214611872,0.33135135135135135,0.5033015407190022,0.6329670329670329,0.4449116904962153,1196.0
836.0,1.7103182577431135e+18,0.48172323759791125,0.4212328767123288,0.3318918918918919,0.5050134507214478,0.6307692307692307,0.44238856181665265,1196.0
837.0,1.710318257753115e+18,0.4830287206266319,0.4178082191780822,0.33513513513513515,0.5003668378576669,0.6164835164835165,0.4482758620689655,1197.0
838.0,1.7103182577631316e+18,0.4516971279373368,0.3961187214611872,0.3108108108108108,0.5094155050134507,0.634065934065934,0.4339781328847771,1192.0
839.0,1.7103182577731154e+18,0.4765013054830287,0.4189497716894977,0.33783783783783783,0.5050134507214478,0.6318681318681318,0.447434819175778,1197.0
840.0,1.7103182577831089e+18,0.47911227154047,0.4018264840182648,0.34756756756756757,0.5074590364392272,0.6208791208791209,0.4339781328847771,1195.0
841.0,1.7103182577931113e+18,0.4725848563968668,0.3949771689497717,0.33135135135135135,0.49498654927855223,0.6285714285714286,0.44575273338940286,1197.0
842.0,1.7103182578031101e+18,0.47127937336814624,0.4063926940639269,0.3362162162162162,0.4979212521398875,0.6065934065934065,0.4314550042052145,1194.0
843.0,1.7103182578131108e+18,0.47127937336814624,0.4132420091324201,0.3389189189189189,0.504279775006114,0.6406593406593407,0.4440706476030278,1195.0
844.0,1.7103182578231122e+18,0.47389033942558745,0.4246575342465753,0.3291891891891892,0.47957935925654194,0.5912087912087912,0.4339781328847771,1193.0
845.0,1.7103182578331087e+18,0.48825065274151436,0.4360730593607306,0.3481081081081081,0.5064808021521154,0.6329670329670329,0.4465937762825904,1197.0
846.0,1.7103182578431096e+18,0.48433420365535246,0.4269406392694064,0.3362162162162162,0.5037906578625581,0.6263736263736264,0.4373423044575273,1196.0
847.0,1.7103182578531095e+18,0.4908616187989556,0.4269406392694064,0.3308108108108108,0.5103937393005625,0.6274725274725275,0.4440706476030278,1197.0
848.0,1.7103182578631155e+18,0.48172323759791125,0.4063926940639269,0.30972972972972973,0.495720224993886,0.6131868131868132,0.43566021867115223,1197.0
849.0,1.710318257873114e+18,0.45822454308093996,0.3835616438356164,0.3281081081081081,0.5184641721692346,0.6362637362637362,0.4465937762825904,1195.0
850.0,1.7103182578831127e+18,0.4765013054830287,0.4577625570776256,0.34594594594594597,0.5094155050134507,0.6384615384615384,0.43650126156433977,1198.0
851.0,1.7103182578931164e+18,0.46736292428198434,0.4018264840182648,0.3286486486486486,0.5067253607238934,0.6307692307692307,0.44575273338940286,1197.0
852.0,1.710318257903122e+18,0.4765013054830287,0.4189497716894977,0.34,0.5025678650036683,0.6362637362637362,0.43313708999158956,1196.0
853.0,1.710318257913132e+18,0.4830287206266319,0.4143835616438356,0.3308108108108108,0.5143066764490095,0.6329670329670329,0.44575273338940286,1197.0
854.0,1.71031825792312e+18,0.4830287206266319,0.4235159817351598,0.3427027027027027,0.5113719735876743,0.634065934065934,0.43566021867115223,1196.0
855.0,1.7103182579332237e+18,0.47127937336814624,0.4041095890410959,0.33297297297297296,0.504035216434336,0.6428571428571429,0.4449116904962153,1195.0
856.0,1.710318257943123e+18,0.4765013054830287,0.4018264840182648,0.32054054054054054,0.5172413793103449,0.6384615384615384,0.4314550042052145,1194.0
857.0,1.7103182579531133e+18,0.48172323759791125,0.4018264840182648,0.33945945945945943,0.49523110785033014,0.6252747252747253,0.4482758620689655,1197.0
858.0,1.7103182579631163e+18,0.47911227154047,0.4063926940639269,0.32972972972972975,0.4969430178527757,0.6208791208791209,0.43313708999158956,1193.0
859.0,1.710318257973119e+18,0.47127937336814624,0.386986301369863,0.33837837837837836,0.4859378821227684,0.589010989010989,0.43986543313709,1198.0
860.0,1.710318257983123e+18,0.49216710182767626,0.432648401826484,0.34324324324324323,0.5089263878698949,0.6296703296703297,0.43313708999158956,1196.0
861.0,1.7103182579931182e+18,0.47911227154047,0.4143835616438356,0.3356756756756757,0.495720224993886,0.6230769230769231,0.44911690496215306,1199.0
862.0,1.710318258003116e+18,0.47911227154047,0.4360730593607306,0.34702702702702704,0.5055025678650037,0.6197802197802198,0.43650126156433977,1196.0
863.0,1.7103182580131151e+18,0.4412532637075718,0.3881278538812785,0.34378378378378377,0.5037906578625581,0.6417582417582418,0.4507989907485282,1196.0
864.0,1.7103182580231296e+18,0.47127937336814624,0.4315068493150685,0.3427027027027027,0.49816581071166544,0.6120879120879121,0.4289318755256518,1195.0
865.0,1.7103182580331144e+18,0.47127937336814624,0.410958904109589,0.33513513513513515,0.5013450721447786,0.6318681318681318,0.4465937762825904,1198.0
866.0,1.7103182580431145e+18,0.4804177545691906,0.4235159817351598,0.33945945945945943,0.5103937393005625,0.6098901098901099,0.432296047098402,1195.0
867.0,1.7103182580531133e+18,0.47127937336814624,0.4143835616438356,0.34702702702702704,0.47224260210320373,0.5835164835164836,0.4415475189234651,1196.0
868.0,1.7103182580631265e+18,0.47780678851174935,0.432648401826484,0.34594594594594597,0.48618244069454636,0.5868131868131868,0.4255677039529016,1194.0
869.0,1.710318258073117e+18,0.47389033942558745,0.4269406392694064,0.33405405405405403,0.4944974321349963,0.621978021978022,0.4449116904962153,1196.0
870.0,1.710318258083118e+18,0.4856396866840731,0.4200913242009132,0.34378378378378377,0.504035216434336,0.6274725274725275,0.4339781328847771,1195.0
871.0,1.7103182580931174e+18,0.48825065274151436,0.4098173515981735,0.32756756756756755,0.4966984592809978,0.6318681318681318,0.45248107653490327,1194.0
872.0,1.7103182581031836e+18,0.489556135770235,0.4246575342465753,0.32054054054054054,0.5084372707263389,0.6208791208791209,0.4373423044575273,1197.0
873.0,1.710318258113119e+18,0.49216710182767626,0.4200913242009132,0.3254054054054054,0.5094155050134507,0.6307692307692307,0.447434819175778,1195.0
874.0,1.7103182581231237e+18,0.48172323759791125,0.432648401826484,0.3308108108108108,0.504279775006114,0.6186813186813187,0.4381833473507149,1197.0
875.0,1.7103182581331185e+18,0.4765013054830287,0.4132420091324201,0.33297297297297296,0.5028124235754463,0.634065934065934,0.4449116904962153,1194.0
876.0,1.71031825814312e+18,0.4765013054830287,0.4280821917808219,0.33945945945945943,0.5057471264367817,0.6186813186813187,0.42977291841883936,1194.0
877.0,1.7103182581531323e+18,0.47127937336814624,0.3961187214611872,0.3302702702702703,0.5006113964294449,0.6362637362637362,0.4482758620689655,1197.0
878.0,1.7103182581631393e+18,0.4830287206266319,0.4406392694063927,0.34756756756756757,0.5121056493030081,0.6230769230769231,0.432296047098402,1193.0
879.0,1.7103182581731282e+18,0.4856396866840731,0.4052511415525114,0.3318918918918919,0.504524333577892,0.6285714285714286,0.4465937762825904,1195.0
880.0,1.710318258183198e+18,0.4412532637075718,0.3904109589041096,0.3389189189189189,0.499877720714111,0.6142857142857143,0.4280908326324643,1194.0
881.0,1.7103182581931182e+18,0.47389033942558745,0.4052511415525114,0.33135135135135135,0.5047688921496698,0.6362637362637362,0.4499579478553406,1195.0
882.0,1.710318258203129e+18,0.4765013054830287,0.4246575342465753,0.33837837837837836,0.5064808021521154,0.6065934065934065,0.4280908326324643,1193.0
883.0,1.710318258213123e+18,0.46866840731070497,0.4018264840182648,0.3372972972972973,0.4896062606994375,0.6175824175824176,0.44575273338940286,1194.0
884.0,1.710318258223174e+18,0.4699738903394256,0.4178082191780822,0.3389189189189189,0.5157740278796772,0.6373626373626373,0.4280908326324643,1192.0
885.0,1.7103182582331256e+18,0.46475195822454307,0.4041095890410959,0.34324324324324323,0.48618244069454636,0.6054945054945055,0.4440706476030278,1198.0
886.0,1.710318258243119e+18,0.48172323759791125,0.430365296803653,0.3372972972972973,0.5074590364392272,0.6307692307692307,0.43313708999158956,1194.0
887.0,1.7103182582531244e+18,0.4660574412532637,0.3926940639269406,0.3081081081081081,0.5015896307165566,0.6318681318681318,0.45164003364171573,1198.0
888.0,1.7103182582631844e+18,0.4516971279373368,0.410958904109589,0.34054054054054056,0.495964783565664,0.5989010989010989,0.4222035323801514,1197.0
889.0,1.7103182582731256e+18,0.46475195822454307,0.4178082191780822,0.3362162162162162,0.504035216434336,0.6384615384615384,0.44911690496215306,1197.0
890.0,1.710318258283169e+18,0.49738903394255873,0.4726027397260274,0.34702702702702704,0.5135730007336757,0.6395604395604395,0.4348191757779647,1196.0
891.0,1.7103182582931185e+18,0.47780678851174935,0.3995433789954338,0.3286486486486486,0.5084372707263389,0.6351648351648351,0.44911690496215306,1196.0
892.0,1.7103182583031708e+18,0.45430809399477806,0.4143835616438356,0.34594594594594597,0.5069699192956714,0.634065934065934,0.43902439024390244,1196.0
893.0,1.7103182583131244e+18,0.4699738903394256,0.4052511415525114,0.3281081081081081,0.5103937393005625,0.6461538461538462,0.4482758620689655,1196.0
894.0,1.7103182583231695e+18,0.49216710182767626,0.4280821917808219,0.3464864864864865,0.5074590364392272,0.6274725274725275,0.4381833473507149,1196.0
895.0,1.7103182583331267e+18,0.47127937336814624,0.4075342465753425,0.34216216216216216,0.4984103692834434,0.6417582417582418,0.45164003364171573,1195.0
896.0,1.7103182583431706e+18,0.48433420365535246,0.4235159817351598,0.3345945945945946,0.504524333577892,0.6307692307692307,0.43566021867115223,1195.0
897.0,1.7103182583531264e+18,0.48433420365535246,0.4075342465753425,0.3362162162162162,0.48740523355343607,0.5923076923076923,0.43986543313709,1198.0
898.0,1.7103182583631654e+18,0.46475195822454307,0.4132420091324201,0.34054054054054056,0.49767669356810956,0.6241758241758242,0.43313708999158956,1193.0
899.0,1.7103182583732183e+18,0.4804177545691906,0.4178082191780822,0.3362162162162162,0.5015896307165566,0.6274725274725275,0.4449116904962153,1195.0
900.0,1.7103182583831636e+18,0.4751958224543081,0.454337899543379,0.34540540540540543,0.5194424064563463,0.6252747252747253,0.4289318755256518,1196.0
901.0,1.7103182583931103e+18,0.4804177545691906,0.4098173515981735,0.3232432432432432,0.5037906578625581,0.6395604395604395,0.4499579478553406,1194.0
902.0,1.7103182584031122e+18,0.47127937336814624,0.4292237442922374,0.33837837837837836,0.4886280264123258,0.5945054945054945,0.4255677039529016,1193.0
903.0,1.7103182584131151e+18,0.4621409921671018,0.408675799086758,0.3362162162162162,0.5011005135730008,0.6285714285714286,0.4465937762825904,1197.0
904.0,1.7103182584231142e+18,0.489556135770235,0.4452054794520548,0.33405405405405403,0.5033015407190022,0.6274725274725275,0.4339781328847771,1193.0
905.0,1.710318258433156e+18,0.4621409921671018,0.4041095890410959,0.3362162162162162,0.48985081927121543,0.6197802197802198,0.4449116904962153,1194.0
906.0,1.710318258443158e+18,0.46866840731070497,0.4257990867579909,0.3362162162162162,0.49474199070677427,0.6076923076923076,0.42977291841883936,1194.0
907.0,1.7103182584531139e+18,0.47911227154047,0.4143835616438356,0.32216216216216215,0.49107361213010514,0.6043956043956044,0.4449116904962153,1198.0
908.0,1.7103182584631672e+18,0.47911227154047,0.4257990867579909,0.3362162162162162,0.5113719735876743,0.6450549450549451,0.4381833473507149,1197.0
909.0,1.710318258473161e+18,0.4765013054830287,0.4132420091324201,0.3362162162162162,0.504524333577892,0.6318681318681318,0.44575273338940286,1196.0
910.0,1.710318258483162e+18,0.4608355091383812,0.4223744292237443,0.33405405405405403,0.5079481535827831,0.6296703296703297,0.43313708999158956,1195.0
911.0,1.710318258493144e+18,0.4869451697127937,0.4257990867579909,0.34324324324324323,0.49400831499144043,0.6307692307692307,0.4507989907485282,1197.0
912.0,1.710318258503111e+18,0.48825065274151436,0.4417808219178082,0.3389189189189189,0.499877720714111,0.6175824175824176,0.4348191757779647,1196.0
913.0,1.7103182585131128e+18,0.4908616187989556,0.4029680365296804,0.3286486486486486,0.5050134507214478,0.6384615384615384,0.45164003364171573,1197.0
914.0,1.7103182585231608e+18,0.4725848563968668,0.4212328767123288,0.3291891891891892,0.49767669356810956,0.6098901098901099,0.42977291841883936,1194.0
915.0,1.7103182585331569e+18,0.48825065274151436,0.4360730593607306,0.35135135135135137,0.5140621178772316,0.6505494505494506,0.44911690496215306,1195.0
916.0,1.7103182585431596e+18,0.47127937336814624,0.4200913242009132,0.34162162162162163,0.5047688921496698,0.6307692307692307,0.4381833473507149,1197.0
917.0,1.7103182585531546e+18,0.47911227154047,0.4178082191780822,0.3210810810810811,0.491807287845439,0.6098901098901099,0.4440706476030278,1195.0
918.0,1.7103182585631565e+18,0.4830287206266319,0.4246575342465753,0.3345945945945946,0.5015896307165566,0.6406593406593407,0.4339781328847771,1193.0
919.0,1.710318258573172e+18,0.46866840731070497,0.3984018264840183,0.33405405405405403,0.5077035950110051,0.6384615384615384,0.4482758620689655,1195.0
920.0,1.7103182585831526e+18,0.4765013054830287,0.4269406392694064,0.3318918918918919,0.5108828564441183,0.6274725274725275,0.43313708999158956,1193.0
921.0,1.7103182585931538e+18,0.4621409921671018,0.3949771689497717,0.34054054054054056,0.48936170212765956,0.6318681318681318,0.4465937762825904,1197.0
922.0,1.710318258603154e+18,0.47389033942558745,0.4178082191780822,0.3345945945945946,0.5128393250183418,0.6406593406593407,0.4348191757779647,1195.0
923.0,1.710318258613155e+18,0.4856396866840731,0.4018264840182648,0.3372972972972973,0.4969430178527757,0.6384615384615384,0.4465937762825904,1196.0
924.0,1.7103182586231572e+18,0.4830287206266319,0.4269406392694064,0.3389189189189189,0.4966984592809978,0.6098901098901099,0.43566021867115223,1196.0
925.0,1.7103182586331512e+18,0.4595300261096606,0.3961187214611872,0.3345945945945946,0.5033015407190022,0.610989010989011,0.44070647603027757,1195.0
926.0,1.7103182586431603e+18,0.4830287206266319,0.4280821917808219,0.34486486486486484,0.4969430178527757,0.6065934065934065,0.432296047098402,1194.0
927.0,1.7103182586531497e+18,0.48825065274151436,0.4178082191780822,0.33675675675675676,0.49498654927855223,0.6230769230769231,0.4465937762825904,1196.0
928.0,1.7103182586631593e+18,0.46475195822454307,0.4383561643835616,0.3302702702702703,0.4937637564196625,0.5956043956043956,0.432296047098402,1193.0
929.0,1.7103182586731471e+18,0.48172323759791125,0.4029680365296804,0.32432432432432434,0.4944974321349963,0.6230769230769231,0.447434819175778,1197.0
930.0,1.7103182586831442e+18,0.4804177545691906,0.4315068493150685,0.34162162162162163,0.5064808021521154,0.6263736263736264,0.4339781328847771,1193.0
931.0,1.710318258693148e+18,0.4725848563968668,0.3961187214611872,0.3362162162162162,0.5074590364392272,0.6329670329670329,0.4432296047098402,1197.0
932.0,1.710318258703156e+18,0.48433420365535246,0.4178082191780822,0.3410810810810811,0.5057471264367817,0.6274725274725275,0.432296047098402,1196.0
933.0,1.7103182587131487e+18,0.4660574412532637,0.3904109589041096,0.33405405405405403,0.4937637564196625,0.634065934065934,0.44575273338940286,1196.0
934.0,1.7103182587231613e+18,0.47911227154047,0.4269406392694064,0.34216216216216216,0.5084372707263389,0.6054945054945055,0.4306139613120269,1194.0
935.0,1.7103182587331405e+18,0.47911227154047,0.4223744292237443,0.3362162162162162,0.4996331621423331,0.6021978021978022,0.44238856181665265,1194.0
936.0,1.710318258743155e+18,0.4751958224543081,0.4189497716894977,0.3308108108108108,0.5101491807287846,0.6351648351648351,0.43313708999158956,1196.0
937.0,1.7103182587531428e+18,0.48172323759791125,0.4269406392694064,0.33405405405405403,0.5006113964294449,0.6241758241758242,0.4449116904962153,1198.0
938.0,1.7103182587631393e+18,0.47780678851174935,0.4269406392694064,0.34486486486486484,0.5094155050134507,0.6274725274725275,0.4314550042052145,1193.0
939.0,1.7103182587731372e+18,0.4608355091383812,0.3767123287671233,0.3324324324324324,0.4988994864269993,0.6252747252747253,0.4449116904962153,1196.0
940.0,1.710318258783138e+18,0.47911227154047,0.4200913242009132,0.34054054054054056,0.4888725849841037,0.6241758241758242,0.43650126156433977,1197.0
941.0,1.7103182587931564e+18,0.47911227154047,0.410958904109589,0.32756756756756755,0.5113719735876743,0.621978021978022,0.4415475189234651,1197.0
942.0,1.710318258803143e+18,0.4725848563968668,0.4121004566210046,0.3335135135135135,0.49205184641721694,0.5857142857142857,0.4255677039529016,1193.0
943.0,1.710318258813139e+18,0.46475195822454307,0.4041095890410959,0.33783783783783783,0.5015896307165566,0.6274725274725275,0.447434819175778,1197.0
944.0,1.710318258823176e+18,0.4830287206266319,0.4269406392694064,0.3232432432432432,0.5035460992907801,0.6098901098901099,0.4339781328847771,1193.0
945.0,1.7103182588331407e+18,0.4725848563968668,0.4178082191780822,0.33513513513513515,0.49767669356810956,0.6428571428571429,0.4499579478553406,1196.0
946.0,1.7103182588431375e+18,0.4830287206266319,0.4223744292237443,0.3216216216216216,0.5028124235754463,0.6274725274725275,0.432296047098402,1194.0
947.0,1.7103182588531325e+18,0.46344647519582244,0.4075342465753425,0.33297297297297296,0.48642699926632427,0.6197802197802198,0.4499579478553406,1197.0
948.0,1.710318258863176e+18,0.4660574412532637,0.408675799086758,0.33513513513513515,0.5243335778919052,0.6494505494505495,0.4339781328847771,1193.0
949.0,1.710318258873134e+18,0.4660574412532637,0.4143835616438356,0.3362162162162162,0.5108828564441183,0.6494505494505495,0.45248107653490327,1195.0
950.0,1.7103182588831388e+18,0.45039164490861616,0.3881278538812785,0.33675675675675676,0.5023233064318905,0.6197802197802198,0.4314550042052145,1194.0
951.0,1.7103182588931395e+18,0.4869451697127937,0.4235159817351598,0.34756756756756757,0.5069699192956714,0.6362637362637362,0.4449116904962153,1196.0
952.0,1.7103182589031626e+18,0.4869451697127937,0.4269406392694064,0.3389189189189189,0.5118610907312301,0.6296703296703297,0.4381833473507149,1197.0
953.0,1.7103182589131364e+18,0.47911227154047,0.4098173515981735,0.33783783783783783,0.5047688921496698,0.6417582417582418,0.4507989907485282,1198.0
954.0,1.7103182589231352e+18,0.48172323759791125,0.4178082191780822,0.3232432432432432,0.5094155050134507,0.6395604395604395,0.4339781328847771,1193.0
955.0,1.710318258933138e+18,0.4621409921671018,0.4200913242009132,0.34216216216216216,0.499877720714111,0.6164835164835165,0.4432296047098402,1196.0
956.0,1.7103182589431685e+18,0.46866840731070497,0.4223744292237443,0.33675675675675676,0.48911714355588165,0.6054945054945055,0.43313708999158956,1193.0
957.0,1.7103182589531415e+18,0.4725848563968668,0.4052511415525114,0.33945945945945943,0.49645390070921985,0.6175824175824176,0.4482758620689655,1198.0
958.0,1.710318258963138e+18,0.4869451697127937,0.4189497716894977,0.33513513513513515,0.5106382978723404,0.6406593406593407,0.43650126156433977,1196.0
959.0,1.7103182589731287e+18,0.46475195822454307,0.4063926940639269,0.31405405405405407,0.504035216434336,0.6274725274725275,0.43986543313709,1196.0
960.0,1.7103182589831741e+18,0.48172323759791125,0.4269406392694064,0.33405405405405403,0.5057471264367817,0.621978021978022,0.42977291841883936,1196.0
961.0,1.7103182589931315e+18,0.4765013054830287,0.4075342465753425,0.3362162162162162,0.5077035950110051,0.6483516483516484,0.4507989907485282,1196.0
962.0,1.7103182590031252e+18,0.47127937336814624,0.4121004566210046,0.33297297297297296,0.48789435069699194,0.6010989010989011,0.42640874684608915,1193.0
963.0,1.7103182590131282e+18,0.47780678851174935,0.4178082191780822,0.3372972972972973,0.5033015407190022,0.6329670329670329,0.4449116904962153,1197.0
964.0,1.710318259023126e+18,0.48172323759791125,0.4178082191780822,0.32972972972972975,0.49400831499144043,0.5846153846153846,0.4247266610597141,1195.0
965.0,1.7103182590331254e+18,0.4608355091383812,0.4006849315068493,0.34,0.5020787478601125,0.6329670329670329,0.4432296047098402,1197.0
966.0,1.7103182590431288e+18,0.4765013054830287,0.4383561643835616,0.3491891891891892,0.4986549278552213,0.6175824175824176,0.4314550042052145,1195.0
967.0,1.7103182590531233e+18,0.47127937336814624,0.4292237442922374,0.3172972972972973,0.5074590364392272,0.6505494505494506,0.45164003364171573,1197.0
968.0,1.7103182590631332e+18,0.48825065274151436,0.4452054794520548,0.34054054054054056,0.5103937393005625,0.6373626373626373,0.4348191757779647,1195.0
969.0,1.7103182590731284e+18,0.4804177545691906,0.4052511415525114,0.33513513513513515,0.4803130349718758,0.5967032967032967,0.4415475189234651,1196.0
970.0,1.710318259083127e+18,0.4830287206266319,0.4315068493150685,0.34756756756756757,0.508192712154561,0.6373626373626373,0.4348191757779647,1198.0
971.0,1.7103182590931453e+18,0.47780678851174935,0.410958904109589,0.3362162162162162,0.5001222792858889,0.6318681318681318,0.447434819175778,1196.0
972.0,1.7103182591031212e+18,0.47911227154047,0.4132420091324201,0.31513513513513514,0.4986549278552213,0.6175824175824176,0.432296047098402,1194.0
973.0,1.7103182591131272e+18,0.4765013054830287,0.4052511415525114,0.3345945945945946,0.5035460992907801,0.6131868131868132,0.4465937762825904,1197.0
974.0,1.7103182591231237e+18,0.4765013054830287,0.4143835616438356,0.3356756756756757,0.5106382978723404,0.6296703296703297,0.4348191757779647,1196.0
975.0,1.7103182591331236e+18,0.46344647519582244,0.3949771689497717,0.327027027027027,0.49767669356810956,0.6208791208791209,0.44575273338940286,1194.0
976.0,1.7103182591431304e+18,0.47911227154047,0.4189497716894977,0.32972972972972975,0.5213988750305698,0.6153846153846154,0.4306139613120269,1194.0
977.0,1.7103182591531292e+18,0.48172323759791125,0.410958904109589,0.3362162162162162,0.5133284421618978,0.6362637362637362,0.4482758620689655,1196.0
978.0,1.7103182591631258e+18,0.47911227154047,0.4189497716894977,0.33783783783783783,0.5006113964294449,0.6175824175824176,0.4280908326324643,1192.0
979.0,1.710318259173126e+18,0.48172323759791125,0.4200913242009132,0.33405405405405403,0.5015896307165566,0.6296703296703297,0.4465937762825904,1198.0
980.0,1.7103182591831252e+18,0.4699738903394256,0.4200913242009132,0.3324324324324324,0.5008559550012228,0.6142857142857143,0.432296047098402,1193.0
981.0,1.710318259193134e+18,0.47780678851174935,0.3972602739726027,0.33783783783783783,0.5028124235754463,0.6175824175824176,0.44575273338940286,1195.0
982.0,1.7103182592031288e+18,0.4830287206266319,0.4006849315068493,0.33405405405405403,0.4942528735632184,0.5901098901098901,0.4280908326324643,1190.0
983.0,1.7103182592131223e+18,0.47780678851174935,0.4155251141552511,0.3481081081081081,0.4979212521398875,0.6153846153846154,0.4440706476030278,1197.0
984.0,1.7103182592231222e+18,0.489556135770235,0.4474885844748858,0.34702702702702704,0.5089263878698949,0.6318681318681318,0.432296047098402,1194.0
985.0,1.7103182592331223e+18,0.4765013054830287,0.4212328767123288,0.3286486486486486,0.4984103692834434,0.6318681318681318,0.44911690496215306,1194.0
986.0,1.7103182592431227e+18,0.47911227154047,0.4143835616438356,0.3491891891891892,0.491807287845439,0.6065934065934065,0.4314550042052145,1195.0
987.0,1.7103182592531236e+18,0.4804177545691906,0.4178082191780822,0.3302702702702703,0.5001222792858889,0.6274725274725275,0.4465937762825904,1196.0
988.0,1.710318259263129e+18,0.4699738903394256,0.4337899543378995,0.3356756756756757,0.491562729273661,0.5967032967032967,0.4306139613120269,1195.0
989.0,1.7103182592731302e+18,0.4765013054830287,0.4006849315068493,0.3345945945945946,0.4781120078258743,0.6164835164835165,0.4432296047098402,1196.0
990.0,1.7103182592831347e+18,0.4608355091383812,0.3915525114155251,0.32,0.4937637564196625,0.5901098901098901,0.4247266610597141,1193.0
991.0,1.7103182592931569e+18,0.48172323759791125,0.4337899543378995,0.34702702702702704,0.48495964783565665,0.6307692307692307,0.4465937762825904,1195.0
992.0,1.7103182593031332e+18,0.4869451697127937,0.4452054794520548,0.34054054054054056,0.5101491807287846,0.6296703296703297,0.4348191757779647,1196.0
993.0,1.7103182593131203e+18,0.4751958224543081,0.3949771689497717,0.3227027027027027,0.5011005135730008,0.6406593406593407,0.45164003364171573,1197.0
994.0,1.7103182593231214e+18,0.489556135770235,0.4440639269406393,0.3491891891891892,0.5025678650036683,0.634065934065934,0.4440706476030278,1196.0
995.0,1.7103182593331236e+18,0.4765013054830287,0.4052511415525114,0.34162162162162163,0.5035460992907801,0.6406593406593407,0.4449116904962153,1195.0
996.0,1.7103182593431222e+18,0.45691906005221933,0.4315068493150685,0.3324324324324324,0.5077035950110051,0.6318681318681318,0.43650126156433977,1198.0
997.0,1.7103182593531336e+18,0.47127937336814624,0.4075342465753425,0.33405405405405403,0.504524333577892,0.6318681318681318,0.4482758620689655,1198.0
998.0,1.710318259363133e+18,0.4830287206266319,0.4406392694063927,0.3491891891891892,0.48789435069699194,0.5956043956043956,0.432296047098402,1194.0
999.0,1.710318259373137e+18,0.47127937336814624,0.4029680365296804,0.3335135135135135,0.5037906578625581,0.6329670329670329,0.447434819175778,1195.0
