202.0,1.7109208073045947e+18,0.47389033942558745,0.4223744292237443,0.33405405405405403,0.5023233064318905,0.6329670329670329,0.44575273338940286,1193.0
203.0,1.710920807314589e+18,0.47780678851174935,0.3915525114155251,0.30864864864864866,0.4986549278552213,0.6098901098901099,0.42977291841883936,1192.0
204.0,1.7109208073245898e+18,0.4699738903394256,0.4143835616438356,0.3286486486486486,0.495964783565664,0.6142857142857143,0.4432296047098402,1194.0
205.0,1.7109208073345915e+18,0.4725848563968668,0.408675799086758,0.312972972972973,0.5006113964294449,0.6175824175824176,0.4314550042052145,1192.0
206.0,1.7109208073446118e+18,0.47911227154047,0.4269406392694064,0.3362162162162162,0.5037906578625581,0.6362637362637362,0.44575273338940286,1196.0
207.0,1.710920807354591e+18,0.4804177545691906,0.4132420091324201,0.3237837837837838,0.49938860357055515,0.6164835164835165,0.43313708999158956,1194.0
208.0,1.710920807364592e+18,0.46344647519582244,0.4223744292237443,0.33837837837837836,0.5028124235754463,0.6362637362637362,0.4415475189234651,1194.0
209.0,1.7109208073745917e+18,0.47127937336814624,0.4063926940639269,0.33297297297297296,0.49767669356810956,0.6153846153846154,0.4314550042052145,1195.0
210.0,1.7109208073845924e+18,0.46866840731070497,0.4098173515981735,0.3362162162162162,0.4988994864269993,0.6329670329670329,0.4465937762825904,1195.0
211.0,1.7109208073945925e+18,0.47127937336814624,0.3995433789954338,0.33513513513513515,0.5015896307165566,0.6197802197802198,0.4280908326324643,1193.0
212.0,1.7109208074045942e+18,0.47127937336814624,0.4212328767123288,0.33837837837837836,0.5018341892883346,0.6296703296703297,0.4415475189234651,1195.0
213.0,1.7109208074145938e+18,0.4765013054830287,0.4189497716894977,0.3335135135135135,0.5015896307165566,0.6230769230769231,0.43566021867115223,1195.0
214.0,1.7109208074245944e+18,0.4765013054830287,0.4178082191780822,0.3345945945945946,0.5001222792858889,0.6274725274725275,0.44238856181665265,1194.0
215.0,1.7109208074345774e+18,0.47389033942558745,0.4041095890410959,0.3286486486486486,0.5059916850085595,0.6285714285714286,0.43650126156433977,1195.0
216.0,1.7109208074445952e+18,0.4725848563968668,0.4246575342465753,0.3535135135135135,0.5035460992907801,0.6450549450549451,0.4449116904962153,1196.0
217.0,1.7109208074545784e+18,0.4765013054830287,0.410958904109589,0.3389189189189189,0.5035460992907801,0.6285714285714286,0.4373423044575273,1194.0
218.0,1.7109208074645783e+18,0.4725848563968668,0.4132420091324201,0.3291891891891892,0.5013450721447786,0.6329670329670329,0.44238856181665265,1193.0
219.0,1.7109208074745784e+18,0.4765013054830287,0.4121004566210046,0.32594594594594595,0.49498654927855223,0.5989010989010989,0.42977291841883936,1193.0
220.0,1.710920807484579e+18,0.47127937336814624,0.4132420091324201,0.3281081081081081,0.5057471264367817,0.6538461538461539,0.44911690496215306,1195.0
221.0,1.7109208074945795e+18,0.4699738903394256,0.4155251141552511,0.3232432432432432,0.4888725849841037,0.589010989010989,0.4289318755256518,1194.0
222.0,1.71092080750458e+18,0.47389033942558745,0.4189497716894977,0.34162162162162163,0.5037906578625581,0.634065934065934,0.44238856181665265,1195.0
223.0,1.710920807514578e+18,0.4725848563968668,0.4063926940639269,0.33675675675675676,0.5011005135730008,0.6197802197802198,0.4339781328847771,1190.0
224.0,1.7109208075245683e+18,0.4725848563968668,0.4246575342465753,0.33135135135135135,0.5028124235754463,0.634065934065934,0.4432296047098402,1196.0
225.0,1.7109208075345754e+18,0.4765013054830287,0.4098173515981735,0.3324324324324324,0.5028124235754463,0.6230769230769231,0.43566021867115223,1195.0
226.0,1.710920807544583e+18,0.4804177545691906,0.4098173515981735,0.3335135135135135,0.508192712154561,0.6406593406593407,0.4449116904962153,1195.0
227.0,1.7109208075546004e+18,0.4425587467362924,0.3892694063926941,0.3286486486486486,0.491807287845439,0.5978021978021978,0.4280908326324643,1192.0
228.0,1.7109208075645798e+18,0.5026109660574413,0.4360730593607306,0.3372972972972973,0.5011005135730008,0.6362637362637362,0.4482758620689655,1195.0
229.0,1.7109208075745802e+18,0.49738903394255873,0.4577625570776256,0.3443243243243243,0.495720224993886,0.6098901098901099,0.4314550042052145,1193.0
230.0,1.710920807584584e+18,0.4869451697127937,0.4166666666666667,0.3567567567567568,0.5064808021521154,0.6494505494505495,0.4541631623212784,1194.0
231.0,1.7109208075945807e+18,0.5195822454308094,0.4417808219178082,0.3410810810810811,0.504524333577892,0.6230769230769231,0.4449116904962153,1196.0
232.0,1.7109208076045821e+18,0.5026109660574413,0.4429223744292237,0.33837837837837836,0.4991440449987772,0.6263736263736264,0.43313708999158956,1192.0
233.0,1.7109208076145846e+18,0.47780678851174935,0.4006849315068493,0.3410810810810811,0.5011005135730008,0.6241758241758242,0.43566021867115223,1195.0
234.0,1.7109208076245793e+18,0.47780678851174935,0.4315068493150685,0.33837837837837836,0.5028124235754463,0.6373626373626373,0.4482758620689655,1194.0
235.0,1.71092080763459e+18,0.45822454308093996,0.4041095890410959,0.3308108108108108,0.5067253607238934,0.6318681318681318,0.432296047098402,1195.0
236.0,1.7109208076446098e+18,0.47389033942558745,0.4143835616438356,0.33513513513513515,0.5006113964294449,0.6285714285714286,0.44575273338940286,1195.0
237.0,1.7109208076546081e+18,0.4765013054830287,0.4235159817351598,0.34486486486486484,0.5008559550012228,0.6175824175824176,0.43313708999158956,1192.0
238.0,1.7109208076645786e+18,0.46866840731070497,0.4189497716894977,0.35027027027027025,0.5025678650036683,0.6318681318681318,0.44575273338940286,1194.0
239.0,1.710920807674575e+18,0.489556135770235,0.4132420091324201,0.3362162162162162,0.504279775006114,0.6175824175824176,0.42977291841883936,1194.0
240.0,1.710920807684588e+18,0.47911227154047,0.4223744292237443,0.3427027027027027,0.5062362435803375,0.6175824175824176,0.4432296047098402,1196.0
241.0,1.710920807694586e+18,0.4765013054830287,0.4212328767123288,0.3286486486486486,0.5059916850085595,0.6252747252747253,0.4373423044575273,1196.0
242.0,1.7109208077045883e+18,0.49477806788511747,0.4680365296803653,0.3545945945945946,0.5067253607238934,0.6626373626373626,0.45164003364171573,1194.0
243.0,1.7109208077145833e+18,0.46475195822454307,0.4052511415525114,0.3308108108108108,0.5018341892883346,0.6285714285714286,0.43986543313709,1192.0
244.0,1.7109208077245809e+18,0.4830287206266319,0.4337899543378995,0.3427027027027027,0.5006113964294449,0.6285714285714286,0.4449116904962153,1197.0
245.0,1.7109208077346273e+18,0.45822454308093996,0.3995433789954338,0.3345945945945946,0.5025678650036683,0.6230769230769231,0.43313708999158956,1194.0
246.0,1.7109208077445796e+18,0.4608355091383812,0.3915525114155251,0.32594594594594595,0.5035460992907801,0.6307692307692307,0.44575273338940286,1194.0
247.0,1.7109208077546115e+18,0.4765013054830287,0.4063926940639269,0.33297297297297296,0.4991440449987772,0.6120879120879121,0.43313708999158956,1193.0
248.0,1.7109208077645832e+18,0.4765013054830287,0.4200913242009132,0.3464864864864865,0.5047688921496698,0.6373626373626373,0.4465937762825904,1194.0
249.0,1.710920807774582e+18,0.4725848563968668,0.4155251141552511,0.3389189189189189,0.5035460992907801,0.6263736263736264,0.4339781328847771,1193.0
250.0,1.7109208077845898e+18,0.46344647519582244,0.3904109589041096,0.31891891891891894,0.4969430178527757,0.6395604395604395,0.4465937762825904,1193.0
251.0,1.7109208077945702e+18,0.4869451697127937,0.4246575342465753,0.33405405405405403,0.5018341892883346,0.6241758241758242,0.4339781328847771,1192.0
252.0,1.710920807804584e+18,0.47780678851174935,0.4223744292237443,0.33675675675675676,0.5050134507214478,0.6307692307692307,0.4432296047098402,1195.0
253.0,1.710920807814581e+18,0.47780678851174935,0.4098173515981735,0.33945945945945943,0.5057471264367817,0.6296703296703297,0.43313708999158956,1191.0
254.0,1.710920807824578e+18,0.47780678851174935,0.4212328767123288,0.33783783783783783,0.5018341892883346,0.6318681318681318,0.44575273338940286,1197.0
255.0,1.7109208078345853e+18,0.42689295039164493,0.4052511415525114,0.3356756756756757,0.4996331621423331,0.6131868131868132,0.4339781328847771,1195.0
256.0,1.7109208078445734e+18,0.4830287206266319,0.4098173515981735,0.33675675675675676,0.5020787478601125,0.6274725274725275,0.44238856181665265,1193.0
257.0,1.710920807854584e+18,0.47911227154047,0.4063926940639269,0.3302702702702703,0.5020787478601125,0.6230769230769231,0.4339781328847771,1194.0
258.0,1.710920807864584e+18,0.4830287206266319,0.3995433789954338,0.32216216216216215,0.5023233064318905,0.6285714285714286,0.4289318755256518,1193.0
259.0,1.7109208078745823e+18,0.45822454308093996,0.3835616438356164,0.3291891891891892,0.49229640498899485,0.5967032967032967,0.43650126156433977,1195.0
260.0,1.7109208078845855e+18,0.4308093994778068,0.3995433789954338,0.34216216216216216,0.5033015407190022,0.6373626373626373,0.4465937762825904,1194.0
261.0,1.71092080789459e+18,0.46344647519582244,0.4041095890410959,0.32756756756756755,0.5074590364392272,0.6307692307692307,0.4280908326324643,1193.0
262.0,1.7109208079045793e+18,0.48172323759791125,0.4680365296803653,0.31891891891891894,0.48520420640743456,0.5813186813186814,0.4449116904962153,1195.0
263.0,1.710920807914579e+18,0.4621409921671018,0.4041095890410959,0.33837837837837836,0.5138175593054537,0.6362637362637362,0.4280908326324643,1190.0
264.0,1.710920807924579e+18,0.4804177545691906,0.4063926940639269,0.32756756756756755,0.487649792125214,0.567032967032967,0.4306139613120269,1193.0
265.0,1.710920807934588e+18,0.49477806788511747,0.4520547945205479,0.34162162162162163,0.495720224993886,0.6318681318681318,0.4449116904962153,1196.0
266.0,1.7109208079445796e+18,0.49216710182767626,0.4360730593607306,0.3427027027027027,0.4744436292492052,0.5945054945054945,0.42640874684608915,1191.0
267.0,1.7109208079545838e+18,0.5130548302872062,0.3778538812785388,0.31675675675675674,0.4988994864269993,0.6164835164835165,0.39781328847771236,1191.0
268.0,1.7109208079646e+18,0.54177545691906,0.4691780821917808,0.31675675675675674,0.5018341892883346,0.6285714285714286,0.4415475189234651,1197.0
269.0,1.7109208079745838e+18,0.5026109660574413,0.4406392694063927,0.3372972972972973,0.5035460992907801,0.6318681318681318,0.4432296047098402,1196.0
270.0,1.7109208079845842e+18,0.4699738903394256,0.4223744292237443,0.34324324324324323,0.5052580092932257,0.6296703296703297,0.4440706476030278,1197.0
271.0,1.710920807994564e+18,0.45300261096605743,0.3915525114155251,0.33297297297297296,0.520665199315236,0.610989010989011,0.4095878889823381,1192.0
272.0,1.7109208080045798e+18,0.4451697127937337,0.4018264840182648,0.3362162162162162,0.5160185864514552,0.6703296703296703,0.45836837678721615,1196.0
273.0,1.7109208080145807e+18,0.4451697127937337,0.3995433789954338,0.33405405405405403,0.504524333577892,0.6197802197802198,0.4381833473507149,1196.0
274.0,1.7109208080245821e+18,0.4347258485639687,0.3242009132420091,0.3254054054054054,0.5059916850085595,0.6296703296703297,0.4381833473507149,1196.0
275.0,1.7109208080345828e+18,0.47389033942558745,0.4178082191780822,0.3281081081081081,0.5055025678650037,0.6274725274725275,0.42977291841883936,1194.0
276.0,1.710920808044588e+18,0.5117493472584856,0.4280821917808219,0.3324324324324324,0.504035216434336,0.6285714285714286,0.43650126156433977,1194.0
277.0,1.71092080805458e+18,0.48172323759791125,0.4178082191780822,0.3216216216216216,0.48691611640988014,0.5901098901098901,0.43566021867115223,1194.0
278.0,1.7109208080646042e+18,0.49738903394255873,0.4098173515981735,0.3210810810810811,0.5052580092932257,0.6527472527472528,0.456686291000841,1195.0
279.0,1.7109208080745828e+18,0.48172323759791125,0.4315068493150685,0.32756756756756755,0.49498654927855223,0.6087912087912087,0.39781328847771236,1189.0
280.0,1.710920808084592e+18,0.49216710182767626,0.478310502283105,0.34162162162162163,0.49767669356810956,0.6197802197802198,0.4339781328847771,1192.0
281.0,1.7109208080945777e+18,0.49216710182767626,0.4452054794520548,0.33783783783783783,0.4859378821227684,0.5978021978021978,0.4280908326324643,1193.0
282.0,1.7109208081045824e+18,0.489556135770235,0.432648401826484,0.32972972972972975,0.5096600635852286,0.6461538461538462,0.4482758620689655,1193.0
283.0,1.7109208081145797e+18,0.47389033942558745,0.4075342465753425,0.3302702702702703,0.5008559550012228,0.6098901098901099,0.4053826745164003,1190.0
284.0,1.7109208081245827e+18,0.4255874673629243,0.4155251141552511,0.3362162162162162,0.4969430178527757,0.6186813186813187,0.432296047098402,1191.0
285.0,1.7109208081345782e+18,0.4765013054830287,0.4269406392694064,0.3410810810810811,0.5025678650036683,0.6274725274725275,0.4280908326324643,1192.0
286.0,1.7109208081445878e+18,0.46866840731070497,0.4098173515981735,0.2972972972972973,0.5047688921496698,0.6296703296703297,0.43650126156433977,1193.0
287.0,1.7109208081545825e+18,0.49869451697127937,0.4840182648401826,0.3324324324324324,0.495720224993886,0.6098901098901099,0.4482758620689655,1196.0
288.0,1.7109208081645821e+18,0.4934725848563969,0.4474885844748858,0.3518918918918919,0.4988994864269993,0.6417582417582418,0.4558452481076535,1195.0
289.0,1.7109208081745987e+18,0.4308093994778068,0.386986301369863,0.32594594594594595,0.5113719735876743,0.6626373626373626,0.4465937762825904,1196.0
290.0,1.710920808184585e+18,0.41906005221932113,0.3938356164383562,0.32972972972972975,0.5028124235754463,0.6362637362637362,0.447434819175778,1195.0
291.0,1.71092080819457e+18,0.489556135770235,0.4052511415525114,0.3308108108108108,0.512350207874786,0.6494505494505495,0.4701429772918419,1194.0
292.0,1.7109208082045565e+18,0.40339425587467365,0.4155251141552511,0.3362162162162162,0.49816581071166544,0.6175824175824176,0.44575273338940286,1195.0
293.0,1.7109208082145805e+18,0.47127937336814624,0.3858447488584475,0.3427027027027027,0.4883834678405478,0.5978021978021978,0.45500420521446594,1196.0
294.0,1.7109208082246026e+18,0.489556135770235,0.4006849315068493,0.34702702702702704,0.5079481535827831,0.6472527472527473,0.4499579478553406,1193.0
295.0,1.7109208082345715e+18,0.4412532637075718,0.3904109589041096,0.32594594594594595,0.49767669356810956,0.6120879120879121,0.4121110176619008,1193.0
296.0,1.7109208082445783e+18,0.4660574412532637,0.363013698630137,0.3302702702702703,0.4810467106872096,0.6,0.4188393608074012,1193.0
297.0,1.7109208082545856e+18,0.5182767624020888,0.521689497716895,0.34486486486486484,0.5270237221814624,0.6505494505494506,0.4592094196804037,1196.0
298.0,1.710920808264583e+18,0.4164490861618799,0.384703196347032,0.3248648648648649,0.49816581071166544,0.610989010989011,0.42052144659377627,1194.0
299.0,1.710920808274591e+18,0.4660574412532637,0.410958904109589,0.32054054054054054,0.5103937393005625,0.6274725274725275,0.43566021867115223,1195.0
300.0,1.710920808284576e+18,0.4216710182767624,0.3607305936073059,0.31027027027027027,0.4984103692834434,0.6296703296703297,0.4449116904962153,1196.0
301.0,1.7109208082945807e+18,0.4830287206266319,0.4257990867579909,0.3372972972972973,0.4883834678405478,0.6142857142857143,0.42640874684608915,1193.0
302.0,1.7109208083045824e+18,0.48825065274151436,0.408675799086758,0.34702702702702704,0.5174859378821227,0.6516483516483517,0.4667788057190917,1196.0
303.0,1.710920808314579e+18,0.48433420365535246,0.384703196347032,0.34054054054054056,0.5015896307165566,0.6186813186813187,0.4247266610597141,1192.0
304.0,1.7109208083245852e+18,0.45300261096605743,0.3995433789954338,0.32756756756756755,0.4896062606994375,0.6197802197802198,0.3936080740117746,1193.0
305.0,1.710920808334584e+18,0.49216710182767626,0.3595890410958904,0.3286486486486486,0.5020787478601125,0.6098901098901099,0.43650126156433977,1194.0
306.0,1.7109208083445827e+18,0.4804177545691906,0.4246575342465753,0.3324324324324324,0.5103937393005625,0.6483516483516484,0.4701429772918419,1195.0
307.0,1.710920808354586e+18,0.4660574412532637,0.4269406392694064,0.3302702702702703,0.48642699926632427,0.5835164835164836,0.407905803195963,1192.0
308.0,1.7109208083645824e+18,0.5391644908616188,0.4178082191780822,0.3335135135135135,0.5101491807287846,0.6582417582417582,0.46509671993271656,1196.0
309.0,1.710920808374584e+18,0.5039164490861618,0.4863013698630137,0.3518918918918919,0.5069699192956714,0.6351648351648351,0.4280908326324643,1193.0
310.0,1.71092080838457e+18,0.46344647519582244,0.4018264840182648,0.33135135135135135,0.49229640498899485,0.6175824175824176,0.43902439024390244,1196.0
311.0,1.7109208083945856e+18,0.4765013054830287,0.4212328767123288,0.34,0.5037906578625581,0.6318681318681318,0.4449116904962153,1197.0
312.0,1.7109208084045814e+18,0.45691906005221933,0.4178082191780822,0.3410810810810811,0.5059916850085595,0.643956043956044,0.45500420521446594,1196.0
313.0,1.7109208084145818e+18,0.4765013054830287,0.4075342465753425,0.31891891891891894,0.466862313524089,0.5791208791208792,0.4238856181665265,1193.0
314.0,1.7109208084245809e+18,0.4856396866840731,0.4018264840182648,0.33405405405405403,0.5079481535827831,0.6395604395604395,0.4482758620689655,1195.0
315.0,1.7109208084345805e+18,0.4869451697127937,0.4417808219178082,0.34540540540540543,0.5116165321594522,0.6208791208791209,0.43650126156433977,1198.0
316.0,1.7109208084445847e+18,0.49477806788511747,0.4041095890410959,0.32216216216216215,0.504035216434336,0.6373626373626373,0.4558452481076535,1195.0
317.0,1.7109208084545838e+18,0.5091383812010444,0.5319634703196348,0.33675675675675676,0.5008559550012228,0.6186813186813187,0.4255677039529016,1194.0
318.0,1.7109208084645824e+18,0.4412532637075718,0.3915525114155251,0.33675675675675676,0.5106382978723404,0.6461538461538462,0.45500420521446594,1194.0
319.0,1.710920808474587e+18,0.42036553524804177,0.3710045662100457,0.3281081081081081,0.4803130349718758,0.5989010989010989,0.43566021867115223,1194.0
320.0,1.7109208084845842e+18,0.45300261096605743,0.3493150684931507,0.3281081081081081,0.5033015407190022,0.6318681318681318,0.4415475189234651,1193.0
321.0,1.7109208084945897e+18,0.4347258485639687,0.3561643835616438,0.3216216216216216,0.5157740278796772,0.6362637362637362,0.4314550042052145,1191.0
322.0,1.7109208085045873e+18,0.49738903394255873,0.4235159817351598,0.33297297297297296,0.4741990706774272,0.5428571428571428,0.45164003364171573,1196.0
323.0,1.7109208085146084e+18,0.4765013054830287,0.3778538812785388,0.3302702702702703,0.49229640498899485,0.6263736263736264,0.4381833473507149,1192.0
324.0,1.710920808524574e+18,0.4255874673629243,0.3915525114155251,0.3318918918918919,0.499877720714111,0.5912087912087912,0.38772077375946173,1192.0
325.0,1.710920808534581e+18,0.5039164490861618,0.4269406392694064,0.35243243243243244,0.5033015407190022,0.6186813186813187,0.4381833473507149,1194.0
326.0,1.7109208085445942e+18,0.4869451697127937,0.3687214611872146,0.3345945945945946,0.5035460992907801,0.6648351648351648,0.456686291000841,1195.0
327.0,1.7109208085545866e+18,0.43994778067885115,0.2899543378995434,0.3145945945945946,0.4443629249205185,0.5395604395604395,0.44575273338940286,1193.0
328.0,1.7109208085645875e+18,0.49477806788511747,0.4200913242009132,0.33675675675675676,0.5094155050134507,0.6714285714285714,0.46846089150546677,1195.0
329.0,1.710920808574587e+18,0.4725848563968668,0.4840182648401826,0.3091891891891892,0.4927855221325507,0.4956043956043956,0.3894028595458368,1193.0
330.0,1.7109208085845875e+18,0.4856396866840731,0.3995433789954338,0.33135135135135135,0.4988994864269993,0.6021978021978022,0.4415475189234651,1194.0
331.0,1.7109208085945874e+18,0.4725848563968668,0.3219178082191781,0.31675675675675674,0.5011005135730008,0.6406593406593407,0.479394449116905,1194.0
332.0,1.7109208086045893e+18,0.39556135770234985,0.2591324200913242,0.3016216216216216,0.4614820249449743,0.510989010989011,0.4020185029436501,1192.0
333.0,1.7109208086146043e+18,0.4856396866840731,0.4178082191780822,0.32972972972972975,0.5099046221570066,0.6505494505494506,0.4381833473507149,1197.0
334.0,1.7109208086245793e+18,0.45691906005221933,0.3995433789954338,0.3345945945945946,0.504279775006114,0.6285714285714286,0.44238856181665265,1196.0
335.0,1.7109208086345887e+18,0.4595300261096606,0.3949771689497717,0.3172972972972973,0.47542186353631694,0.5769230769230769,0.4415475189234651,1197.0
336.0,1.7109208086445906e+18,0.47911227154047,0.4189497716894977,0.34594594594594597,0.5096600635852286,0.654945054945055,0.456686291000841,1195.0
337.0,1.7109208086545925e+18,0.4725848563968668,0.3664383561643836,0.34702702702702704,0.5050134507214478,0.634065934065934,0.4381833473507149,1195.0
338.0,1.7109208086646065e+18,0.47389033942558745,0.3767123287671233,0.3302702702702703,0.487649792125214,0.589010989010989,0.4465937762825904,1195.0
339.0,1.7109208086746122e+18,0.48825065274151436,0.4257990867579909,0.33297297297297296,0.512350207874786,0.6615384615384615,0.4541631623212784,1195.0
340.0,1.7109208086845916e+18,0.4765013054830287,0.3915525114155251,0.3427027027027027,0.5069699192956714,0.6494505494505495,0.4339781328847771,1193.0
341.0,1.710920808694591e+18,0.4516971279373368,0.3687214611872146,0.33135135135135135,0.4781120078258743,0.5703296703296703,0.4129520605550883,1195.0
342.0,1.7109208087045916e+18,0.4856396866840731,0.3812785388127854,0.33297297297297296,0.5074590364392272,0.6406593406593407,0.4373423044575273,1194.0
343.0,1.7109208087145556e+18,0.4856396866840731,0.4052511415525114,0.33945945945945943,0.4937637564196625,0.6274725274725275,0.4819175777964676,1194.0
344.0,1.7109208087245942e+18,0.4007832898172324,0.3299086757990868,0.31405405405405407,0.45683541208119344,0.5340659340659341,0.4146341463414634,1190.0
345.0,1.7109208087345928e+18,0.40992167101827676,0.3995433789954338,0.34162162162162163,0.5011005135730008,0.6307692307692307,0.4465937762825904,1196.0
346.0,1.7109208087445793e+18,0.4934725848563969,0.4235159817351598,0.3356756756756757,0.5194424064563463,0.6538461538461539,0.4449116904962153,1192.0
347.0,1.7109208087545956e+18,0.4725848563968668,0.4417808219178082,0.33297297297297296,0.5133284421618978,0.6230769230769231,0.40117746005046256,1193.0
348.0,1.7109208087646026e+18,0.49869451697127937,0.4463470319634703,0.35567567567567565,0.5084372707263389,0.6747252747252748,0.456686291000841,1194.0
349.0,1.7109208087745987e+18,0.5026109660574413,0.4840182648401826,0.34486486486486484,0.5062362435803375,0.6406593406593407,0.4373423044575273,1193.0
350.0,1.7109208087845988e+18,0.5182767624020888,0.3812785388127854,0.3227027027027027,0.47933480068476403,0.5835164835164836,0.42640874684608915,1193.0
351.0,1.7109208087945807e+18,0.4751958224543081,0.3584474885844749,0.3232432432432432,0.5099046221570066,0.6175824175824176,0.4415475189234651,1194.0
352.0,1.710920808804598e+18,0.47911227154047,0.4063926940639269,0.32972972972972975,0.5284910736121301,0.6274725274725275,0.3986543313708999,1192.0
353.0,1.7109208088145684e+18,0.45300261096605743,0.4360730593607306,0.34756756756756757,0.5260454878943507,0.6659340659340659,0.4440706476030278,1195.0
354.0,1.7109208088246e+18,0.4621409921671018,0.3915525114155251,0.34054054054054056,0.5099046221570066,0.6472527472527473,0.4465937762825904,1195.0
355.0,1.7109208088345805e+18,0.5013054830287206,0.4611872146118721,0.34054054054054056,0.5094155050134507,0.6197802197802198,0.44238856181665265,1196.0
356.0,1.7109208088445967e+18,0.4595300261096606,0.3812785388127854,0.3427027027027027,0.5006113964294449,0.6296703296703297,0.4482758620689655,1195.0
357.0,1.7109208088546038e+18,0.47389033942558745,0.4029680365296804,0.33513513513513515,0.5062362435803375,0.6362637362637362,0.44575273338940286,1194.0
358.0,1.710920808864563e+18,0.48172323759791125,0.3915525114155251,0.3362162162162162,0.4966984592809978,0.6406593406593407,0.45500420521446594,1196.0
359.0,1.7109208088745848e+18,0.47389033942558745,0.3675799086757991,0.32756756756756755,0.4715089263878699,0.6098901098901099,0.4306139613120269,1193.0
360.0,1.7109208088845916e+18,0.46344647519582244,0.4200913242009132,0.33297297297297296,0.49082905355832723,0.6131868131868132,0.4415475189234651,1194.0
361.0,1.710920808894586e+18,0.49216710182767626,0.4360730593607306,0.3362162162162162,0.49938860357055515,0.6582417582417582,0.4482758620689655,1195.0
362.0,1.7109208089045896e+18,0.45822454308093996,0.454337899543379,0.34216216216216216,0.5133284421618978,0.6076923076923076,0.415475189234651,1192.0
363.0,1.7109208089145853e+18,0.402088772845953,0.3926940639269406,0.3427027027027027,0.512350207874786,0.6241758241758242,0.432296047098402,1192.0
364.0,1.7109208089245548e+18,0.4869451697127937,0.4178082191780822,0.34,0.5111274150158963,0.6406593406593407,0.432296047098402,1194.0
365.0,1.7109208089345882e+18,0.4934725848563969,0.4874429223744292,0.34054054054054056,0.5106382978723404,0.6406593406593407,0.3582842724978974,1193.0
366.0,1.7109208089445842e+18,0.47911227154047,0.4189497716894977,0.34756756756756757,0.5094155050134507,0.643956043956044,0.4465937762825904,1193.0
367.0,1.7109208089545805e+18,0.49738903394255873,0.4132420091324201,0.3372972972972973,0.5106382978723404,0.6494505494505495,0.4499579478553406,1195.0
368.0,1.7109208089645274e+18,0.4464751958224543,0.3550228310502283,0.3183783783783784,0.5155294693078992,0.6197802197802198,0.4213624894869638,1192.0
369.0,1.7109208089745843e+18,0.5391644908616188,0.4098173515981735,0.33945945945945943,0.4971875764245537,0.6274725274725275,0.43650126156433977,1196.0
370.0,1.7109208089845821e+18,0.4765013054830287,0.4292237442922374,0.3389189189189189,0.5108828564441183,0.6461538461538462,0.4541631623212784,1193.0
371.0,1.710920808994583e+18,0.4556135770234987,0.4337899543378995,0.3254054054054054,0.4844705306921008,0.6175824175824176,0.4415475189234651,1194.0
372.0,1.710920809004575e+18,0.4464751958224543,0.3972602739726027,0.3372972972972973,0.5055025678650037,0.6417582417582418,0.471825063078217,1194.0
373.0,1.7109208090145866e+18,0.49738903394255873,0.4223744292237443,0.3324324324324324,0.49498654927855223,0.610989010989011,0.41968040370058873,1193.0
374.0,1.7109208090245806e+18,0.5182767624020888,0.454337899543379,0.3389189189189189,0.4996331621423331,0.6692307692307692,0.4667788057190917,1194.0
375.0,1.7109208090345805e+18,0.5391644908616188,0.3824200913242009,0.3318918918918919,0.5025678650036683,0.6472527472527473,0.42304457527333894,1193.0
376.0,1.7109208090445796e+18,0.4856396866840731,0.408675799086758,0.33135135135135135,0.5025678650036683,0.6120879120879121,0.4339781328847771,1193.0
377.0,1.71092080905458e+18,0.5548302872062664,0.591324200913242,0.35027027027027025,0.5015896307165566,0.6428571428571429,0.4659377628259041,1196.0
378.0,1.7109208090645473e+18,0.4595300261096606,0.363013698630137,0.3248648648648649,0.4937637564196625,0.5945054945054945,0.42304457527333894,1194.0
379.0,1.7109208090745964e+18,0.4830287206266319,0.4257990867579909,0.3345945945945946,0.5069699192956714,0.6450549450549451,0.49369217830109335,1196.0
380.0,1.7109208090845893e+18,0.4804177545691906,0.4486301369863014,0.3324324324324324,0.46539496209342135,0.5659340659340659,0.4348191757779647,1195.0
381.0,1.7109208090945874e+18,0.4556135770234987,0.4531963470319635,0.3491891891891892,0.4954756664221081,0.6208791208791209,0.45248107653490327,1195.0
382.0,1.710920809104605e+18,0.45691906005221933,0.3915525114155251,0.3324324324324324,0.5064808021521154,0.6417582417582418,0.4449116904962153,1195.0
383.0,1.7109208091145958e+18,0.45691906005221933,0.3755707762557078,0.3356756756756757,0.49938860357055515,0.6230769230769231,0.4373423044575273,1193.0
384.0,1.7109208091245517e+18,0.4804177545691906,0.432648401826484,0.3389189189189189,0.5050134507214478,0.6384615384615384,0.4415475189234651,1195.0
385.0,1.7109208091345723e+18,0.4490861618798956,0.384703196347032,0.33135135135135135,0.5057471264367817,0.6362637362637362,0.4238856181665265,1193.0
386.0,1.710920809144583e+18,0.43342036553524804,0.3881278538812785,0.3232432432432432,0.49229640498899485,0.6098901098901099,0.43313708999158956,1193.0
387.0,1.710920809154584e+18,0.49216710182767626,0.4200913242009132,0.33405405405405403,0.5169968207385669,0.6461538461538462,0.44575273338940286,1195.0
388.0,1.7109208091645542e+18,0.48825065274151436,0.386986301369863,0.3345945945945946,0.49938860357055515,0.6241758241758242,0.4482758620689655,1194.0
389.0,1.710920809174529e+18,0.47780678851174935,0.5011415525114156,0.3362162162162162,0.5179750550256786,0.6318681318681318,0.43313708999158956,1193.0
390.0,1.7109208091845834e+18,0.4856396866840731,0.4155251141552511,0.3335135135135135,0.49474199070677427,0.610989010989011,0.4465937762825904,1195.0
391.0,1.7109208091945761e+18,0.5052219321148825,0.4406392694063927,0.33945945945945943,0.5025678650036683,0.6483516483516484,0.43566021867115223,1195.0
392.0,1.7109208092045806e+18,0.44778067885117495,0.4372146118721461,0.33135135135135135,0.49229640498899485,0.6054945054945055,0.4095878889823381,1191.0
393.0,1.7109208092145848e+18,0.5039164490861618,0.4372146118721461,0.3481081081081081,0.5152849107361213,0.6714285714285714,0.456686291000841,1196.0
394.0,1.7109208092245002e+18,0.4086161879895561,0.4075342465753425,0.35567567567567565,0.5113719735876743,0.6483516483516484,0.45164003364171573,1196.0
395.0,1.7109208092345761e+18,0.4464751958224543,0.384703196347032,0.33405405405405403,0.47175348495964786,0.5758241758241758,0.42052144659377627,1190.0
396.0,1.7109208092445796e+18,0.4765013054830287,0.4600456621004566,0.33297297297297296,0.5035460992907801,0.6329670329670329,0.4415475189234651,1196.0
397.0,1.710920809254586e+18,0.5013054830287206,0.4098173515981735,0.3362162162162162,0.5138175593054537,0.6538461538461539,0.4482758620689655,1195.0
398.0,1.710920809264582e+18,0.45039164490861616,0.3493150684931507,0.31891891891891894,0.4773783321105405,0.521978021978022,0.4095878889823381,1193.0
399.0,1.7109208092745288e+18,0.48172323759791125,0.4223744292237443,0.3491891891891892,0.5055025678650037,0.6582417582417582,0.45500420521446594,1195.0
400.0,1.7109208092845816e+18,0.4751958224543081,0.4212328767123288,0.33783783783783783,0.5018341892883346,0.6362637362637362,0.4432296047098402,1194.0
401.0,1.710920809294579e+18,0.4347258485639687,0.386986301369863,0.327027027027027,0.48618244069454636,0.5791208791208792,0.4121110176619008,1192.0
402.0,1.7109208093046057e+18,0.39425587467362927,0.341324200913242,0.3335135135135135,0.5055025678650037,0.6582417582417582,0.4533221194280908,1193.0
403.0,1.7109208093145807e+18,0.489556135770235,0.4942922374429224,0.34162162162162163,0.5103937393005625,0.6516483516483517,0.43986543313709,1192.0
404.0,1.7109208093245821e+18,0.4869451697127937,0.4463470319634703,0.34594594594594597,0.49058449498654927,0.6252747252747253,0.42052144659377627,1193.0
405.0,1.710920809334581e+18,0.4699738903394256,0.4155251141552511,0.34378378378378377,0.5116165321594522,0.6450549450549451,0.45248107653490327,1195.0
406.0,1.7109208093445806e+18,0.4934725848563969,0.4132420091324201,0.30648648648648646,0.49474199070677427,0.6076923076923076,0.45164003364171573,1195.0
407.0,1.7109208093545787e+18,0.46736292428198434,0.4554794520547945,0.33297297297297296,0.5059916850085595,0.6098901098901099,0.3936080740117746,1192.0
408.0,1.710920809364581e+18,0.47911227154047,0.430365296803653,0.34594594594594597,0.5050134507214478,0.6274725274725275,0.4432296047098402,1194.0
409.0,1.7109208093745423e+18,0.48172323759791125,0.410958904109589,0.33405405405405403,0.5079481535827831,0.634065934065934,0.44575273338940286,1195.0
410.0,1.7109208093845824e+18,0.4725848563968668,0.430365296803653,0.3286486486486486,0.5052580092932257,0.6307692307692307,0.4440706476030278,1195.0
411.0,1.7109208093945805e+18,0.5156657963446475,0.45662100456621,0.3318918918918919,0.5028124235754463,0.6230769230769231,0.4348191757779647,1195.0
412.0,1.71092080940456e+18,0.4804177545691906,0.4828767123287671,0.3464864864864865,0.49107361213010514,0.6461538461538462,0.4465937762825904,1194.0
413.0,1.7109208094145843e+18,0.46344647519582244,0.3904109589041096,0.30864864864864866,0.4913181707018831,0.6406593406593407,0.4381833473507149,1195.0
414.0,1.7109208094245844e+18,0.48172323759791125,0.4360730593607306,0.34756756756756757,0.5015896307165566,0.6120879120879121,0.4339781328847771,1192.0
415.0,1.7109208094345815e+18,0.48172323759791125,0.454337899543379,0.3286486486486486,0.4942528735632184,0.6043956043956044,0.46173254835996635,1197.0
416.0,1.710920809444584e+18,0.4765013054830287,0.4132420091324201,0.3324324324324324,0.49767669356810956,0.6274725274725275,0.4381833473507149,1195.0
417.0,1.7109208094545836e+18,0.49869451697127937,0.5205479452054794,0.3389189189189189,0.48324773783321107,0.6131868131868132,0.4381833473507149,1194.0
418.0,1.7109208094645565e+18,0.49216710182767626,0.3972602739726027,0.3372972972972973,0.4986549278552213,0.6296703296703297,0.4465937762825904,1195.0
419.0,1.7109208094745838e+18,0.4765013054830287,0.3972602739726027,0.3318918918918919,0.5094155050134507,0.6054945054945055,0.43986543313709,1196.0
420.0,1.71092080948459e+18,0.47389033942558745,0.4737442922374429,0.3281081081081081,0.4986549278552213,0.6032967032967033,0.4247266610597141,1194.0
421.0,1.7109208094945866e+18,0.47911227154047,0.4006849315068493,0.3464864864864865,0.5138175593054537,0.6538461538461539,0.4575273338940286,1195.0
422.0,1.7109208095045816e+18,0.5143603133159269,0.4509132420091324,0.3345945945945946,0.5086818292981169,0.6538461538461539,0.4482758620689655,1197.0
423.0,1.7109208095157e+18,0.4869451697127937,0.4726027397260274,0.34324324324324323,0.5106382978723404,0.6626373626373626,0.4499579478553406,1195.0
424.0,1.710920809524568e+18,0.4608355091383812,0.408675799086758,0.34054054054054056,0.5025678650036683,0.6428571428571429,0.43986543313709,1194.0
425.0,1.71092080953455e+18,0.43733681462140994,0.3607305936073059,0.3302702702702703,0.4966984592809978,0.6483516483516484,0.47098402018502944,1195.0
426.0,1.710920809544536e+18,0.4804177545691906,0.4029680365296804,0.3372972972972973,0.49767669356810956,0.643956043956044,0.45836837678721615,1196.0
427.0,1.7109208095545948e+18,0.4869451697127937,0.386986301369863,0.34054054054054056,0.5103937393005625,0.6142857142857143,0.4415475189234651,1194.0
428.0,1.7109208095645885e+18,0.4699738903394256,0.4200913242009132,0.3335135135135135,0.5111274150158963,0.6516483516483517,0.41715727502102606,1194.0
429.0,1.710920809574578e+18,0.4934725848563969,0.4029680365296804,0.33675675675675676,0.5094155050134507,0.6395604395604395,0.456686291000841,1194.0
430.0,1.7109208095845885e+18,0.4112271540469974,0.3675799086757991,0.33513513513513515,0.49938860357055515,0.6065934065934065,0.4381833473507149,1195.0
431.0,1.7109208095945876e+18,0.49216710182767626,0.4155251141552511,0.3362162162162162,0.4996331621423331,0.634065934065934,0.44238856181665265,1195.0
432.0,1.710920809604625e+18,0.4908616187989556,0.4417808219178082,0.3308108108108108,0.5028124235754463,0.5912087912087912,0.41379310344827586,1193.0
433.0,1.710920809614587e+18,0.48172323759791125,0.4680365296803653,0.3443243243243243,0.5094155050134507,0.6406593406593407,0.447434819175778,1196.0
434.0,1.7109208096245747e+18,0.47780678851174935,0.4269406392694064,0.3410810810810811,0.4966984592809978,0.6230769230769231,0.45248107653490327,1194.0
435.0,1.7109208096345846e+18,0.5,0.4075342465753425,0.3464864864864865,0.5101491807287846,0.6516483516483517,0.4222035323801514,1193.0
436.0,1.7109208096445865e+18,0.4556135770234987,0.3664383561643836,0.3362162162162162,0.5099046221570066,0.6098901098901099,0.4289318755256518,1192.0
437.0,1.710920809654588e+18,0.4856396866840731,0.3995433789954338,0.3389189189189189,0.5018341892883346,0.6241758241758242,0.4280908326324643,1194.0
438.0,1.7109208096645827e+18,0.4830287206266319,0.4178082191780822,0.3491891891891892,0.5015896307165566,0.6450549450549451,0.4482758620689655,1194.0
439.0,1.710920809674594e+18,0.4869451697127937,0.4737442922374429,0.3308108108108108,0.4761555392516508,0.5967032967032967,0.42640874684608915,1194.0
440.0,1.7109208096845857e+18,0.49477806788511747,0.386986301369863,0.3264864864864865,0.5003668378576669,0.6197802197802198,0.45500420521446594,1195.0
441.0,1.710920809694586e+18,0.47911227154047,0.4235159817351598,0.33405405405405403,0.5018341892883346,0.6098901098901099,0.4348191757779647,1195.0
442.0,1.7109208097045847e+18,0.47127937336814624,0.4189497716894977,0.3237837837837838,0.4979212521398875,0.6318681318681318,0.4415475189234651,1194.0
443.0,1.710920809714568e+18,0.47127937336814624,0.4029680365296804,0.3345945945945946,0.5020787478601125,0.6131868131868132,0.43902439024390244,1193.0
444.0,1.7109208097245837e+18,0.47127937336814624,0.4257990867579909,0.33405405405405403,0.5035460992907801,0.6406593406593407,0.4465937762825904,1195.0
445.0,1.7109208097345905e+18,0.4765013054830287,0.4029680365296804,0.3216216216216216,0.4786011249694302,0.5527472527472528,0.4087468460891506,1194.0
446.0,1.7109208097445827e+18,0.42950391644908614,0.3675799086757991,0.3281081081081081,0.5013450721447786,0.6516483516483517,0.4280908326324643,1192.0
447.0,1.7109208097545823e+18,0.44778067885117495,0.4611872146118721,0.33837837837837836,0.4810467106872096,0.5934065934065934,0.4280908326324643,1194.0
448.0,1.7109208097645878e+18,0.44778067885117495,0.408675799086758,0.33783783783783783,0.4937637564196625,0.6373626373626373,0.4280908326324643,1192.0
449.0,1.7109208097745905e+18,0.4660574412532637,0.4257990867579909,0.3410810810810811,0.5028124235754463,0.6373626373626373,0.4415475189234651,1194.0
450.0,1.7109208097845645e+18,0.45430809399477806,0.4520547945205479,0.33783783783783783,0.49620934213744194,0.5505494505494506,0.40706476030277544,1192.0
451.0,1.710920809794586e+18,0.48172323759791125,0.4223744292237443,0.3427027027027027,0.5155294693078992,0.656043956043956,0.45836837678721615,1197.0
452.0,1.7109208098045914e+18,0.46866840731070497,0.3995433789954338,0.33405405405405403,0.49938860357055515,0.6197802197802198,0.43986543313709,1194.0
453.0,1.7109208098146115e+18,0.4725848563968668,0.3778538812785388,0.3162162162162162,0.5047688921496698,0.6263736263736264,0.4415475189234651,1197.0
454.0,1.7109208098245798e+18,0.4490861618798956,0.3972602739726027,0.3302702702702703,0.5160185864514552,0.6175824175824176,0.4348191757779647,1194.0
455.0,1.710920809834582e+18,0.4804177545691906,0.3858447488584475,0.3427027027027027,0.5094155050134507,0.6461538461538462,0.45164003364171573,1197.0
456.0,1.7109208098445852e+18,0.4699738903394256,0.4920091324200913,0.3481081081081081,0.5057471264367817,0.6241758241758242,0.4339781328847771,1193.0
457.0,1.7109208098545805e+18,0.45039164490861616,0.3710045662100457,0.3372972972972973,0.5035460992907801,0.6197802197802198,0.4121110176619008,1193.0
458.0,1.7109208098645827e+18,0.5130548302872062,0.3972602739726027,0.32756756756756755,0.49107361213010514,0.6065934065934065,0.43313708999158956,1192.0
459.0,1.7109208098745782e+18,0.4934725848563969,0.4200913242009132,0.3362162162162162,0.5006113964294449,0.6274725274725275,0.43902439024390244,1193.0
460.0,1.7109208098845842e+18,0.4725848563968668,0.410958904109589,0.3389189189189189,0.49620934213744194,0.6362637362637362,0.45500420521446594,1197.0
461.0,1.7109208098945805e+18,0.4412532637075718,0.4178082191780822,0.34054054054054056,0.4996331621423331,0.6417582417582418,0.4440706476030278,1194.0
462.0,1.7109208099045686e+18,0.4869451697127937,0.4006849315068493,0.3324324324324324,0.5018341892883346,0.6373626373626373,0.4482758620689655,1194.0
463.0,1.7109208099145772e+18,0.4856396866840731,0.3938356164383562,0.3210810810810811,0.5047688921496698,0.6153846153846154,0.44238856181665265,1194.0
464.0,1.7109208099245985e+18,0.4425587467362924,0.4155251141552511,0.3362162162162162,0.499877720714111,0.6175824175824176,0.41715727502102606,1193.0
465.0,1.7109208099345818e+18,0.5026109660574413,0.4634703196347032,0.34540540540540543,0.5069699192956714,0.6516483516483517,0.46173254835996635,1194.0
466.0,1.7109208099445814e+18,0.48172323759791125,0.4223744292237443,0.3464864864864865,0.5145512350207875,0.6406593406593407,0.4415475189234651,1194.0
467.0,1.7109208099545815e+18,0.47780678851174935,0.3835616438356164,0.34486486486486484,0.48813890926876985,0.6043956043956044,0.4314550042052145,1194.0
468.0,1.7109208099646203e+18,0.5091383812010444,0.4269406392694064,0.3372972972972973,0.504279775006114,0.6307692307692307,0.4432296047098402,1195.0
469.0,1.710920809974579e+18,0.5,0.4360730593607306,0.3389189189189189,0.5015896307165566,0.6505494505494506,0.4415475189234651,1196.0
470.0,1.7109208099845821e+18,0.46344647519582244,0.3995433789954338,0.3308108108108108,0.4839814135485449,0.5747252747252747,0.43902439024390244,1198.0
471.0,1.7109208099945828e+18,0.48825065274151436,0.4155251141552511,0.3318918918918919,0.4969430178527757,0.6241758241758242,0.44238856181665265,1194.0
472.0,1.710920810004578e+18,0.4765013054830287,0.3904109589041096,0.34,0.5130838835901198,0.6516483516483517,0.4482758620689655,1195.0
473.0,1.710920810014537e+18,0.4765013054830287,0.3789954337899543,0.32594594594594595,0.491807287845439,0.621978021978022,0.43566021867115223,1197.0
474.0,1.71092081002458e+18,0.4804177545691906,0.4292237442922374,0.33513513513513515,0.5050134507214478,0.6362637362637362,0.432296047098402,1193.0
475.0,1.7109208100345795e+18,0.49477806788511747,0.4703196347031963,0.3443243243243243,0.5074590364392272,0.6307692307692307,0.4381833473507149,1196.0
476.0,1.7109208100445832e+18,0.4804177545691906,0.4052511415525114,0.33135135135135135,0.49082905355832723,0.6120879120879121,0.4146341463414634,1195.0
477.0,1.7109208100545833e+18,0.49216710182767626,0.4223744292237443,0.34702702702702704,0.5055025678650037,0.6285714285714286,0.4634146341463415,1196.0
478.0,1.710920810064582e+18,0.46344647519582244,0.4075342465753425,0.33945945945945943,0.49205184641721694,0.610989010989011,0.4280908326324643,1193.0
479.0,1.7109208100745948e+18,0.4765013054830287,0.3938356164383562,0.3286486486486486,0.5116165321594522,0.6274725274725275,0.44575273338940286,1194.0
480.0,1.7109208100845868e+18,0.47389033942558745,0.3812785388127854,0.3216216216216216,0.5069699192956714,0.6076923076923076,0.42640874684608915,1194.0
481.0,1.7109208100945848e+18,0.5039164490861618,0.4246575342465753,0.33945945945945943,0.5108828564441183,0.6274725274725275,0.44070647603027757,1197.0
482.0,1.7109208101046067e+18,0.5,0.5422374429223744,0.34324324324324323,0.5055025678650037,0.6384615384615384,0.44575273338940286,1195.0
483.0,1.7109208101145782e+18,0.4751958224543081,0.4098173515981735,0.3345945945945946,0.5084372707263389,0.6494505494505495,0.45164003364171573,1194.0
484.0,1.7109208101245775e+18,0.48172323759791125,0.4166666666666667,0.33783783783783783,0.4969430178527757,0.634065934065934,0.4449116904962153,1196.0
485.0,1.7109208101345892e+18,0.46736292428198434,0.3938356164383562,0.312972972972973,0.5006113964294449,0.6472527472527473,0.4440706476030278,1194.0
486.0,1.710920810144554e+18,0.4804177545691906,0.3972602739726027,0.34,0.5155294693078992,0.6384615384615384,0.45500420521446594,1195.0
487.0,1.7109208101546143e+18,0.4856396866840731,0.4292237442922374,0.33405405405405403,0.5172413793103449,0.6373626373626373,0.4482758620689655,1194.0
488.0,1.710920810164574e+18,0.46866840731070497,0.4143835616438356,0.3362162162162162,0.5003668378576669,0.6318681318681318,0.44238856181665265,1197.0
489.0,1.7109208101745887e+18,0.42036553524804177,0.3801369863013699,0.3308108108108108,0.4988994864269993,0.6065934065934065,0.42640874684608915,1194.0
490.0,1.7109208101845837e+18,0.4699738903394256,0.4257990867579909,0.34702702702702704,0.5025678650036683,0.6274725274725275,0.4306139613120269,1193.0
491.0,1.7109208101945805e+18,0.47911227154047,0.4269406392694064,0.3248648648648649,0.4979212521398875,0.6153846153846154,0.432296047098402,1193.0
492.0,1.7109208102045857e+18,0.49738903394255873,0.5308219178082192,0.3389189189189189,0.5077035950110051,0.6252747252747253,0.4348191757779647,1196.0
493.0,1.7109208102145923e+18,0.47127937336814624,0.4178082191780822,0.3281081081081081,0.5094155050134507,0.6362637362637362,0.44575273338940286,1194.0
494.0,1.710920810224589e+18,0.45300261096605743,0.4246575342465753,0.33945945945945943,0.5001222792858889,0.6230769230769231,0.43313708999158956,1193.0
495.0,1.710920810234583e+18,0.43994778067885115,0.4029680365296804,0.3324324324324324,0.5011005135730008,0.6274725274725275,0.43986543313709,1196.0
496.0,1.7109208102445865e+18,0.4804177545691906,0.4417808219178082,0.34594594594594597,0.5011005135730008,0.6230769230769231,0.4381833473507149,1194.0
497.0,1.7109208102545946e+18,0.5378590078328982,0.4657534246575342,0.35027027027027025,0.504279775006114,0.6230769230769231,0.44575273338940286,1196.0
498.0,1.7109208102645809e+18,0.4556135770234987,0.4406392694063927,0.3178378378378378,0.4984103692834434,0.6131868131868132,0.4289318755256518,1192.0
499.0,1.7109208102745866e+18,0.48825065274151436,0.432648401826484,0.33837837837837836,0.5069699192956714,0.6362637362637362,0.4381833473507149,1197.0
500.0,1.7109208102845847e+18,0.5026109660574413,0.4143835616438356,0.33945945945945943,0.4986549278552213,0.6,0.4280908326324643,1193.0
501.0,1.7109208102945843e+18,0.4765013054830287,0.4383561643835616,0.35027027027027025,0.4996331621423331,0.6021978021978022,0.4339781328847771,1194.0
502.0,1.7109208103045827e+18,0.489556135770235,0.408675799086758,0.33297297297297296,0.49816581071166544,0.6241758241758242,0.45164003364171573,1195.0
503.0,1.7109208103145825e+18,0.47911227154047,0.4075342465753425,0.33675675675675676,0.5035460992907801,0.6417582417582418,0.44575273338940286,1198.0
504.0,1.7109208103245806e+18,0.3720626631853786,0.3710045662100457,0.32594594594594595,0.5037906578625581,0.5978021978021978,0.4179983179142136,1190.0
505.0,1.71092081033458e+18,0.49216710182767626,0.4212328767123288,0.34486486486486484,0.5037906578625581,0.6406593406593407,0.4465937762825904,1195.0
506.0,1.7109208103445804e+18,0.46866840731070497,0.4189497716894977,0.33405405405405403,0.4971875764245537,0.6087912087912087,0.4255677039529016,1193.0
507.0,1.7109208103545815e+18,0.4725848563968668,0.4223744292237443,0.3356756756756757,0.5008559550012228,0.634065934065934,0.4449116904962153,1196.0
508.0,1.7109208103645852e+18,0.45822454308093996,0.3744292237442922,0.32756756756756755,0.44093910491562727,0.4967032967032967,0.4188393608074012,1191.0
509.0,1.7109208103745828e+18,0.4751958224543081,0.4452054794520548,0.3410810810810811,0.5074590364392272,0.6637362637362637,0.46509671993271656,1197.0
510.0,1.71092081038459e+18,0.4699738903394256,0.3984018264840183,0.3237837837837838,0.5025678650036683,0.6362637362637362,0.43986543313709,1194.0
511.0,1.710920810394565e+18,0.4934725848563969,0.4121004566210046,0.33135135135135135,0.5020787478601125,0.6318681318681318,0.44238856181665265,1196.0
512.0,1.7109208104045868e+18,0.47780678851174935,0.408675799086758,0.3308108108108108,0.5055025678650037,0.6329670329670329,0.4255677039529016,1190.0
513.0,1.7109208104145503e+18,0.46475195822454307,0.3926940639269406,0.33405405405405403,0.5108828564441183,0.643956043956044,0.4465937762825904,1195.0
514.0,1.7109208104245844e+18,0.4660574412532637,0.4052511415525114,0.3362162162162162,0.5055025678650037,0.6373626373626373,0.4482758620689655,1196.0
515.0,1.7109208104345866e+18,0.45691906005221933,0.3915525114155251,0.3264864864864865,0.5025678650036683,0.6362637362637362,0.44911690496215306,1197.0
516.0,1.7109208104445878e+18,0.4869451697127937,0.4155251141552511,0.3281081081081081,0.5077035950110051,0.6274725274725275,0.432296047098402,1194.0
517.0,1.7109208104545882e+18,0.489556135770235,0.4212328767123288,0.3318918918918919,0.49816581071166544,0.6120879120879121,0.44911690496215306,1195.0
518.0,1.7109208104645092e+18,0.45691906005221933,0.4406392694063927,0.3481081081081081,0.487649792125214,0.5758241758241758,0.43566021867115223,1196.0
519.0,1.71092081047459e+18,0.46344647519582244,0.4041095890410959,0.33675675675675676,0.49767669356810956,0.6076923076923076,0.43566021867115223,1194.0
520.0,1.710920810484589e+18,0.48172323759791125,0.4223744292237443,0.3389189189189189,0.4996331621423331,0.634065934065934,0.44238856181665265,1194.0
521.0,1.7109208104945784e+18,0.4751958224543081,0.4029680365296804,0.32594594594594595,0.5035460992907801,0.6307692307692307,0.4415475189234651,1196.0
522.0,1.7109208105045988e+18,0.4725848563968668,0.4257990867579909,0.34216216216216216,0.5035460992907801,0.6164835164835165,0.43313708999158956,1193.0
523.0,1.7109208105145787e+18,0.4869451697127937,0.4269406392694064,0.34162162162162163,0.5135730007336757,0.656043956043956,0.4482758620689655,1193.0
524.0,1.7109208105245696e+18,0.4856396866840731,0.4178082191780822,0.327027027027027,0.5108828564441183,0.6186813186813187,0.45248107653490327,1193.0
525.0,1.7109208105345907e+18,0.45300261096605743,0.3915525114155251,0.34486486486486484,0.5074590364392272,0.6164835164835165,0.4280908326324643,1192.0
526.0,1.710920810544592e+18,0.47127937336814624,0.4121004566210046,0.34054054054054056,0.5006113964294449,0.6296703296703297,0.4373423044575273,1195.0
527.0,1.710920810554592e+18,0.47389033942558745,0.3972602739726027,0.34054054054054056,0.49523110785033014,0.6208791208791209,0.4499579478553406,1197.0
528.0,1.7109208105645699e+18,0.46866840731070497,0.3698630136986301,0.31891891891891894,0.5025678650036683,0.6153846153846154,0.41968040370058873,1192.0
529.0,1.710920810574557e+18,0.4934725848563969,0.4235159817351598,0.3389189189189189,0.5033015407190022,0.6241758241758242,0.4432296047098402,1196.0
530.0,1.7109208105844954e+18,0.46344647519582244,0.4121004566210046,0.3410810810810811,0.4859378821227684,0.6,0.42977291841883936,1195.0
531.0,1.710920810594597e+18,0.48172323759791125,0.4417808219178082,0.34054054054054056,0.5047688921496698,0.6373626373626373,0.4558452481076535,1196.0
532.0,1.710920810604567e+18,0.489556135770235,0.4817351598173516,0.3427027027027027,0.5011005135730008,0.6197802197802198,0.4465937762825904,1195.0
533.0,1.710920810614573e+18,0.46344647519582244,0.3949771689497717,0.34054054054054056,0.5047688921496698,0.6505494505494506,0.4533221194280908,1196.0
534.0,1.7109208106245952e+18,0.47127937336814624,0.4075342465753425,0.34054054054054056,0.5033015407190022,0.6241758241758242,0.4381833473507149,1194.0
535.0,1.7109208106345774e+18,0.4725848563968668,0.4200913242009132,0.3302702702702703,0.5020787478601125,0.6,0.4373423044575273,1196.0
536.0,1.7109208106445786e+18,0.46866840731070497,0.4029680365296804,0.33837837837837836,0.5018341892883346,0.6252747252747253,0.43902439024390244,1195.0
537.0,1.7109208106545823e+18,0.4869451697127937,0.4189497716894977,0.33675675675675676,0.5035460992907801,0.6296703296703297,0.43650126156433977,1195.0
538.0,1.7109208106645972e+18,0.5026109660574413,0.4383561643835616,0.3362162162162162,0.504524333577892,0.6241758241758242,0.4381833473507149,1195.0
539.0,1.710920810674576e+18,0.49869451697127937,0.4406392694063927,0.3389189189189189,0.5023233064318905,0.6318681318681318,0.4432296047098402,1195.0
540.0,1.7109208106845962e+18,0.4751958224543081,0.3961187214611872,0.34162162162162163,0.5018341892883346,0.6362637362637362,0.4415475189234651,1195.0
541.0,1.7109208106945587e+18,0.48172323759791125,0.4383561643835616,0.3518918918918919,0.5028124235754463,0.6175824175824176,0.4432296047098402,1196.0
542.0,1.71092081070458e+18,0.45039164490861616,0.3949771689497717,0.33837837837837836,0.4996331621423331,0.6,0.4179983179142136,1194.0
543.0,1.7109208107145823e+18,0.4347258485639687,0.3972602739726027,0.34162162162162163,0.5006113964294449,0.6318681318681318,0.44911690496215306,1193.0
544.0,1.710920810724582e+18,0.4725848563968668,0.3710045662100457,0.33513513513513515,0.5074590364392272,0.6395604395604395,0.4373423044575273,1198.0
545.0,1.7109208107345795e+18,0.49216710182767626,0.4212328767123288,0.33675675675675676,0.504035216434336,0.6318681318681318,0.4314550042052145,1194.0
546.0,1.7109208107445816e+18,0.46475195822454307,0.4041095890410959,0.3264864864864865,0.49938860357055515,0.6054945054945055,0.432296047098402,1193.0
547.0,1.7109208107546045e+18,0.44778067885117495,0.4018264840182648,0.32216216216216215,0.5033015407190022,0.6186813186813187,0.42977291841883936,1192.0
548.0,1.7109208107645747e+18,0.46866840731070497,0.4006849315068493,0.33783783783783783,0.5015896307165566,0.6274725274725275,0.4306139613120269,1193.0
549.0,1.7109208107745797e+18,0.4869451697127937,0.3812785388127854,0.3027027027027027,0.4988994864269993,0.6142857142857143,0.4373423044575273,1196.0
550.0,1.7109208107845809e+18,0.48172323759791125,0.4200913242009132,0.34162162162162163,0.4986549278552213,0.6164835164835165,0.45248107653490327,1196.0
551.0,1.7109208107945805e+18,0.4804177545691906,0.3926940639269406,0.34324324324324323,0.5055025678650037,0.6241758241758242,0.4381833473507149,1196.0
552.0,1.710920810804579e+18,0.48172323759791125,0.4280821917808219,0.33513513513513515,0.5096600635852286,0.6461538461538462,0.4465937762825904,1196.0
553.0,1.7109208108145764e+18,0.5065274151436031,0.4143835616438356,0.3389189189189189,0.5025678650036683,0.6494505494505495,0.4819175777964676,1197.0
554.0,1.7109208108245763e+18,0.4699738903394256,0.3961187214611872,0.3254054054054054,0.47199804353142577,0.5879120879120879,0.4280908326324643,1194.0
555.0,1.7109208108345774e+18,0.47127937336814624,0.4257990867579909,0.33513513513513515,0.5084372707263389,0.6450549450549451,0.4592094196804037,1197.0
556.0,1.7109208108445775e+18,0.42950391644908614,0.4018264840182648,0.3264864864864865,0.5011005135730008,0.6318681318681318,0.4247266610597141,1193.0
557.0,1.710920810854578e+18,0.4490861618798956,0.3778538812785388,0.33297297297297296,0.5035460992907801,0.6230769230769231,0.4381833473507149,1196.0
558.0,1.710920810864581e+18,0.4869451697127937,0.408675799086758,0.33837837837837836,0.49327463927610665,0.6098901098901099,0.4306139613120269,1192.0
559.0,1.7109208108745795e+18,0.44778067885117495,0.3824200913242009,0.32756756756756755,0.5074590364392272,0.6263736263736264,0.42304457527333894,1194.0
560.0,1.7109208108845821e+18,0.49738903394255873,0.4611872146118721,0.3389189189189189,0.4969430178527757,0.6351648351648351,0.4575273338940286,1195.0
561.0,1.7109208108945772e+18,0.4255874673629243,0.386986301369863,0.33405405405405403,0.5094155050134507,0.6417582417582418,0.44911690496215306,1195.0
562.0,1.7109208109045809e+18,0.4595300261096606,0.3881278538812785,0.34702702702702704,0.5050134507214478,0.6164835164835165,0.43566021867115223,1196.0
563.0,1.7109208109145828e+18,0.4830287206266319,0.4315068493150685,0.3491891891891892,0.5101491807287846,0.6461538461538462,0.4449116904962153,1195.0
564.0,1.710920810924583e+18,0.49738903394255873,0.430365296803653,0.33837837837837836,0.5025678650036683,0.6307692307692307,0.4507989907485282,1196.0
565.0,1.710920810934578e+18,0.4725848563968668,0.4748858447488584,0.3389189189189189,0.499877720714111,0.6142857142857143,0.4449116904962153,1194.0
566.0,1.71092081094458e+18,0.4699738903394256,0.3961187214611872,0.3254054054054054,0.4991440449987772,0.6241758241758242,0.4381833473507149,1195.0
567.0,1.7109208109545812e+18,0.49216710182767626,0.4200913242009132,0.33675675675675676,0.5030569821472243,0.6175824175824176,0.4575273338940286,1196.0
568.0,1.7109208109645865e+18,0.4869451697127937,0.3995433789954338,0.3172972972972973,0.512350207874786,0.656043956043956,0.4482758620689655,1195.0
569.0,1.710920810974577e+18,0.5156657963446475,0.5388127853881278,0.3491891891891892,0.5162631450232331,0.6472527472527473,0.43986543313709,1195.0
570.0,1.7109208109845847e+18,0.46475195822454307,0.3767123287671233,0.3254054054054054,0.5008559550012228,0.6208791208791209,0.43650126156433977,1195.0
571.0,1.7109208109945802e+18,0.49216710182767626,0.4178082191780822,0.34,0.5099046221570066,0.6395604395604395,0.4449116904962153,1194.0
572.0,1.7109208110045972e+18,0.4451697127937337,0.3607305936073059,0.31135135135135134,0.49205184641721694,0.6065934065934065,0.4415475189234651,1195.0
573.0,1.7109208110145974e+18,0.4869451697127937,0.4132420091324201,0.32756756756756755,0.49523110785033014,0.6197802197802198,0.4381833473507149,1196.0
574.0,1.7109208110245806e+18,0.46866840731070497,0.4075342465753425,0.34486486486486484,0.5047688921496698,0.6406593406593407,0.4507989907485282,1195.0
575.0,1.7109208110345774e+18,0.47127937336814624,0.4121004566210046,0.3345945945945946,0.5152849107361213,0.6604395604395604,0.43313708999158956,1192.0
576.0,1.7109208110445775e+18,0.45691906005221933,0.4349315068493151,0.32432432432432434,0.4781120078258743,0.5769230769230769,0.42640874684608915,1193.0
577.0,1.7109208110545777e+18,0.5065274151436031,0.3972602739726027,0.33945945945945943,0.48813890926876985,0.5989010989010989,0.44911690496215306,1196.0
578.0,1.7109208110645893e+18,0.4255874673629243,0.3767123287671233,0.3210810810810811,0.49523110785033014,0.610989010989011,0.4381833473507149,1195.0
579.0,1.7109208110745987e+18,0.46344647519582244,0.3687214611872146,0.33297297297297296,0.48740523355343607,0.6065934065934065,0.43902439024390244,1195.0
580.0,1.7109208110845837e+18,0.4621409921671018,0.4360730593607306,0.3389189189189189,0.49498654927855223,0.6252747252747253,0.44238856181665265,1197.0
581.0,1.7109208110945836e+18,0.46866840731070497,0.3926940639269406,0.3124324324324324,0.4871606749816581,0.610989010989011,0.4381833473507149,1196.0
582.0,1.7109208111046062e+18,0.4751958224543081,0.4223744292237443,0.33837837837837836,0.4996331621423331,0.6010989010989011,0.4432296047098402,1194.0
583.0,1.7109208111145843e+18,0.4725848563968668,0.4029680365296804,0.33675675675675676,0.5028124235754463,0.6241758241758242,0.43986543313709,1193.0
584.0,1.710920811124581e+18,0.45300261096605743,0.4235159817351598,0.33297297297297296,0.5064808021521154,0.6637362637362637,0.4575273338940286,1196.0
585.0,1.7109208111345797e+18,0.4869451697127937,0.4292237442922374,0.3427027027027027,0.5030569821472243,0.6252747252747253,0.4432296047098402,1195.0
586.0,1.7109208111445786e+18,0.4765013054830287,0.4155251141552511,0.3362162162162162,0.5099046221570066,0.634065934065934,0.43902439024390244,1195.0
587.0,1.7109208111546102e+18,0.4765013054830287,0.4212328767123288,0.3518918918918919,0.495964783565664,0.6153846153846154,0.44238856181665265,1195.0
588.0,1.7109208111645786e+18,0.48172323759791125,0.4178082191780822,0.3427027027027027,0.49938860357055515,0.6164835164835165,0.432296047098402,1192.0
589.0,1.7109208111745825e+18,0.47780678851174935,0.4052511415525114,0.31945945945945947,0.5023233064318905,0.6406593406593407,0.4272497897392767,1192.0
590.0,1.7109208111845947e+18,0.49216710182767626,0.4406392694063927,0.3345945945945946,0.504524333577892,0.6758241758241759,0.45164003364171573,1194.0
591.0,1.710920811194583e+18,0.4765013054830287,0.4178082191780822,0.34162162162162163,0.504035216434336,0.6307692307692307,0.44238856181665265,1193.0
592.0,1.7109208112045868e+18,0.4516971279373368,0.3789954337899543,0.32972972972972975,0.5084372707263389,0.643956043956044,0.4465937762825904,1196.0
593.0,1.7109208112146017e+18,0.46344647519582244,0.4212328767123288,0.31891891891891894,0.5113719735876743,0.6175824175824176,0.4465937762825904,1200.0
594.0,1.7109208112245847e+18,0.46736292428198434,0.454337899543379,0.3410810810810811,0.5138175593054537,0.6186813186813187,0.4255677039529016,1194.0
595.0,1.7109208112345774e+18,0.47127937336814624,0.4360730593607306,0.3308108108108108,0.4944974321349963,0.6142857142857143,0.4373423044575273,1197.0
596.0,1.7109208112445798e+18,0.47780678851174935,0.4018264840182648,0.33405405405405403,0.5006113964294449,0.6120879120879121,0.4415475189234651,1194.0
597.0,1.7109208112545912e+18,0.4869451697127937,0.4029680365296804,0.34216216216216216,0.5015896307165566,0.6087912087912087,0.4432296047098402,1195.0
598.0,1.7109208112645816e+18,0.5026109660574413,0.4908675799086758,0.3497297297297297,0.5108828564441183,0.6417582417582418,0.45164003364171573,1197.0
599.0,1.7109208112745777e+18,0.46736292428198434,0.4075342465753425,0.34216216216216216,0.5037906578625581,0.6318681318681318,0.43986543313709,1196.0
600.0,1.710920811284584e+18,0.4804177545691906,0.4143835616438356,0.33675675675675676,0.48813890926876985,0.6021978021978022,0.4272497897392767,1193.0
601.0,1.7109208112945823e+18,0.47389033942558745,0.4041095890410959,0.32972972972972975,0.5008559550012228,0.6274725274725275,0.4381833473507149,1194.0
602.0,1.7109208113045852e+18,0.48172323759791125,0.4372146118721461,0.34,0.5055025678650037,0.6307692307692307,0.4482758620689655,1194.0
603.0,1.7109208113145894e+18,0.4765013054830287,0.4246575342465753,0.34378378378378377,0.4927855221325507,0.5901098901098901,0.4465937762825904,1194.0
604.0,1.710920811324581e+18,0.49738903394255873,0.478310502283105,0.3535135135135135,0.5015896307165566,0.6318681318681318,0.42977291841883936,1193.0
605.0,1.7109208113345528e+18,0.4725848563968668,0.4509132420091324,0.35135135135135137,0.5074590364392272,0.6274725274725275,0.43313708999158956,1192.0
606.0,1.7109208113445778e+18,0.45691906005221933,0.4098173515981735,0.3362162162162162,0.5035460992907801,0.6087912087912087,0.4449116904962153,1194.0
607.0,1.710920811354527e+18,0.4934725848563969,0.4235159817351598,0.3362162162162162,0.5052580092932257,0.6318681318681318,0.45248107653490327,1195.0
608.0,1.7109208113645924e+18,0.48825065274151436,0.4771689497716895,0.34486486486486484,0.5006113964294449,0.6318681318681318,0.4348191757779647,1196.0
609.0,1.7109208113745764e+18,0.4660574412532637,0.3995433789954338,0.3264864864864865,0.5013450721447786,0.6318681318681318,0.45164003364171573,1194.0
610.0,1.7109208113845924e+18,0.46344647519582244,0.4006849315068493,0.2967567567567568,0.5015896307165566,0.6197802197802198,0.4348191757779647,1198.0
611.0,1.7109208113945818e+18,0.4556135770234987,0.4041095890410959,0.34,0.5143066764490095,0.6274725274725275,0.4575273338940286,1196.0
612.0,1.710920811404578e+18,0.4765013054830287,0.3812785388127854,0.32432432432432434,0.48985081927121543,0.6065934065934065,0.43902439024390244,1196.0
613.0,1.7109208114146053e+18,0.4856396866840731,0.4235159817351598,0.3302702702702703,0.5111274150158963,0.6505494505494506,0.45164003364171573,1197.0
614.0,1.7109208114245888e+18,0.47127937336814624,0.4178082191780822,0.3372972972972973,0.49351919784788456,0.6054945054945055,0.4289318755256518,1194.0
615.0,1.710920811434579e+18,0.46736292428198434,0.4041095890410959,0.33513513513513515,0.49767669356810956,0.6065934065934065,0.4381833473507149,1196.0
616.0,1.7109208114445806e+18,0.4516971279373368,0.4315068493150685,0.3535135135135135,0.5059916850085595,0.6516483516483517,0.44911690496215306,1195.0
617.0,1.7109208114545825e+18,0.4608355091383812,0.45662100456621,0.35405405405405405,0.5047688921496698,0.6142857142857143,0.4449116904962153,1197.0
618.0,1.7109208114645898e+18,0.4804177545691906,0.4132420091324201,0.3308108108108108,0.4812912692589875,0.5923076923076923,0.4381833473507149,1195.0
619.0,1.7109208114746117e+18,0.47911227154047,0.4121004566210046,0.33675675675675676,0.49816581071166544,0.6362637362637362,0.4440706476030278,1196.0
620.0,1.7109208114845893e+18,0.47911227154047,0.410958904109589,0.33783783783783783,0.5079481535827831,0.6417582417582418,0.4449116904962153,1194.0
621.0,1.7109208114945884e+18,0.4347258485639687,0.3789954337899543,0.3216216216216216,0.5133284421618978,0.6175824175824176,0.4415475189234651,1196.0
622.0,1.7109208115045847e+18,0.4830287206266319,0.4200913242009132,0.3389189189189189,0.5101491807287846,0.6428571428571429,0.4482758620689655,1194.0
623.0,1.710920811514614e+18,0.46736292428198434,0.4063926940639269,0.32972972972972975,0.5086818292981169,0.6736263736263737,0.43902439024390244,1195.0
624.0,1.7109208115245885e+18,0.47911227154047,0.4178082191780822,0.33297297297297296,0.5047688921496698,0.6153846153846154,0.4272497897392767,1195.0
625.0,1.710920811534591e+18,0.4869451697127937,0.3824200913242009,0.31405405405405407,0.4727317192467596,0.5648351648351648,0.447434819175778,1194.0
626.0,1.7109208115445842e+18,0.5274151436031331,0.4646118721461187,0.34594594594594597,0.5086818292981169,0.6417582417582418,0.4381833473507149,1195.0
627.0,1.7109208115545838e+18,0.45822454308093996,0.478310502283105,0.3481081081081081,0.495720224993886,0.6131868131868132,0.4381833473507149,1193.0
628.0,1.7109208115645983e+18,0.4725848563968668,0.4063926940639269,0.3237837837837838,0.5199315235999021,0.6296703296703297,0.43650126156433977,1196.0
629.0,1.710920811574589e+18,0.47127937336814624,0.4041095890410959,0.32972972972972975,0.5096600635852286,0.6373626373626373,0.4373423044575273,1196.0
630.0,1.7109208115845865e+18,0.4765013054830287,0.4132420091324201,0.3372972972972973,0.5047688921496698,0.6417582417582418,0.4499579478553406,1194.0
631.0,1.710920811594587e+18,0.4556135770234987,0.3904109589041096,0.3345945945945946,0.4969430178527757,0.6032967032967033,0.4247266610597141,1193.0
632.0,1.7109208116045837e+18,0.47127937336814624,0.4041095890410959,0.3345945945945946,0.4979212521398875,0.6076923076923076,0.4121110176619008,1192.0
633.0,1.7109208116145853e+18,0.4751958224543081,0.4132420091324201,0.33297297297297296,0.508192712154561,0.6582417582417582,0.45836837678721615,1193.0
634.0,1.7109208116246057e+18,0.4725848563968668,0.4075342465753425,0.3162162162162162,0.49816581071166544,0.6065934065934065,0.4247266610597141,1190.0
635.0,1.7109208116345856e+18,0.44386422976501305,0.3721461187214612,0.33405405405405403,0.5030569821472243,0.6142857142857143,0.4381833473507149,1195.0
636.0,1.7109208116445893e+18,0.48825065274151436,0.4063926940639269,0.33135135135135135,0.504035216434336,0.6252747252747253,0.44911690496215306,1195.0
637.0,1.7109208116545846e+18,0.4660574412532637,0.4452054794520548,0.3362162162162162,0.5037906578625581,0.6582417582417582,0.4373423044575273,1195.0
638.0,1.7109208116645988e+18,0.47127937336814624,0.4257990867579909,0.33945945945945943,0.4883834678405478,0.5956043956043956,0.4163162321278385,1194.0
639.0,1.710920811674583e+18,0.47911227154047,0.4041095890410959,0.33297297297297296,0.48985081927121543,0.6274725274725275,0.4558452481076535,1198.0
640.0,1.7109208116845908e+18,0.44386422976501305,0.4452054794520548,0.3481081081081081,0.5001222792858889,0.6241758241758242,0.4306139613120269,1193.0
641.0,1.710920811694587e+18,0.4516971279373368,0.365296803652968,0.3389189189189189,0.5035460992907801,0.634065934065934,0.4415475189234651,1195.0
642.0,1.710920811704594e+18,0.47780678851174935,0.3767123287671233,0.32054054054054054,0.499877720714111,0.578021978021978,0.432296047098402,1193.0
643.0,1.7109208117145766e+18,0.4556135770234987,0.4018264840182648,0.33135135135135135,0.49058449498654927,0.6010989010989011,0.43566021867115223,1194.0
644.0,1.7109208117245919e+18,0.47127937336814624,0.4041095890410959,0.34540540540540543,0.504279775006114,0.6483516483516484,0.4449116904962153,1195.0
645.0,1.710920811734585e+18,0.42950391644908614,0.3961187214611872,0.3286486486486486,0.5033015407190022,0.5956043956043956,0.4238856181665265,1194.0
646.0,1.710920811744586e+18,0.4516971279373368,0.3961187214611872,0.32,0.5108828564441183,0.6428571428571429,0.4449116904962153,1196.0
647.0,1.7109208117546025e+18,0.4830287206266319,0.3504566210045662,0.33405405405405403,0.5055025678650037,0.6373626373626373,0.4440706476030278,1194.0
648.0,1.7109208117645934e+18,0.47127937336814624,0.4280821917808219,0.3308108108108108,0.49229640498899485,0.6153846153846154,0.4247266610597141,1192.0
649.0,1.7109208117745907e+18,0.4725848563968668,0.3561643835616438,0.32972972972972975,0.5059916850085595,0.6593406593406593,0.4507989907485282,1194.0
650.0,1.7109208117846057e+18,0.4725848563968668,0.4337899543378995,0.34324324324324323,0.5025678650036683,0.6428571428571429,0.43986543313709,1195.0
651.0,1.710920811794592e+18,0.48172323759791125,0.4417808219178082,0.3410810810810811,0.5006113964294449,0.6362637362637362,0.4432296047098402,1196.0
652.0,1.7109208118045957e+18,0.4516971279373368,0.3778538812785388,0.3362162162162162,0.4986549278552213,0.5868131868131868,0.4238856181665265,1193.0
653.0,1.7109208118145856e+18,0.47780678851174935,0.4143835616438356,0.32,0.5064808021521154,0.6274725274725275,0.43566021867115223,1196.0
654.0,1.7109208118245885e+18,0.45039164490861616,0.3470319634703196,0.31513513513513514,0.49498654927855223,0.6428571428571429,0.4449116904962153,1196.0
655.0,1.7109208118345928e+18,0.48172323759791125,0.4349315068493151,0.3372972972972973,0.5059916850085595,0.6637362637362637,0.4499579478553406,1196.0
656.0,1.710920811844593e+18,0.45430809399477806,0.4075342465753425,0.3264864864864865,0.5055025678650037,0.6472527472527473,0.4499579478553406,1197.0
657.0,1.7109208118545915e+18,0.4765013054830287,0.4406392694063927,0.33945945945945943,0.5015896307165566,0.634065934065934,0.45500420521446594,1197.0
658.0,1.7109208118645952e+18,0.45691906005221933,0.4052511415525114,0.33837837837837836,0.4979212521398875,0.5868131868131868,0.4255677039529016,1192.0
659.0,1.7109208118745894e+18,0.47127937336814624,0.3470319634703196,0.312972972972973,0.499877720714111,0.6120879120879121,0.4238856181665265,1192.0
660.0,1.710920811884595e+18,0.47911227154047,0.4246575342465753,0.3389189189189189,0.5037906578625581,0.6274725274725275,0.4339781328847771,1193.0
661.0,1.710920811894595e+18,0.46475195822454307,0.4246575342465753,0.34486486486486484,0.5074590364392272,0.6296703296703297,0.43313708999158956,1195.0
662.0,1.7109208119045962e+18,0.4765013054830287,0.4246575342465753,0.3389189189189189,0.49205184641721694,0.5857142857142857,0.4381833473507149,1196.0
663.0,1.710920811914612e+18,0.4608355091383812,0.3995433789954338,0.34054054054054056,0.4954756664221081,0.5912087912087912,0.4314550042052145,1191.0
664.0,1.7109208119245996e+18,0.4595300261096606,0.4052511415525114,0.34054054054054056,0.5011005135730008,0.6395604395604395,0.4381833473507149,1196.0
665.0,1.7109208119345964e+18,0.4360313315926893,0.386986301369863,0.3356756756756757,0.5015896307165566,0.6065934065934065,0.4280908326324643,1194.0
666.0,1.7109208119445962e+18,0.489556135770235,0.3824200913242009,0.3281081081081081,0.5020787478601125,0.6329670329670329,0.4449116904962153,1196.0
667.0,1.7109208119545984e+18,0.4751958224543081,0.410958904109589,0.3362162162162162,0.5074590364392272,0.6494505494505495,0.44911690496215306,1194.0
668.0,1.710920811964613e+18,0.4556135770234987,0.3961187214611872,0.3302702702702703,0.4974321349963316,0.6230769230769231,0.43902439024390244,1196.0
669.0,1.7109208119745987e+18,0.48433420365535246,0.4121004566210046,0.3254054054054054,0.5015896307165566,0.634065934065934,0.4415475189234651,1198.0
670.0,1.7109208119845857e+18,0.5104438642297651,0.4315068493150685,0.33675675675675676,0.4900953778429934,0.6,0.43566021867115223,1195.0
671.0,1.7109208119945828e+18,0.4765013054830287,0.5,0.3345945945945946,0.49938860357055515,0.6494505494505495,0.4339781328847771,1195.0
672.0,1.7109208120045837e+18,0.4464751958224543,0.4063926940639269,0.3345945945945946,0.5152849107361213,0.6934065934065934,0.4449116904962153,1196.0
673.0,1.7109208120146284e+18,0.4856396866840731,0.4132420091324201,0.32972972972972975,0.5064808021521154,0.7043956043956044,0.4440706476030278,1195.0
674.0,1.7109208120245875e+18,0.4660574412532637,0.4018264840182648,0.33675675675675676,0.4988994864269993,0.6395604395604395,0.4247266610597141,1190.0
675.0,1.7109208120345812e+18,0.46866840731070497,0.4098173515981735,0.33405405405405403,0.5055025678650037,0.6395604395604395,0.4381833473507149,1196.0
676.0,1.710920812044586e+18,0.47780678851174935,0.4075342465753425,0.3145945945945946,0.49498654927855223,0.6186813186813187,0.43313708999158956,1193.0
677.0,1.710920812054582e+18,0.46475195822454307,0.4075342465753425,0.3264864864864865,0.5006113964294449,0.610989010989011,0.43566021867115223,1194.0
678.0,1.7109208120646054e+18,0.4425587467362924,0.4223744292237443,0.3248648648648649,0.5055025678650037,0.6098901098901099,0.4053826745164003,1193.0
679.0,1.7109208120745923e+18,0.46866840731070497,0.4178082191780822,0.3302702702702703,0.504279775006114,0.6362637362637362,0.4449116904962153,1196.0
680.0,1.7109208120845847e+18,0.4804177545691906,0.4315068493150685,0.33405405405405403,0.504524333577892,0.6230769230769231,0.43313708999158956,1192.0
681.0,1.7109208120945792e+18,0.47127937336814624,0.4098173515981735,0.34054054054054056,0.5055025678650037,0.6175824175824176,0.4280908326324643,1191.0
682.0,1.7109208121046075e+18,0.46736292428198434,0.4029680365296804,0.3362162162162162,0.48691611640988014,0.5824175824175825,0.42977291841883936,1193.0
683.0,1.7109208121145887e+18,0.4765013054830287,0.4041095890410959,0.3443243243243243,0.49474199070677427,0.6252747252747253,0.4482758620689655,1194.0
684.0,1.7109208121245809e+18,0.45691906005221933,0.410958904109589,0.33297297297297296,0.49938860357055515,0.6373626373626373,0.43986543313709,1196.0
685.0,1.7109208121345787e+18,0.4699738903394256,0.430365296803653,0.3372972972972973,0.4944974321349963,0.6373626373626373,0.4482758620689655,1196.0
686.0,1.7109208121445786e+18,0.46736292428198434,0.4269406392694064,0.3281081081081081,0.49620934213744194,0.6032967032967033,0.4280908326324643,1192.0
687.0,1.7109208121545976e+18,0.4556135770234987,0.3778538812785388,0.34162162162162163,0.5059916850085595,0.6516483516483517,0.46173254835996635,1196.0
688.0,1.7109208121645788e+18,0.4516971279373368,0.3664383561643836,0.33837837837837836,0.5028124235754463,0.6054945054945055,0.4247266610597141,1192.0
689.0,1.7109208121745787e+18,0.4830287206266319,0.4063926940639269,0.34324324324324323,0.5064808021521154,0.6274725274725275,0.4381833473507149,1195.0
690.0,1.71092081218458e+18,0.49477806788511747,0.4406392694063927,0.32054054054054054,0.4988994864269993,0.6494505494505495,0.4440706476030278,1193.0
691.0,1.710920812194579e+18,0.4595300261096606,0.4063926940639269,0.3389189189189189,0.5018341892883346,0.634065934065934,0.4255677039529016,1193.0
692.0,1.7109208122045898e+18,0.46866840731070497,0.4052511415525114,0.33135135135135135,0.49938860357055515,0.6263736263736264,0.4289318755256518,1194.0
693.0,1.7109208122146173e+18,0.4765013054830287,0.4132420091324201,0.34594594594594597,0.5037906578625581,0.6186813186813187,0.4432296047098402,1195.0
694.0,1.7109208122245857e+18,0.46344647519582244,0.4132420091324201,0.3372972972972973,0.48520420640743456,0.6010989010989011,0.4121110176619008,1192.0
695.0,1.7109208122345892e+18,0.47911227154047,0.4223744292237443,0.33405405405405403,0.5037906578625581,0.6527472527472528,0.4348191757779647,1196.0
696.0,1.7109208122445906e+18,0.49216710182767626,0.454337899543379,0.3037837837837838,0.4805575935436537,0.5582417582417583,0.44238856181665265,1195.0
697.0,1.7109208122546033e+18,0.4856396866840731,0.4269406392694064,0.33783783783783783,0.49645390070921985,0.6329670329670329,0.4575273338940286,1195.0
698.0,1.7109208122646013e+18,0.46866840731070497,0.4132420091324201,0.3356756756756757,0.5018341892883346,0.6186813186813187,0.4381833473507149,1197.0
699.0,1.7109208122745925e+18,0.4412532637075718,0.3904109589041096,0.33297297297297296,0.5116165321594522,0.6021978021978022,0.44238856181665265,1195.0
700.0,1.7109208122845993e+18,0.4804177545691906,0.4143835616438356,0.33945945945945943,0.5057471264367817,0.6637362637362637,0.4449116904962153,1197.0
701.0,1.7109208122945928e+18,0.47780678851174935,0.4223744292237443,0.34486486486486484,0.5084372707263389,0.6758241758241759,0.45836837678721615,1196.0
702.0,1.710920812304597e+18,0.4765013054830287,0.4337899543378995,0.33135135135135135,0.49058449498654927,0.5802197802197803,0.4121110176619008,1193.0
703.0,1.7109208123146115e+18,0.5026109660574413,0.4726027397260274,0.34,0.5037906578625581,0.6505494505494506,0.4381833473507149,1192.0
704.0,1.7109208123245724e+18,0.4765013054830287,0.3664383561643836,0.31675675675675674,0.5025678650036683,0.6131868131868132,0.4415475189234651,1195.0
705.0,1.710920812334574e+18,0.4608355091383812,0.4052511415525114,0.3318918918918919,0.5160185864514552,0.5978021978021978,0.4339781328847771,1191.0
706.0,1.7109208123445793e+18,0.4608355091383812,0.3915525114155251,0.34054054054054056,0.4888725849841037,0.610989010989011,0.4339781328847771,1192.0
707.0,1.710920812354577e+18,0.489556135770235,0.4497716894977169,0.3427027027027027,0.49816581071166544,0.6208791208791209,0.4432296047098402,1196.0
708.0,1.7109208123645934e+18,0.48172323759791125,0.4155251141552511,0.33135135135135135,0.49474199070677427,0.6197802197802198,0.42640874684608915,1191.0
709.0,1.7109208123745784e+18,0.44778067885117495,0.3858447488584475,0.33135135135135135,0.49400831499144043,0.610989010989011,0.4440706476030278,1195.0
710.0,1.710920812384584e+18,0.4830287206266319,0.4121004566210046,0.33675675675675676,0.5103937393005625,0.6615384615384615,0.4415475189234651,1196.0
711.0,1.710920812394582e+18,0.4490861618798956,0.3995433789954338,0.3362162162162162,0.4996331621423331,0.6120879120879121,0.42304457527333894,1193.0
712.0,1.710920812404583e+18,0.47780678851174935,0.4121004566210046,0.33945945945945943,0.5094155050134507,0.6230769230769231,0.4373423044575273,1195.0
713.0,1.710920812414582e+18,0.4869451697127937,0.4052511415525114,0.3210810810810811,0.5133284421618978,0.6802197802197802,0.4575273338940286,1197.0
714.0,1.710920812424594e+18,0.4830287206266319,0.4589041095890411,0.33837837837837836,0.5084372707263389,0.6362637362637362,0.4415475189234651,1196.0
715.0,1.710920812434592e+18,0.44386422976501305,0.3972602739726027,0.33675675675675676,0.4966984592809978,0.6241758241758242,0.42977291841883936,1195.0
716.0,1.710920812444598e+18,0.4856396866840731,0.4143835616438356,0.33837837837837836,0.5103937393005625,0.6582417582417582,0.4507989907485282,1196.0
717.0,1.7109208124546158e+18,0.48172323759791125,0.4463470319634703,0.3427027027027027,0.5059916850085595,0.6417582417582418,0.4482758620689655,1196.0
718.0,1.7109208124646054e+18,0.46866840731070497,0.4315068493150685,0.33783783783783783,0.5028124235754463,0.6274725274725275,0.4440706476030278,1196.0
719.0,1.7109208124745746e+18,0.4725848563968668,0.4063926940639269,0.33837837837837836,0.5028124235754463,0.6230769230769231,0.4449116904962153,1195.0
720.0,1.7109208124846835e+18,0.4595300261096606,0.4063926940639269,0.3302702702702703,0.4984103692834434,0.610989010989011,0.4415475189234651,1193.0
721.0,1.7109208124945812e+18,0.4608355091383812,0.408675799086758,0.34540540540540543,0.5035460992907801,0.6373626373626373,0.4373423044575273,1195.0
722.0,1.7109208125045821e+18,0.4516971279373368,0.3938356164383562,0.31513513513513514,0.49205184641721694,0.6186813186813187,0.43566021867115223,1196.0
723.0,1.710920812514613e+18,0.4765013054830287,0.3675799086757991,0.3264864864864865,0.5074590364392272,0.6571428571428571,0.4465937762825904,1193.0
724.0,1.7109208125245908e+18,0.47127937336814624,0.408675799086758,0.34054054054054056,0.5067253607238934,0.6362637362637362,0.432296047098402,1194.0
725.0,1.7109208125345887e+18,0.45822454308093996,0.4383561643835616,0.34,0.5077035950110051,0.6241758241758242,0.45164003364171573,1194.0
726.0,1.7109208125445896e+18,0.48172323759791125,0.4349315068493151,0.3345945945945946,0.5006113964294449,0.654945054945055,0.44575273338940286,1195.0
727.0,1.7109208125546035e+18,0.4699738903394256,0.4200913242009132,0.33675675675675676,0.48813890926876985,0.6,0.4348191757779647,1195.0
728.0,1.7109208125645967e+18,0.4608355091383812,0.4235159817351598,0.3291891891891892,0.48936170212765956,0.6153846153846154,0.42977291841883936,1193.0
729.0,1.7109208125745981e+18,0.5052219321148825,0.4920091324200913,0.34594594594594597,0.48667155783810223,0.578021978021978,0.4339781328847771,1194.0
730.0,1.7109208125846205e+18,0.48433420365535246,0.4349315068493151,0.3362162162162162,0.5018341892883346,0.6186813186813187,0.4415475189234651,1197.0
731.0,1.7109208125945946e+18,0.5026109660574413,0.4429223744292237,0.3410810810810811,0.4986549278552213,0.5725274725274725,0.4415475189234651,1196.0
732.0,1.7109208126045924e+18,0.45300261096605743,0.4178082191780822,0.3410810810810811,0.5050134507214478,0.6406593406593407,0.4348191757779647,1195.0
733.0,1.710920812614604e+18,0.5078328981723238,0.4680365296803653,0.34756756756756757,0.5089263878698949,0.6505494505494506,0.4482758620689655,1196.0
734.0,1.7109208126245842e+18,0.46475195822454307,0.4372146118721461,0.3389189189189189,0.5103937393005625,0.6417582417582418,0.4432296047098402,1197.0
735.0,1.710920812634581e+18,0.46866840731070497,0.4337899543378995,0.34864864864864864,0.5191978478845684,0.6637362637362637,0.4507989907485282,1196.0
736.0,1.7109208126445821e+18,0.49216710182767626,0.4600456621004566,0.34324324324324323,0.49107361213010514,0.5659340659340659,0.46173254835996635,1195.0
737.0,1.710920812654605e+18,0.4660574412532637,0.4155251141552511,0.3535135135135135,0.5072144778674492,0.6450549450549451,0.4482758620689655,1195.0
738.0,1.7109208126645788e+18,0.47389033942558745,0.3995433789954338,0.33297297297297296,0.4871606749816581,0.6032967032967033,0.43902439024390244,1193.0
739.0,1.710920812674606e+18,0.4608355091383812,0.4006849315068493,0.33513513513513515,0.5160185864514552,0.6472527472527473,0.4314550042052145,1191.0
740.0,1.7109208126845837e+18,0.4595300261096606,0.3938356164383562,0.33513513513513515,0.48251406211787723,0.6010989010989011,0.43650126156433977,1195.0
741.0,1.7109208126945807e+18,0.489556135770235,0.4292237442922374,0.3318918918918919,0.5050134507214478,0.6252747252747253,0.44911690496215306,1195.0
742.0,1.7109208127045832e+18,0.49216710182767626,0.4098173515981735,0.35135135135135137,0.5047688921496698,0.5813186813186814,0.4415475189234651,1196.0
743.0,1.71092081271458e+18,0.5091383812010444,0.4394977168949772,0.32972972972972975,0.5001222792858889,0.6296703296703297,0.4449116904962153,1193.0
744.0,1.7109208127245847e+18,0.47127937336814624,0.410958904109589,0.3308108108108108,0.4854487649792125,0.5582417582417583,0.43313708999158956,1193.0
745.0,1.7109208127345823e+18,0.4725848563968668,0.4406392694063927,0.3232432432432432,0.4886280264123258,0.6010989010989011,0.44575273338940286,1194.0
746.0,1.7109208127445806e+18,0.4725848563968668,0.408675799086758,0.3335135135135135,0.4937637564196625,0.6274725274725275,0.43650126156433977,1196.0
747.0,1.7109208127545938e+18,0.4765013054830287,0.3972602739726027,0.3210810810810811,0.5086818292981169,0.6472527472527473,0.4440706476030278,1193.0
748.0,1.7109208127645837e+18,0.47127937336814624,0.3812785388127854,0.3362162162162162,0.49938860357055515,0.6582417582417582,0.43986543313709,1195.0
749.0,1.710920812774572e+18,0.4765013054830287,0.4006849315068493,0.3335135135135135,0.5096600635852286,0.6230769230769231,0.4381833473507149,1195.0
750.0,1.7109208127845903e+18,0.4869451697127937,0.4349315068493151,0.33945945945945943,0.5025678650036683,0.6351648351648351,0.4449116904962153,1196.0
751.0,1.710920812794579e+18,0.4556135770234987,0.341324200913242,0.32972972972972975,0.5074590364392272,0.6362637362637362,0.46761984861227923,1194.0
752.0,1.7109208128045844e+18,0.45300261096605743,0.410958904109589,0.33675675675675676,0.5077035950110051,0.6384615384615384,0.4415475189234651,1194.0
753.0,1.7109208128146086e+18,0.4908616187989556,0.3812785388127854,0.3318918918918919,0.4974321349963316,0.6087912087912087,0.4449116904962153,1193.0
754.0,1.7109208128245893e+18,0.4660574412532637,0.4041095890410959,0.33297297297297296,0.5059916850085595,0.6395604395604395,0.4449116904962153,1195.0
755.0,1.7109208128345836e+18,0.46736292428198434,0.3949771689497717,0.3254054054054054,0.5138175593054537,0.6263736263736264,0.4507989907485282,1197.0
756.0,1.7109208128445763e+18,0.49216710182767626,0.4052511415525114,0.3356756756756757,0.4988994864269993,0.5725274725274725,0.43902439024390244,1196.0
757.0,1.7109208128545787e+18,0.47911227154047,0.4063926940639269,0.33945945945945943,0.5069699192956714,0.6164835164835165,0.4381833473507149,1194.0
758.0,1.7109208128645824e+18,0.489556135770235,0.4132420091324201,0.3345945945945946,0.4986549278552213,0.6241758241758242,0.4432296047098402,1195.0
759.0,1.7109208128745777e+18,0.47389033942558745,0.3995433789954338,0.32972972972972975,0.5196869650281243,0.676923076923077,0.4373423044575273,1197.0
760.0,1.7109208128845778e+18,0.45822454308093996,0.4257990867579909,0.33135135135135135,0.5037906578625581,0.6538461538461539,0.4465937762825904,1195.0
761.0,1.7109208128945743e+18,0.4869451697127937,0.4212328767123288,0.34540540540540543,0.5030569821472243,0.6263736263736264,0.4482758620689655,1198.0
762.0,1.7109208129045834e+18,0.48825065274151436,0.4634703196347032,0.3324324324324324,0.48813890926876985,0.5956043956043956,0.42977291841883936,1192.0
763.0,1.7109208129148024e+18,0.47127937336814624,0.4132420091324201,0.3237837837837838,0.5015896307165566,0.621978021978022,0.4348191757779647,1193.0
764.0,1.7109208129245814e+18,0.47780678851174935,0.4041095890410959,0.32432432432432434,0.4986549278552213,0.6076923076923076,0.41715727502102606,1194.0
765.0,1.7109208129345805e+18,0.4765013054830287,0.4189497716894977,0.3345945945945946,0.5059916850085595,0.6164835164835165,0.44911690496215306,1195.0
766.0,1.7109208129445842e+18,0.48825065274151436,0.4200913242009132,0.3145945945945946,0.4815358278307655,0.5846153846153846,0.41379310344827586,1193.0
767.0,1.7109208129545802e+18,0.47389033942558745,0.432648401826484,0.3362162162162162,0.5059916850085595,0.6582417582417582,0.4507989907485282,1193.0
768.0,1.710920812964592e+18,0.4595300261096606,0.4200913242009132,0.3318918918918919,0.48495964783565665,0.6164835164835165,0.432296047098402,1193.0
769.0,1.710920812974576e+18,0.4765013054830287,0.4474885844748858,0.33135135135135135,0.48985081927121543,0.6032967032967033,0.45164003364171573,1195.0
770.0,1.7109208129845837e+18,0.45430809399477806,0.3458904109589041,0.312972972972973,0.5030569821472243,0.6362637362637362,0.43313708999158956,1193.0
771.0,1.710920812994581e+18,0.4699738903394256,0.3493150684931507,0.3027027027027027,0.495964783565664,0.6230769230769231,0.4222035323801514,1192.0
772.0,1.710920813004581e+18,0.47911227154047,0.4006849315068493,0.3362162162162162,0.504035216434336,0.6450549450549451,0.4533221194280908,1196.0
773.0,1.7109208130145894e+18,0.48825065274151436,0.4235159817351598,0.3464864864864865,0.5074590364392272,0.6714285714285714,0.4533221194280908,1195.0
774.0,1.7109208130245793e+18,0.46736292428198434,0.4212328767123288,0.33405405405405403,0.5001222792858889,0.6450549450549451,0.4415475189234651,1194.0
775.0,1.7109208130345754e+18,0.489556135770235,0.4280821917808219,0.3324324324324324,0.5001222792858889,0.6318681318681318,0.4507989907485282,1194.0
776.0,1.7109208130445793e+18,0.46475195822454307,0.3904109589041096,0.3264864864864865,0.5064808021521154,0.6373626373626373,0.43650126156433977,1195.0
777.0,1.7109208130545933e+18,0.4490861618798956,0.4143835616438356,0.3410810810810811,0.4979212521398875,0.5901098901098901,0.44070647603027757,1196.0
778.0,1.7109208130645816e+18,0.47127937336814624,0.4041095890410959,0.33405405405405403,0.5055025678650037,0.6472527472527473,0.4381833473507149,1195.0
779.0,1.7109208130745859e+18,0.4804177545691906,0.410958904109589,0.32432432432432434,0.4988994864269993,0.6274725274725275,0.41968040370058873,1195.0
780.0,1.710920813084582e+18,0.5026109660574413,0.4589041095890411,0.34054054054054056,0.5035460992907801,0.6296703296703297,0.4238856181665265,1193.0
781.0,1.710920813094585e+18,0.45430809399477806,0.3744292237442922,0.3254054054054054,0.4974321349963316,0.5934065934065934,0.4415475189234651,1196.0
782.0,1.710920813104617e+18,0.4869451697127937,0.4269406392694064,0.3362162162162162,0.499877720714111,0.6307692307692307,0.43902439024390244,1195.0
783.0,1.7109208131145774e+18,0.44386422976501305,0.3710045662100457,0.3021621621621622,0.5006113964294449,0.610989010989011,0.43902439024390244,1194.0
784.0,1.710920813124573e+18,0.4869451697127937,0.410958904109589,0.3410810810810811,0.5086818292981169,0.6428571428571429,0.45164003364171573,1192.0
785.0,1.7109208131345774e+18,0.4660574412532637,0.3892694063926941,0.3362162162162162,0.495964783565664,0.5615384615384615,0.4289318755256518,1192.0
786.0,1.7109208131445786e+18,0.47780678851174935,0.4121004566210046,0.3362162162162162,0.5086818292981169,0.6472527472527473,0.4432296047098402,1196.0
787.0,1.7109208131545966e+18,0.46736292428198434,0.4121004566210046,0.33837837837837836,0.5035460992907801,0.634065934065934,0.43986543313709,1196.0
788.0,1.7109208131645827e+18,0.47911227154047,0.408675799086758,0.33675675675675676,0.5059916850085595,0.6164835164835165,0.4289318755256518,1192.0
789.0,1.710920813174579e+18,0.46866840731070497,0.4486301369863014,0.34324324324324323,0.49058449498654927,0.6230769230769231,0.4415475189234651,1193.0
790.0,1.7109208131845804e+18,0.45039164490861616,0.4600456621004566,0.3627027027027027,0.508192712154561,0.6362637362637362,0.4482758620689655,1195.0
791.0,1.7109208131945774e+18,0.4660574412532637,0.4509132420091324,0.34540540540540543,0.4732208363903155,0.6175824175824176,0.4482758620689655,1195.0
792.0,1.7109208132045857e+18,0.4464751958224543,0.3824200913242009,0.3308108108108108,0.5015896307165566,0.6428571428571429,0.4255677039529016,1192.0
793.0,1.710920813214581e+18,0.4621409921671018,0.3858447488584475,0.3362162162162162,0.4966984592809978,0.6098901098901099,0.4449116904962153,1195.0
794.0,1.7109208132245763e+18,0.46736292428198434,0.3755707762557078,0.3210810810810811,0.5015896307165566,0.6494505494505495,0.4415475189234651,1194.0
795.0,1.7109208132345815e+18,0.4830287206266319,0.4292237442922374,0.3372972972972973,0.5015896307165566,0.6230769230769231,0.43986543313709,1195.0
796.0,1.710920813244582e+18,0.47780678851174935,0.3915525114155251,0.33297297297297296,0.4896062606994375,0.5835164835164836,0.4247266610597141,1194.0
797.0,1.7109208132545994e+18,0.47911227154047,0.4052511415525114,0.3389189189189189,0.5062362435803375,0.6472527472527473,0.4465937762825904,1194.0
798.0,1.7109208132645844e+18,0.46475195822454307,0.4178082191780822,0.3372972972972973,0.5015896307165566,0.6197802197802198,0.432296047098402,1195.0
799.0,1.7109208132745787e+18,0.47780678851174935,0.4075342465753425,0.33135135135135135,0.49082905355832723,0.5791208791208792,0.44238856181665265,1195.0
800.0,1.7109208132845844e+18,0.48433420365535246,0.4497716894977169,0.33405405405405403,0.5216434336023478,0.6362637362637362,0.4381833473507149,1193.0
801.0,1.7109208132945787e+18,0.47911227154047,0.4200913242009132,0.3372972972972973,0.4942528735632184,0.6,0.432296047098402,1192.0
802.0,1.7109208133045865e+18,0.46866840731070497,0.430365296803653,0.3372972972972973,0.5020787478601125,0.6417582417582418,0.4507989907485282,1195.0
803.0,1.7109208133145713e+18,0.44778067885117495,0.3995433789954338,0.33297297297297296,0.5015896307165566,0.6153846153846154,0.41968040370058873,1189.0
804.0,1.710920813324578e+18,0.47127937336814624,0.4212328767123288,0.3345945945945946,0.5023233064318905,0.6186813186813187,0.4381833473507149,1192.0
805.0,1.7109208133345784e+18,0.47911227154047,0.4223744292237443,0.3318918918918919,0.5067253607238934,0.6384615384615384,0.45500420521446594,1195.0
806.0,1.7109208133445788e+18,0.5026109660574413,0.4292237442922374,0.3324324324324324,0.4971875764245537,0.6032967032967033,0.43566021867115223,1194.0
807.0,1.7109208133545843e+18,0.49216710182767626,0.4680365296803653,0.35135135135135137,0.5103937393005625,0.6450549450549451,0.4533221194280908,1194.0
808.0,1.7109208133645852e+18,0.47780678851174935,0.4246575342465753,0.3427027027027027,0.499877720714111,0.6318681318681318,0.4415475189234651,1193.0
809.0,1.710920813374585e+18,0.47127937336814624,0.410958904109589,0.3362162162162162,0.5037906578625581,0.656043956043956,0.45836837678721615,1195.0
810.0,1.7109208133845924e+18,0.4908616187989556,0.519406392694064,0.34,0.4883834678405478,0.6021978021978022,0.44238856181665265,1194.0
811.0,1.7109208133945815e+18,0.4621409921671018,0.3938356164383562,0.3345945945945946,0.49767669356810956,0.6241758241758242,0.4634146341463415,1193.0
812.0,1.7109208134045896e+18,0.48433420365535246,0.4360730593607306,0.3264864864864865,0.5050134507214478,0.6318681318681318,0.44238856181665265,1194.0
813.0,1.7109208134145907e+18,0.4556135770234987,0.3721461187214612,0.33837837837837836,0.49816581071166544,0.6032967032967033,0.4482758620689655,1194.0
814.0,1.7109208134245832e+18,0.4621409921671018,0.4132420091324201,0.33405405405405403,0.47664465639520665,0.5901098901098901,0.4222035323801514,1193.0
815.0,1.7109208134345876e+18,0.46866840731070497,0.4223744292237443,0.32756756756756755,0.491562729273661,0.6054945054945055,0.4449116904962153,1194.0
816.0,1.7109208134445814e+18,0.4869451697127937,0.4246575342465753,0.34,0.5160185864514552,0.6428571428571429,0.4381833473507149,1194.0
817.0,1.710920813454636e+18,0.46344647519582244,0.4691780821917808,0.3427027027027027,0.5020787478601125,0.6153846153846154,0.43650126156433977,1194.0
818.0,1.7109208134646305e+18,0.48433420365535246,0.4257990867579909,0.34054054054054056,0.5020787478601125,0.5978021978021978,0.4339781328847771,1192.0
819.0,1.7109208134745812e+18,0.48825065274151436,0.4474885844748858,0.35027027027027025,0.5143066764490095,0.6505494505494506,0.45164003364171573,1196.0
820.0,1.7109208134845855e+18,0.47389033942558745,0.4280821917808219,0.3427027027027027,0.5094155050134507,0.6472527472527473,0.44575273338940286,1194.0
821.0,1.7109208134945815e+18,0.49869451697127937,0.4132420091324201,0.33837837837837836,0.5028124235754463,0.6329670329670329,0.456686291000841,1195.0
822.0,1.7109208135045865e+18,0.4765013054830287,0.4121004566210046,0.33837837837837836,0.5025678650036683,0.6142857142857143,0.4314550042052145,1192.0
823.0,1.710920813515532e+18,0.47127937336814624,0.4063926940639269,0.3345945945945946,0.5055025678650037,0.6197802197802198,0.43650126156433977,1192.0
824.0,1.710920813524583e+18,0.45822454308093996,0.3892694063926941,0.3427027027027027,0.5028124235754463,0.6186813186813187,0.4339781328847771,1192.0
825.0,1.710920813534583e+18,0.4595300261096606,0.4121004566210046,0.33783783783783783,0.5055025678650037,0.6318681318681318,0.4482758620689655,1195.0
826.0,1.7109208135446244e+18,0.5013054830287206,0.4463470319634703,0.33513513513513515,0.5069699192956714,0.6505494505494506,0.4381833473507149,1194.0
827.0,1.7109208135546337e+18,0.4556135770234987,0.3812785388127854,0.3254054054054054,0.48936170212765956,0.5978021978021978,0.4222035323801514,1193.0
828.0,1.7109208135646244e+18,0.46736292428198434,0.4178082191780822,0.34702702702702704,0.5086818292981169,0.6285714285714286,0.4314550042052145,1192.0
829.0,1.7109208135746235e+18,0.4660574412532637,0.4006849315068493,0.33405405405405403,0.49816581071166544,0.6076923076923076,0.45500420521446594,1194.0
830.0,1.710920813584628e+18,0.48433420365535246,0.4440639269406393,0.33675675675675676,0.5018341892883346,0.6362637362637362,0.4432296047098402,1195.0
831.0,1.710920813594624e+18,0.4908616187989556,0.4520547945205479,0.3362162162162162,0.5084372707263389,0.6384615384615384,0.43986543313709,1194.0
832.0,1.7109208136046254e+18,0.46475195822454307,0.4052511415525114,0.3232432432432432,0.5047688921496698,0.6450549450549451,0.4289318755256518,1192.0
833.0,1.710920813614638e+18,0.4869451697127937,0.4223744292237443,0.3410810810810811,0.5006113964294449,0.6362637362637362,0.4465937762825904,1196.0
834.0,1.710920813624626e+18,0.4908616187989556,0.4497716894977169,0.3335135135135135,0.49767669356810956,0.6362637362637362,0.4314550042052145,1193.0
835.0,1.7109208136346358e+18,0.44386422976501305,0.3858447488584475,0.3291891891891892,0.4927855221325507,0.6120879120879121,0.45248107653490327,1196.0
836.0,1.7109208136446277e+18,0.4725848563968668,0.3995433789954338,0.34486486486486484,0.5020787478601125,0.6076923076923076,0.4289318755256518,1192.0
837.0,1.7109208136546386e+18,0.47780678851174935,0.4280821917808219,0.34486486486486484,0.5059916850085595,0.6637362637362637,0.4533221194280908,1195.0
838.0,1.7109208136646287e+18,0.47911227154047,0.4634703196347032,0.32756756756756755,0.5089263878698949,0.634065934065934,0.4289318755256518,1192.0
839.0,1.710920813674629e+18,0.4765013054830287,0.4098173515981735,0.33675675675675676,0.49938860357055515,0.6362637362637362,0.44238856181665265,1196.0
840.0,1.7109208136846292e+18,0.4830287206266319,0.4200913242009132,0.3308108108108108,0.5020787478601125,0.6065934065934065,0.42052144659377627,1191.0
841.0,1.7109208136946132e+18,0.4699738903394256,0.4132420091324201,0.33135135135135135,0.5103937393005625,0.6538461538461539,0.44911690496215306,1194.0
842.0,1.7109208137046167e+18,0.4765013054830287,0.4018264840182648,0.3254054054054054,0.4927855221325507,0.5791208791208792,0.4432296047098402,1194.0
843.0,1.710920813714611e+18,0.48433420365535246,0.4235159817351598,0.3286486486486486,0.5025678650036683,0.6197802197802198,0.4432296047098402,1192.0
844.0,1.7109208137246134e+18,0.48433420365535246,0.4349315068493151,0.3372972972972973,0.5057471264367817,0.6373626373626373,0.4432296047098402,1195.0
845.0,1.710920813734613e+18,0.45822454308093996,0.386986301369863,0.30486486486486486,0.5047688921496698,0.6461538461538462,0.4499579478553406,1194.0
846.0,1.7109208137446134e+18,0.47389033942558745,0.4383561643835616,0.32594594594594595,0.508192712154561,0.5923076923076923,0.4255677039529016,1193.0
847.0,1.7109208137546184e+18,0.47127937336814624,0.4315068493150685,0.33837837837837836,0.5072144778674492,0.6362637362637362,0.4449116904962153,1196.0
848.0,1.7109208137646095e+18,0.4765013054830287,0.4235159817351598,0.34486486486486484,0.5079481535827831,0.6384615384615384,0.4415475189234651,1193.0
849.0,1.7109208137746084e+18,0.4804177545691906,0.4132420091324201,0.33675675675675676,0.504524333577892,0.6362637362637362,0.43566021867115223,1193.0
850.0,1.710920813784613e+18,0.4830287206266319,0.410958904109589,0.33783783783783783,0.4974321349963316,0.6131868131868132,0.44238856181665265,1193.0
851.0,1.710920813794611e+18,0.4608355091383812,0.4246575342465753,0.3497297297297297,0.5020787478601125,0.6142857142857143,0.4499579478553406,1193.0
852.0,1.7109208138046108e+18,0.489556135770235,0.4315068493150685,0.3308108108108108,0.4974321349963316,0.6164835164835165,0.43566021867115223,1195.0
853.0,1.710920813814605e+18,0.4765013054830287,0.4143835616438356,0.3362162162162162,0.5003668378576669,0.621978021978022,0.4432296047098402,1196.0
854.0,1.7109208138246108e+18,0.4751958224543081,0.430365296803653,0.33945945945945943,0.5047688921496698,0.6494505494505495,0.4440706476030278,1196.0
855.0,1.710920813834606e+18,0.4595300261096606,0.3961187214611872,0.33513513513513515,0.49474199070677427,0.6010989010989011,0.4255677039529016,1193.0
856.0,1.710920813844606e+18,0.4699738903394256,0.3961187214611872,0.3318918918918919,0.4937637564196625,0.6054945054945055,0.42640874684608915,1194.0
857.0,1.710920813854606e+18,0.48172323759791125,0.4257990867579909,0.3410810810810811,0.5057471264367817,0.6351648351648351,0.4415475189234651,1195.0
858.0,1.7109208138646382e+18,0.4699738903394256,0.3961187214611872,0.32756756756756755,0.48520420640743456,0.5571428571428572,0.4255677039529016,1192.0
859.0,1.7109208138746022e+18,0.48172323759791125,0.4223744292237443,0.33405405405405403,0.5074590364392272,0.6417582417582418,0.45500420521446594,1195.0
860.0,1.7109208138846057e+18,0.45039164490861616,0.3230593607305936,0.3216216216216216,0.5003668378576669,0.6307692307692307,0.45500420521446594,1193.0
861.0,1.710920813894603e+18,0.4725848563968668,0.4189497716894977,0.33837837837837836,0.5047688921496698,0.6296703296703297,0.4348191757779647,1195.0
862.0,1.710920813904605e+18,0.48172323759791125,0.4132420091324201,0.33297297297297296,0.5008559550012228,0.6186813186813187,0.43650126156433977,1193.0
863.0,1.7109208139150556e+18,0.4725848563968668,0.4178082191780822,0.3335135135135135,0.5003668378576669,0.5989010989010989,0.4482758620689655,1193.0
864.0,1.7109208139246034e+18,0.45300261096605743,0.3824200913242009,0.3216216216216216,0.495720224993886,0.6318681318681318,0.4432296047098402,1196.0
865.0,1.710920813934609e+18,0.4556135770234987,0.3926940639269406,0.3302702702702703,0.48691611640988014,0.6186813186813187,0.43313708999158956,1192.0
866.0,1.7109208139446006e+18,0.4556135770234987,0.3881278538812785,0.32756756756756755,0.5020787478601125,0.6153846153846154,0.43902439024390244,1193.0
867.0,1.7109208139546007e+18,0.4765013054830287,0.408675799086758,0.33837837837837836,0.49107361213010514,0.5923076923076923,0.4314550042052145,1192.0
868.0,1.7109208139646141e+18,0.46344647519582244,0.4075342465753425,0.3362162162162162,0.5062362435803375,0.6373626373626373,0.4415475189234651,1195.0
869.0,1.7109208139745987e+18,0.4725848563968668,0.476027397260274,0.3372972972972973,0.5059916850085595,0.6142857142857143,0.4415475189234651,1196.0
870.0,1.7109208139846e+18,0.48825065274151436,0.4406392694063927,0.34054054054054056,0.5018341892883346,0.6153846153846154,0.41968040370058873,1193.0
871.0,1.7109208139945958e+18,0.47911227154047,0.4360730593607306,0.3356756756756757,0.4974321349963316,0.6054945054945055,0.4440706476030278,1197.0
872.0,1.7109208140045983e+18,0.4869451697127937,0.4018264840182648,0.33837837837837836,0.5037906578625581,0.6296703296703297,0.432296047098402,1192.0
873.0,1.7109208140146084e+18,0.4869451697127937,0.4337899543378995,0.3518918918918919,0.5067253607238934,0.6362637362637362,0.4415475189234651,1195.0
874.0,1.7109208140245965e+18,0.4490861618798956,0.384703196347032,0.32972972972972975,0.504035216434336,0.6329670329670329,0.4449116904962153,1195.0
875.0,1.710920814034598e+18,0.5078328981723238,0.4372146118721461,0.34162162162162163,0.4986549278552213,0.6285714285714286,0.45248107653490327,1194.0
876.0,1.7109208140446147e+18,0.4608355091383812,0.4292237442922374,0.3291891891891892,0.48642699926632427,0.5879120879120879,0.4163162321278385,1190.0
877.0,1.710920814054597e+18,0.5078328981723238,0.4452054794520548,0.3362162162162162,0.5003668378576669,0.6263736263736264,0.43902439024390244,1196.0
878.0,1.7109208140646454e+18,0.47780678851174935,0.3664383561643836,0.31945945945945947,0.5023233064318905,0.6274725274725275,0.4499579478553406,1195.0
879.0,1.7109208140745946e+18,0.4621409921671018,0.3904109589041096,0.3410810810810811,0.495720224993886,0.6098901098901099,0.44911690496215306,1196.0
880.0,1.710920814084601e+18,0.4830287206266319,0.4132420091324201,0.33405405405405403,0.49816581071166544,0.6054945054945055,0.4348191757779647,1196.0
881.0,1.7109208140945976e+18,0.47127937336814624,0.4178082191780822,0.3372972972972973,0.5023233064318905,0.6395604395604395,0.4465937762825904,1196.0
882.0,1.710920814104646e+18,0.4516971279373368,0.3698630136986301,0.31567567567567567,0.5047688921496698,0.6164835164835165,0.43566021867115223,1198.0
883.0,1.710920814114591e+18,0.5039164490861618,0.476027397260274,0.34054054054054056,0.5062362435803375,0.6373626373626373,0.4449116904962153,1195.0
884.0,1.710920814124589e+18,0.47911227154047,0.4063926940639269,0.3443243243243243,0.4991440449987772,0.6241758241758242,0.44238856181665265,1195.0
885.0,1.7109208141345917e+18,0.45691906005221933,0.410958904109589,0.3291891891891892,0.49229640498899485,0.6054945054945055,0.43902439024390244,1195.0
886.0,1.710920814144595e+18,0.47389033942558745,0.4143835616438356,0.34378378378378377,0.5050134507214478,0.6175824175824176,0.43902439024390244,1195.0
887.0,1.7109208141546191e+18,0.47911227154047,0.4417808219178082,0.33945945945945943,0.5067253607238934,0.6582417582417582,0.4558452481076535,1196.0
888.0,1.7109208141645955e+18,0.4804177545691906,0.4554794520547945,0.3286486486486486,0.491562729273661,0.6065934065934065,0.4348191757779647,1196.0
889.0,1.7109208141745905e+18,0.4464751958224543,0.3732876712328767,0.3389189189189189,0.49938860357055515,0.6076923076923076,0.432296047098402,1192.0
890.0,1.7109208141845914e+18,0.4451697127937337,0.3812785388127854,0.32972972972972975,0.5103937393005625,0.6384615384615384,0.432296047098402,1193.0
891.0,1.7109208141945897e+18,0.45822454308093996,0.4018264840182648,0.32,0.4937637564196625,0.5978021978021978,0.43566021867115223,1196.0
892.0,1.710920814204591e+18,0.4765013054830287,0.4212328767123288,0.33405405405405403,0.5074590364392272,0.6516483516483517,0.44238856181665265,1194.0
893.0,1.7109208142145876e+18,0.5182767624020888,0.4337899543378995,0.33783783783783783,0.4979212521398875,0.6186813186813187,0.45164003364171573,1194.0
894.0,1.7109208142245857e+18,0.47127937336814624,0.4029680365296804,0.3254054054054054,0.49767669356810956,0.5967032967032967,0.43902439024390244,1194.0
895.0,1.7109208142345585e+18,0.4660574412532637,0.4052511415525114,0.33675675675675676,0.4986549278552213,0.6010989010989011,0.4432296047098402,1196.0
896.0,1.7109208142445875e+18,0.46866840731070497,0.3892694063926941,0.3281081081081081,0.4969430178527757,0.5945054945054945,0.42052144659377627,1193.0
897.0,1.7109208142545956e+18,0.4725848563968668,0.4360730593607306,0.3318918918918919,0.49523110785033014,0.6098901098901099,0.45164003364171573,1196.0
898.0,1.710920814264595e+18,0.4725848563968668,0.4098173515981735,0.3362162162162162,0.5020787478601125,0.5868131868131868,0.4213624894869638,1194.0
899.0,1.710920814274594e+18,0.46344647519582244,0.4189497716894977,0.34216216216216216,0.5094155050134507,0.6197802197802198,0.43313708999158956,1193.0
900.0,1.7109208142845916e+18,0.4934725848563969,0.4212328767123288,0.33405405405405403,0.4986549278552213,0.6208791208791209,0.4314550042052145,1192.0
901.0,1.7109208142945902e+18,0.48433420365535246,0.4178082191780822,0.32756756756756755,0.5015896307165566,0.6362637362637362,0.4507989907485282,1196.0
902.0,1.7109208143045921e+18,0.43994778067885115,0.3287671232876712,0.3210810810810811,0.4900953778429934,0.6131868131868132,0.43650126156433977,1196.0
903.0,1.7109208143145905e+18,0.41906005221932113,0.3093607305936073,0.3286486486486486,0.483492296404989,0.5945054945054945,0.4247266610597141,1190.0
904.0,1.7109208143245919e+18,0.4765013054830287,0.4029680365296804,0.3308108108108108,0.5028124235754463,0.6186813186813187,0.4247266610597141,1189.0
905.0,1.7109208143345892e+18,0.4556135770234987,0.4155251141552511,0.32972972972972975,0.49229640498899485,0.6131868131868132,0.42304457527333894,1193.0
906.0,1.710920814344588e+18,0.42036553524804177,0.4063926940639269,0.30864864864864866,0.5015896307165566,0.610989010989011,0.4449116904962153,1193.0
907.0,1.7109208143545992e+18,0.46736292428198434,0.4155251141552511,0.33783783783783783,0.495964783565664,0.6362637362637362,0.4415475189234651,1196.0
908.0,1.7109208143646062e+18,0.4621409921671018,0.4246575342465753,0.3481081081081081,0.5035460992907801,0.6065934065934065,0.42640874684608915,1190.0
909.0,1.7109208143745902e+18,0.4725848563968668,0.4052511415525114,0.32972972972972975,0.4913181707018831,0.5802197802197803,0.42977291841883936,1192.0
910.0,1.7109208143845903e+18,0.4856396866840731,0.4212328767123288,0.3318918918918919,0.5055025678650037,0.6208791208791209,0.4415475189234651,1194.0
911.0,1.7109208143945897e+18,0.48172323759791125,0.4041095890410959,0.34216216216216216,0.5020787478601125,0.6186813186813187,0.4440706476030278,1196.0
912.0,1.7109208144045903e+18,0.46344647519582244,0.3812785388127854,0.3027027027027027,0.4900953778429934,0.5956043956043956,0.42640874684608915,1190.0
913.0,1.7109208144145897e+18,0.49738903394255873,0.4132420091324201,0.3335135135135135,0.5079481535827831,0.6351648351648351,0.4280908326324643,1193.0
914.0,1.7109208144245898e+18,0.47127937336814624,0.4417808219178082,0.33837837837837836,0.4979212521398875,0.6098901098901099,0.4280908326324643,1192.0
915.0,1.710920814434588e+18,0.48172323759791125,0.4634703196347032,0.3427027027027027,0.5059916850085595,0.6362637362637362,0.4432296047098402,1197.0
916.0,1.7109208144445883e+18,0.4830287206266319,0.4383561643835616,0.34216216216216216,0.4969430178527757,0.5824175824175825,0.4381833473507149,1193.0
917.0,1.7109208144546097e+18,0.47389033942558745,0.4417808219178082,0.3491891891891892,0.49400831499144043,0.5967032967032967,0.4339781328847771,1192.0
918.0,1.710920814464593e+18,0.46736292428198434,0.4269406392694064,0.33297297297297296,0.4966984592809978,0.6318681318681318,0.4247266610597141,1194.0
919.0,1.7109208144745915e+18,0.489556135770235,0.4337899543378995,0.34054054054054056,0.5133284421618978,0.6593406593406593,0.43986543313709,1194.0
920.0,1.7109208144845924e+18,0.489556135770235,0.4863013698630137,0.33837837837837836,0.5074590364392272,0.6153846153846154,0.43650126156433977,1195.0
921.0,1.71092081449459e+18,0.48433420365535246,0.4360730593607306,0.34054054054054056,0.5059916850085595,0.6428571428571429,0.4339781328847771,1192.0
922.0,1.710920814504596e+18,0.47911227154047,0.3984018264840183,0.312972972972973,0.5067253607238934,0.6274725274725275,0.4415475189234651,1196.0
923.0,1.7109208145145874e+18,0.4765013054830287,0.4748858447488584,0.33405405405405403,0.5018341892883346,0.6131868131868132,0.4314550042052145,1190.0
924.0,1.710920814524586e+18,0.4765013054830287,0.4132420091324201,0.33837837837837836,0.49523110785033014,0.6406593406593407,0.43566021867115223,1195.0
925.0,1.710920814534587e+18,0.4804177545691906,0.4041095890410959,0.3264864864864865,0.504524333577892,0.6472527472527473,0.4482758620689655,1194.0
926.0,1.7109208145445814e+18,0.46866840731070497,0.4394977168949772,0.3216216216216216,0.4937637564196625,0.621978021978022,0.4289318755256518,1194.0
927.0,1.7109208145545907e+18,0.5026109660574413,0.432648401826484,0.3264864864864865,0.49938860357055515,0.6307692307692307,0.45500420521446594,1194.0
928.0,1.7109208145645865e+18,0.47127937336814624,0.4143835616438356,0.3291891891891892,0.4817803864025434,0.5978021978021978,0.4314550042052145,1192.0
929.0,1.7109208145745912e+18,0.4765013054830287,0.4417808219178082,0.3535135135135135,0.5069699192956714,0.6384615384615384,0.44575273338940286,1196.0
930.0,1.71092081458459e+18,0.42428198433420367,0.3675799086757991,0.32756756756756755,0.4966984592809978,0.589010989010989,0.4028595458368377,1193.0
931.0,1.7109208145945874e+18,0.49869451697127937,0.45662100456621,0.34486486486486484,0.495964783565664,0.6076923076923076,0.4381833473507149,1194.0
932.0,1.7109208146045916e+18,0.47389033942558745,0.4041095890410959,0.33837837837837836,0.4986549278552213,0.6131868131868132,0.4280908326324643,1192.0
933.0,1.710920814614596e+18,0.489556135770235,0.3949771689497717,0.3286486486486486,0.5028124235754463,0.6010989010989011,0.45164003364171573,1194.0
934.0,1.710920814624593e+18,0.46475195822454307,0.4041095890410959,0.3232432432432432,0.4883834678405478,0.6142857142857143,0.41042893187552565,1191.0
935.0,1.7109208146345912e+18,0.48172323759791125,0.4052511415525114,0.3124324324324324,0.5084372707263389,0.6593406593406593,0.456686291000841,1193.0
936.0,1.7109208146445875e+18,0.5039164490861618,0.4680365296803653,0.33837837837837836,0.512350207874786,0.6593406593406593,0.45164003364171573,1195.0
937.0,1.7109208146546035e+18,0.4869451697127937,0.3755707762557078,0.32756756756756755,0.5037906578625581,0.6307692307692307,0.4348191757779647,1194.0
938.0,1.710920814664592e+18,0.47127937336814624,0.3858447488584475,0.3362162162162162,0.5055025678650037,0.5978021978021978,0.42304457527333894,1192.0
939.0,1.710920814674595e+18,0.49216710182767626,0.4257990867579909,0.34486486486486484,0.5077035950110051,0.6461538461538462,0.4465937762825904,1195.0
940.0,1.7109208146845932e+18,0.47389033942558745,0.4052511415525114,0.34486486486486484,0.49351919784788456,0.6274725274725275,0.44238856181665265,1195.0
941.0,1.7109208146945938e+18,0.45300261096605743,0.3961187214611872,0.33783783783783783,0.5006113964294449,0.6362637362637362,0.4465937762825904,1195.0
942.0,1.7109208147045942e+18,0.4516971279373368,0.3744292237442922,0.3318918918918919,0.5062362435803375,0.6274725274725275,0.4339781328847771,1192.0
943.0,1.7109208147145846e+18,0.47389033942558745,0.3926940639269406,0.33837837837837836,0.5108828564441183,0.6406593406593407,0.4499579478553406,1194.0
944.0,1.7109208147245937e+18,0.4621409921671018,0.4075342465753425,0.3345945945945946,0.4966984592809978,0.6252747252747253,0.4306139613120269,1192.0
945.0,1.7109208147345876e+18,0.4725848563968668,0.4383561643835616,0.34054054054054056,0.5028124235754463,0.6428571428571429,0.4482758620689655,1194.0
946.0,1.7109208147445885e+18,0.4804177545691906,0.3995433789954338,0.3016216216216216,0.5023233064318905,0.6274725274725275,0.4289318755256518,1192.0
947.0,1.7109208147545992e+18,0.4725848563968668,0.4223744292237443,0.3481081081081081,0.5062362435803375,0.6516483516483517,0.4415475189234651,1197.0
948.0,1.710920814764603e+18,0.4765013054830287,0.4063926940639269,0.3345945945945946,0.47542186353631694,0.5956043956043956,0.432296047098402,1192.0
949.0,1.7109208147745905e+18,0.4869451697127937,0.4406392694063927,0.34,0.5086818292981169,0.6406593406593407,0.4575273338940286,1192.0
950.0,1.7109208147845944e+18,0.47127937336814624,0.408675799086758,0.3389189189189189,0.4942528735632184,0.6065934065934065,0.4306139613120269,1192.0
951.0,1.71092081479459e+18,0.47127937336814624,0.386986301369863,0.33675675675675676,0.49620934213744194,0.6208791208791209,0.4449116904962153,1197.0
952.0,1.7109208148045903e+18,0.48825065274151436,0.4554794520547945,0.33135135135135135,0.5020787478601125,0.6274725274725275,0.4381833473507149,1195.0
953.0,1.7109208148145344e+18,0.46344647519582244,0.408675799086758,0.3335135135135135,0.49938860357055515,0.6175824175824176,0.44070647603027757,1194.0
954.0,1.7109208148246019e+18,0.47780678851174935,0.4063926940639269,0.3091891891891892,0.5015896307165566,0.5857142857142857,0.4146341463414634,1194.0
955.0,1.710920814834591e+18,0.4765013054830287,0.3972602739726027,0.34162162162162163,0.512350207874786,0.6604395604395604,0.44238856181665265,1197.0
956.0,1.7109208148445919e+18,0.4869451697127937,0.3995433789954338,0.3237837837837838,0.49620934213744194,0.5615384615384615,0.4255677039529016,1193.0
957.0,1.7109208148545915e+18,0.4804177545691906,0.3915525114155251,0.3362162162162162,0.5057471264367817,0.6318681318681318,0.45500420521446594,1197.0
958.0,1.710920814864606e+18,0.49738903394255873,0.4178082191780822,0.33135135135135135,0.5069699192956714,0.6406593406593407,0.432296047098402,1193.0
959.0,1.7109208148746148e+18,0.4869451697127937,0.4200913242009132,0.32594594594594595,0.512350207874786,0.6703296703296703,0.45164003364171573,1195.0
960.0,1.7109208148846162e+18,0.4869451697127937,0.408675799086758,0.33675675675675676,0.5006113964294449,0.6274725274725275,0.4381833473507149,1193.0
961.0,1.7109208148946176e+18,0.47127937336814624,0.4143835616438356,0.34,0.5091709464416728,0.6505494505494506,0.45164003364171573,1194.0
962.0,1.71092081490462e+18,0.49216710182767626,0.4360730593607306,0.3427027027027027,0.5086818292981169,0.6318681318681318,0.4465937762825904,1196.0
963.0,1.7109208149151094e+18,0.48172323759791125,0.4292237442922374,0.3362162162162162,0.5057471264367817,0.6417582417582418,0.4465937762825904,1196.0
964.0,1.7109208149246403e+18,0.45300261096605743,0.3641552511415525,0.33405405405405403,0.4925409635607728,0.6032967032967033,0.41715727502102606,1193.0
965.0,1.710920814934621e+18,0.45822454308093996,0.3858447488584475,0.33297297297297296,0.5025678650036683,0.6307692307692307,0.45248107653490327,1197.0
966.0,1.7109208149446208e+18,0.46866840731070497,0.3824200913242009,0.3302702702702703,0.5015896307165566,0.6241758241758242,0.4339781328847771,1192.0
967.0,1.7109208149546212e+18,0.4856396866840731,0.3881278538812785,0.3232432432432432,0.4856933235509905,0.6032967032967033,0.4373423044575273,1196.0
968.0,1.7109208149646426e+18,0.4386422976501306,0.4063926940639269,0.34054054054054056,0.49229640498899485,0.5802197802197803,0.41042893187552565,1192.0
969.0,1.710920814974622e+18,0.46866840731070497,0.4063926940639269,0.3345945945945946,0.5187087307410124,0.6406593406593407,0.4465937762825904,1195.0
970.0,1.7109208149846234e+18,0.47780678851174935,0.410958904109589,0.33297297297297296,0.4930300807043287,0.5879120879120879,0.4213624894869638,1192.0
971.0,1.7109208149946232e+18,0.4464751958224543,0.3767123287671233,0.33945945945945943,0.504524333577892,0.6307692307692307,0.4465937762825904,1193.0
972.0,1.7109208150046267e+18,0.49216710182767626,0.430365296803653,0.33837837837837836,0.5035460992907801,0.6230769230769231,0.43566021867115223,1196.0
973.0,1.7109208150146534e+18,0.4830287206266319,0.430365296803653,0.34162162162162163,0.4969430178527757,0.621978021978022,0.4558452481076535,1195.0
974.0,1.7109208150245975e+18,0.4699738903394256,0.3664383561643836,0.3308108108108108,0.4984103692834434,0.6142857142857143,0.43650126156433977,1194.0
975.0,1.7109208150346104e+18,0.4934725848563969,0.430365296803653,0.3389189189189189,0.5064808021521154,0.6384615384615384,0.45164003364171573,1198.0
976.0,1.7109208150446182e+18,0.4765013054830287,0.4178082191780822,0.34162162162162163,0.5028124235754463,0.6417582417582418,0.4592094196804037,1196.0
977.0,1.710920815054641e+18,0.47127937336814624,0.4063926940639269,0.33945945945945943,0.5089263878698949,0.6527472527472528,0.45248107653490327,1196.0
978.0,1.7109208150646167e+18,0.4621409921671018,0.3972602739726027,0.3345945945945946,0.495720224993886,0.5769230769230769,0.415475189234651,1192.0
979.0,1.710920815074614e+18,0.47127937336814624,0.4143835616438356,0.34,0.5057471264367817,0.6362637362637362,0.4415475189234651,1196.0
980.0,1.7109208150846182e+18,0.4765013054830287,0.410958904109589,0.3232432432432432,0.4886280264123258,0.6076923076923076,0.43566021867115223,1195.0
981.0,1.7109208150946084e+18,0.46475195822454307,0.4463470319634703,0.3286486486486486,0.4969430178527757,0.6164835164835165,0.4465937762825904,1196.0
982.0,1.7109208151046252e+18,0.4856396866840731,0.4098173515981735,0.33837837837837836,0.5015896307165566,0.6362637362637362,0.4440706476030278,1194.0
983.0,1.7109208151146028e+18,0.4660574412532637,0.4155251141552511,0.3254054054054054,0.4871606749816581,0.6428571428571429,0.43313708999158956,1190.0
984.0,1.7109208151246031e+18,0.45039164490861616,0.386986301369863,0.32594594594594595,0.5025678650036683,0.6373626373626373,0.42977291841883936,1193.0
985.0,1.7109208151346191e+18,0.4934725848563969,0.4189497716894977,0.33783783783783783,0.5057471264367817,0.6406593406593407,0.46846089150546677,1198.0
986.0,1.7109208151446047e+18,0.47127937336814624,0.4132420091324201,0.3345945945945946,0.5028124235754463,0.6087912087912087,0.4289318755256518,1193.0
987.0,1.710920815154619e+18,0.4595300261096606,0.410958904109589,0.33297297297297296,0.5059916850085595,0.6450549450549451,0.4415475189234651,1193.0
988.0,1.7109208151646003e+18,0.49216710182767626,0.4349315068493151,0.34054054054054056,0.5113719735876743,0.6274725274725275,0.4339781328847771,1192.0
989.0,1.7109208151746033e+18,0.47389033942558745,0.4132420091324201,0.35081081081081084,0.5067253607238934,0.6241758241758242,0.4381833473507149,1194.0
990.0,1.7109208151846083e+18,0.45691906005221933,0.3561643835616438,0.32972972972972975,0.48985081927121543,0.578021978021978,0.4129520605550883,1194.0
991.0,1.7109208151946025e+18,0.4765013054830287,0.4075342465753425,0.3335135135135135,0.5035460992907801,0.6307692307692307,0.4449116904962153,1196.0
992.0,1.7109208152046013e+18,0.48433420365535246,0.4383561643835616,0.34486486486486484,0.495720224993886,0.6032967032967033,0.4280908326324643,1193.0
993.0,1.710920815214544e+18,0.4908616187989556,0.4429223744292237,0.34486486486486484,0.5059916850085595,0.6428571428571429,0.45164003364171573,1195.0
994.0,1.7109208152245962e+18,0.47389033942558745,0.3961187214611872,0.3286486486486486,0.495720224993886,0.5978021978021978,0.4314550042052145,1192.0
995.0,1.7109208152346038e+18,0.45822454308093996,0.4029680365296804,0.3318918918918919,0.4788456835412081,0.5593406593406594,0.42977291841883936,1195.0
996.0,1.7109208152446065e+18,0.5091383812010444,0.4908675799086758,0.35243243243243244,0.4844705306921008,0.5791208791208792,0.43566021867115223,1195.0
997.0,1.7109208152546225e+18,0.4751958224543081,0.3926940639269406,0.3362162162162162,0.4996331621423331,0.6406593406593407,0.4482758620689655,1196.0
998.0,1.7109208152646003e+18,0.46344647519582244,0.3881278538812785,0.31891891891891894,0.5047688921496698,0.634065934065934,0.42640874684608915,1192.0
999.0,1.710920815274604e+18,0.46736292428198434,0.4600456621004566,0.3372972972972973,0.5074590364392272,0.6274725274725275,0.4449116904962153,1196.0
1000.0,1.7109208152845435e+18,0.47389033942558745,0.4223744292237443,0.3318918918918919,0.5055025678650037,0.6395604395604395,0.42640874684608915,1193.0
