202.0,1.710303418657771e+18,0.6566579634464752,0.680365296803653,0.3372972972972973,0.4996331621423331,0.8615384615384616,0.5626576955424727,1197.0
203.0,1.7103034186677645e+18,0.2349869451697128,0.1095890410958904,0.33297297297297296,0.5059916850085595,0.35274725274725277,0.30193439865433136,1193.0
204.0,1.710303418677783e+18,0.6801566579634465,0.6860730593607306,0.33783783783783783,0.5108828564441183,0.7956043956043956,0.5407905803195963,1198.0
205.0,1.710303418687787e+18,0.23237597911227154,0.12442922374429223,0.3324324324324324,0.49620934213744194,0.3769230769230769,0.3010933557611438,1193.0
206.0,1.7103034186977728e+18,0.6814621409921671,0.6757990867579908,0.34,0.5057471264367817,0.865934065934066,0.5475189234650967,1196.0
207.0,1.7103034187077622e+18,0.24412532637075718,0.14840182648401826,0.3308108108108108,0.5103937393005625,0.3879120879120879,0.31118587047939444,1192.0
208.0,1.7103034187177585e+18,0.6723237597911227,0.7123287671232876,0.33945945945945943,0.5121056493030081,0.8736263736263736,0.5693860386879731,1196.0
209.0,1.7103034187277665e+18,0.2545691906005222,0.11643835616438356,0.3302702702702703,0.5067253607238934,0.4065934065934066,0.3187552565180824,1195.0
210.0,1.7103034187377705e+18,0.6892950391644909,0.6872146118721462,0.3362162162162162,0.5025678650036683,0.8736263736263736,0.56013456686291,1198.0
211.0,1.7103034187477568e+18,0.23237597911227154,0.1324200913242009,0.33405405405405403,0.5162631450232331,0.4076923076923077,0.32548359966358287,1192.0
212.0,1.710303418757772e+18,0.6866840731070496,0.660958904109589,0.3372972972972973,0.5025678650036683,0.823076923076923,0.5643397813288478,1197.0
213.0,1.7103034187677624e+18,0.2349869451697128,0.11187214611872145,0.33297297297297296,0.5025678650036683,0.36813186813186816,0.30613961312026916,1192.0
214.0,1.710303418777774e+18,0.6592689295039165,0.6974885844748858,0.33837837837837836,0.5074590364392272,0.8626373626373627,0.5660218671152228,1197.0
215.0,1.710303418787759e+18,0.2519582245430809,0.10844748858447488,0.33135135135135135,0.5050134507214478,0.4230769230769231,0.30193439865433136,1194.0
216.0,1.7103034187977682e+18,0.6710182767624021,0.6917808219178082,0.33405405405405403,0.5025678650036683,0.8692307692307693,0.5567703952901598,1197.0
217.0,1.7103034188077617e+18,0.2402088772845953,0.13926940639269406,0.3308108108108108,0.5013450721447786,0.378021978021978,0.312026913372582,1191.0
218.0,1.710303418817769e+18,0.6866840731070496,0.6917808219178082,0.3372972972972973,0.4913181707018831,0.8307692307692308,0.5668629100084104,1199.0
219.0,1.710303418827767e+18,0.24673629242819844,0.08447488584474885,0.3324324324324324,0.5030569821472243,0.378021978021978,0.30445752733389403,1193.0
220.0,1.7103034188377687e+18,0.6684073107049608,0.6974885844748858,0.3389189189189189,0.5025678650036683,0.8472527472527472,0.5441547518923465,1197.0
221.0,1.7103034188477732e+18,0.22845953002610966,0.09018264840182648,0.3362162162162162,0.4969430178527757,0.389010989010989,0.3036164844407065,1196.0
222.0,1.710303418857768e+18,0.6697127937336814,0.704337899543379,0.34054054054054056,0.5011005135730008,0.8054945054945055,0.5618166526492852,1196.0
223.0,1.710303418867759e+18,0.2362924281984334,0.12214611872146118,0.33135135135135135,0.5074590364392272,0.3945054945054945,0.29352396972245587,1193.0
224.0,1.7103034188777672e+18,0.7010443864229765,0.702054794520548,0.33837837837837836,0.5003668378576669,0.8516483516483516,0.5618166526492852,1198.0
225.0,1.710303418887776e+18,0.22715404699738903,0.1267123287671233,0.33405405405405403,0.4988994864269993,0.3868131868131868,0.2968881412952061,1194.0
226.0,1.710303418897775e+18,0.7101827676240209,0.6917808219178082,0.34,0.48985081927121543,0.8516483516483516,0.5492010092514719,1198.0
227.0,1.7103034189077612e+18,0.24934725848563968,0.11529680365296803,0.32972972972972975,0.5089263878698949,0.4010989010989011,0.2968881412952061,1193.0
228.0,1.7103034189177656e+18,0.6775456919060052,0.6712328767123288,0.34,0.49523110785033014,0.8406593406593407,0.5508830950378469,1198.0
229.0,1.7103034189277588e+18,0.23237597911227154,0.09246575342465753,0.3302702702702703,0.5094155050134507,0.3813186813186813,0.3086627417998318,1193.0
230.0,1.7103034189377592e+18,0.7036553524804178,0.6529680365296804,0.34054054054054056,0.5011005135730008,0.8384615384615385,0.5584524810765349,1197.0
231.0,1.7103034189477642e+18,0.2545691906005222,0.1678082191780822,0.33405405405405403,0.5057471264367817,0.37142857142857144,0.2968881412952061,1193.0
232.0,1.710303418957768e+18,0.7075718015665796,0.6792237442922374,0.33945945945945943,0.5062362435803375,0.8648351648351649,0.5660218671152228,1200.0
233.0,1.7103034189677624e+18,0.24673629242819844,0.13013698630136986,0.3318918918918919,0.504524333577892,0.34615384615384615,0.2968881412952061,1197.0
234.0,1.7103034189777897e+18,0.6775456919060052,0.7111872146118722,0.34054054054054056,0.49523110785033014,0.8362637362637363,0.5668629100084104,1199.0
235.0,1.7103034189877599e+18,0.2519582245430809,0.1267123287671233,0.33297297297297296,0.512350207874786,0.3362637362637363,0.3036164844407065,1196.0
236.0,1.710303418997766e+18,0.6906005221932114,0.7203196347031964,0.3356756756756757,0.5035460992907801,0.8648351648351649,0.567703952901598,1197.0
237.0,1.7103034190077683e+18,0.24934725848563968,0.11187214611872145,0.33135135135135135,0.504035216434336,0.3813186813186813,0.2994112699747687,1192.0
238.0,1.7103034190177597e+18,0.706266318537859,0.702054794520548,0.34,0.5025678650036683,0.845054945054945,0.5719091673675357,1197.0
239.0,1.7103034190277512e+18,0.2454308093994778,0.1324200913242009,0.3324324324324324,0.5047688921496698,0.38461538461538464,0.31118587047939444,1192.0
240.0,1.7103034190377684e+18,0.6919060052219321,0.6506849315068494,0.33945945945945943,0.5015896307165566,0.8736263736263736,0.5735912531539108,1197.0
241.0,1.710303419047765e+18,0.2519582245430809,0.15753424657534246,0.3318918918918919,0.504035216434336,0.42967032967032964,0.2910008410428932,1193.0
242.0,1.71030341905776e+18,0.7075718015665796,0.6712328767123288,0.33837837837837836,0.5072144778674492,0.8648351648351649,0.5643397813288478,1196.0
243.0,1.710303419067754e+18,0.23759791122715404,0.1312785388127854,0.33135135135135135,0.5067253607238934,0.3901098901098901,0.30782169890664424,1193.0
244.0,1.7103034190777702e+18,0.706266318537859,0.7146118721461188,0.33837837837837836,0.5028124235754463,0.8494505494505494,0.552565180824222,1199.0
245.0,1.710303419087768e+18,0.24673629242819844,0.11187214611872145,0.3308108108108108,0.5015896307165566,0.3901098901098901,0.29857022708158115,1193.0
246.0,1.7103034190977715e+18,0.660574412532637,0.6735159817351598,0.34162162162162163,0.5128393250183418,0.843956043956044,0.5769554247266611,1198.0
247.0,1.7103034191077524e+18,0.2558746736292428,0.16666666666666666,0.33297297297297296,0.5035460992907801,0.35714285714285715,0.3086627417998318,1193.0
248.0,1.7103034191177674e+18,0.6932114882506527,0.7203196347031964,0.3410810810810811,0.4986549278552213,0.8032967032967033,0.5651808242220353,1198.0
249.0,1.7103034191277512e+18,0.24281984334203655,0.091324200913242,0.3335135135135135,0.491562729273661,0.3901098901098901,0.30529857022708157,1191.0
250.0,1.7103034191377661e+18,0.6879895561357703,0.6769406392694064,0.3372972972972973,0.5015896307165566,0.8307692307692308,0.5475189234650967,1199.0
251.0,1.7103034191477627e+18,0.26762402088772846,0.1358447488584475,0.3324324324324324,0.5077035950110051,0.45384615384615384,0.3069806560134567,1191.0
252.0,1.71030341915777e+18,0.674934725848564,0.6757990867579908,0.34162162162162163,0.5062362435803375,0.8615384615384616,0.5702270815811606,1200.0
253.0,1.7103034191677688e+18,0.2454308093994778,0.1404109589041096,0.32972972972972975,0.504524333577892,0.3802197802197802,0.30782169890664424,1193.0
254.0,1.7103034191777774e+18,0.685378590078329,0.6940639269406392,0.33837837837837836,0.49498654927855223,0.8879120879120879,0.5508830950378469,1197.0
255.0,1.7103034191877693e+18,0.25718015665796345,0.11757990867579908,0.3318918918918919,0.499877720714111,0.4208791208791209,0.2977291841883936,1195.0
256.0,1.7103034191977677e+18,0.6657963446475196,0.7180365296803652,0.3356756756756757,0.5025678650036683,0.8824175824175824,0.5643397813288478,1200.0
257.0,1.7103034192077673e+18,0.24151436031331594,0.1495433789954338,0.33135135135135135,0.5015896307165566,0.3901098901098901,0.3010933557611438,1193.0
258.0,1.7103034192177677e+18,0.6971279373368147,0.6689497716894978,0.34054054054054056,0.4883834678405478,0.8505494505494505,0.5584524810765349,1200.0
259.0,1.7103034192277517e+18,0.24934725848563968,0.13926940639269406,0.33675675675675676,0.5028124235754463,0.41318681318681316,0.3263246425567704,1194.0
260.0,1.710303419237787e+18,0.6775456919060052,0.6426940639269406,0.33837837837837836,0.5003668378576669,0.8637362637362638,0.5567703952901598,1200.0
261.0,1.710303419247754e+18,0.24151436031331594,0.1404109589041096,0.3324324324324324,0.5030569821472243,0.421978021978022,0.3010933557611438,1194.0
262.0,1.710303419257774e+18,0.6984334203655352,0.704337899543379,0.3389189189189189,0.5079481535827831,0.8571428571428571,0.5693860386879731,1197.0
263.0,1.710303419267772e+18,0.2558746736292428,0.13470319634703196,0.33135135135135135,0.5018341892883346,0.38351648351648354,0.29352396972245587,1192.0
264.0,1.7103034192777859e+18,0.7023498694516971,0.6552511415525114,0.33675675675675676,0.49229640498899485,0.856043956043956,0.5584524810765349,1195.0
265.0,1.7103034192877586e+18,0.24412532637075718,0.1358447488584475,0.3345945945945946,0.5074590364392272,0.3945054945054945,0.2926829268292683,1195.0
266.0,1.7103034192977887e+18,0.7023498694516971,0.6997716894977168,0.34,0.5015896307165566,0.865934065934066,0.5567703952901598,1196.0
267.0,1.7103034193077652e+18,0.23890339425587467,0.16666666666666666,0.3308108108108108,0.49327463927610665,0.38571428571428573,0.30950378469301937,1193.0
268.0,1.7103034193177697e+18,0.6984334203655352,0.6495433789954338,0.33945945945945943,0.49816581071166544,0.8604395604395605,0.5634987384356602,1197.0
269.0,1.7103034193277752e+18,0.283289817232376,0.13926940639269406,0.33675675675675676,0.5037906578625581,0.42967032967032964,0.2910008410428932,1195.0
270.0,1.7103034193377713e+18,0.695822454308094,0.7100456621004566,0.34054054054054056,0.5008559550012228,0.8626373626373627,0.56013456686291,1197.0
271.0,1.7103034193477537e+18,0.23890339425587467,0.1495433789954338,0.3345945945945946,0.504524333577892,0.3901098901098901,0.29352396972245587,1195.0
272.0,1.7103034193577702e+18,0.674934725848564,0.6552511415525114,0.34054054054054056,0.5094155050134507,0.8736263736263736,0.5727502102607233,1199.0
273.0,1.710303419367776e+18,0.26762402088772846,0.1678082191780822,0.3291891891891892,0.5072144778674492,0.3813186813186813,0.2977291841883936,1193.0
274.0,1.7103034193777784e+18,0.685378590078329,0.7248858447488584,0.3356756756756757,0.5106382978723404,0.8868131868131868,0.5761143818334735,1200.0
275.0,1.7103034193877724e+18,0.24673629242819844,0.11529680365296803,0.33297297297297296,0.5094155050134507,0.3912087912087912,0.30782169890664424,1193.0
276.0,1.71030341939779e+18,0.6906005221932114,0.6837899543378996,0.3389189189189189,0.5047688921496698,0.8956043956043956,0.5534062237174096,1196.0
277.0,1.7103034194077514e+18,0.26240208877284593,0.11301369863013698,0.327027027027027,0.49938860357055515,0.3626373626373626,0.30193439865433136,1194.0
278.0,1.7103034194177702e+18,0.6971279373368147,0.6700913242009132,0.33783783783783783,0.5067253607238934,0.8538461538461538,0.5651808242220353,1196.0
279.0,1.7103034194277537e+18,0.24151436031331594,0.13470319634703196,0.3254054054054054,0.49229640498899485,0.4065934065934066,0.3128679562657696,1193.0
280.0,1.7103034194377743e+18,0.7023498694516971,0.6621004566210046,0.33675675675675676,0.5074590364392272,0.8142857142857143,0.5710681244743482,1197.0
281.0,1.7103034194477788e+18,0.23237597911227154,0.13013698630136986,0.33135135135135135,0.5103937393005625,0.3516483516483517,0.30950378469301937,1195.0
282.0,1.7103034194577674e+18,0.685378590078329,0.6883561643835616,0.33135135135135135,0.5015896307165566,0.8164835164835165,0.5618166526492852,1197.0
283.0,1.710303419467756e+18,0.25326370757180156,0.182648401826484,0.34864864864864864,0.5077035950110051,0.4087912087912088,0.3069806560134567,1195.0
284.0,1.710303419477774e+18,0.7088772845953003,0.6666666666666666,0.34162162162162163,0.5015896307165566,0.8384615384615385,0.5592935239697224,1200.0
285.0,1.710303419487754e+18,0.2154046997389034,0.1404109589041096,0.32972972972972975,0.48911714355588165,0.37362637362637363,0.30445752733389403,1193.0
286.0,1.710303419497772e+18,0.7036553524804178,0.6917808219178082,0.33675675675675676,0.4969430178527757,0.8571428571428571,0.5559293523969723,1198.0
287.0,1.7103034195077532e+18,0.2859007832898172,0.1689497716894977,0.33405405405405403,0.5069699192956714,0.4010989010989011,0.3103448275862069,1193.0
288.0,1.710303419517775e+18,0.6801566579634465,0.6666666666666666,0.3389189189189189,0.5015896307165566,0.8582417582417582,0.5626576955424727,1197.0
289.0,1.7103034195277504e+18,0.2362924281984334,0.1404109589041096,0.31513513513513514,0.49082905355832723,0.36813186813186816,0.30782169890664424,1194.0
290.0,1.7103034195377743e+18,0.6919060052219321,0.6917808219178082,0.33675675675675676,0.4991440449987772,0.8747252747252747,0.5466778805719091,1197.0
291.0,1.7103034195477542e+18,0.26240208877284593,0.12442922374429223,0.32594594594594595,0.5037906578625581,0.3956043956043956,0.2809083263246426,1194.0
292.0,1.7103034195577764e+18,0.720626631853786,0.660958904109589,0.32756756756756755,0.5011005135730008,0.8615384615384616,0.5592935239697224,1198.0
293.0,1.710303419567756e+18,0.24151436031331594,0.14269406392694065,0.3227027027027027,0.4937637564196625,0.3637362637362637,0.2994112699747687,1193.0
294.0,1.7103034195777572e+18,0.24151436031331594,0.14269406392694065,0.3227027027027027,0.4937637564196625,0.3637362637362637,0.2994112699747687,1193.0
295.0,1.7103034195877527e+18,0.24151436031331594,0.14269406392694065,0.3227027027027027,0.4937637564196625,0.3637362637362637,0.2994112699747687,1193.0
296.0,1.7103034195977766e+18,0.24151436031331594,0.14269406392694065,0.3227027027027027,0.4937637564196625,0.3637362637362637,0.2994112699747687,1193.0
297.0,1.7103034196077437e+18,0.24151436031331594,0.14269406392694065,0.3227027027027027,0.4937637564196625,0.3637362637362637,0.2994112699747687,1193.0
298.0,1.7103034196177759e+18,0.24151436031331594,0.14269406392694065,0.3227027027027027,0.4937637564196625,0.3637362637362637,0.2994112699747687,1193.0
299.0,1.7103034196277517e+18,0.24151436031331594,0.14269406392694065,0.3227027027027027,0.4937637564196625,0.3637362637362637,0.2994112699747687,1193.0
300.0,1.7103034196377646e+18,0.24151436031331594,0.14269406392694065,0.3227027027027027,0.4937637564196625,0.3637362637362637,0.2994112699747687,1193.0
301.0,1.7103034196477563e+18,0.24151436031331594,0.14269406392694065,0.3227027027027027,0.4937637564196625,0.3637362637362637,0.2994112699747687,1193.0
302.0,1.7103034196577748e+18,0.24151436031331594,0.14269406392694065,0.3227027027027027,0.4937637564196625,0.3637362637362637,0.2994112699747687,1193.0
303.0,1.7103034196677507e+18,0.24151436031331594,0.14269406392694065,0.3227027027027027,0.4937637564196625,0.3637362637362637,0.2994112699747687,1193.0
304.0,1.710303419677779e+18,0.24151436031331594,0.14269406392694065,0.3227027027027027,0.4937637564196625,0.3637362637362637,0.2994112699747687,1193.0
305.0,1.710303419687818e+18,0.24151436031331594,0.14269406392694065,0.3227027027027027,0.4937637564196625,0.3637362637362637,0.2994112699747687,1193.0
306.0,1.710303419697814e+18,0.24151436031331594,0.14269406392694065,0.3227027027027027,0.4937637564196625,0.3637362637362637,0.2994112699747687,1193.0
307.0,1.7103034197077926e+18,0.24151436031331594,0.14269406392694065,0.3227027027027027,0.4937637564196625,0.3637362637362637,0.2994112699747687,1193.0
308.0,1.7103034197177884e+18,0.24151436031331594,0.14269406392694065,0.3227027027027027,0.4937637564196625,0.3637362637362637,0.2994112699747687,1193.0
309.0,1.7103034197277896e+18,0.24151436031331594,0.14269406392694065,0.3227027027027027,0.4937637564196625,0.3637362637362637,0.2994112699747687,1193.0
310.0,1.710303419737789e+18,0.24151436031331594,0.14269406392694065,0.3227027027027027,0.4937637564196625,0.3637362637362637,0.2994112699747687,1193.0
311.0,1.7103034197477686e+18,0.24151436031331594,0.14269406392694065,0.3227027027027027,0.4937637564196625,0.3637362637362637,0.2994112699747687,1193.0
312.0,1.710303419757773e+18,0.24151436031331594,0.14269406392694065,0.3227027027027027,0.4937637564196625,0.3637362637362637,0.2994112699747687,1193.0
313.0,1.7103034197677548e+18,0.24151436031331594,0.14269406392694065,0.3227027027027027,0.4937637564196625,0.3637362637362637,0.2994112699747687,1193.0
314.0,1.71030341977779e+18,0.24151436031331594,0.14269406392694065,0.3227027027027027,0.4937637564196625,0.3637362637362637,0.2994112699747687,1193.0
315.0,1.710303419787753e+18,0.24151436031331594,0.14269406392694065,0.3227027027027027,0.4937637564196625,0.3637362637362637,0.2994112699747687,1193.0
316.0,1.7103034197977925e+18,0.6775456919060052,0.660958904109589,0.3567567567567568,0.49767669356810956,0.8351648351648352,0.5475189234650967,1184.0
317.0,1.71030341980776e+18,0.2584856396866841,0.1723744292237443,0.32756756756756755,0.4925409635607728,0.4098901098901099,0.31791421362489486,1195.0
318.0,1.7103034198177892e+18,0.6801566579634465,0.7111872146118722,0.33783783783783783,0.5094155050134507,0.9681318681318681,0.5466778805719091,1197.0
319.0,1.7103034198287683e+18,0.2793733681462141,0.19748858447488585,0.32432432432432434,0.4930300807043287,0.4164835164835165,0.30782169890664424,1193.0
320.0,1.710303419837762e+18,0.2793733681462141,0.19748858447488585,0.32432432432432434,0.4930300807043287,0.4164835164835165,0.30782169890664424,1193.0
321.0,1.710303419847754e+18,0.2793733681462141,0.19748858447488585,0.32432432432432434,0.4930300807043287,0.4164835164835165,0.30782169890664424,1193.0
322.0,1.710303419857777e+18,0.2793733681462141,0.19748858447488585,0.32432432432432434,0.4930300807043287,0.4164835164835165,0.30782169890664424,1193.0
323.0,1.7103034198684106e+18,0.2793733681462141,0.19748858447488585,0.32432432432432434,0.4930300807043287,0.4164835164835165,0.30782169890664424,1193.0
324.0,1.710303419877834e+18,0.2793733681462141,0.19748858447488585,0.32432432432432434,0.4930300807043287,0.4164835164835165,0.30782169890664424,1193.0
325.0,1.710303419887772e+18,0.2793733681462141,0.19748858447488585,0.32432432432432434,0.4930300807043287,0.4164835164835165,0.30782169890664424,1193.0
326.0,1.710303419897776e+18,0.2793733681462141,0.19748858447488585,0.32432432432432434,0.4930300807043287,0.4164835164835165,0.30782169890664424,1193.0
327.0,1.7103034199077732e+18,0.2793733681462141,0.19748858447488585,0.32432432432432434,0.4930300807043287,0.4164835164835165,0.30782169890664424,1193.0
328.0,1.7103034199177836e+18,0.2793733681462141,0.19748858447488585,0.32432432432432434,0.4930300807043287,0.4164835164835165,0.30782169890664424,1193.0
329.0,1.710303419927796e+18,0.2793733681462141,0.19748858447488585,0.32432432432432434,0.4930300807043287,0.4164835164835165,0.30782169890664424,1193.0
330.0,1.710303419937779e+18,0.2793733681462141,0.19748858447488585,0.32432432432432434,0.4930300807043287,0.4164835164835165,0.30782169890664424,1193.0
331.0,1.7103034199477642e+18,0.2793733681462141,0.19748858447488585,0.32432432432432434,0.4930300807043287,0.4164835164835165,0.30782169890664424,1193.0
332.0,1.7103034199577743e+18,0.2793733681462141,0.19748858447488585,0.32432432432432434,0.4930300807043287,0.4164835164835165,0.30782169890664424,1193.0
333.0,1.7103034199677532e+18,0.2793733681462141,0.19748858447488585,0.32432432432432434,0.4930300807043287,0.4164835164835165,0.30782169890664424,1193.0
334.0,1.7103034199777692e+18,0.2793733681462141,0.19748858447488585,0.32432432432432434,0.4930300807043287,0.4164835164835165,0.30782169890664424,1193.0
335.0,1.7103034199877548e+18,0.2793733681462141,0.19748858447488585,0.32432432432432434,0.4930300807043287,0.4164835164835165,0.30782169890664424,1193.0
336.0,1.7103034199977577e+18,0.2793733681462141,0.19748858447488585,0.32432432432432434,0.4930300807043287,0.4164835164835165,0.30782169890664424,1193.0
337.0,1.7103034200077545e+18,0.2793733681462141,0.19748858447488585,0.32432432432432434,0.4930300807043287,0.4164835164835165,0.30782169890664424,1193.0
338.0,1.7103034200177564e+18,0.2793733681462141,0.19748858447488585,0.32432432432432434,0.4930300807043287,0.4164835164835165,0.30782169890664424,1193.0
339.0,1.7103034200277563e+18,0.2793733681462141,0.19748858447488585,0.32432432432432434,0.4930300807043287,0.4164835164835165,0.30782169890664424,1193.0
340.0,1.7103034200377613e+18,0.2793733681462141,0.19748858447488585,0.32432432432432434,0.4930300807043287,0.4164835164835165,0.30782169890664424,1193.0
341.0,1.710303420047765e+18,0.2793733681462141,0.19748858447488585,0.32432432432432434,0.4930300807043287,0.4164835164835165,0.30782169890664424,1193.0
342.0,1.7103034200577843e+18,0.2793733681462141,0.19748858447488585,0.32432432432432434,0.4930300807043287,0.4164835164835165,0.30782169890664424,1193.0
343.0,1.710303420067769e+18,0.2793733681462141,0.19748858447488585,0.32432432432432434,0.4930300807043287,0.4164835164835165,0.30782169890664424,1193.0
344.0,1.7103034200777807e+18,0.2793733681462141,0.19748858447488585,0.32432432432432434,0.4930300807043287,0.4164835164835165,0.30782169890664424,1193.0
345.0,1.710303420087763e+18,0.2793733681462141,0.19748858447488585,0.32432432432432434,0.4930300807043287,0.4164835164835165,0.30782169890664424,1193.0
346.0,1.7103034200977633e+18,0.2793733681462141,0.19748858447488585,0.32432432432432434,0.4930300807043287,0.4164835164835165,0.30782169890664424,1193.0
347.0,1.710303420107757e+18,0.2793733681462141,0.19748858447488585,0.32432432432432434,0.4930300807043287,0.4164835164835165,0.30782169890664424,1193.0
348.0,1.710303420117762e+18,0.2793733681462141,0.19748858447488585,0.32432432432432434,0.4930300807043287,0.4164835164835165,0.30782169890664424,1193.0
349.0,1.7103034201278216e+18,0.2793733681462141,0.19748858447488585,0.32432432432432434,0.4930300807043287,0.4164835164835165,0.30782169890664424,1193.0
350.0,1.710303420137826e+18,0.2793733681462141,0.19748858447488585,0.32432432432432434,0.4930300807043287,0.4164835164835165,0.30782169890664424,1193.0
351.0,1.7103034201481933e+18,0.2793733681462141,0.19748858447488585,0.32432432432432434,0.4930300807043287,0.4164835164835165,0.30782169890664424,1193.0
352.0,1.7103034201577708e+18,0.2793733681462141,0.19748858447488585,0.32432432432432434,0.4930300807043287,0.4164835164835165,0.30782169890664424,1193.0
353.0,1.7103034201677627e+18,0.2793733681462141,0.19748858447488585,0.32432432432432434,0.4930300807043287,0.4164835164835165,0.30782169890664424,1193.0
354.0,1.710303420177771e+18,0.2793733681462141,0.19748858447488585,0.32432432432432434,0.4930300807043287,0.4164835164835165,0.30782169890664424,1193.0
355.0,1.7103034201877868e+18,0.2793733681462141,0.19748858447488585,0.32432432432432434,0.4930300807043287,0.4164835164835165,0.30782169890664424,1193.0
356.0,1.7103034201977667e+18,0.2793733681462141,0.19748858447488585,0.32432432432432434,0.4930300807043287,0.4164835164835165,0.30782169890664424,1193.0
357.0,1.710303420207755e+18,0.2793733681462141,0.19748858447488585,0.32432432432432434,0.4930300807043287,0.4164835164835165,0.30782169890664424,1193.0
358.0,1.7103034202177656e+18,0.2793733681462141,0.19748858447488585,0.32432432432432434,0.4930300807043287,0.4164835164835165,0.30782169890664424,1193.0
359.0,1.7103034202277514e+18,0.2793733681462141,0.19748858447488585,0.32432432432432434,0.4930300807043287,0.4164835164835165,0.30782169890664424,1193.0
360.0,1.7103034202377536e+18,0.2793733681462141,0.19748858447488585,0.32432432432432434,0.4930300807043287,0.4164835164835165,0.30782169890664424,1193.0
361.0,1.710303420247756e+18,0.2793733681462141,0.19748858447488585,0.32432432432432434,0.4930300807043287,0.4164835164835165,0.30782169890664424,1193.0
362.0,1.710303420257768e+18,0.2793733681462141,0.19748858447488585,0.32432432432432434,0.4930300807043287,0.4164835164835165,0.30782169890664424,1193.0
363.0,1.7103034202677617e+18,0.2793733681462141,0.19748858447488585,0.32432432432432434,0.4930300807043287,0.4164835164835165,0.30782169890664424,1193.0
364.0,1.7103034202777654e+18,0.7454308093994778,0.7945205479452054,0.34594594594594597,0.5035460992907801,0.8032967032967033,0.5130361648444071,1166.0
365.0,1.710303420287779e+18,0.1906005221932115,-0.0273972602739726,0.4205405405405405,0.5057471264367817,0.45604395604395603,0.3481917577796468,1192.0
366.0,1.7103034202977738e+18,0.6344647519582245,0.634703196347032,0.3551351351351351,0.4986549278552213,0.8076923076923077,0.5550883095037847,1196.0
367.0,1.7103034203077522e+18,0.09530026109660575,-0.0958904109589041,0.33783783783783783,0.5006113964294449,0.43736263736263736,0.32716568544995794,1193.0
368.0,1.7103034203177638e+18,0.7454308093994778,0.5776255707762558,0.3172972972972973,0.5011005135730008,0.778021978021978,0.5332211942809083,1197.0
369.0,1.7103034203277788e+18,0.2963446475195822,0.3926940639269406,0.3324324324324324,0.5059916850085595,0.44175824175824174,0.3380992430613961,1192.0
370.0,1.7103034203377613e+18,0.7819843342036553,0.8949771689497716,0.33513513513513515,0.5001222792858889,0.8131868131868132,0.5231286795626577,1198.0
371.0,1.7103034203477555e+18,0.3198433420365535,0.2945205479452055,0.33405405405405403,0.49816581071166544,0.45274725274725275,0.31118587047939444,1192.0
372.0,1.7103034203577684e+18,0.7140992167101827,0.7054794520547946,0.35135135135135137,0.4954756664221081,0.7417582417582418,0.5264928511354079,1196.0
373.0,1.7103034203677553e+18,0.22193211488250653,0.17579908675799086,0.3286486486486486,0.4986549278552213,0.42637362637362636,0.3406223717409588,1193.0
374.0,1.710303420377766e+18,0.706266318537859,0.66324200913242,0.3345945945945946,0.499877720714111,0.8032967032967033,0.5634987384356602,1200.0
375.0,1.7103034203877432e+18,0.24281984334203655,0.21118721461187215,0.33135135135135135,0.5084372707263389,0.47802197802197804,0.3355761143818335,1190.0
376.0,1.7103034203977795e+18,0.7428198433420365,0.6655251141552512,0.3427027027027027,0.5008559550012228,0.8131868131868132,0.5500420521446594,1196.0
377.0,1.7103034204077734e+18,0.24804177545691905,0.1461187214611872,0.32972972972972975,0.5030569821472243,0.4835164835164835,0.32548359966358287,1192.0
378.0,1.710303420417777e+18,0.6997389033942559,0.6506849315068494,0.3254054054054054,0.5103937393005625,0.8087912087912088,0.5500420521446594,1197.0
379.0,1.7103034204277898e+18,0.2898172323759791,0.21232876712328766,0.3232432432432432,0.5020787478601125,0.4604395604395604,0.3086627417998318,1192.0
380.0,1.7103034204377746e+18,0.6684073107049608,0.7157534246575342,0.3324324324324324,0.5001222792858889,0.8252747252747252,0.5273338940285954,1197.0
381.0,1.710303420447775e+18,0.2545691906005222,0.2420091324200913,0.3324324324324324,0.4986549278552213,0.44395604395604393,0.34146341463414637,1195.0
382.0,1.710303420457788e+18,0.7480417754569191,0.5958904109589042,0.34540540540540543,0.5018341892883346,0.7901098901098901,0.5609756097560976,1197.0
383.0,1.7103034204677944e+18,0.2362924281984334,0.1735159817351598,0.34162162162162163,0.5006113964294449,0.42527472527472526,0.3566021867115223,1192.0
384.0,1.710303420477775e+18,0.7428198433420365,0.6335616438356164,0.33675675675675676,0.4991440449987772,0.7923076923076923,0.5323801513877208,1197.0
385.0,1.7103034204877542e+18,0.30156657963446476,0.20205479452054795,0.3210810810810811,0.5023233064318905,0.44065934065934065,0.33052985702270815,1194.0
386.0,1.7103034204977654e+18,0.6553524804177546,0.5981735159817352,0.3291891891891892,0.5059916850085595,0.8131868131868132,0.5424726661059714,1197.0
387.0,1.7103034205077486e+18,0.3198433420365535,0.1997716894977169,0.32972972972972975,0.5018341892883346,0.46263736263736266,0.33389402859545836,1194.0
388.0,1.7103034205177592e+18,0.6488250652741514,0.4920091324200913,0.32972972972972975,0.5018341892883346,0.46263736263736266,0.33389402859545836,1194.0
389.0,1.7103034205277768e+18,0.24151436031331594,0.6461187214611872,0.3427027027027027,0.5008559550012228,0.7626373626373626,0.5164003364171573,1195.0
390.0,1.7103034205377636e+18,0.6775456919060052,0.6769406392694064,0.34216216216216216,0.5020787478601125,0.46813186813186813,0.3406223717409588,1194.0
391.0,1.7103034205477537e+18,0.27154046997389036,0.158675799086758,0.3372972972972973,0.5015896307165566,0.7747252747252747,0.5298570227081582,1197.0
392.0,1.71030342055776e+18,0.6971279373368147,0.6860730593607306,0.3227027027027027,0.5015896307165566,0.489010989010989,0.36585365853658536,1192.0
393.0,1.710303420567815e+18,0.3133159268929504,0.17579908675799086,0.3362162162162162,0.5084372707263389,0.8153846153846154,0.5222876366694701,1198.0
394.0,1.7103034205777667e+18,0.6814621409921671,0.6404109589041096,0.3254054054054054,0.5023233064318905,0.4725274725274725,0.3473507148864592,1194.0
395.0,1.710303420587762e+18,0.21018276762402088,0.19863013698630136,0.33783783783783783,0.5020787478601125,0.765934065934066,0.535744322960471,1198.0
396.0,1.7103034205977754e+18,0.6801566579634465,0.6232876712328768,0.33405405405405403,0.5023233064318905,0.49340659340659343,0.3473507148864592,1195.0
397.0,1.7103034206077706e+18,0.1671018276762402,0.1963470319634703,0.33297297297297296,0.5008559550012228,0.7791208791208791,0.5298570227081582,1199.0
398.0,1.7103034206177674e+18,0.643603133159269,0.639269406392694,0.3264864864864865,0.5035460992907801,0.4868131868131868,0.3246425567703953,1192.0
399.0,1.710303420627772e+18,0.2349869451697128,0.2089041095890411,0.3637837837837838,0.5006113964294449,0.7879120879120879,0.5391084945332212,1197.0
400.0,1.7103034206377536e+18,0.7075718015665796,1.0353881278538812,0.3264864864864865,0.5020787478601125,0.45714285714285713,0.3423044575273339,1192.0
401.0,1.7103034206477548e+18,0.6697127937336814,0.13013698630136986,0.33945945945945943,0.4988994864269993,0.7736263736263737,0.5180824222035324,1198.0
402.0,1.7103034206577882e+18,0.6161879895561357,0.884703196347032,0.3410810810810811,0.5008559550012228,0.4758241758241758,0.343986543313709,1193.0
403.0,1.7103034206677688e+18,0.16057441253263707,-0.01598173515981735,0.37351351351351353,0.4996331621423331,0.7637362637362637,0.5231286795626577,1196.0
404.0,1.7103034206777674e+18,0.16057441253263707,-0.01598173515981735,0.3286486486486486,0.5023233064318905,0.4747252747252747,0.343986543313709,1193.0
405.0,1.7103034206880468e+18,0.16057441253263707,-0.01598173515981735,0.3286486486486486,0.5023233064318905,0.4747252747252747,0.343986543313709,1193.0
406.0,1.7103034206977608e+18,0.16057441253263707,-0.01598173515981735,0.3286486486486486,0.5023233064318905,0.4747252747252747,0.343986543313709,1193.0
407.0,1.710303420707751e+18,0.16057441253263707,-0.01598173515981735,0.3286486486486486,0.5023233064318905,0.4747252747252747,0.343986543313709,1193.0
408.0,1.7103034207177572e+18,0.16057441253263707,-0.01598173515981735,0.3286486486486486,0.5023233064318905,0.4747252747252747,0.343986543313709,1193.0
409.0,1.7103034207277537e+18,0.16057441253263707,-0.01598173515981735,0.3286486486486486,0.5023233064318905,0.4747252747252747,0.343986543313709,1193.0
410.0,1.710303420737771e+18,0.16057441253263707,-0.01598173515981735,0.3286486486486486,0.5023233064318905,0.4747252747252747,0.343986543313709,1193.0
411.0,1.710303420747753e+18,0.16057441253263707,-0.01598173515981735,0.3286486486486486,0.5023233064318905,0.4747252747252747,0.343986543313709,1193.0
412.0,1.7103034207577692e+18,0.16057441253263707,-0.01598173515981735,0.3286486486486486,0.5023233064318905,0.4747252747252747,0.343986543313709,1193.0
413.0,1.710303420767762e+18,0.16057441253263707,-0.01598173515981735,0.3286486486486486,0.5023233064318905,0.4747252747252747,0.343986543313709,1193.0
414.0,1.7103034207777664e+18,0.16057441253263707,-0.01598173515981735,0.3286486486486486,0.5023233064318905,0.4747252747252747,0.343986543313709,1193.0
415.0,1.7103034207877755e+18,0.16057441253263707,-0.01598173515981735,0.3286486486486486,0.5023233064318905,0.4747252747252747,0.343986543313709,1193.0
416.0,1.7103034207977695e+18,0.16057441253263707,-0.01598173515981735,0.3286486486486486,0.5023233064318905,0.4747252747252747,0.343986543313709,1193.0
417.0,1.7103034208077596e+18,0.16057441253263707,-0.01598173515981735,0.3286486486486486,0.5023233064318905,0.4747252747252747,0.343986543313709,1193.0
418.0,1.710303420817765e+18,0.16057441253263707,-0.01598173515981735,0.3286486486486486,0.5023233064318905,0.4747252747252747,0.343986543313709,1193.0
419.0,1.7103034208277542e+18,0.16057441253263707,-0.01598173515981735,0.3286486486486486,0.5023233064318905,0.4747252747252747,0.343986543313709,1193.0
420.0,1.7103034208377697e+18,0.16057441253263707,-0.01598173515981735,0.3286486486486486,0.5023233064318905,0.4747252747252747,0.343986543313709,1193.0
421.0,1.7103034208477563e+18,0.16057441253263707,-0.01598173515981735,0.3286486486486486,0.5023233064318905,0.4747252747252747,0.343986543313709,1193.0
422.0,1.7103034208577864e+18,0.16057441253263707,-0.01598173515981735,0.3286486486486486,0.5023233064318905,0.4747252747252747,0.343986543313709,1193.0
423.0,1.710303420867771e+18,0.16057441253263707,-0.01598173515981735,0.3286486486486486,0.5023233064318905,0.4747252747252747,0.343986543313709,1193.0
424.0,1.7103034208777628e+18,0.16057441253263707,-0.01598173515981735,0.3286486486486486,0.5023233064318905,0.4747252747252747,0.343986543313709,1193.0
425.0,1.7103034208877737e+18,0.16057441253263707,-0.01598173515981735,0.3286486486486486,0.5023233064318905,0.4747252747252747,0.343986543313709,1193.0
426.0,1.7103034208977743e+18,0.16057441253263707,-0.01598173515981735,0.3286486486486486,0.5023233064318905,0.4747252747252747,0.343986543313709,1193.0
427.0,1.7103034209077635e+18,0.16057441253263707,-0.01598173515981735,0.3286486486486486,0.5023233064318905,0.4747252747252747,0.343986543313709,1193.0
428.0,1.7103034209177536e+18,0.16057441253263707,-0.01598173515981735,0.3286486486486486,0.5023233064318905,0.4747252747252747,0.343986543313709,1193.0
429.0,1.7103034209277578e+18,0.16057441253263707,-0.01598173515981735,0.3286486486486486,0.5023233064318905,0.4747252747252747,0.343986543313709,1193.0
430.0,1.7103034209377787e+18,0.16057441253263707,-0.01598173515981735,0.3286486486486486,0.5023233064318905,0.4747252747252747,0.343986543313709,1193.0
431.0,1.7103034209477524e+18,0.16057441253263707,-0.01598173515981735,0.3286486486486486,0.5023233064318905,0.4747252747252747,0.343986543313709,1193.0
432.0,1.7103034209577572e+18,0.16057441253263707,-0.01598173515981735,0.3286486486486486,0.5023233064318905,0.4747252747252747,0.343986543313709,1193.0
433.0,1.7103034209677476e+18,0.16057441253263707,-0.01598173515981735,0.3286486486486486,0.5023233064318905,0.4747252747252747,0.343986543313709,1193.0
434.0,1.7103034209777738e+18,0.16057441253263707,-0.01598173515981735,0.3286486486486486,0.5023233064318905,0.4747252747252747,0.343986543313709,1193.0
435.0,1.7103034209877476e+18,0.16057441253263707,-0.01598173515981735,0.3286486486486486,0.5023233064318905,0.4747252747252747,0.343986543313709,1193.0
436.0,1.710303420997766e+18,0.16057441253263707,-0.01598173515981735,0.3286486486486486,0.5023233064318905,0.4747252747252747,0.343986543313709,1193.0
437.0,1.710303421007753e+18,0.16057441253263707,-0.01598173515981735,0.3286486486486486,0.5023233064318905,0.4747252747252747,0.343986543313709,1193.0
438.0,1.7103034210177592e+18,0.16057441253263707,-0.01598173515981735,0.3286486486486486,0.5023233064318905,0.4747252747252747,0.343986543313709,1193.0
439.0,1.7103034210277501e+18,0.16057441253263707,-0.01598173515981735,0.3286486486486486,0.5023233064318905,0.4747252747252747,0.343986543313709,1193.0
440.0,1.7103034210377661e+18,0.16057441253263707,-0.01598173515981735,0.3286486486486486,0.5023233064318905,0.4747252747252747,0.343986543313709,1193.0
441.0,1.7103034210477601e+18,0.16057441253263707,-0.01598173515981735,0.3286486486486486,0.5023233064318905,0.4747252747252747,0.343986543313709,1193.0
442.0,1.7103034210577564e+18,0.16057441253263707,-0.01598173515981735,0.3286486486486486,0.5023233064318905,0.4747252747252747,0.343986543313709,1193.0
443.0,1.7103034210677678e+18,0.16057441253263707,-0.01598173515981735,0.3286486486486486,0.5023233064318905,0.4747252747252747,0.343986543313709,1193.0
444.0,1.7103034210777608e+18,0.16057441253263707,-0.01598173515981735,0.3286486486486486,0.5023233064318905,0.4747252747252747,0.343986543313709,1193.0
445.0,1.7103034210877583e+18,0.16057441253263707,-0.01598173515981735,0.3286486486486486,0.5023233064318905,0.4747252747252747,0.343986543313709,1193.0
446.0,1.7103034210978289e+18,0.16057441253263707,-0.01598173515981735,0.3286486486486486,0.5023233064318905,0.4747252747252747,0.343986543313709,1193.0
447.0,1.7103034211077773e+18,0.16057441253263707,-0.01598173515981735,0.3286486486486486,0.5023233064318905,0.4747252747252747,0.343986543313709,1193.0
448.0,1.710303421117765e+18,0.16057441253263707,-0.01598173515981735,0.3286486486486486,0.5023233064318905,0.4747252747252747,0.343986543313709,1193.0
449.0,1.7103034211277504e+18,0.16057441253263707,-0.01598173515981735,0.3286486486486486,0.5023233064318905,0.4747252747252747,0.343986543313709,1193.0
450.0,1.710303421137763e+18,0.16057441253263707,-0.01598173515981735,0.3286486486486486,0.5023233064318905,0.4747252747252747,0.343986543313709,1193.0
451.0,1.7103034211477486e+18,0.16057441253263707,-0.01598173515981735,0.3286486486486486,0.5023233064318905,0.4747252747252747,0.343986543313709,1193.0
452.0,1.710303421157756e+18,0.16057441253263707,-0.01598173515981735,0.3286486486486486,0.5023233064318905,0.4747252747252747,0.343986543313709,1193.0
453.0,1.7103034211677542e+18,0.16057441253263707,-0.01598173515981735,0.3286486486486486,0.5023233064318905,0.4747252747252747,0.343986543313709,1193.0
454.0,1.7103034211777697e+18,0.16057441253263707,-0.01598173515981735,0.3286486486486486,0.5023233064318905,0.4747252747252747,0.343986543313709,1193.0
455.0,1.7103034211877468e+18,0.16057441253263707,-0.01598173515981735,0.3286486486486486,0.5023233064318905,0.4747252747252747,0.343986543313709,1193.0
456.0,1.7103034211977603e+18,0.16057441253263707,-0.01598173515981735,0.3286486486486486,0.5023233064318905,0.4747252747252747,0.343986543313709,1193.0
457.0,1.7103034212077524e+18,0.16057441253263707,-0.01598173515981735,0.3286486486486486,0.5023233064318905,0.4747252747252747,0.343986543313709,1193.0
458.0,1.7103034212177702e+18,0.16057441253263707,-0.01598173515981735,0.3286486486486486,0.5023233064318905,0.4747252747252747,0.343986543313709,1193.0
459.0,1.710303421227752e+18,0.16057441253263707,-0.01598173515981735,0.3286486486486486,0.5023233064318905,0.4747252747252747,0.343986543313709,1193.0
460.0,1.710303421237768e+18,0.16057441253263707,-0.01598173515981735,0.3286486486486486,0.5023233064318905,0.4747252747252747,0.343986543313709,1193.0
461.0,1.710303421247759e+18,0.16057441253263707,-0.01598173515981735,0.3286486486486486,0.5023233064318905,0.4747252747252747,0.343986543313709,1193.0
462.0,1.7103034212577992e+18,0.16057441253263707,-0.01598173515981735,0.3286486486486486,0.5023233064318905,0.4747252747252747,0.343986543313709,1193.0
463.0,1.7103034212678198e+18,0.16057441253263707,-0.01598173515981735,0.3286486486486486,0.5023233064318905,0.4747252747252747,0.343986543313709,1193.0
464.0,1.7103034212777682e+18,0.16057441253263707,-0.01598173515981735,0.3286486486486486,0.5023233064318905,0.4747252747252747,0.343986543313709,1193.0
465.0,1.7103034212877555e+18,0.16057441253263707,-0.01598173515981735,0.3286486486486486,0.5023233064318905,0.4747252747252747,0.343986543313709,1193.0
466.0,1.7103034212977649e+18,0.16057441253263707,-0.01598173515981735,0.3286486486486486,0.5023233064318905,0.4747252747252747,0.343986543313709,1193.0
467.0,1.7103034213077586e+18,0.16057441253263707,-0.01598173515981735,0.3286486486486486,0.5023233064318905,0.4747252747252747,0.343986543313709,1193.0
468.0,1.710303421317768e+18,0.16057441253263707,-0.01598173515981735,0.3286486486486486,0.5023233064318905,0.4747252747252747,0.343986543313709,1193.0
469.0,1.7103034213277527e+18,0.16057441253263707,-0.01598173515981735,0.3286486486486486,0.5023233064318905,0.4747252747252747,0.343986543313709,1193.0
470.0,1.7103034213377697e+18,0.16057441253263707,-0.01598173515981735,0.3286486486486486,0.5023233064318905,0.4747252747252747,0.343986543313709,1193.0
471.0,1.71030342134775e+18,0.16057441253263707,-0.01598173515981735,0.3286486486486486,0.5023233064318905,0.4747252747252747,0.343986543313709,1193.0
472.0,1.7103034213577644e+18,0.16057441253263707,-0.01598173515981735,0.3286486486486486,0.5023233064318905,0.4747252747252747,0.343986543313709,1193.0
473.0,1.710303421367769e+18,0.16057441253263707,-0.01598173515981735,0.3286486486486486,0.5023233064318905,0.4747252747252747,0.343986543313709,1193.0
474.0,1.7103034213777626e+18,0.16057441253263707,-0.01598173515981735,0.3286486486486486,0.5023233064318905,0.4747252747252747,0.343986543313709,1193.0
475.0,1.710303421387747e+18,0.16057441253263707,-0.01598173515981735,0.3286486486486486,0.5023233064318905,0.4747252747252747,0.343986543313709,1193.0
476.0,1.7103034213977674e+18,0.16057441253263707,-0.01598173515981735,0.3286486486486486,0.5023233064318905,0.4747252747252747,0.343986543313709,1193.0
477.0,1.7103034214077632e+18,0.16057441253263707,-0.01598173515981735,0.3286486486486486,0.5023233064318905,0.4747252747252747,0.343986543313709,1193.0
478.0,1.7103034214177705e+18,0.16057441253263707,-0.01598173515981735,0.3286486486486486,0.5023233064318905,0.4747252747252747,0.343986543313709,1193.0
479.0,1.710303421427753e+18,0.16057441253263707,-0.01598173515981735,0.3286486486486486,0.5023233064318905,0.4747252747252747,0.343986543313709,1193.0
480.0,1.7103034214377644e+18,0.16057441253263707,-0.01598173515981735,0.3286486486486486,0.5023233064318905,0.4747252747252747,0.343986543313709,1193.0
481.0,1.7103034214477588e+18,0.16057441253263707,-0.01598173515981735,0.3286486486486486,0.5023233064318905,0.4747252747252747,0.343986543313709,1193.0
482.0,1.710303421457763e+18,0.16057441253263707,-0.01598173515981735,0.3286486486486486,0.5023233064318905,0.4747252747252747,0.343986543313709,1193.0
483.0,1.7103034214677596e+18,0.16057441253263707,-0.01598173515981735,0.3286486486486486,0.5023233064318905,0.4747252747252747,0.343986543313709,1193.0
484.0,1.7103034214777638e+18,0.16057441253263707,-0.01598173515981735,0.3286486486486486,0.5023233064318905,0.4747252747252747,0.343986543313709,1193.0
485.0,1.7103034214877678e+18,0.16057441253263707,-0.01598173515981735,0.3286486486486486,0.5023233064318905,0.4747252747252747,0.343986543313709,1193.0
486.0,1.7103034214977674e+18,0.16057441253263707,-0.01598173515981735,0.3286486486486486,0.5023233064318905,0.4747252747252747,0.343986543313709,1193.0
487.0,1.7103034215077517e+18,0.16057441253263707,-0.01598173515981735,0.3286486486486486,0.5023233064318905,0.4747252747252747,0.343986543313709,1193.0
488.0,1.7103034215177708e+18,0.16057441253263707,-0.01598173515981735,0.3286486486486486,0.5023233064318905,0.4747252747252747,0.343986543313709,1193.0
489.0,1.7103034215277553e+18,0.16057441253263707,-0.01598173515981735,0.3286486486486486,0.5023233064318905,0.4747252747252747,0.343986543313709,1193.0
490.0,1.7103034215377777e+18,0.16057441253263707,-0.01598173515981735,0.3286486486486486,0.5023233064318905,0.4747252747252747,0.343986543313709,1193.0
491.0,1.7103034215477668e+18,0.16057441253263707,-0.01598173515981735,0.3286486486486486,0.5023233064318905,0.4747252747252747,0.343986543313709,1193.0
492.0,1.7103034215577623e+18,0.16057441253263707,-0.01598173515981735,0.3286486486486486,0.5023233064318905,0.4747252747252747,0.343986543313709,1193.0
493.0,1.7103034215677576e+18,0.16057441253263707,-0.01598173515981735,0.3286486486486486,0.5023233064318905,0.4747252747252747,0.343986543313709,1193.0
494.0,1.7103034215777649e+18,0.16057441253263707,-0.01598173515981735,0.3286486486486486,0.5023233064318905,0.4747252747252747,0.343986543313709,1193.0
495.0,1.7103034215877624e+18,0.16057441253263707,-0.01598173515981735,0.3286486486486486,0.5023233064318905,0.4747252747252747,0.343986543313709,1193.0
496.0,1.7103034215977633e+18,0.16057441253263707,-0.01598173515981735,0.3286486486486486,0.5023233064318905,0.4747252747252747,0.343986543313709,1193.0
497.0,1.710303421607784e+18,0.16057441253263707,-0.01598173515981735,0.3286486486486486,0.5023233064318905,0.4747252747252747,0.343986543313709,1193.0
498.0,1.7103034216177654e+18,0.16057441253263707,-0.01598173515981735,0.3286486486486486,0.5023233064318905,0.4747252747252747,0.343986543313709,1193.0
499.0,1.7103034216277558e+18,0.16057441253263707,-0.01598173515981735,0.3286486486486486,0.5023233064318905,0.4747252747252747,0.343986543313709,1193.0
500.0,1.7103034216377595e+18,0.16057441253263707,-0.01598173515981735,0.3286486486486486,0.5023233064318905,0.4747252747252747,0.343986543313709,1193.0
501.0,1.710303421647751e+18,0.16057441253263707,-0.01598173515981735,0.3286486486486486,0.5023233064318905,0.4747252747252747,0.343986543313709,1193.0
502.0,1.710303421657769e+18,0.16057441253263707,-0.01598173515981735,0.3286486486486486,0.5023233064318905,0.4747252747252747,0.343986543313709,1193.0
503.0,1.7103034216677737e+18,0.16057441253263707,-0.01598173515981735,0.3286486486486486,0.5023233064318905,0.4747252747252747,0.343986543313709,1193.0
504.0,1.7103034216777846e+18,0.16057441253263707,-0.01598173515981735,0.3286486486486486,0.5023233064318905,0.4747252747252747,0.343986543313709,1193.0
505.0,1.71030342168775e+18,0.16057441253263707,-0.01598173515981735,0.3286486486486486,0.5023233064318905,0.4747252747252747,0.343986543313709,1193.0
506.0,1.7103034216977664e+18,0.16057441253263707,-0.01598173515981735,0.3286486486486486,0.5023233064318905,0.4747252747252747,0.343986543313709,1193.0
507.0,1.7103034217077624e+18,0.16057441253263707,-0.01598173515981735,0.3286486486486486,0.5023233064318905,0.4747252747252747,0.343986543313709,1193.0
508.0,1.7103034217177733e+18,0.16057441253263707,-0.01598173515981735,0.3286486486486486,0.5023233064318905,0.4747252747252747,0.343986543313709,1193.0
509.0,1.7103034217277504e+18,0.16057441253263707,-0.01598173515981735,0.3286486486486486,0.5023233064318905,0.4747252747252747,0.343986543313709,1193.0
510.0,1.7103034217377618e+18,0.16057441253263707,-0.01598173515981735,0.3286486486486486,0.5023233064318905,0.4747252747252747,0.343986543313709,1193.0
511.0,1.7103034217477517e+18,0.16057441253263707,-0.01598173515981735,0.3286486486486486,0.5023233064318905,0.4747252747252747,0.343986543313709,1193.0
512.0,1.71030342175776e+18,0.16057441253263707,-0.01598173515981735,0.3286486486486486,0.5023233064318905,0.4747252747252747,0.343986543313709,1193.0
513.0,1.7103034217677583e+18,0.16057441253263707,-0.01598173515981735,0.3286486486486486,0.5023233064318905,0.4747252747252747,0.343986543313709,1193.0
514.0,1.7103034217778583e+18,0.16057441253263707,-0.01598173515981735,0.3286486486486486,0.5023233064318905,0.4747252747252747,0.343986543313709,1193.0
515.0,1.7103034217877596e+18,0.16057441253263707,-0.01598173515981735,0.3286486486486486,0.5023233064318905,0.4747252747252747,0.343986543313709,1193.0
516.0,1.7103034217977615e+18,0.16057441253263707,-0.01598173515981735,0.3286486486486486,0.5023233064318905,0.4747252747252747,0.343986543313709,1193.0
517.0,1.7103034218077512e+18,0.16057441253263707,-0.01598173515981735,0.3286486486486486,0.5023233064318905,0.4747252747252747,0.343986543313709,1193.0
518.0,1.7103034218177649e+18,0.16057441253263707,-0.01598173515981735,0.3286486486486486,0.5023233064318905,0.4747252747252747,0.343986543313709,1193.0
519.0,1.7103034218277742e+18,0.16057441253263707,-0.01598173515981735,0.3286486486486486,0.5023233064318905,0.4747252747252747,0.343986543313709,1193.0
520.0,1.7103034218378038e+18,0.16057441253263707,-0.01598173515981735,0.3286486486486486,0.5023233064318905,0.4747252747252747,0.343986543313709,1193.0
521.0,1.7103034218477786e+18,0.16057441253263707,-0.01598173515981735,0.3286486486486486,0.5023233064318905,0.4747252747252747,0.343986543313709,1193.0
522.0,1.710303421857808e+18,0.16057441253263707,-0.01598173515981735,0.3286486486486486,0.5023233064318905,0.4747252747252747,0.343986543313709,1193.0
523.0,1.7103034218677604e+18,0.16057441253263707,-0.01598173515981735,0.3286486486486486,0.5023233064318905,0.4747252747252747,0.343986543313709,1193.0
524.0,1.7103034218777715e+18,0.16057441253263707,-0.01598173515981735,0.3286486486486486,0.5023233064318905,0.4747252747252747,0.343986543313709,1193.0
525.0,1.7103034218877663e+18,0.16057441253263707,-0.01598173515981735,0.3286486486486486,0.5023233064318905,0.4747252747252747,0.343986543313709,1193.0
526.0,1.7103034218977828e+18,0.16057441253263707,-0.01598173515981735,0.3286486486486486,0.5023233064318905,0.4747252747252747,0.343986543313709,1193.0
527.0,1.7103034219077635e+18,0.16057441253263707,-0.01598173515981735,0.3286486486486486,0.5023233064318905,0.4747252747252747,0.343986543313709,1193.0
528.0,1.710303421917782e+18,0.16057441253263707,-0.01598173515981735,0.3286486486486486,0.5023233064318905,0.4747252747252747,0.343986543313709,1193.0
529.0,1.710303421927779e+18,0.16057441253263707,-0.01598173515981735,0.3286486486486486,0.5023233064318905,0.4747252747252747,0.343986543313709,1193.0
530.0,1.7103034219377725e+18,0.16057441253263707,-0.01598173515981735,0.3286486486486486,0.5023233064318905,0.4747252747252747,0.343986543313709,1193.0
531.0,1.7103034219477768e+18,0.16057441253263707,-0.01598173515981735,0.3286486486486486,0.5023233064318905,0.4747252747252747,0.343986543313709,1193.0
532.0,1.7103034219577833e+18,0.16057441253263707,-0.01598173515981735,0.3286486486486486,0.5023233064318905,0.4747252747252747,0.343986543313709,1193.0
533.0,1.7103034219677637e+18,0.16057441253263707,-0.01598173515981735,0.3286486486486486,0.5023233064318905,0.4747252747252747,0.343986543313709,1193.0
534.0,1.7103034219777992e+18,0.16057441253263707,-0.01598173515981735,0.3286486486486486,0.5023233064318905,0.4747252747252747,0.343986543313709,1193.0
535.0,1.710303421987781e+18,0.16057441253263707,-0.01598173515981735,0.3286486486486486,0.5023233064318905,0.4747252747252747,0.343986543313709,1193.0
536.0,1.7103034219977766e+18,0.16057441253263707,-0.01598173515981735,0.3286486486486486,0.5023233064318905,0.4747252747252747,0.343986543313709,1193.0
537.0,1.7103034220077632e+18,0.16057441253263707,-0.01598173515981735,0.3286486486486486,0.5023233064318905,0.4747252747252747,0.343986543313709,1193.0
538.0,1.7103034220177805e+18,0.16057441253263707,-0.01598173515981735,0.3286486486486486,0.5023233064318905,0.4747252747252747,0.343986543313709,1193.0
539.0,1.7103034220277775e+18,0.16057441253263707,-0.01598173515981735,0.3286486486486486,0.5023233064318905,0.4747252747252747,0.343986543313709,1193.0
540.0,1.7103034220377748e+18,0.16057441253263707,-0.01598173515981735,0.3286486486486486,0.5023233064318905,0.4747252747252747,0.343986543313709,1193.0
541.0,1.7103034220477568e+18,0.16057441253263707,-0.01598173515981735,0.3286486486486486,0.5023233064318905,0.4747252747252747,0.343986543313709,1193.0
542.0,1.7103034220577672e+18,0.16057441253263707,-0.01598173515981735,0.3286486486486486,0.5023233064318905,0.4747252747252747,0.343986543313709,1193.0
543.0,1.7103034220677614e+18,0.16057441253263707,-0.01598173515981735,0.3286486486486486,0.5023233064318905,0.4747252747252747,0.343986543313709,1193.0
544.0,1.710303422077778e+18,0.16057441253263707,-0.01598173515981735,0.3286486486486486,0.5023233064318905,0.4747252747252747,0.343986543313709,1193.0
545.0,1.7103034220877583e+18,0.16057441253263707,-0.01598173515981735,0.3286486486486486,0.5023233064318905,0.4747252747252747,0.343986543313709,1193.0
546.0,1.7103034220977697e+18,0.16057441253263707,-0.01598173515981735,0.3286486486486486,0.5023233064318905,0.4747252747252747,0.343986543313709,1193.0
547.0,1.7103034221077645e+18,0.16057441253263707,-0.01598173515981735,0.3286486486486486,0.5023233064318905,0.4747252747252747,0.343986543313709,1193.0
548.0,1.710303422117784e+18,0.16057441253263707,-0.01598173515981735,0.3286486486486486,0.5023233064318905,0.4747252747252747,0.343986543313709,1193.0
549.0,1.71030342212778e+18,0.16057441253263707,-0.01598173515981735,0.3286486486486486,0.5023233064318905,0.4747252747252747,0.343986543313709,1193.0
550.0,1.710303422137987e+18,0.16057441253263707,-0.01598173515981735,0.3286486486486486,0.5023233064318905,0.4747252747252747,0.343986543313709,1193.0
551.0,1.71030342214887e+18,0.16057441253263707,-0.01598173515981735,0.3286486486486486,0.5023233064318905,0.4747252747252747,0.343986543313709,1193.0
552.0,1.7103034221577812e+18,0.16057441253263707,-0.01598173515981735,0.3286486486486486,0.5023233064318905,0.4747252747252747,0.343986543313709,1193.0
553.0,1.7103034221677821e+18,0.16057441253263707,-0.01598173515981735,0.3286486486486486,0.5023233064318905,0.4747252747252747,0.343986543313709,1193.0
554.0,1.7103034221777705e+18,0.16057441253263707,-0.01598173515981735,0.3286486486486486,0.5023233064318905,0.4747252747252747,0.343986543313709,1193.0
555.0,1.7103034221877868e+18,0.16057441253263707,-0.01598173515981735,0.3286486486486486,0.5023233064318905,0.4747252747252747,0.343986543313709,1193.0
556.0,1.7103034221977766e+18,0.16057441253263707,-0.01598173515981735,0.3286486486486486,0.5023233064318905,0.4747252747252747,0.343986543313709,1193.0
557.0,1.7103034222077676e+18,0.16057441253263707,-0.01598173515981735,0.3286486486486486,0.5023233064318905,0.4747252747252747,0.343986543313709,1193.0
558.0,1.71030342221779e+18,0.16057441253263707,-0.01598173515981735,0.3286486486486486,0.5023233064318905,0.4747252747252747,0.343986543313709,1193.0
559.0,1.7103034222277724e+18,0.16057441253263707,-0.01598173515981735,0.3286486486486486,0.5023233064318905,0.4747252747252747,0.343986543313709,1193.0
560.0,1.710303422237781e+18,0.16057441253263707,-0.01598173515981735,0.3286486486486486,0.5023233064318905,0.4747252747252747,0.343986543313709,1193.0
561.0,1.7103034222477786e+18,0.16057441253263707,-0.01598173515981735,0.3286486486486486,0.5023233064318905,0.4747252747252747,0.343986543313709,1193.0
562.0,1.7103034222577892e+18,0.16057441253263707,-0.01598173515981735,0.3286486486486486,0.5023233064318905,0.4747252747252747,0.343986543313709,1193.0
563.0,1.7103034222677752e+18,0.16057441253263707,-0.01598173515981735,0.3286486486486486,0.5023233064318905,0.4747252747252747,0.343986543313709,1193.0
564.0,1.7103034222777795e+18,0.16057441253263707,-0.01598173515981735,0.3286486486486486,0.5023233064318905,0.4747252747252747,0.343986543313709,1193.0
565.0,1.7103034222877711e+18,0.16057441253263707,-0.01598173515981735,0.3286486486486486,0.5023233064318905,0.4747252747252747,0.343986543313709,1193.0
566.0,1.7103034222977797e+18,0.16057441253263707,-0.01598173515981735,0.3286486486486486,0.5023233064318905,0.4747252747252747,0.343986543313709,1193.0
567.0,1.7103034223077696e+18,0.16057441253263707,-0.01598173515981735,0.3286486486486486,0.5023233064318905,0.4747252747252747,0.343986543313709,1193.0
568.0,1.7103034223177713e+18,0.16057441253263707,-0.01598173515981735,0.3286486486486486,0.5023233064318905,0.4747252747252747,0.343986543313709,1193.0
569.0,1.710303422327752e+18,0.16057441253263707,-0.01598173515981735,0.3286486486486486,0.5023233064318905,0.4747252747252747,0.343986543313709,1193.0
570.0,1.7103034223378015e+18,0.16057441253263707,-0.01598173515981735,0.3286486486486486,0.5023233064318905,0.4747252747252747,0.343986543313709,1193.0
571.0,1.710303422347771e+18,0.16057441253263707,-0.01598173515981735,0.3286486486486486,0.5023233064318905,0.4747252747252747,0.343986543313709,1193.0
572.0,1.7103034223577876e+18,0.16057441253263707,-0.01598173515981735,0.3286486486486486,0.5023233064318905,0.4747252747252747,0.343986543313709,1193.0
573.0,1.710303422367769e+18,0.16057441253263707,-0.01598173515981735,0.3286486486486486,0.5023233064318905,0.4747252747252747,0.343986543313709,1193.0
574.0,1.7103034223777738e+18,0.16057441253263707,-0.01598173515981735,0.3286486486486486,0.5023233064318905,0.4747252747252747,0.343986543313709,1193.0
575.0,1.7103034223877924e+18,0.16057441253263707,-0.01598173515981735,0.3286486486486486,0.5023233064318905,0.4747252747252747,0.343986543313709,1193.0
576.0,1.7103034223977848e+18,0.16057441253263707,-0.01598173515981735,0.3286486486486486,0.5023233064318905,0.4747252747252747,0.343986543313709,1193.0
577.0,1.7103034224078272e+18,0.16057441253263707,-0.01598173515981735,0.3286486486486486,0.5023233064318905,0.4747252747252747,0.343986543313709,1193.0
578.0,1.710303422417773e+18,0.16057441253263707,-0.01598173515981735,0.3286486486486486,0.5023233064318905,0.4747252747252747,0.343986543313709,1193.0
579.0,1.7103034224277883e+18,0.16057441253263707,-0.01598173515981735,0.3286486486486486,0.5023233064318905,0.4747252747252747,0.343986543313709,1193.0
580.0,1.7103034224377805e+18,0.16057441253263707,-0.01598173515981735,0.3286486486486486,0.5023233064318905,0.4747252747252747,0.343986543313709,1193.0
581.0,1.710303422447742e+18,0.16057441253263707,-0.01598173515981735,0.3286486486486486,0.5023233064318905,0.4747252747252747,0.343986543313709,1193.0
582.0,1.7103034224577853e+18,0.16057441253263707,-0.01598173515981735,0.3286486486486486,0.5023233064318905,0.4747252747252747,0.343986543313709,1193.0
583.0,1.7103034224677737e+18,0.16057441253263707,-0.01598173515981735,0.3286486486486486,0.5023233064318905,0.4747252747252747,0.343986543313709,1193.0
584.0,1.7103034224777787e+18,0.16057441253263707,-0.01598173515981735,0.3286486486486486,0.5023233064318905,0.4747252747252747,0.343986543313709,1193.0
585.0,1.7103034224877903e+18,0.16057441253263707,-0.01598173515981735,0.3286486486486486,0.5023233064318905,0.4747252747252747,0.343986543313709,1193.0
586.0,1.7103034224978225e+18,0.16057441253263707,-0.01598173515981735,0.3286486486486486,0.5023233064318905,0.4747252747252747,0.343986543313709,1193.0
587.0,1.7103034225077775e+18,0.16057441253263707,-0.01598173515981735,0.3286486486486486,0.5023233064318905,0.4747252747252747,0.343986543313709,1193.0
588.0,1.7103034225177754e+18,0.16057441253263707,-0.01598173515981735,0.3286486486486486,0.5023233064318905,0.4747252747252747,0.343986543313709,1193.0
589.0,1.7103034225277985e+18,0.16057441253263707,-0.01598173515981735,0.3286486486486486,0.5023233064318905,0.4747252747252747,0.343986543313709,1193.0
590.0,1.7103034225377715e+18,0.16057441253263707,-0.01598173515981735,0.3286486486486486,0.5023233064318905,0.4747252747252747,0.343986543313709,1193.0
591.0,1.7103034225477778e+18,0.16057441253263707,-0.01598173515981735,0.3286486486486486,0.5023233064318905,0.4747252747252747,0.343986543313709,1193.0
592.0,1.7103034225577718e+18,0.16057441253263707,-0.01598173515981735,0.3286486486486486,0.5023233064318905,0.4747252747252747,0.343986543313709,1193.0
593.0,1.7103034225677722e+18,0.16057441253263707,-0.01598173515981735,0.3286486486486486,0.5023233064318905,0.4747252747252747,0.343986543313709,1193.0
594.0,1.7103034225777718e+18,0.16057441253263707,-0.01598173515981735,0.3286486486486486,0.5023233064318905,0.4747252747252747,0.343986543313709,1193.0
595.0,1.7103034225877553e+18,0.16057441253263707,-0.01598173515981735,0.3286486486486486,0.5023233064318905,0.4747252747252747,0.343986543313709,1193.0
596.0,1.7103034225977848e+18,0.16057441253263707,-0.01598173515981735,0.3286486486486486,0.5023233064318905,0.4747252747252747,0.343986543313709,1193.0
597.0,1.710303422607755e+18,0.16057441253263707,-0.01598173515981735,0.3286486486486486,0.5023233064318905,0.4747252747252747,0.343986543313709,1193.0
598.0,1.710303422617804e+18,0.16057441253263707,-0.01598173515981735,0.3286486486486486,0.5023233064318905,0.4747252747252747,0.343986543313709,1193.0
599.0,1.7103034226277417e+18,0.16057441253263707,-0.01598173515981735,0.3286486486486486,0.5023233064318905,0.4747252747252747,0.343986543313709,1193.0
600.0,1.7103034226377533e+18,0.16057441253263707,-0.01598173515981735,0.3286486486486486,0.5023233064318905,0.4747252747252747,0.343986543313709,1193.0
601.0,1.7103034226477601e+18,0.16057441253263707,-0.01598173515981735,0.3286486486486486,0.5023233064318905,0.4747252747252747,0.343986543313709,1193.0
602.0,1.7103034226577697e+18,0.16057441253263707,-0.01598173515981735,0.3286486486486486,0.5023233064318905,0.4747252747252747,0.343986543313709,1193.0
603.0,1.7103034226677489e+18,0.16057441253263707,-0.01598173515981735,0.3286486486486486,0.5023233064318905,0.4747252747252747,0.343986543313709,1193.0
604.0,1.7103034226777733e+18,0.16057441253263707,-0.01598173515981735,0.3286486486486486,0.5023233064318905,0.4747252747252747,0.343986543313709,1193.0
605.0,1.7103034226877496e+18,0.16057441253263707,-0.01598173515981735,0.3286486486486486,0.5023233064318905,0.4747252747252747,0.343986543313709,1193.0
606.0,1.7103034226977748e+18,0.16057441253263707,-0.01598173515981735,0.3286486486486486,0.5023233064318905,0.4747252747252747,0.343986543313709,1193.0
607.0,1.7103034227077578e+18,0.16057441253263707,-0.01598173515981735,0.3286486486486486,0.5023233064318905,0.4747252747252747,0.343986543313709,1193.0
608.0,1.7103034227177748e+18,0.16057441253263707,-0.01598173515981735,0.3286486486486486,0.5023233064318905,0.4747252747252747,0.343986543313709,1193.0
609.0,1.7103034227277804e+18,0.16057441253263707,-0.01598173515981735,0.3286486486486486,0.5023233064318905,0.4747252747252747,0.343986543313709,1193.0
610.0,1.710303422737774e+18,0.16057441253263707,-0.01598173515981735,0.3286486486486486,0.5023233064318905,0.4747252747252747,0.343986543313709,1193.0
611.0,1.7103034227477558e+18,0.16057441253263707,-0.01598173515981735,0.3286486486486486,0.5023233064318905,0.4747252747252747,0.343986543313709,1193.0
612.0,1.7103034227577748e+18,0.16057441253263707,-0.01598173515981735,0.3286486486486486,0.5023233064318905,0.4747252747252747,0.343986543313709,1193.0
613.0,1.7103034227677578e+18,0.16057441253263707,-0.01598173515981735,0.3286486486486486,0.5023233064318905,0.4747252747252747,0.343986543313709,1193.0
614.0,1.7103034227777748e+18,0.16057441253263707,-0.01598173515981735,0.3286486486486486,0.5023233064318905,0.4747252747252747,0.343986543313709,1193.0
615.0,1.7103034227877565e+18,0.16057441253263707,-0.01598173515981735,0.3286486486486486,0.5023233064318905,0.4747252747252747,0.343986543313709,1193.0
616.0,1.7103034227977536e+18,0.16057441253263707,-0.01598173515981735,0.3286486486486486,0.5023233064318905,0.4747252747252747,0.343986543313709,1193.0
617.0,1.7103034228077553e+18,0.16057441253263707,-0.01598173515981735,0.3286486486486486,0.5023233064318905,0.4747252747252747,0.343986543313709,1193.0
618.0,1.7103034228177777e+18,0.16057441253263707,-0.01598173515981735,0.3286486486486486,0.5023233064318905,0.4747252747252747,0.343986543313709,1193.0
619.0,1.710303422827761e+18,0.16057441253263707,-0.01598173515981735,0.3286486486486486,0.5023233064318905,0.4747252747252747,0.343986543313709,1193.0
620.0,1.7103034228377853e+18,0.16057441253263707,-0.01598173515981735,0.3286486486486486,0.5023233064318905,0.4747252747252747,0.343986543313709,1193.0
621.0,1.710303422847753e+18,0.16057441253263707,-0.01598173515981735,0.3286486486486486,0.5023233064318905,0.4747252747252747,0.343986543313709,1193.0
622.0,1.71030342285776e+18,0.16057441253263707,-0.01598173515981735,0.3286486486486486,0.5023233064318905,0.4747252747252747,0.343986543313709,1193.0
623.0,1.7103034228677588e+18,0.16057441253263707,-0.01598173515981735,0.3286486486486486,0.5023233064318905,0.4747252747252747,0.343986543313709,1193.0
624.0,1.7103034228777603e+18,0.16057441253263707,-0.01598173515981735,0.3286486486486486,0.5023233064318905,0.4747252747252747,0.343986543313709,1193.0
625.0,1.710303422887749e+18,0.16057441253263707,-0.01598173515981735,0.3286486486486486,0.5023233064318905,0.4747252747252747,0.343986543313709,1193.0
626.0,1.710303422897763e+18,0.16057441253263707,-0.01598173515981735,0.3286486486486486,0.5023233064318905,0.4747252747252747,0.343986543313709,1193.0
627.0,1.7103034229077522e+18,0.16057441253263707,-0.01598173515981735,0.3286486486486486,0.5023233064318905,0.4747252747252747,0.343986543313709,1193.0
628.0,1.7103034229177623e+18,0.16057441253263707,-0.01598173515981735,0.3286486486486486,0.5023233064318905,0.4747252747252747,0.343986543313709,1193.0
629.0,1.710303422927758e+18,0.16057441253263707,-0.01598173515981735,0.3286486486486486,0.5023233064318905,0.4747252747252747,0.343986543313709,1193.0
630.0,1.7103034229377623e+18,0.16057441253263707,-0.01598173515981735,0.3286486486486486,0.5023233064318905,0.4747252747252747,0.343986543313709,1193.0
631.0,1.7103034229477504e+18,0.16057441253263707,-0.01598173515981735,0.3286486486486486,0.5023233064318905,0.4747252747252747,0.343986543313709,1193.0
632.0,1.7103034229577656e+18,0.16057441253263707,-0.01598173515981735,0.3286486486486486,0.5023233064318905,0.4747252747252747,0.343986543313709,1193.0
633.0,1.710303422967756e+18,0.16057441253263707,-0.01598173515981735,0.3286486486486486,0.5023233064318905,0.4747252747252747,0.343986543313709,1193.0
634.0,1.710303422977767e+18,0.16057441253263707,-0.01598173515981735,0.3286486486486486,0.5023233064318905,0.4747252747252747,0.343986543313709,1193.0
635.0,1.7103034229877535e+18,0.16057441253263707,-0.01598173515981735,0.3286486486486486,0.5023233064318905,0.4747252747252747,0.343986543313709,1193.0
636.0,1.710303422997766e+18,0.16057441253263707,-0.01598173515981735,0.3286486486486486,0.5023233064318905,0.4747252747252747,0.343986543313709,1193.0
637.0,1.710303423007822e+18,0.16057441253263707,-0.01598173515981735,0.3286486486486486,0.5023233064318905,0.4747252747252747,0.343986543313709,1193.0
638.0,1.7103034230177805e+18,0.16057441253263707,-0.01598173515981735,0.3286486486486486,0.5023233064318905,0.4747252747252747,0.343986543313709,1193.0
639.0,1.710303423027757e+18,0.16057441253263707,-0.01598173515981735,0.3286486486486486,0.5023233064318905,0.4747252747252747,0.343986543313709,1193.0
640.0,1.710303423037758e+18,0.16057441253263707,-0.01598173515981735,0.3286486486486486,0.5023233064318905,0.4747252747252747,0.343986543313709,1193.0
641.0,1.7103034230477558e+18,0.16057441253263707,-0.01598173515981735,0.3286486486486486,0.5023233064318905,0.4747252747252747,0.343986543313709,1193.0
642.0,1.7103034230577833e+18,0.16057441253263707,-0.01598173515981735,0.3286486486486486,0.5023233064318905,0.4747252747252747,0.343986543313709,1193.0
643.0,1.7103034230677448e+18,0.16057441253263707,-0.01598173515981735,0.3286486486486486,0.5023233064318905,0.4747252747252747,0.343986543313709,1193.0
644.0,1.7103034230777672e+18,0.16057441253263707,-0.01598173515981735,0.3286486486486486,0.5023233064318905,0.4747252747252747,0.343986543313709,1193.0
645.0,1.710303423087768e+18,0.16057441253263707,-0.01598173515981735,0.3286486486486486,0.5023233064318905,0.4747252747252747,0.343986543313709,1193.0
646.0,1.7103034230977674e+18,0.16057441253263707,-0.01598173515981735,0.3286486486486486,0.5023233064318905,0.4747252747252747,0.343986543313709,1193.0
647.0,1.7103034231077504e+18,0.16057441253263707,-0.01598173515981735,0.3286486486486486,0.5023233064318905,0.4747252747252747,0.343986543313709,1193.0
648.0,1.7103034231177626e+18,0.16057441253263707,-0.01598173515981735,0.3286486486486486,0.5023233064318905,0.4747252747252747,0.343986543313709,1193.0
649.0,1.7103034231277614e+18,0.16057441253263707,-0.01598173515981735,0.3286486486486486,0.5023233064318905,0.4747252747252747,0.343986543313709,1193.0
650.0,1.7103034231377661e+18,0.16057441253263707,-0.01598173515981735,0.3286486486486486,0.5023233064318905,0.4747252747252747,0.343986543313709,1193.0
651.0,1.7103034231477612e+18,0.16057441253263707,-0.01598173515981735,0.3286486486486486,0.5023233064318905,0.4747252747252747,0.343986543313709,1193.0
652.0,1.7103034231577692e+18,0.16057441253263707,-0.01598173515981735,0.3286486486486486,0.5023233064318905,0.4747252747252747,0.343986543313709,1193.0
653.0,1.710303423167757e+18,0.16057441253263707,-0.01598173515981735,0.3286486486486486,0.5023233064318905,0.4747252747252747,0.343986543313709,1193.0
654.0,1.7103034231777677e+18,0.16057441253263707,-0.01598173515981735,0.3286486486486486,0.5023233064318905,0.4747252747252747,0.343986543313709,1193.0
655.0,1.710303423187752e+18,0.16057441253263707,-0.01598173515981735,0.3286486486486486,0.5023233064318905,0.4747252747252747,0.343986543313709,1193.0
656.0,1.710303423197793e+18,0.16057441253263707,-0.01598173515981735,0.3286486486486486,0.5023233064318905,0.4747252747252747,0.343986543313709,1193.0
657.0,1.7103034232077594e+18,0.16057441253263707,-0.01598173515981735,0.3286486486486486,0.5023233064318905,0.4747252747252747,0.343986543313709,1193.0
658.0,1.7103034232177628e+18,0.16057441253263707,-0.01598173515981735,0.3286486486486486,0.5023233064318905,0.4747252747252747,0.343986543313709,1193.0
659.0,1.710303423227773e+18,0.16057441253263707,-0.01598173515981735,0.3286486486486486,0.5023233064318905,0.4747252747252747,0.343986543313709,1193.0
660.0,1.7103034232377713e+18,0.16057441253263707,-0.01598173515981735,0.3286486486486486,0.5023233064318905,0.4747252747252747,0.343986543313709,1193.0
661.0,1.710303423247749e+18,0.16057441253263707,-0.01598173515981735,0.3286486486486486,0.5023233064318905,0.4747252747252747,0.343986543313709,1193.0
662.0,1.7103034232577646e+18,0.16057441253263707,-0.01598173515981735,0.3286486486486486,0.5023233064318905,0.4747252747252747,0.343986543313709,1193.0
663.0,1.7103034232677476e+18,0.16057441253263707,-0.01598173515981735,0.3286486486486486,0.5023233064318905,0.4747252747252747,0.343986543313709,1193.0
664.0,1.7103034232777664e+18,0.16057441253263707,-0.01598173515981735,0.3286486486486486,0.5023233064318905,0.4747252747252747,0.343986543313709,1193.0
665.0,1.7103034232877947e+18,0.16057441253263707,-0.01598173515981735,0.3286486486486486,0.5023233064318905,0.4747252747252747,0.343986543313709,1193.0
666.0,1.7103034232977485e+18,0.16057441253263707,-0.01598173515981735,0.3286486486486486,0.5023233064318905,0.4747252747252747,0.343986543313709,1193.0
667.0,1.71030342330776e+18,0.16057441253263707,-0.01598173515981735,0.3286486486486486,0.5023233064318905,0.4747252747252747,0.343986543313709,1193.0
668.0,1.710303423317773e+18,0.16057441253263707,-0.01598173515981735,0.3286486486486486,0.5023233064318905,0.4747252747252747,0.343986543313709,1193.0
669.0,1.7103034233277445e+18,0.16057441253263707,-0.01598173515981735,0.3286486486486486,0.5023233064318905,0.4747252747252747,0.343986543313709,1193.0
670.0,1.7103034233377646e+18,0.16057441253263707,-0.01598173515981735,0.3286486486486486,0.5023233064318905,0.4747252747252747,0.343986543313709,1193.0
671.0,1.710303423347763e+18,0.16057441253263707,-0.01598173515981735,0.3286486486486486,0.5023233064318905,0.4747252747252747,0.343986543313709,1193.0
672.0,1.7103034233577528e+18,0.16057441253263707,-0.01598173515981735,0.3286486486486486,0.5023233064318905,0.4747252747252747,0.343986543313709,1193.0
673.0,1.7103034233677586e+18,0.16057441253263707,-0.01598173515981735,0.3286486486486486,0.5023233064318905,0.4747252747252747,0.343986543313709,1193.0
674.0,1.710303423377764e+18,0.16057441253263707,-0.01598173515981735,0.3286486486486486,0.5023233064318905,0.4747252747252747,0.343986543313709,1193.0
675.0,1.710303423387757e+18,0.16057441253263707,-0.01598173515981735,0.3286486486486486,0.5023233064318905,0.4747252747252747,0.343986543313709,1193.0
676.0,1.7103034233977682e+18,0.16057441253263707,-0.01598173515981735,0.3286486486486486,0.5023233064318905,0.4747252747252747,0.343986543313709,1193.0
677.0,1.7103034234077558e+18,0.16057441253263707,-0.01598173515981735,0.3286486486486486,0.5023233064318905,0.4747252747252747,0.343986543313709,1193.0
678.0,1.710303423417767e+18,0.16057441253263707,-0.01598173515981735,0.3286486486486486,0.5023233064318905,0.4747252747252747,0.343986543313709,1193.0
679.0,1.7103034234277489e+18,0.16057441253263707,-0.01598173515981735,0.3286486486486486,0.5023233064318905,0.4747252747252747,0.343986543313709,1193.0
680.0,1.7103034234377646e+18,0.16057441253263707,-0.01598173515981735,0.3286486486486486,0.5023233064318905,0.4747252747252747,0.343986543313709,1193.0
681.0,1.7103034234477553e+18,0.16057441253263707,-0.01598173515981735,0.3286486486486486,0.5023233064318905,0.4747252747252747,0.343986543313709,1193.0
682.0,1.7103034234577672e+18,0.16057441253263707,-0.01598173515981735,0.3286486486486486,0.5023233064318905,0.4747252747252747,0.343986543313709,1193.0
683.0,1.7103034234677425e+18,0.16057441253263707,-0.01598173515981735,0.3286486486486486,0.5023233064318905,0.4747252747252747,0.343986543313709,1193.0
684.0,1.7103034234777661e+18,0.16057441253263707,-0.01598173515981735,0.3286486486486486,0.5023233064318905,0.4747252747252747,0.343986543313709,1193.0
685.0,1.7103034234877494e+18,0.16057441253263707,-0.01598173515981735,0.3286486486486486,0.5023233064318905,0.4747252747252747,0.343986543313709,1193.0
686.0,1.7103034234977677e+18,0.16057441253263707,-0.01598173515981735,0.3286486486486486,0.5023233064318905,0.4747252747252747,0.343986543313709,1193.0
687.0,1.7103034235077563e+18,0.16057441253263707,-0.01598173515981735,0.3286486486486486,0.5023233064318905,0.4747252747252747,0.343986543313709,1193.0
688.0,1.7103034235177654e+18,0.16057441253263707,-0.01598173515981735,0.3286486486486486,0.5023233064318905,0.4747252747252747,0.343986543313709,1193.0
689.0,1.7103034235277568e+18,0.16057441253263707,-0.01598173515981735,0.3286486486486486,0.5023233064318905,0.4747252747252747,0.343986543313709,1193.0
690.0,1.7103034235377649e+18,0.16057441253263707,-0.01598173515981735,0.3286486486486486,0.5023233064318905,0.4747252747252747,0.343986543313709,1193.0
691.0,1.71030342354776e+18,0.16057441253263707,-0.01598173515981735,0.3286486486486486,0.5023233064318905,0.4747252747252747,0.343986543313709,1193.0
692.0,1.7103034235577567e+18,0.16057441253263707,-0.01598173515981735,0.3286486486486486,0.5023233064318905,0.4747252747252747,0.343986543313709,1193.0
693.0,1.710303423567755e+18,0.16057441253263707,-0.01598173515981735,0.3286486486486486,0.5023233064318905,0.4747252747252747,0.343986543313709,1193.0
694.0,1.71030342357776e+18,0.16057441253263707,-0.01598173515981735,0.3286486486486486,0.5023233064318905,0.4747252747252747,0.343986543313709,1193.0
695.0,1.7103034235877448e+18,0.16057441253263707,-0.01598173515981735,0.3286486486486486,0.5023233064318905,0.4747252747252747,0.343986543313709,1193.0
696.0,1.7103034235977682e+18,0.16057441253263707,-0.01598173515981735,0.3286486486486486,0.5023233064318905,0.4747252747252747,0.343986543313709,1193.0
697.0,1.7103034236077553e+18,0.16057441253263707,-0.01598173515981735,0.3286486486486486,0.5023233064318905,0.4747252747252747,0.343986543313709,1193.0
698.0,1.7103034236177654e+18,0.16057441253263707,-0.01598173515981735,0.3286486486486486,0.5023233064318905,0.4747252747252747,0.343986543313709,1193.0
699.0,1.7103034236277565e+18,0.16057441253263707,-0.01598173515981735,0.3286486486486486,0.5023233064318905,0.4747252747252747,0.343986543313709,1193.0
700.0,1.7103034236377633e+18,0.16057441253263707,-0.01598173515981735,0.3286486486486486,0.5023233064318905,0.4747252747252747,0.343986543313709,1193.0
701.0,1.710303423647753e+18,0.16057441253263707,-0.01598173515981735,0.3286486486486486,0.5023233064318905,0.4747252747252747,0.343986543313709,1193.0
702.0,1.7103034236577672e+18,0.16057441253263707,-0.01598173515981735,0.3286486486486486,0.5023233064318905,0.4747252747252747,0.343986543313709,1193.0
703.0,1.710303423667751e+18,0.16057441253263707,-0.01598173515981735,0.3286486486486486,0.5023233064318905,0.4747252747252747,0.343986543313709,1193.0
704.0,1.7103034236777684e+18,0.16057441253263707,-0.01598173515981735,0.3286486486486486,0.5023233064318905,0.4747252747252747,0.343986543313709,1193.0
705.0,1.710303423687749e+18,0.16057441253263707,-0.01598173515981735,0.3286486486486486,0.5023233064318905,0.4747252747252747,0.343986543313709,1193.0
706.0,1.710303423697816e+18,0.16057441253263707,-0.01598173515981735,0.3286486486486486,0.5023233064318905,0.4747252747252747,0.343986543313709,1193.0
707.0,1.7103034237077755e+18,0.16057441253263707,-0.01598173515981735,0.3286486486486486,0.5023233064318905,0.4747252747252747,0.343986543313709,1193.0
708.0,1.7103034237177953e+18,0.16057441253263707,-0.01598173515981735,0.3286486486486486,0.5023233064318905,0.4747252747252747,0.343986543313709,1193.0
709.0,1.7103034237277594e+18,0.16057441253263707,-0.01598173515981735,0.3286486486486486,0.5023233064318905,0.4747252747252747,0.343986543313709,1193.0
710.0,1.7103034237379023e+18,0.16057441253263707,-0.01598173515981735,0.3286486486486486,0.5023233064318905,0.4747252747252747,0.343986543313709,1193.0
711.0,1.7103034237477652e+18,0.16057441253263707,-0.01598173515981735,0.3286486486486486,0.5023233064318905,0.4747252747252747,0.343986543313709,1193.0
712.0,1.7103034237577618e+18,0.16057441253263707,-0.01598173515981735,0.3286486486486486,0.5023233064318905,0.4747252747252747,0.343986543313709,1193.0
713.0,1.7103034237678052e+18,0.16057441253263707,-0.01598173515981735,0.3286486486486486,0.5023233064318905,0.4747252747252747,0.343986543313709,1193.0
714.0,1.7103034237777805e+18,0.16057441253263707,-0.01598173515981735,0.3286486486486486,0.5023233064318905,0.4747252747252747,0.343986543313709,1193.0
715.0,1.710303423787772e+18,0.16057441253263707,-0.01598173515981735,0.3286486486486486,0.5023233064318905,0.4747252747252747,0.343986543313709,1193.0
716.0,1.7103034237977807e+18,0.16057441253263707,-0.01598173515981735,0.3286486486486486,0.5023233064318905,0.4747252747252747,0.343986543313709,1193.0
717.0,1.7103034238078126e+18,0.16057441253263707,-0.01598173515981735,0.3286486486486486,0.5023233064318905,0.4747252747252747,0.343986543313709,1193.0
718.0,1.7103034238177728e+18,0.16057441253263707,-0.01598173515981735,0.3286486486486486,0.5023233064318905,0.4747252747252747,0.343986543313709,1193.0
719.0,1.7103034238277857e+18,0.16057441253263707,-0.01598173515981735,0.3286486486486486,0.5023233064318905,0.4747252747252747,0.343986543313709,1193.0
720.0,1.7103034238378634e+18,0.16057441253263707,-0.01598173515981735,0.3286486486486486,0.5023233064318905,0.4747252747252747,0.343986543313709,1193.0
721.0,1.7103034238477514e+18,0.16057441253263707,-0.01598173515981735,0.3286486486486486,0.5023233064318905,0.4747252747252747,0.343986543313709,1193.0
722.0,1.7103034238577528e+18,0.16057441253263707,-0.01598173515981735,0.3286486486486486,0.5023233064318905,0.4747252747252747,0.343986543313709,1193.0
723.0,1.7103034238677507e+18,0.16057441253263707,-0.01598173515981735,0.3286486486486486,0.5023233064318905,0.4747252747252747,0.343986543313709,1193.0
724.0,1.7103034238777633e+18,0.16057441253263707,-0.01598173515981735,0.3286486486486486,0.5023233064318905,0.4747252747252747,0.343986543313709,1193.0
725.0,1.7103034238877978e+18,0.16057441253263707,-0.01598173515981735,0.3286486486486486,0.5023233064318905,0.4747252747252747,0.343986543313709,1193.0
726.0,1.7103034238977672e+18,0.16057441253263707,-0.01598173515981735,0.3286486486486486,0.5023233064318905,0.4747252747252747,0.343986543313709,1193.0
727.0,1.710303423907755e+18,0.16057441253263707,-0.01598173515981735,0.3286486486486486,0.5023233064318905,0.4747252747252747,0.343986543313709,1193.0
728.0,1.7103034239177595e+18,0.16057441253263707,-0.01598173515981735,0.3286486486486486,0.5023233064318905,0.4747252747252747,0.343986543313709,1193.0
729.0,1.710303423927747e+18,0.16057441253263707,-0.01598173515981735,0.3286486486486486,0.5023233064318905,0.4747252747252747,0.343986543313709,1193.0
730.0,1.7103034239377917e+18,0.16057441253263707,-0.01598173515981735,0.3286486486486486,0.5023233064318905,0.4747252747252747,0.343986543313709,1193.0
731.0,1.7103034239477558e+18,0.16057441253263707,-0.01598173515981735,0.3286486486486486,0.5023233064318905,0.4747252747252747,0.343986543313709,1193.0
732.0,1.710303423957763e+18,0.16057441253263707,-0.01598173515981735,0.3286486486486486,0.5023233064318905,0.4747252747252747,0.343986543313709,1193.0
733.0,1.7103034239677583e+18,0.16057441253263707,-0.01598173515981735,0.3286486486486486,0.5023233064318905,0.4747252747252747,0.343986543313709,1193.0
734.0,1.7103034239777692e+18,0.16057441253263707,-0.01598173515981735,0.3286486486486486,0.5023233064318905,0.4747252747252747,0.343986543313709,1193.0
735.0,1.7103034239877501e+18,0.16057441253263707,-0.01598173515981735,0.3286486486486486,0.5023233064318905,0.4747252747252747,0.343986543313709,1193.0
736.0,1.7103034239977702e+18,0.16057441253263707,-0.01598173515981735,0.3286486486486486,0.5023233064318905,0.4747252747252747,0.343986543313709,1193.0
737.0,1.7103034240077632e+18,0.16057441253263707,-0.01598173515981735,0.3286486486486486,0.5023233064318905,0.4747252747252747,0.343986543313709,1193.0
738.0,1.7103034240177644e+18,0.16057441253263707,-0.01598173515981735,0.3286486486486486,0.5023233064318905,0.4747252747252747,0.343986543313709,1193.0
739.0,1.7103034240277665e+18,0.16057441253263707,-0.01598173515981735,0.3286486486486486,0.5023233064318905,0.4747252747252747,0.343986543313709,1193.0
740.0,1.710303424037775e+18,0.16057441253263707,-0.01598173515981735,0.3286486486486486,0.5023233064318905,0.4747252747252747,0.343986543313709,1193.0
741.0,1.7103034240477732e+18,0.16057441253263707,-0.01598173515981735,0.3286486486486486,0.5023233064318905,0.4747252747252747,0.343986543313709,1193.0
742.0,1.7103034240577805e+18,0.16057441253263707,-0.01598173515981735,0.3286486486486486,0.5023233064318905,0.4747252747252747,0.343986543313709,1193.0
743.0,1.710303424067768e+18,0.16057441253263707,-0.01598173515981735,0.3286486486486486,0.5023233064318905,0.4747252747252747,0.343986543313709,1193.0
744.0,1.7103034240778368e+18,0.16057441253263707,-0.01598173515981735,0.3286486486486486,0.5023233064318905,0.4747252747252747,0.343986543313709,1193.0
745.0,1.7103034240877586e+18,0.16057441253263707,-0.01598173515981735,0.3286486486486486,0.5023233064318905,0.4747252747252747,0.343986543313709,1193.0
746.0,1.710303424097775e+18,0.16057441253263707,-0.01598173515981735,0.3286486486486486,0.5023233064318905,0.4747252747252747,0.343986543313709,1193.0
747.0,1.7103034241077578e+18,0.16057441253263707,-0.01598173515981735,0.3286486486486486,0.5023233064318905,0.4747252747252747,0.343986543313709,1193.0
748.0,1.7103034241177682e+18,0.16057441253263707,-0.01598173515981735,0.3286486486486486,0.5023233064318905,0.4747252747252747,0.343986543313709,1193.0
749.0,1.7103034241277898e+18,0.16057441253263707,-0.01598173515981735,0.3286486486486486,0.5023233064318905,0.4747252747252747,0.343986543313709,1193.0
750.0,1.7103034241377656e+18,0.16057441253263707,-0.01598173515981735,0.3286486486486486,0.5023233064318905,0.4747252747252747,0.343986543313709,1193.0
751.0,1.7103034241477586e+18,0.16057441253263707,-0.01598173515981735,0.3286486486486486,0.5023233064318905,0.4747252747252747,0.343986543313709,1193.0
752.0,1.7103034241577618e+18,0.16057441253263707,-0.01598173515981735,0.3286486486486486,0.5023233064318905,0.4747252747252747,0.343986543313709,1193.0
753.0,1.7103034241677676e+18,0.16057441253263707,-0.01598173515981735,0.3286486486486486,0.5023233064318905,0.4747252747252747,0.343986543313709,1193.0
754.0,1.7103034241778248e+18,0.16057441253263707,-0.01598173515981735,0.3286486486486486,0.5023233064318905,0.4747252747252747,0.343986543313709,1193.0
755.0,1.710303424187751e+18,0.16057441253263707,-0.01598173515981735,0.3286486486486486,0.5023233064318905,0.4747252747252747,0.343986543313709,1193.0
756.0,1.710303424197766e+18,0.16057441253263707,-0.01598173515981735,0.3286486486486486,0.5023233064318905,0.4747252747252747,0.343986543313709,1193.0
757.0,1.7103034242077573e+18,0.16057441253263707,-0.01598173515981735,0.3286486486486486,0.5023233064318905,0.4747252747252747,0.343986543313709,1193.0
758.0,1.710303424217763e+18,0.16057441253263707,-0.01598173515981735,0.3286486486486486,0.5023233064318905,0.4747252747252747,0.343986543313709,1193.0
759.0,1.710303424227755e+18,0.16057441253263707,-0.01598173515981735,0.3286486486486486,0.5023233064318905,0.4747252747252747,0.343986543313709,1193.0
760.0,1.710303424237772e+18,0.16057441253263707,-0.01598173515981735,0.3286486486486486,0.5023233064318905,0.4747252747252747,0.343986543313709,1193.0
761.0,1.7103034242477606e+18,0.16057441253263707,-0.01598173515981735,0.3286486486486486,0.5023233064318905,0.4747252747252747,0.343986543313709,1193.0
762.0,1.7103034242577667e+18,0.16057441253263707,-0.01598173515981735,0.3286486486486486,0.5023233064318905,0.4747252747252747,0.343986543313709,1193.0
763.0,1.7103034242677576e+18,0.16057441253263707,-0.01598173515981735,0.3286486486486486,0.5023233064318905,0.4747252747252747,0.343986543313709,1193.0
764.0,1.7103034242777964e+18,0.16057441253263707,-0.01598173515981735,0.3286486486486486,0.5023233064318905,0.4747252747252747,0.343986543313709,1193.0
765.0,1.7103034242877668e+18,0.16057441253263707,-0.01598173515981735,0.3286486486486486,0.5023233064318905,0.4747252747252747,0.343986543313709,1193.0
766.0,1.710303424297769e+18,0.16057441253263707,-0.01598173515981735,0.3286486486486486,0.5023233064318905,0.4747252747252747,0.343986543313709,1193.0
767.0,1.7103034243078152e+18,0.16057441253263707,-0.01598173515981735,0.3286486486486486,0.5023233064318905,0.4747252747252747,0.343986543313709,1193.0
768.0,1.7103034243177946e+18,0.16057441253263707,-0.01598173515981735,0.3286486486486486,0.5023233064318905,0.4747252747252747,0.343986543313709,1193.0
769.0,1.7103034243277745e+18,0.16057441253263707,-0.01598173515981735,0.3286486486486486,0.5023233064318905,0.4747252747252747,0.343986543313709,1193.0
770.0,1.7103034243377764e+18,0.16057441253263707,-0.01598173515981735,0.3286486486486486,0.5023233064318905,0.4747252747252747,0.343986543313709,1193.0
771.0,1.710303424347788e+18,0.16057441253263707,-0.01598173515981735,0.3286486486486486,0.5023233064318905,0.4747252747252747,0.343986543313709,1193.0
772.0,1.7103034243577802e+18,0.16057441253263707,-0.01598173515981735,0.3286486486486486,0.5023233064318905,0.4747252747252747,0.343986543313709,1193.0
773.0,1.710303424367776e+18,0.16057441253263707,-0.01598173515981735,0.3286486486486486,0.5023233064318905,0.4747252747252747,0.343986543313709,1193.0
774.0,1.710303424377766e+18,0.16057441253263707,-0.01598173515981735,0.3286486486486486,0.5023233064318905,0.4747252747252747,0.343986543313709,1193.0
775.0,1.710303424387767e+18,0.16057441253263707,-0.01598173515981735,0.3286486486486486,0.5023233064318905,0.4747252747252747,0.343986543313709,1193.0
776.0,1.7103034243991803e+18,0.16057441253263707,-0.01598173515981735,0.3286486486486486,0.5023233064318905,0.4747252747252747,0.343986543313709,1193.0
777.0,1.7103034244077665e+18,0.16057441253263707,-0.01598173515981735,0.3286486486486486,0.5023233064318905,0.4747252747252747,0.343986543313709,1193.0
778.0,1.7103034244177672e+18,0.16057441253263707,-0.01598173515981735,0.3286486486486486,0.5023233064318905,0.4747252747252747,0.343986543313709,1193.0
779.0,1.7103034244277624e+18,0.16057441253263707,-0.01598173515981735,0.3286486486486486,0.5023233064318905,0.4747252747252747,0.343986543313709,1193.0
780.0,1.7103034244377646e+18,0.16057441253263707,-0.01598173515981735,0.3286486486486486,0.5023233064318905,0.4747252747252747,0.343986543313709,1193.0
781.0,1.7103034244477573e+18,0.16057441253263707,-0.01598173515981735,0.3286486486486486,0.5023233064318905,0.4747252747252747,0.343986543313709,1193.0
782.0,1.7103034244578406e+18,0.16057441253263707,-0.01598173515981735,0.3286486486486486,0.5023233064318905,0.4747252747252747,0.343986543313709,1193.0
783.0,1.7103034244677617e+18,0.16057441253263707,-0.01598173515981735,0.3286486486486486,0.5023233064318905,0.4747252747252747,0.343986543313709,1193.0
784.0,1.7103034244777677e+18,0.16057441253263707,-0.01598173515981735,0.3286486486486486,0.5023233064318905,0.4747252747252747,0.343986543313709,1193.0
785.0,1.7103034244877652e+18,0.16057441253263707,-0.01598173515981735,0.3286486486486486,0.5023233064318905,0.4747252747252747,0.343986543313709,1193.0
786.0,1.7103034244977787e+18,0.16057441253263707,-0.01598173515981735,0.3286486486486486,0.5023233064318905,0.4747252747252747,0.343986543313709,1193.0
787.0,1.7103034245077778e+18,0.16057441253263707,-0.01598173515981735,0.3286486486486486,0.5023233064318905,0.4747252747252747,0.343986543313709,1193.0
788.0,1.7103034245177646e+18,0.16057441253263707,-0.01598173515981735,0.3286486486486486,0.5023233064318905,0.4747252747252747,0.343986543313709,1193.0
789.0,1.710303424527749e+18,0.16057441253263707,-0.01598173515981735,0.3286486486486486,0.5023233064318905,0.4747252747252747,0.343986543313709,1193.0
790.0,1.7103034245377638e+18,0.16057441253263707,-0.01598173515981735,0.3286486486486486,0.5023233064318905,0.4747252747252747,0.343986543313709,1193.0
791.0,1.7103034245477652e+18,0.16057441253263707,-0.01598173515981735,0.3286486486486486,0.5023233064318905,0.4747252747252747,0.343986543313709,1193.0
792.0,1.7103034245577723e+18,0.16057441253263707,-0.01598173515981735,0.3286486486486486,0.5023233064318905,0.4747252747252747,0.343986543313709,1193.0
793.0,1.7103034245677604e+18,0.16057441253263707,-0.01598173515981735,0.3286486486486486,0.5023233064318905,0.4747252747252747,0.343986543313709,1193.0
794.0,1.7103034245778004e+18,0.16057441253263707,-0.01598173515981735,0.3286486486486486,0.5023233064318905,0.4747252747252747,0.343986543313709,1193.0
795.0,1.7103034245877501e+18,0.16057441253263707,-0.01598173515981735,0.3286486486486486,0.5023233064318905,0.4747252747252747,0.343986543313709,1193.0
796.0,1.710303424597766e+18,0.16057441253263707,-0.01598173515981735,0.3286486486486486,0.5023233064318905,0.4747252747252747,0.343986543313709,1193.0
797.0,1.7103034246077412e+18,0.16057441253263707,-0.01598173515981735,0.3286486486486486,0.5023233064318905,0.4747252747252747,0.343986543313709,1193.0
798.0,1.710303424617768e+18,0.16057441253263707,-0.01598173515981735,0.3286486486486486,0.5023233064318905,0.4747252747252747,0.343986543313709,1193.0
799.0,1.7103034246277553e+18,0.16057441253263707,-0.01598173515981735,0.3286486486486486,0.5023233064318905,0.4747252747252747,0.343986543313709,1193.0
800.0,1.7103034246377697e+18,0.16057441253263707,-0.01598173515981735,0.3286486486486486,0.5023233064318905,0.4747252747252747,0.343986543313709,1193.0
801.0,1.7103034246477693e+18,0.16057441253263707,-0.01598173515981735,0.3286486486486486,0.5023233064318905,0.4747252747252747,0.343986543313709,1193.0
802.0,1.7103034246577656e+18,0.16057441253263707,-0.01598173515981735,0.3286486486486486,0.5023233064318905,0.4747252747252747,0.343986543313709,1193.0
803.0,1.7103034246677486e+18,0.16057441253263707,-0.01598173515981735,0.3286486486486486,0.5023233064318905,0.4747252747252747,0.343986543313709,1193.0
804.0,1.710303424677791e+18,0.16057441253263707,-0.01598173515981735,0.3286486486486486,0.5023233064318905,0.4747252747252747,0.343986543313709,1193.0
805.0,1.7103034246877704e+18,0.16057441253263707,-0.01598173515981735,0.3286486486486486,0.5023233064318905,0.4747252747252747,0.343986543313709,1193.0
806.0,1.710303424697768e+18,0.16057441253263707,-0.01598173515981735,0.3286486486486486,0.5023233064318905,0.4747252747252747,0.343986543313709,1193.0
807.0,1.7103034247077806e+18,0.16057441253263707,-0.01598173515981735,0.3286486486486486,0.5023233064318905,0.4747252747252747,0.343986543313709,1193.0
808.0,1.7103034247177702e+18,0.16057441253263707,-0.01598173515981735,0.3286486486486486,0.5023233064318905,0.4747252747252747,0.343986543313709,1193.0
809.0,1.7103034247277696e+18,0.16057441253263707,-0.01598173515981735,0.3286486486486486,0.5023233064318905,0.4747252747252747,0.343986543313709,1193.0
810.0,1.7103034247377708e+18,0.16057441253263707,-0.01598173515981735,0.3286486486486486,0.5023233064318905,0.4747252747252747,0.343986543313709,1193.0
811.0,1.7103034247477624e+18,0.16057441253263707,-0.01598173515981735,0.3286486486486486,0.5023233064318905,0.4747252747252747,0.343986543313709,1193.0
812.0,1.7103034247577667e+18,0.16057441253263707,-0.01598173515981735,0.3286486486486486,0.5023233064318905,0.4747252747252747,0.343986543313709,1193.0
813.0,1.710303424767748e+18,0.16057441253263707,-0.01598173515981735,0.3286486486486486,0.5023233064318905,0.4747252747252747,0.343986543313709,1193.0
814.0,1.7103034247777697e+18,0.16057441253263707,-0.01598173515981735,0.3286486486486486,0.5023233064318905,0.4747252747252747,0.343986543313709,1193.0
815.0,1.7103034247877453e+18,0.16057441253263707,-0.01598173515981735,0.3286486486486486,0.5023233064318905,0.4747252747252747,0.343986543313709,1193.0
816.0,1.710303424797766e+18,0.16057441253263707,-0.01598173515981735,0.3286486486486486,0.5023233064318905,0.4747252747252747,0.343986543313709,1193.0
817.0,1.710303424807754e+18,0.16057441253263707,-0.01598173515981735,0.3286486486486486,0.5023233064318905,0.4747252747252747,0.343986543313709,1193.0
818.0,1.7103034248177713e+18,0.16057441253263707,-0.01598173515981735,0.3286486486486486,0.5023233064318905,0.4747252747252747,0.343986543313709,1193.0
819.0,1.710303424827759e+18,0.16057441253263707,-0.01598173515981735,0.3286486486486486,0.5023233064318905,0.4747252747252747,0.343986543313709,1193.0
820.0,1.7103034248377966e+18,0.16057441253263707,-0.01598173515981735,0.3286486486486486,0.5023233064318905,0.4747252747252747,0.343986543313709,1193.0
821.0,1.7103034248477668e+18,0.16057441253263707,-0.01598173515981735,0.3286486486486486,0.5023233064318905,0.4747252747252747,0.343986543313709,1193.0
822.0,1.7103034248577695e+18,0.16057441253263707,-0.01598173515981735,0.3286486486486486,0.5023233064318905,0.4747252747252747,0.343986543313709,1193.0
823.0,1.710303424867776e+18,0.16057441253263707,-0.01598173515981735,0.3286486486486486,0.5023233064318905,0.4747252747252747,0.343986543313709,1193.0
824.0,1.7103034248777743e+18,0.16057441253263707,-0.01598173515981735,0.3286486486486486,0.5023233064318905,0.4747252747252747,0.343986543313709,1193.0
825.0,1.710303424887759e+18,0.16057441253263707,-0.01598173515981735,0.3286486486486486,0.5023233064318905,0.4747252747252747,0.343986543313709,1193.0
826.0,1.7103034248977613e+18,0.16057441253263707,-0.01598173515981735,0.3286486486486486,0.5023233064318905,0.4747252747252747,0.343986543313709,1193.0
827.0,1.710303424907764e+18,0.16057441253263707,-0.01598173515981735,0.3286486486486486,0.5023233064318905,0.4747252747252747,0.343986543313709,1193.0
828.0,1.7103034249177874e+18,0.16057441253263707,-0.01598173515981735,0.3286486486486486,0.5023233064318905,0.4747252747252747,0.343986543313709,1193.0
829.0,1.710303424927753e+18,0.16057441253263707,-0.01598173515981735,0.3286486486486486,0.5023233064318905,0.4747252747252747,0.343986543313709,1193.0
830.0,1.7103034249377718e+18,0.16057441253263707,-0.01598173515981735,0.3286486486486486,0.5023233064318905,0.4747252747252747,0.343986543313709,1193.0
831.0,1.7103034249477606e+18,0.16057441253263707,-0.01598173515981735,0.3286486486486486,0.5023233064318905,0.4747252747252747,0.343986543313709,1193.0
832.0,1.7103034249577718e+18,0.16057441253263707,-0.01598173515981735,0.3286486486486486,0.5023233064318905,0.4747252747252747,0.343986543313709,1193.0
833.0,1.710303424967771e+18,0.16057441253263707,-0.01598173515981735,0.3286486486486486,0.5023233064318905,0.4747252747252747,0.343986543313709,1193.0
834.0,1.710303424977771e+18,0.16057441253263707,-0.01598173515981735,0.3286486486486486,0.5023233064318905,0.4747252747252747,0.343986543313709,1193.0
835.0,1.7103034249877545e+18,0.16057441253263707,-0.01598173515981735,0.3286486486486486,0.5023233064318905,0.4747252747252747,0.343986543313709,1193.0
836.0,1.710303424997777e+18,0.16057441253263707,-0.01598173515981735,0.3286486486486486,0.5023233064318905,0.4747252747252747,0.343986543313709,1193.0
837.0,1.7103034250077548e+18,0.16057441253263707,-0.01598173515981735,0.3286486486486486,0.5023233064318905,0.4747252747252747,0.343986543313709,1193.0
838.0,1.7103034250177733e+18,0.16057441253263707,-0.01598173515981735,0.3286486486486486,0.5023233064318905,0.4747252747252747,0.343986543313709,1193.0
839.0,1.7103034250277688e+18,0.16057441253263707,-0.01598173515981735,0.3286486486486486,0.5023233064318905,0.4747252747252747,0.343986543313709,1193.0
840.0,1.7103034250377582e+18,0.16057441253263707,-0.01598173515981735,0.3286486486486486,0.5023233064318905,0.4747252747252747,0.343986543313709,1193.0
841.0,1.7103034250477522e+18,0.16057441253263707,-0.01598173515981735,0.3286486486486486,0.5023233064318905,0.4747252747252747,0.343986543313709,1193.0
842.0,1.7103034250577787e+18,0.16057441253263707,-0.01598173515981735,0.3286486486486486,0.5023233064318905,0.4747252747252747,0.343986543313709,1193.0
843.0,1.7103034250677542e+18,0.16057441253263707,-0.01598173515981735,0.3286486486486486,0.5023233064318905,0.4747252747252747,0.343986543313709,1193.0
844.0,1.7103034250777728e+18,0.16057441253263707,-0.01598173515981735,0.3286486486486486,0.5023233064318905,0.4747252747252747,0.343986543313709,1193.0
845.0,1.710303425087762e+18,0.16057441253263707,-0.01598173515981735,0.3286486486486486,0.5023233064318905,0.4747252747252747,0.343986543313709,1193.0
846.0,1.710303425097773e+18,0.16057441253263707,-0.01598173515981735,0.3286486486486486,0.5023233064318905,0.4747252747252747,0.343986543313709,1193.0
847.0,1.7103034251077532e+18,0.16057441253263707,-0.01598173515981735,0.3286486486486486,0.5023233064318905,0.4747252747252747,0.343986543313709,1193.0
848.0,1.710303425117776e+18,0.16057441253263707,-0.01598173515981735,0.3286486486486486,0.5023233064318905,0.4747252747252747,0.343986543313709,1193.0
849.0,1.7103034251277583e+18,0.16057441253263707,-0.01598173515981735,0.3286486486486486,0.5023233064318905,0.4747252747252747,0.343986543313709,1193.0
850.0,1.710303425137841e+18,0.16057441253263707,-0.01598173515981735,0.3286486486486486,0.5023233064318905,0.4747252747252747,0.343986543313709,1193.0
851.0,1.7103034251477612e+18,0.16057441253263707,-0.01598173515981735,0.3286486486486486,0.5023233064318905,0.4747252747252747,0.343986543313709,1193.0
852.0,1.7103034251577843e+18,0.16057441253263707,-0.01598173515981735,0.3286486486486486,0.5023233064318905,0.4747252747252747,0.343986543313709,1193.0
853.0,1.7103034251677568e+18,0.16057441253263707,-0.01598173515981735,0.3286486486486486,0.5023233064318905,0.4747252747252747,0.343986543313709,1193.0
854.0,1.7103034251777664e+18,0.16057441253263707,-0.01598173515981735,0.3286486486486486,0.5023233064318905,0.4747252747252747,0.343986543313709,1193.0
855.0,1.7103034251877645e+18,0.16057441253263707,-0.01598173515981735,0.3286486486486486,0.5023233064318905,0.4747252747252747,0.343986543313709,1193.0
856.0,1.7103034251977646e+18,0.16057441253263707,-0.01598173515981735,0.3286486486486486,0.5023233064318905,0.4747252747252747,0.343986543313709,1193.0
857.0,1.7103034252077663e+18,0.16057441253263707,-0.01598173515981735,0.3286486486486486,0.5023233064318905,0.4747252747252747,0.343986543313709,1193.0
858.0,1.710303425217776e+18,0.16057441253263707,-0.01598173515981735,0.3286486486486486,0.5023233064318905,0.4747252747252747,0.343986543313709,1193.0
859.0,1.7103034252277527e+18,0.16057441253263707,-0.01598173515981735,0.3286486486486486,0.5023233064318905,0.4747252747252747,0.343986543313709,1193.0
860.0,1.7103034252377605e+18,0.16057441253263707,-0.01598173515981735,0.3286486486486486,0.5023233064318905,0.4747252747252747,0.343986543313709,1193.0
861.0,1.7103034252477463e+18,0.16057441253263707,-0.01598173515981735,0.3286486486486486,0.5023233064318905,0.4747252747252747,0.343986543313709,1193.0
862.0,1.710303425257782e+18,0.16057441253263707,-0.01598173515981735,0.3286486486486486,0.5023233064318905,0.4747252747252747,0.343986543313709,1193.0
863.0,1.7103034252677645e+18,0.16057441253263707,-0.01598173515981735,0.3286486486486486,0.5023233064318905,0.4747252747252747,0.343986543313709,1193.0
864.0,1.710303425277802e+18,0.16057441253263707,-0.01598173515981735,0.3286486486486486,0.5023233064318905,0.4747252747252747,0.343986543313709,1193.0
865.0,1.710303425287776e+18,0.16057441253263707,-0.01598173515981735,0.3286486486486486,0.5023233064318905,0.4747252747252747,0.343986543313709,1193.0
866.0,1.7103034252977728e+18,0.16057441253263707,-0.01598173515981735,0.3286486486486486,0.5023233064318905,0.4747252747252747,0.343986543313709,1193.0
867.0,1.7103034253077476e+18,0.16057441253263707,-0.01598173515981735,0.3286486486486486,0.5023233064318905,0.4747252747252747,0.343986543313709,1193.0
868.0,1.7103034253177587e+18,0.16057441253263707,-0.01598173515981735,0.3286486486486486,0.5023233064318905,0.4747252747252747,0.343986543313709,1193.0
869.0,1.7103034253277489e+18,0.16057441253263707,-0.01598173515981735,0.3286486486486486,0.5023233064318905,0.4747252747252747,0.343986543313709,1193.0
870.0,1.7103034253377997e+18,0.16057441253263707,-0.01598173515981735,0.3286486486486486,0.5023233064318905,0.4747252747252747,0.343986543313709,1193.0
871.0,1.7103034253477604e+18,0.16057441253263707,-0.01598173515981735,0.3286486486486486,0.5023233064318905,0.4747252747252747,0.343986543313709,1193.0
872.0,1.7103034253577684e+18,0.16057441253263707,-0.01598173515981735,0.3286486486486486,0.5023233064318905,0.4747252747252747,0.343986543313709,1193.0
873.0,1.710303425367744e+18,0.16057441253263707,-0.01598173515981735,0.3286486486486486,0.5023233064318905,0.4747252747252747,0.343986543313709,1193.0
874.0,1.7103034253777818e+18,0.16057441253263707,-0.01598173515981735,0.3286486486486486,0.5023233064318905,0.4747252747252747,0.343986543313709,1193.0
875.0,1.7103034253877696e+18,0.16057441253263707,-0.01598173515981735,0.3286486486486486,0.5023233064318905,0.4747252747252747,0.343986543313709,1193.0
876.0,1.7103034253977661e+18,0.16057441253263707,-0.01598173515981735,0.3286486486486486,0.5023233064318905,0.4747252747252747,0.343986543313709,1193.0
877.0,1.7103034254077686e+18,0.16057441253263707,-0.01598173515981735,0.3286486486486486,0.5023233064318905,0.4747252747252747,0.343986543313709,1193.0
878.0,1.7103034254177736e+18,0.16057441253263707,-0.01598173515981735,0.3286486486486486,0.5023233064318905,0.4747252747252747,0.343986543313709,1193.0
879.0,1.7103034254277606e+18,0.16057441253263707,-0.01598173515981735,0.3286486486486486,0.5023233064318905,0.4747252747252747,0.343986543313709,1193.0
880.0,1.7103034254377907e+18,0.16057441253263707,-0.01598173515981735,0.3286486486486486,0.5023233064318905,0.4747252747252747,0.343986543313709,1193.0
881.0,1.7103034254477473e+18,0.16057441253263707,-0.01598173515981735,0.3286486486486486,0.5023233064318905,0.4747252747252747,0.343986543313709,1193.0
882.0,1.7103034254577692e+18,0.16057441253263707,-0.01598173515981735,0.3286486486486486,0.5023233064318905,0.4747252747252747,0.343986543313709,1193.0
883.0,1.7103034254677632e+18,0.16057441253263707,-0.01598173515981735,0.3286486486486486,0.5023233064318905,0.4747252747252747,0.343986543313709,1193.0
884.0,1.7103034254777615e+18,0.16057441253263707,-0.01598173515981735,0.3286486486486486,0.5023233064318905,0.4747252747252747,0.343986543313709,1193.0
885.0,1.710303425487758e+18,0.16057441253263707,-0.01598173515981735,0.3286486486486486,0.5023233064318905,0.4747252747252747,0.343986543313709,1193.0
886.0,1.7103034254977564e+18,0.16057441253263707,-0.01598173515981735,0.3286486486486486,0.5023233064318905,0.4747252747252747,0.343986543313709,1193.0
887.0,1.7103034255077443e+18,0.16057441253263707,-0.01598173515981735,0.3286486486486486,0.5023233064318905,0.4747252747252747,0.343986543313709,1193.0
888.0,1.7103034255177623e+18,0.16057441253263707,-0.01598173515981735,0.3286486486486486,0.5023233064318905,0.4747252747252747,0.343986543313709,1193.0
889.0,1.7103034255277535e+18,0.16057441253263707,-0.01598173515981735,0.3286486486486486,0.5023233064318905,0.4747252747252747,0.343986543313709,1193.0
890.0,1.7103034255377987e+18,0.16057441253263707,-0.01598173515981735,0.3286486486486486,0.5023233064318905,0.4747252747252747,0.343986543313709,1193.0
891.0,1.710303425547765e+18,0.16057441253263707,-0.01598173515981735,0.3286486486486486,0.5023233064318905,0.4747252747252747,0.343986543313709,1193.0
892.0,1.7103034255577692e+18,0.16057441253263707,-0.01598173515981735,0.3286486486486486,0.5023233064318905,0.4747252747252747,0.343986543313709,1193.0
893.0,1.7103034255677814e+18,0.16057441253263707,-0.01598173515981735,0.3286486486486486,0.5023233064318905,0.4747252747252747,0.343986543313709,1193.0
894.0,1.7103034255777692e+18,0.16057441253263707,-0.01598173515981735,0.3286486486486486,0.5023233064318905,0.4747252747252747,0.343986543313709,1193.0
895.0,1.7103034255877594e+18,0.16057441253263707,-0.01598173515981735,0.3286486486486486,0.5023233064318905,0.4747252747252747,0.343986543313709,1193.0
896.0,1.7103034255977656e+18,0.16057441253263707,-0.01598173515981735,0.3286486486486486,0.5023233064318905,0.4747252747252747,0.343986543313709,1193.0
897.0,1.7103034256077501e+18,0.16057441253263707,-0.01598173515981735,0.3286486486486486,0.5023233064318905,0.4747252747252747,0.343986543313709,1193.0
898.0,1.7103034256177633e+18,0.16057441253263707,-0.01598173515981735,0.3286486486486486,0.5023233064318905,0.4747252747252747,0.343986543313709,1193.0
899.0,1.7103034256277555e+18,0.16057441253263707,-0.01598173515981735,0.3286486486486486,0.5023233064318905,0.4747252747252747,0.343986543313709,1193.0
900.0,1.7103034256377646e+18,0.16057441253263707,-0.01598173515981735,0.3286486486486486,0.5023233064318905,0.4747252747252747,0.343986543313709,1193.0
901.0,1.7103034256477545e+18,0.16057441253263707,-0.01598173515981735,0.3286486486486486,0.5023233064318905,0.4747252747252747,0.343986543313709,1193.0
902.0,1.7103034256577907e+18,0.16057441253263707,-0.01598173515981735,0.3286486486486486,0.5023233064318905,0.4747252747252747,0.343986543313709,1193.0
903.0,1.7103034256677553e+18,0.16057441253263707,-0.01598173515981735,0.3286486486486486,0.5023233064318905,0.4747252747252747,0.343986543313709,1193.0
904.0,1.710303425677794e+18,0.16057441253263707,-0.01598173515981735,0.3286486486486486,0.5023233064318905,0.4747252747252747,0.343986543313709,1193.0
905.0,1.710303425687757e+18,0.16057441253263707,-0.01598173515981735,0.3286486486486486,0.5023233064318905,0.4747252747252747,0.343986543313709,1193.0
906.0,1.7103034256977736e+18,0.16057441253263707,-0.01598173515981735,0.3286486486486486,0.5023233064318905,0.4747252747252747,0.343986543313709,1193.0
907.0,1.7103034257077586e+18,0.16057441253263707,-0.01598173515981735,0.3286486486486486,0.5023233064318905,0.4747252747252747,0.343986543313709,1193.0
908.0,1.710303425717765e+18,0.16057441253263707,-0.01598173515981735,0.3286486486486486,0.5023233064318905,0.4747252747252747,0.343986543313709,1193.0
909.0,1.710303425727771e+18,0.16057441253263707,-0.01598173515981735,0.3286486486486486,0.5023233064318905,0.4747252747252747,0.343986543313709,1193.0
910.0,1.7103034257377585e+18,0.16057441253263707,-0.01598173515981735,0.3286486486486486,0.5023233064318905,0.4747252747252747,0.343986543313709,1193.0
911.0,1.7103034257477486e+18,0.16057441253263707,-0.01598173515981735,0.3286486486486486,0.5023233064318905,0.4747252747252747,0.343986543313709,1193.0
912.0,1.7103034257577633e+18,0.16057441253263707,-0.01598173515981735,0.3286486486486486,0.5023233064318905,0.4747252747252747,0.343986543313709,1193.0
913.0,1.7103034257677596e+18,0.16057441253263707,-0.01598173515981735,0.3286486486486486,0.5023233064318905,0.4747252747252747,0.343986543313709,1193.0
914.0,1.710303425777769e+18,0.16057441253263707,-0.01598173515981735,0.3286486486486486,0.5023233064318905,0.4747252747252747,0.343986543313709,1193.0
915.0,1.7103034257877522e+18,0.16057441253263707,-0.01598173515981735,0.3286486486486486,0.5023233064318905,0.4747252747252747,0.343986543313709,1193.0
916.0,1.710303425797769e+18,0.16057441253263707,-0.01598173515981735,0.3286486486486486,0.5023233064318905,0.4747252747252747,0.343986543313709,1193.0
917.0,1.71030342580776e+18,0.16057441253263707,-0.01598173515981735,0.3286486486486486,0.5023233064318905,0.4747252747252747,0.343986543313709,1193.0
918.0,1.7103034258177687e+18,0.16057441253263707,-0.01598173515981735,0.3286486486486486,0.5023233064318905,0.4747252747252747,0.343986543313709,1193.0
919.0,1.7103034258277665e+18,0.16057441253263707,-0.01598173515981735,0.3286486486486486,0.5023233064318905,0.4747252747252747,0.343986543313709,1193.0
920.0,1.710303425837777e+18,0.16057441253263707,-0.01598173515981735,0.3286486486486486,0.5023233064318905,0.4747252747252747,0.343986543313709,1193.0
921.0,1.7103034258477548e+18,0.16057441253263707,-0.01598173515981735,0.3286486486486486,0.5023233064318905,0.4747252747252747,0.343986543313709,1193.0
922.0,1.7103034258577743e+18,0.16057441253263707,-0.01598173515981735,0.3286486486486486,0.5023233064318905,0.4747252747252747,0.343986543313709,1193.0
923.0,1.7103034258677594e+18,0.16057441253263707,-0.01598173515981735,0.3286486486486486,0.5023233064318905,0.4747252747252747,0.343986543313709,1193.0
924.0,1.7103034258777713e+18,0.16057441253263707,-0.01598173515981735,0.3286486486486486,0.5023233064318905,0.4747252747252747,0.343986543313709,1193.0
925.0,1.710303425887751e+18,0.16057441253263707,-0.01598173515981735,0.3286486486486486,0.5023233064318905,0.4747252747252747,0.343986543313709,1193.0
926.0,1.710303425897769e+18,0.16057441253263707,-0.01598173515981735,0.3286486486486486,0.5023233064318905,0.4747252747252747,0.343986543313709,1193.0
927.0,1.7103034259077537e+18,0.16057441253263707,-0.01598173515981735,0.3286486486486486,0.5023233064318905,0.4747252747252747,0.343986543313709,1193.0
928.0,1.7103034259177692e+18,0.16057441253263707,-0.01598173515981735,0.3286486486486486,0.5023233064318905,0.4747252747252747,0.343986543313709,1193.0
929.0,1.71030342592777e+18,0.16057441253263707,-0.01598173515981735,0.3286486486486486,0.5023233064318905,0.4747252747252747,0.343986543313709,1193.0
930.0,1.710303425937774e+18,0.16057441253263707,-0.01598173515981735,0.3286486486486486,0.5023233064318905,0.4747252747252747,0.343986543313709,1193.0
931.0,1.710303425947758e+18,0.16057441253263707,-0.01598173515981735,0.3286486486486486,0.5023233064318905,0.4747252747252747,0.343986543313709,1193.0
932.0,1.7103034259577736e+18,0.16057441253263707,-0.01598173515981735,0.3286486486486486,0.5023233064318905,0.4747252747252747,0.343986543313709,1193.0
933.0,1.7103034259677645e+18,0.16057441253263707,-0.01598173515981735,0.3286486486486486,0.5023233064318905,0.4747252747252747,0.343986543313709,1193.0
934.0,1.7103034259777743e+18,0.16057441253263707,-0.01598173515981735,0.3286486486486486,0.5023233064318905,0.4747252747252747,0.343986543313709,1193.0
935.0,1.710303425987754e+18,0.16057441253263707,-0.01598173515981735,0.3286486486486486,0.5023233064318905,0.4747252747252747,0.343986543313709,1193.0
936.0,1.7103034259977649e+18,0.16057441253263707,-0.01598173515981735,0.3286486486486486,0.5023233064318905,0.4747252747252747,0.343986543313709,1193.0
937.0,1.7103034260077624e+18,0.16057441253263707,-0.01598173515981735,0.3286486486486486,0.5023233064318905,0.4747252747252747,0.343986543313709,1193.0
938.0,1.7103034260177777e+18,0.16057441253263707,-0.01598173515981735,0.3286486486486486,0.5023233064318905,0.4747252747252747,0.343986543313709,1193.0
939.0,1.7103034260277665e+18,0.16057441253263707,-0.01598173515981735,0.3286486486486486,0.5023233064318905,0.4747252747252747,0.343986543313709,1193.0
940.0,1.710303426037765e+18,0.16057441253263707,-0.01598173515981735,0.3286486486486486,0.5023233064318905,0.4747252747252747,0.343986543313709,1193.0
941.0,1.710303426047749e+18,0.16057441253263707,-0.01598173515981735,0.3286486486486486,0.5023233064318905,0.4747252747252747,0.343986543313709,1193.0
942.0,1.710303426057806e+18,0.16057441253263707,-0.01598173515981735,0.3286486486486486,0.5023233064318905,0.4747252747252747,0.343986543313709,1193.0
943.0,1.7103034260677578e+18,0.16057441253263707,-0.01598173515981735,0.3286486486486486,0.5023233064318905,0.4747252747252747,0.343986543313709,1193.0
944.0,1.7103034260777661e+18,0.16057441253263707,-0.01598173515981735,0.3286486486486486,0.5023233064318905,0.4747252747252747,0.343986543313709,1193.0
945.0,1.710303426087789e+18,0.16057441253263707,-0.01598173515981735,0.3286486486486486,0.5023233064318905,0.4747252747252747,0.343986543313709,1193.0
946.0,1.7103034260977812e+18,0.16057441253263707,-0.01598173515981735,0.3286486486486486,0.5023233064318905,0.4747252747252747,0.343986543313709,1193.0
947.0,1.710303426107779e+18,0.16057441253263707,-0.01598173515981735,0.3286486486486486,0.5023233064318905,0.4747252747252747,0.343986543313709,1193.0
948.0,1.7103034261177838e+18,0.16057441253263707,-0.01598173515981735,0.3286486486486486,0.5023233064318905,0.4747252747252747,0.343986543313709,1193.0
949.0,1.7103034261277699e+18,0.16057441253263707,-0.01598173515981735,0.3286486486486486,0.5023233064318905,0.4747252747252747,0.343986543313709,1193.0
950.0,1.7103034261377792e+18,0.16057441253263707,-0.01598173515981735,0.3286486486486486,0.5023233064318905,0.4747252747252747,0.343986543313709,1193.0
951.0,1.710303426147775e+18,0.16057441253263707,-0.01598173515981735,0.3286486486486486,0.5023233064318905,0.4747252747252747,0.343986543313709,1193.0
952.0,1.710303426157802e+18,0.16057441253263707,-0.01598173515981735,0.3286486486486486,0.5023233064318905,0.4747252747252747,0.343986543313709,1193.0
953.0,1.7103034261677637e+18,0.16057441253263707,-0.01598173515981735,0.3286486486486486,0.5023233064318905,0.4747252747252747,0.343986543313709,1193.0
954.0,1.7103034261777802e+18,0.16057441253263707,-0.01598173515981735,0.3286486486486486,0.5023233064318905,0.4747252747252747,0.343986543313709,1193.0
955.0,1.7103034261877734e+18,0.16057441253263707,-0.01598173515981735,0.3286486486486486,0.5023233064318905,0.4747252747252747,0.343986543313709,1193.0
956.0,1.710303426197785e+18,0.16057441253263707,-0.01598173515981735,0.3286486486486486,0.5023233064318905,0.4747252747252747,0.343986543313709,1193.0
957.0,1.7103034262077783e+18,0.16057441253263707,-0.01598173515981735,0.3286486486486486,0.5023233064318905,0.4747252747252747,0.343986543313709,1193.0
958.0,1.7103034262177644e+18,0.16057441253263707,-0.01598173515981735,0.3286486486486486,0.5023233064318905,0.4747252747252747,0.343986543313709,1193.0
959.0,1.7103034262277542e+18,0.16057441253263707,-0.01598173515981735,0.3286486486486486,0.5023233064318905,0.4747252747252747,0.343986543313709,1193.0
960.0,1.7103034262377682e+18,0.16057441253263707,-0.01598173515981735,0.3286486486486486,0.5023233064318905,0.4747252747252747,0.343986543313709,1193.0
961.0,1.7103034262477578e+18,0.16057441253263707,-0.01598173515981735,0.3286486486486486,0.5023233064318905,0.4747252747252747,0.343986543313709,1193.0
962.0,1.7103034262577815e+18,0.16057441253263707,-0.01598173515981735,0.3286486486486486,0.5023233064318905,0.4747252747252747,0.343986543313709,1193.0
963.0,1.710303426268087e+18,0.16057441253263707,-0.01598173515981735,0.3286486486486486,0.5023233064318905,0.4747252747252747,0.343986543313709,1193.0
964.0,1.7103034262777818e+18,0.16057441253263707,-0.01598173515981735,0.3286486486486486,0.5023233064318905,0.4747252747252747,0.343986543313709,1193.0
965.0,1.7103034262877594e+18,0.16057441253263707,-0.01598173515981735,0.3286486486486486,0.5023233064318905,0.4747252747252747,0.343986543313709,1193.0
966.0,1.7103034262977894e+18,0.16057441253263707,-0.01598173515981735,0.3286486486486486,0.5023233064318905,0.4747252747252747,0.343986543313709,1193.0
967.0,1.7103034263077663e+18,0.16057441253263707,-0.01598173515981735,0.3286486486486486,0.5023233064318905,0.4747252747252747,0.343986543313709,1193.0
968.0,1.7103034263177802e+18,0.16057441253263707,-0.01598173515981735,0.3286486486486486,0.5023233064318905,0.4747252747252747,0.343986543313709,1193.0
969.0,1.7103034263277637e+18,0.16057441253263707,-0.01598173515981735,0.3286486486486486,0.5023233064318905,0.4747252747252747,0.343986543313709,1193.0
970.0,1.7103034263377787e+18,0.16057441253263707,-0.01598173515981735,0.3286486486486486,0.5023233064318905,0.4747252747252747,0.343986543313709,1193.0
971.0,1.7103034263477642e+18,0.16057441253263707,-0.01598173515981735,0.3286486486486486,0.5023233064318905,0.4747252747252747,0.343986543313709,1193.0
972.0,1.7103034263577764e+18,0.16057441253263707,-0.01598173515981735,0.3286486486486486,0.5023233064318905,0.4747252747252747,0.343986543313709,1193.0
973.0,1.7103034263677676e+18,0.16057441253263707,-0.01598173515981735,0.3286486486486486,0.5023233064318905,0.4747252747252747,0.343986543313709,1193.0
974.0,1.7103034263777772e+18,0.16057441253263707,-0.01598173515981735,0.3286486486486486,0.5023233064318905,0.4747252747252747,0.343986543313709,1193.0
975.0,1.7103034263877606e+18,0.16057441253263707,-0.01598173515981735,0.3286486486486486,0.5023233064318905,0.4747252747252747,0.343986543313709,1193.0
976.0,1.710303426397783e+18,0.16057441253263707,-0.01598173515981735,0.3286486486486486,0.5023233064318905,0.4747252747252747,0.343986543313709,1193.0
977.0,1.710303426407768e+18,0.16057441253263707,-0.01598173515981735,0.3286486486486486,0.5023233064318905,0.4747252747252747,0.343986543313709,1193.0
978.0,1.7103034264177856e+18,0.16057441253263707,-0.01598173515981735,0.3286486486486486,0.5023233064318905,0.4747252747252747,0.343986543313709,1193.0
979.0,1.710303426427761e+18,0.16057441253263707,-0.01598173515981735,0.3286486486486486,0.5023233064318905,0.4747252747252747,0.343986543313709,1193.0
980.0,1.7103034264377661e+18,0.16057441253263707,-0.01598173515981735,0.3286486486486486,0.5023233064318905,0.4747252747252747,0.343986543313709,1193.0
981.0,1.7103034264478167e+18,0.16057441253263707,-0.01598173515981735,0.3286486486486486,0.5023233064318905,0.4747252747252747,0.343986543313709,1193.0
982.0,1.710303426457787e+18,0.16057441253263707,-0.01598173515981735,0.3286486486486486,0.5023233064318905,0.4747252747252747,0.343986543313709,1193.0
983.0,1.7103034264677565e+18,0.16057441253263707,-0.01598173515981735,0.3286486486486486,0.5023233064318905,0.4747252747252747,0.343986543313709,1193.0
984.0,1.710303426477774e+18,0.16057441253263707,-0.01598173515981735,0.3286486486486486,0.5023233064318905,0.4747252747252747,0.343986543313709,1193.0
985.0,1.7103034264877606e+18,0.16057441253263707,-0.01598173515981735,0.3286486486486486,0.5023233064318905,0.4747252747252747,0.343986543313709,1193.0
986.0,1.7103034264977976e+18,0.16057441253263707,-0.01598173515981735,0.3286486486486486,0.5023233064318905,0.4747252747252747,0.343986543313709,1193.0
987.0,1.7103034265077514e+18,0.16057441253263707,-0.01598173515981735,0.3286486486486486,0.5023233064318905,0.4747252747252747,0.343986543313709,1193.0
988.0,1.7103034265177567e+18,0.16057441253263707,-0.01598173515981735,0.3286486486486486,0.5023233064318905,0.4747252747252747,0.343986543313709,1193.0
989.0,1.7103034265277548e+18,0.16057441253263707,-0.01598173515981735,0.3286486486486486,0.5023233064318905,0.4747252747252747,0.343986543313709,1193.0
990.0,1.7103034265377636e+18,0.16057441253263707,-0.01598173515981735,0.3286486486486486,0.5023233064318905,0.4747252747252747,0.343986543313709,1193.0
991.0,1.7103034265477857e+18,0.16057441253263707,-0.01598173515981735,0.3286486486486486,0.5023233064318905,0.4747252747252747,0.343986543313709,1193.0
992.0,1.7103034265577644e+18,0.16057441253263707,-0.01598173515981735,0.3286486486486486,0.5023233064318905,0.4747252747252747,0.343986543313709,1193.0
