202.0,1.7103011064109222e+18,0.6084905660377359,0.47562852744997436,0.49428498856997716,0.44272445820433437,0.5213379469434832,0.6328059950041632,1194.0
203.0,1.7103011064209119e+18,0.4729845626072041,0.47998973832734737,0.4747269494538989,0.45098039215686275,0.5167243367935409,0.6019983347210658,1192.0
204.0,1.710301106430896e+18,0.6132075471698113,0.47485890200102615,0.4909829819659639,0.4406604747162023,0.5144175317185697,0.6328059950041632,1198.0
205.0,1.710301106440903e+18,0.4811320754716981,0.4774243201641868,0.47040894081788165,0.44478844169246645,0.49019607843137253,0.601165695253955,1193.0
206.0,1.7103011064509176e+18,0.6007718696397941,0.47434581836839407,0.4902209804419609,0.43859649122807015,0.5040369088811996,0.6228143213988343,1196.0
207.0,1.710301106460905e+18,0.4807032590051458,0.4763981528989225,0.47345694691389384,0.43550051599587203,0.5121107266435986,0.6003330557868443,1193.0
208.0,1.7103011064709176e+18,0.5994854202401372,0.4753719856336583,0.491998983997968,0.44169246646026833,0.5074971164936563,0.6336386344712739,1197.0
209.0,1.7103011064809016e+18,0.48241852487135506,0.4789635710620831,0.47828295656591313,0.44685242518059853,0.5167243367935409,0.6003330557868443,1193.0
210.0,1.7103011064909197e+18,0.6076329331046312,0.4753719856336583,0.4889509779019558,0.43137254901960786,0.5155709342560554,0.6319733555370525,1197.0
211.0,1.7103011065009027e+18,0.4888507718696398,0.47947665469471523,0.4714249428498857,0.44788441692466463,0.52479815455594,0.6036636136552873,1194.0
212.0,1.7103011065109038e+18,0.611492281303602,0.4728065674704977,0.49555499110998225,0.4148606811145511,0.5178777393310265,0.630308076602831,1195.0
213.0,1.710301106520904e+18,0.4897084048027444,0.4774243201641868,0.47269494538989076,0.47471620227038186,0.5155709342560554,0.6028309741881765,1195.0
214.0,1.7103011065309048e+18,0.6012006861063465,0.47614161108260644,0.4902209804419609,0.4375644994840041,0.5144175317185697,0.6328059950041632,1192.0
215.0,1.7103011065409027e+18,0.4888507718696398,0.4774243201641868,0.47294894589789177,0.4499484004127967,0.52479815455594,0.6036636136552873,1194.0
216.0,1.710301106550903e+18,0.5964837049742711,0.47614161108260644,0.4899669799339599,0.4520123839009288,0.5236447520184544,0.6311407160699417,1195.0
217.0,1.7103011065609024e+18,0.4841337907375643,0.47691123653155465,0.47117094234188467,0.49742002063983487,0.5259515570934256,0.6028309741881765,1193.0
218.0,1.7103011065709028e+18,0.6067753001715266,0.47485890200102615,0.49403098806197615,0.4674922600619195,0.5167243367935409,0.630308076602831,1195.0
219.0,1.7103011065809016e+18,0.4858490566037736,0.478450487429451,0.476250952501905,0.4107327141382869,0.52479815455594,0.6061615320566195,1193.0
220.0,1.7103011065909059e+18,0.6012006861063465,0.47819394561313494,0.4909829819659639,0.45614035087719296,0.5236447520184544,0.6286427976686095,1194.0
221.0,1.710301106600901e+18,0.4957118353344768,0.4763981528989225,0.47167894335788674,0.45614035087719296,0.5201845444059977,0.6036636136552873,1194.0
222.0,1.7103011066109046e+18,0.6063464837049742,0.47588506926629043,0.4899669799339599,0.4458204334365325,0.5201845444059977,0.6294754371357202,1194.0
223.0,1.7103011066209037e+18,0.49013722126929676,0.4774243201641868,0.47345694691389384,0.44788441692466463,0.5144175317185697,0.6036636136552873,1193.0
224.0,1.7103011066309059e+18,0.6033447684391081,0.4774243201641868,0.4902209804419609,0.43343653250773995,0.49480968858131485,0.6286427976686095,1197.0
225.0,1.710301106640906e+18,0.49699828473413377,0.478450487429451,0.47498094996189993,0.45614035087719296,0.5074971164936563,0.601165695253955,1193.0
226.0,1.7103011066509066e+18,0.5964837049742711,0.4766546947152386,0.491998983997968,0.4499484004127967,0.5167243367935409,0.6278101582014988,1197.0
227.0,1.7103011066609042e+18,0.49485420240137223,0.47819394561313494,0.47599695199390396,0.45304437564499483,0.5201845444059977,0.6028309741881765,1194.0
228.0,1.7103011066709048e+18,0.6007718696397941,0.4763981528989225,0.4909829819659639,0.43034055727554177,0.510957324106113,0.6344712739383847,1197.0
229.0,1.7103011066809062e+18,0.47855917667238423,0.47588506926629043,0.47396494792989585,0.46852425180598556,0.5282583621683967,0.6061615320566195,1196.0
230.0,1.7103011066909125e+18,0.5943396226415094,0.4774243201641868,0.49301498602997207,0.4582043343653251,0.5271049596309112,0.6319733555370525,1196.0
231.0,1.710301106700904e+18,0.49099485420240135,0.4763981528989225,0.47599695199390396,0.43859649122807015,0.5190311418685121,0.6103247293921732,1193.0
232.0,1.7103011067109012e+18,0.5951972555746141,0.4766546947152386,0.491490982981966,0.4231166150670795,0.5121107266435986,0.6311407160699417,1194.0
233.0,1.710301106720902e+18,0.4961406518010292,0.47485890200102615,0.47294894589789177,0.4437564499484004,0.5167243367935409,0.6019983347210658,1194.0
234.0,1.7103011067309033e+18,0.5917667238421955,0.4789635710620831,0.49301498602997207,0.44478844169246645,0.5224913494809689,0.6311407160699417,1194.0
235.0,1.7103011067409037e+18,0.49056603773584906,0.47614161108260644,0.47193294386588774,0.4540763673890609,0.5397923875432526,0.6069941715237303,1193.0
236.0,1.7103011067509025e+18,0.597770154373928,0.4787070292457671,0.4935229870459741,0.4499484004127967,0.5040369088811996,0.6294754371357202,1194.0
237.0,1.710301106760903e+18,0.49313893653516294,0.47793740379681887,0.4747269494538989,0.4932920536635707,0.5271049596309112,0.6061615320566195,1193.0
238.0,1.710301106770902e+18,0.5951972555746141,0.4774243201641868,0.4935229870459741,0.4282765737874097,0.5074971164936563,0.6294754371357202,1196.0
239.0,1.7103011067809032e+18,0.49013722126929676,0.4776808619805028,0.47218694437388875,0.45923632610939114,0.5201845444059977,0.6003330557868443,1193.0
240.0,1.7103011067909033e+18,0.597770154373928,0.4763981528989225,0.4902209804419609,0.4602683178534572,0.5201845444059977,0.626977518734388,1195.0
241.0,1.7103011068009024e+18,0.5004288164665524,0.4774243201641868,0.47650495300990603,0.44685242518059853,0.5224913494809689,0.6061615320566195,1194.0
242.0,1.710301106810903e+18,0.597770154373928,0.47588506926629043,0.4889509779019558,0.4499484004127967,0.5201845444059977,0.6278101582014988,1194.0
243.0,1.7103011068209037e+18,0.4995711835334477,0.474089276552078,0.4747269494538989,0.4179566563467492,0.5155709342560554,0.6069941715237303,1193.0
244.0,1.7103011068309033e+18,0.5969125214408233,0.47562852744997436,0.4889509779019558,0.4520123839009288,0.5167243367935409,0.630308076602831,1197.0
245.0,1.7103011068409016e+18,0.49828473413379076,0.47614161108260644,0.47701295402590804,0.434468524251806,0.510957324106113,0.6028309741881765,1194.0
246.0,1.7103011068509025e+18,0.5947684391080618,0.47562852744997436,0.4909829819659639,0.44685242518059853,0.5190311418685121,0.630308076602831,1196.0
247.0,1.7103011068609021e+18,0.4944253859348199,0.4774243201641868,0.47498094996189993,0.4458204334365325,0.5213379469434832,0.604496253122398,1194.0
248.0,1.7103011068709028e+18,0.6012006861063465,0.47793740379681887,0.4909829819659639,0.45614035087719296,0.5178777393310265,0.6311407160699417,1194.0
249.0,1.7103011068809032e+18,0.49656946826758147,0.4774243201641868,0.47371094742189485,0.4520123839009288,0.5201845444059977,0.6069941715237303,1194.0
250.0,1.710301106890902e+18,0.5981989708404802,0.4787070292457671,0.4861569723139446,0.46439628482972134,0.5051903114186851,0.6311407160699417,1194.0
251.0,1.7103011069009016e+18,0.4974271012006861,0.4776808619805028,0.47320294640589283,0.4231166150670795,0.5420991926182238,0.607826810990841,1193.0
252.0,1.710301106910903e+18,0.5930531732418525,0.4753719856336583,0.4899669799339599,0.46542827657378744,0.5282583621683967,0.6336386344712739,1197.0
253.0,1.7103011069209027e+18,0.49914236706689535,0.4789635710620831,0.47650495300990603,0.46233230134158926,0.5294117647058824,0.6069941715237303,1194.0
254.0,1.710301106930903e+18,0.5844768439108061,0.47229348383786557,0.4899669799339599,0.45923632610939114,0.5121107266435986,0.6328059950041632,1193.0
255.0,1.710301106940905e+18,0.49871355060034306,0.4771677783478707,0.47853695707391414,0.4540763673890609,0.5201845444059977,0.6094920899250624,1194.0
256.0,1.7103011069509033e+18,0.5934819897084048,0.47691123653155465,0.4861569723139446,0.45717234262125905,0.5236447520184544,0.6336386344712739,1195.0
257.0,1.7103011069609093e+18,0.5068610634648371,0.4766546947152386,0.47828295656591313,0.4520123839009288,0.52479815455594,0.6053288925895087,1195.0
258.0,1.7103011069709059e+18,0.5913379073756432,0.4766546947152386,0.4879349758699517,0.41589267285861714,0.5132641291810842,0.6294754371357202,1193.0
259.0,1.7103011069809042e+18,0.49656946826758147,0.47691123653155465,0.47548895097790195,0.478844169246646,0.5155709342560554,0.6028309741881765,1193.0
260.0,1.7103011069909015e+18,0.5883361921097771,0.4774243201641868,0.4871729743459487,0.47058823529411764,0.5213379469434832,0.6311407160699417,1196.0
261.0,1.7103011070009032e+18,0.49914236706689535,0.47588506926629043,0.476250952501905,0.4520123839009288,0.538638985005767,0.6053288925895087,1192.0
262.0,1.7103011070109038e+18,0.5900514579759862,0.4763981528989225,0.4874269748539497,0.4458204334365325,0.5201845444059977,0.6278101582014988,1194.0
263.0,1.7103011070209098e+18,0.5034305317324185,0.47819394561313494,0.47726695453390905,0.46233230134158926,0.5201845444059977,0.6036636136552873,1194.0
264.0,1.710301107030904e+18,0.5887650085763293,0.47588506926629043,0.4879349758699517,0.43653250773993807,0.5167243367935409,0.6278101582014988,1196.0
265.0,1.7103011070409027e+18,0.5030017152658662,0.4751154438173422,0.47574295148590295,0.44169246646026833,0.510957324106113,0.6061615320566195,1193.0
266.0,1.7103011070509046e+18,0.5909090909090909,0.47947665469471523,0.4866649733299467,0.4540763673890609,0.5155709342560554,0.6278101582014988,1196.0
267.0,1.7103011070609037e+18,0.5085763293310464,0.4766546947152386,0.4775209550419101,0.4231166150670795,0.5317185697808535,0.607826810990841,1196.0
268.0,1.7103011070709036e+18,0.5844768439108061,0.48050282195997945,0.4881889763779528,0.4437564499484004,0.5201845444059977,0.626977518734388,1195.0
269.0,1.7103011070809052e+18,0.5055746140651801,0.4753719856336583,0.47701295402590804,0.43859649122807015,0.5155709342560554,0.6061615320566195,1193.0
270.0,1.7103011070909043e+18,0.5823327615780446,0.4774243201641868,0.4876809753619507,0.4582043343653251,0.5201845444059977,0.6261448792672772,1195.0
271.0,1.7103011071009034e+18,0.5021440823327615,0.47562852744997436,0.4714249428498857,0.42724458204334365,0.4994232987312572,0.6028309741881765,1192.0
272.0,1.7103011071109036e+18,0.5857632933104632,0.4753719856336583,0.4848869697739395,0.4406604747162023,0.4867358708189158,0.6261448792672772,1195.0
273.0,1.7103011071209037e+18,0.5111492281303602,0.4763981528989225,0.4775209550419101,0.4437564499484004,0.5282583621683967,0.604496253122398,1194.0
274.0,1.7103011071309038e+18,0.5866209262435678,0.4774243201641868,0.4899669799339599,0.46439628482972134,0.5121107266435986,0.6261448792672772,1193.0
275.0,1.710301107140903e+18,0.5085763293310464,0.4763981528989225,0.47675895351790704,0.43550051599587203,0.510957324106113,0.6019983347210658,1194.0
276.0,1.7103011071509025e+18,0.5831903945111492,0.478450487429451,0.4853949707899416,0.44891640866873067,0.5098039215686274,0.6278101582014988,1196.0
277.0,1.710301107160904e+18,0.5111492281303602,0.4774243201641868,0.4795529591059182,0.4324045407636739,0.5201845444059977,0.6061615320566195,1193.0
278.0,1.710301107170903e+18,0.5827615780445969,0.4771677783478707,0.4886969773939548,0.45304437564499483,0.5063437139561707,0.6278101582014988,1194.0
279.0,1.7103011071809024e+18,0.5077186963979416,0.47614161108260644,0.48031496062992124,0.4499484004127967,0.5201845444059977,0.601165695253955,1193.0
280.0,1.7103011071909028e+18,0.5840480274442539,0.47588506926629043,0.4884429768859538,0.4437564499484004,0.5144175317185697,0.6253122398001665,1196.0
281.0,1.7103011072009032e+18,0.5077186963979416,0.4787070292457671,0.4828549657099314,0.4582043343653251,0.5178777393310265,0.607826810990841,1192.0
282.0,1.710301107210904e+18,0.5827615780445969,0.4776808619805028,0.4864109728219456,0.44788441692466463,0.5074971164936563,0.6286427976686095,1197.0
283.0,1.7103011072209037e+18,0.5064322469982847,0.4763981528989225,0.47574295148590295,0.44788441692466463,0.5224913494809689,0.6069941715237303,1193.0
284.0,1.7103011072309023e+18,0.5750428816466552,0.47562852744997436,0.4869189738379477,0.42208462332301344,0.5132641291810842,0.6294754371357202,1197.0
285.0,1.710301107240903e+18,0.5098627787307033,0.4751154438173422,0.4790449580899162,0.4551083591331269,0.5201845444059977,0.6094920899250624,1193.0
286.0,1.7103011072509076e+18,0.5836192109777015,0.4766546947152386,0.4836169672339345,0.42724458204334365,0.4913494809688581,0.626977518734388,1197.0
287.0,1.710301107260905e+18,0.5210120068610634,0.4733196511031298,0.4777749555499111,0.4582043343653251,0.5224913494809689,0.604496253122398,1193.0
288.0,1.7103011072709036e+18,0.5801886792452831,0.4776808619805028,0.4869189738379477,0.4540763673890609,0.5224913494809689,0.6294754371357202,1196.0
289.0,1.7103011072809027e+18,0.508147512864494,0.47588506926629043,0.4777749555499111,0.41279669762641896,0.510957324106113,0.6061615320566195,1193.0
290.0,1.7103011072909025e+18,0.5690394511149228,0.4766546947152386,0.4866649733299467,0.45304437564499483,0.5155709342560554,0.6253122398001665,1195.0
291.0,1.7103011073009057e+18,0.5145797598627787,0.4763981528989225,0.47675895351790704,0.42518059855521156,0.5155709342560554,0.6053288925895087,1192.0
292.0,1.7103011073109056e+18,0.5810463121783876,0.478450487429451,0.4886969773939548,0.45098039215686275,0.5305651672433679,0.6319733555370525,1195.0
293.0,1.7103011073209037e+18,0.5141509433962265,0.47819394561313494,0.476250952501905,0.44478844169246645,0.5167243367935409,0.607826810990841,1194.0
294.0,1.710301107330902e+18,0.573327615780446,0.4774243201641868,0.4886969773939548,0.4664602683178535,0.5213379469434832,0.6278101582014988,1194.0
295.0,1.710301107340902e+18,0.5201543739279588,0.4763981528989225,0.4828549657099314,0.4551083591331269,0.5144175317185697,0.6061615320566195,1192.0
296.0,1.7103011073509025e+18,0.5754716981132075,0.4763981528989225,0.4823469646939294,0.47058823529411764,0.5259515570934256,0.6294754371357202,1196.0
297.0,1.710301107360901e+18,0.5175814751286449,0.4751154438173422,0.476250952501905,0.43137254901960786,0.5063437139561707,0.6036636136552873,1192.0
298.0,1.710301107370902e+18,0.5720411663807891,0.47947665469471523,0.4848869697739395,0.43343653250773995,0.5155709342560554,0.6253122398001665,1193.0
299.0,1.7103011073809016e+18,0.5137221269296741,0.47588506926629043,0.4808229616459233,0.4602683178534572,0.5213379469434832,0.604496253122398,1194.0
300.0,1.7103011073909025e+18,0.5677530017152659,0.478450487429451,0.4876809753619507,0.43343653250773995,0.5063437139561707,0.6236469608659451,1196.0
301.0,1.710301107400903e+18,0.5145797598627787,0.47434581836839407,0.47828295656591313,0.4437564499484004,0.5224913494809689,0.6061615320566195,1191.0
302.0,1.7103011074109025e+18,0.5767581475128645,0.47947665469471523,0.4853949707899416,0.44478844169246645,0.5074971164936563,0.6286427976686095,1197.0
303.0,1.710301107420901e+18,0.516295025728988,0.47793740379681887,0.4899669799339599,0.49948400412796695,0.52479815455594,0.6069941715237303,1194.0
304.0,1.710301107430902e+18,0.5720411663807891,0.4763981528989225,0.4853949707899416,0.47987616099071206,0.5132641291810842,0.6294754371357202,1197.0
305.0,1.7103011074409016e+18,0.5214408233276158,0.4766546947152386,0.4828549657099314,0.44685242518059853,0.5213379469434832,0.6069941715237303,1193.0
306.0,1.7103011074509053e+18,0.5746140651801029,0.478450487429451,0.4864109728219456,0.4540763673890609,0.5178777393310265,0.6236469608659451,1196.0
307.0,1.710301107460902e+18,0.5231560891938251,0.4766546947152386,0.48031496062992124,0.434468524251806,0.5213379469434832,0.6086594504579517,1193.0
308.0,1.710301107470904e+18,0.5789022298456261,0.4787070292457671,0.4853949707899416,0.44272445820433437,0.5098039215686274,0.6244796003330558,1198.0
309.0,1.7103011074809027e+18,0.5283018867924528,0.47614161108260644,0.47726695453390905,0.44685242518059853,0.5294117647058824,0.604496253122398,1193.0
310.0,1.710301107490909e+18,0.5720411663807891,0.4774243201641868,0.4838709677419355,0.49122807017543857,0.5201845444059977,0.630308076602831,1196.0
311.0,1.7103011075009027e+18,0.5210120068610634,0.4733196511031298,0.48006096012192023,0.478844169246646,0.5271049596309112,0.6069941715237303,1193.0
312.0,1.710301107510903e+18,0.565180102915952,0.47819394561313494,0.4838709677419355,0.4551083591331269,0.5074971164936563,0.6278101582014988,1196.0
313.0,1.7103011075209016e+18,0.5171526586620926,0.47434581836839407,0.4790449580899162,0.4458204334365325,0.5305651672433679,0.6103247293921732,1194.0
314.0,1.7103011075309043e+18,0.5686106346483705,0.47998973832734737,0.4864109728219456,0.4582043343653251,0.5144175317185697,0.6278101582014988,1195.0
315.0,1.710301107540902e+18,0.5253001715265866,0.47562852744997436,0.4798069596139192,0.42724458204334365,0.5167243367935409,0.6061615320566195,1194.0
316.0,1.7103011075509023e+18,0.5737564322469982,0.478450487429451,0.4864109728219456,0.4540763673890609,0.5155709342560554,0.6278101582014988,1197.0
317.0,1.710301107560903e+18,0.5145797598627787,0.47229348383786557,0.4808229616459233,0.43343653250773995,0.5074971164936563,0.6036636136552873,1194.0
318.0,1.7103011075709117e+18,0.5703259005145798,0.478450487429451,0.4841249682499365,0.46233230134158926,0.5167243367935409,0.6294754371357202,1197.0
319.0,1.710301107580902e+18,0.5248713550600344,0.47691123653155465,0.4848869697739395,0.4674922600619195,0.5236447520184544,0.6069941715237303,1195.0
320.0,1.7103011075909048e+18,0.5720411663807891,0.47588506926629043,0.4838709677419355,0.43137254901960786,0.5098039215686274,0.6294754371357202,1195.0
321.0,1.7103011076009016e+18,0.5283018867924528,0.47357619291944586,0.4798069596139192,0.45098039215686275,0.5259515570934256,0.607826810990841,1193.0
322.0,1.7103011076109028e+18,0.5596054888507719,0.48050282195997945,0.4841249682499365,0.4602683178534572,0.5098039215686274,0.6261448792672772,1198.0
323.0,1.7103011076209027e+18,0.5308747855917667,0.47357619291944586,0.4813309626619253,0.4499484004127967,0.49596309111880044,0.6053288925895087,1192.0
324.0,1.7103011076309038e+18,0.5638936535162951,0.48024628014366344,0.4871729743459487,0.4406604747162023,0.510957324106113,0.6294754371357202,1196.0
325.0,1.7103011076409044e+18,0.5261578044596913,0.47255002565418164,0.48006096012192023,0.38390092879256965,0.5155709342560554,0.6036636136552873,1194.0
326.0,1.7103011076509038e+18,0.5686106346483705,0.4807593637762955,0.4836169672339345,0.4602683178534572,0.5213379469434832,0.626977518734388,1196.0
327.0,1.7103011076609047e+18,0.5214408233276158,0.4733196511031298,0.4810769621539243,0.4375644994840041,0.5236447520184544,0.6086594504579517,1193.0
328.0,1.710301107670925e+18,0.5686106346483705,0.4776808619805028,0.4795529591059182,0.500515995872033,0.5178777393310265,0.626977518734388,1195.0
329.0,1.710301107680908e+18,0.5274442538593482,0.4733196511031298,0.4795529591059182,0.4324045407636739,0.5167243367935409,0.607826810990841,1194.0
330.0,1.7103011076909064e+18,0.5604631217838765,0.47947665469471523,0.4853949707899416,0.45098039215686275,0.5121107266435986,0.6261448792672772,1194.0
331.0,1.7103011077009078e+18,0.5355917667238422,0.4753719856336583,0.47879095758191514,0.41382868937048506,0.5213379469434832,0.611157368859284,1194.0
332.0,1.710301107710908e+18,0.5703259005145798,0.47998973832734737,0.4853949707899416,0.4375644994840041,0.5167243367935409,0.6294754371357202,1198.0
333.0,1.7103011077209078e+18,0.5347341337907375,0.4751154438173422,0.4808229616459233,0.4602683178534572,0.5178777393310265,0.6061615320566195,1195.0
334.0,1.710301107730909e+18,0.557032590051458,0.47588506926629043,0.4843789687579375,0.45098039215686275,0.5155709342560554,0.6236469608659451,1194.0
335.0,1.710301107740909e+18,0.5321612349914236,0.47229348383786557,0.48031496062992124,0.4437564499484004,0.5051903114186851,0.6061615320566195,1192.0
336.0,1.7103011077509097e+18,0.565180102915952,0.4810159055926116,0.4904749809499619,0.46233230134158926,0.5028835063437139,0.6261448792672772,1197.0
337.0,1.71030110776091e+18,0.5291595197255574,0.4766546947152386,0.48183896367792733,0.39009287925696595,0.5213379469434832,0.6094920899250624,1194.0
338.0,1.7103011077709105e+18,0.565180102915952,0.478450487429451,0.4843789687579375,0.44891640866873067,0.5167243367935409,0.6286427976686095,1195.0
339.0,1.710301107780911e+18,0.5295883361921098,0.47588506926629043,0.47853695707391414,0.44685242518059853,0.5213379469434832,0.6094920899250624,1194.0
340.0,1.7103011077909117e+18,0.5608919382504288,0.4789635710620831,0.4869189738379477,0.4520123839009288,0.5098039215686274,0.6236469608659451,1197.0
341.0,1.710301107800912e+18,0.5338765008576329,0.4733196511031298,0.48183896367792733,0.41589267285861714,0.5259515570934256,0.6094920899250624,1194.0
342.0,1.7103011078108908e+18,0.5553173241852487,0.47947665469471523,0.4848869697739395,0.4540763673890609,0.5155709342560554,0.6261448792672772,1198.0
343.0,1.7103011078209132e+18,0.5330188679245284,0.47691123653155465,0.47726695453390905,0.45923632610939114,0.4602076124567474,0.6036636136552873,1193.0
344.0,1.710301107830914e+18,0.5544596912521441,0.47819394561313494,0.4813309626619253,0.4664602683178535,0.5063437139561707,0.6278101582014988,1195.0
345.0,1.7103011078409142e+18,0.5343053173241853,0.47357619291944586,0.4836169672339345,0.4437564499484004,0.5259515570934256,0.6103247293921732,1192.0
346.0,1.7103011078509018e+18,0.5604631217838765,0.48050282195997945,0.4810769621539243,0.39215686274509803,0.5167243367935409,0.6244796003330558,1197.0
347.0,1.7103011078609152e+18,0.5300171526586621,0.474089276552078,0.4798069596139192,0.4499484004127967,0.5224913494809689,0.6061615320566195,1193.0
348.0,1.7103011078709156e+18,0.5557461406518011,0.47691123653155465,0.4843789687579375,0.4582043343653251,0.5028835063437139,0.6261448792672772,1194.0
349.0,1.7103011078809162e+18,0.5313036020583191,0.47229348383786557,0.48006096012192023,0.4406604747162023,0.5213379469434832,0.6061615320566195,1193.0
350.0,1.7103011078909166e+18,0.5664665523156089,0.4789635710620831,0.48158496316992633,0.4499484004127967,0.5098039215686274,0.6294754371357202,1195.0
351.0,1.7103011079009178e+18,0.532590051457976,0.47255002565418164,0.4792989585979172,0.44685242518059853,0.5224913494809689,0.607826810990841,1193.0
352.0,1.7103011079109192e+18,0.5471698113207547,0.47691123653155465,0.48183896367792733,0.45923632610939114,0.5351787773933102,0.630308076602831,1194.0
353.0,1.710301107920901e+18,0.5291595197255574,0.4751154438173422,0.48158496316992633,0.43034055727554177,0.5213379469434832,0.6094920899250624,1193.0
354.0,1.7103011079309015e+18,0.5523156089193825,0.4797331965110313,0.4828549657099314,0.4499484004127967,0.5167243367935409,0.6219816819317235,1192.0
355.0,1.7103011079409208e+18,0.5334476843910806,0.4728065674704977,0.48183896367792733,0.43034055727554177,0.5236447520184544,0.6094920899250624,1192.0
356.0,1.710301107950902e+18,0.5583190394511149,0.478450487429451,0.4805689611379223,0.4716202270381837,0.5155709342560554,0.6236469608659451,1194.0
357.0,1.7103011079609047e+18,0.5445969125214408,0.47793740379681887,0.48183896367792733,0.4458204334365325,0.5155709342560554,0.6103247293921732,1192.0
358.0,1.710301107970904e+18,0.5566037735849056,0.4774243201641868,0.48183896367792733,0.4540763673890609,0.5121107266435986,0.6244796003330558,1195.0
359.0,1.7103011079809027e+18,0.5377358490566038,0.47178040020523343,0.4820929641859284,0.47058823529411764,0.5224913494809689,0.607826810990841,1193.0
360.0,1.710301107990921e+18,0.5591766723842195,0.4797331965110313,0.4823469646939294,0.478844169246646,0.5178777393310265,0.6261448792672772,1193.0
361.0,1.7103011080009016e+18,0.5283018867924528,0.4751154438173422,0.4828549657099314,0.4241486068111455,0.52479815455594,0.607826810990841,1193.0
362.0,1.7103011080109025e+18,0.5536020583190394,0.47588506926629043,0.4836169672339345,0.46852425180598556,0.5086505190311419,0.6228143213988343,1196.0
363.0,1.7103011080209014e+18,0.5441680960548885,0.474089276552078,0.48183896367792733,0.4458204334365325,0.5201845444059977,0.6061615320566195,1194.0
364.0,1.7103011080309025e+18,0.5523156089193825,0.478450487429451,0.4836169672339345,0.44272445820433437,0.5144175317185697,0.6286427976686095,1196.0
365.0,1.7103011080409037e+18,0.5385934819897084,0.47485890200102615,0.4846329692659385,0.4262125902992776,0.5201845444059977,0.607826810990841,1193.0
366.0,1.710301108050903e+18,0.5583190394511149,0.4787070292457671,0.4805689611379223,0.46233230134158926,0.5155709342560554,0.6261448792672772,1196.0
367.0,1.710301108060902e+18,0.5385934819897084,0.4733196511031298,0.4810769621539243,0.43550051599587203,0.5155709342560554,0.6094920899250624,1195.0
368.0,1.710301108070901e+18,0.5596054888507719,0.47793740379681887,0.4826009652019304,0.4458204334365325,0.5132641291810842,0.6211490424646128,1197.0
369.0,1.7103011080809027e+18,0.5390222984562607,0.4733196511031298,0.4828549657099314,0.4437564499484004,0.5213379469434832,0.611157368859284,1194.0
370.0,1.7103011080909071e+18,0.5617495711835334,0.47691123653155465,0.4853949707899416,0.4437564499484004,0.5098039215686274,0.626977518734388,1196.0
371.0,1.7103011081009057e+18,0.5394511149228131,0.47357619291944586,0.4853949707899416,0.42105263157894735,0.5098039215686274,0.604496253122398,1193.0
372.0,1.710301108110906e+18,0.5458833619210978,0.47947665469471523,0.48336296672593343,0.4602683178534572,0.5201845444059977,0.6228143213988343,1196.0
373.0,1.7103011081209027e+18,0.5385934819897084,0.47383273473576193,0.4805689611379223,0.47058823529411764,0.5340253748558247,0.6094920899250624,1193.0
374.0,1.7103011081309007e+18,0.5531732418524872,0.48152898922524373,0.48336296672593343,0.47471620227038186,0.538638985005767,0.6286427976686095,1195.0
375.0,1.7103011081409037e+18,0.5334476843910806,0.47434581836839407,0.4831089662179324,0.4664602683178535,0.5236447520184544,0.6094920899250624,1194.0
376.0,1.710301108150907e+18,0.5566037735849056,0.47691123653155465,0.4838709677419355,0.45098039215686275,0.5121107266435986,0.6253122398001665,1196.0
377.0,1.7103011081609093e+18,0.5351629502572899,0.47434581836839407,0.4838709677419355,0.42518059855521156,0.5155709342560554,0.6069941715237303,1193.0
378.0,1.7103011081709082e+18,0.557032590051458,0.4776808619805028,0.4828549657099314,0.4324045407636739,0.5155709342560554,0.6236469608659451,1197.0
379.0,1.7103011081809042e+18,0.5398799313893653,0.47229348383786557,0.4848869697739395,0.4004127966976264,0.5178777393310265,0.6103247293921732,1194.0
380.0,1.710301108190907e+18,0.557032590051458,0.4797331965110313,0.4820929641859284,0.4499484004127967,0.5063437139561707,0.6244796003330558,1194.0
381.0,1.7103011082009032e+18,0.5385934819897084,0.4733196511031298,0.4836169672339345,0.43343653250773995,0.5063437139561707,0.6069941715237303,1193.0
382.0,1.7103011082109053e+18,0.548885077186964,0.4789635710620831,0.4841249682499365,0.478844169246646,0.5155709342560554,0.6244796003330558,1194.0
383.0,1.7103011082209047e+18,0.5450257289879932,0.4720369420215495,0.4836169672339345,0.4293085655314757,0.5259515570934256,0.6069941715237303,1193.0
384.0,1.7103011082309048e+18,0.5501715265866209,0.4774243201641868,0.4828549657099314,0.4520123839009288,0.5167243367935409,0.6211490424646128,1195.0
385.0,1.7103011082409052e+18,0.5463121783876501,0.47383273473576193,0.4841249682499365,0.434468524251806,0.5178777393310265,0.6119900083263947,1194.0
386.0,1.7103011082509023e+18,0.5506003430531733,0.4807593637762955,0.47701295402590804,0.48813209494324045,0.5051903114186851,0.6261448792672772,1197.0
387.0,1.710301108260904e+18,0.5437392795883362,0.4751154438173422,0.48336296672593343,0.44891640866873067,0.538638985005767,0.6103247293921732,1193.0
388.0,1.7103011082709046e+18,0.5467409948542024,0.47562852744997436,0.47879095758191514,0.4499484004127967,0.497116493656286,0.6286427976686095,1196.0
389.0,1.7103011082809044e+18,0.5454545454545454,0.4733196511031298,0.4831089662179324,0.40144478844169246,0.4994232987312572,0.6061615320566195,1194.0
390.0,1.7103011082909074e+18,0.5574614065180102,0.478450487429451,0.4790449580899162,0.4540763673890609,0.5051903114186851,0.6228143213988343,1197.0
391.0,1.7103011083009436e+18,0.5415951972555746,0.47178040020523343,0.4848869697739395,0.434468524251806,0.5201845444059977,0.6119900083263947,1194.0
392.0,1.710301108310905e+18,0.5484562607204116,0.4789635710620831,0.4836169672339345,0.43962848297213625,0.5017301038062284,0.6261448792672772,1195.0
393.0,1.7103011083209055e+18,0.5441680960548885,0.4766546947152386,0.48336296672593343,0.47781217750258,0.5294117647058824,0.6119900083263947,1195.0
394.0,1.7103011083309059e+18,0.5484562607204116,0.4817855310415598,0.4894589789179578,0.478844169246646,0.5155709342560554,0.6294754371357202,1196.0
395.0,1.7103011083409034e+18,0.5506003430531733,0.4730631092868138,0.4808229616459233,0.4117647058823529,0.5201845444059977,0.6103247293921732,1195.0
396.0,1.710301108350904e+18,0.5497427101200686,0.4797331965110313,0.4836169672339345,0.4200206398348813,0.5040369088811996,0.6278101582014988,1200.0
397.0,1.7103011083609037e+18,0.5514579759862779,0.47229348383786557,0.4838709677419355,0.4458204334365325,0.5259515570934256,0.6103247293921732,1192.0
398.0,1.7103011083709123e+18,0.5454545454545454,0.4789635710620831,0.4820929641859284,0.4551083591331269,0.5201845444059977,0.6286427976686095,1197.0
399.0,1.7103011083809057e+18,0.5514579759862779,0.47562852744997436,0.4813309626619253,0.4499484004127967,0.5271049596309112,0.6161532056619484,1196.0
400.0,1.7103011083909071e+18,0.5480274442538593,0.4774243201641868,0.48336296672593343,0.4582043343653251,0.510957324106113,0.6294754371357202,1196.0
401.0,1.7103011084009142e+18,0.5506003430531733,0.47434581836839407,0.4889509779019558,0.44788441692466463,0.5259515570934256,0.6128226477935054,1196.0
402.0,1.7103011084109076e+18,0.5467409948542024,0.4789635710620831,0.4795529591059182,0.43343653250773995,0.5017301038062284,0.6236469608659451,1197.0
403.0,1.710301108420904e+18,0.5463121783876501,0.47485890200102615,0.4889509779019558,0.45717234262125905,0.5409457900807382,0.6086594504579517,1193.0
404.0,1.710301108430903e+18,0.5480274442538593,0.48024628014366344,0.4869189738379477,0.46233230134158926,0.5155709342560554,0.630308076602831,1196.0
405.0,1.710301108440905e+18,0.5548885077186964,0.4733196511031298,0.4838709677419355,0.43653250773993807,0.52479815455594,0.6094920899250624,1193.0
406.0,1.7103011084509043e+18,0.5424528301886793,0.47793740379681887,0.4805689611379223,0.46233230134158926,0.5201845444059977,0.6253122398001665,1196.0
407.0,1.7103011084609024e+18,0.5450257289879932,0.4766546947152386,0.4859029718059436,0.43962848297213625,0.52479815455594,0.6103247293921732,1193.0
408.0,1.7103011084709038e+18,0.548885077186964,0.48024628014366344,0.48006096012192023,0.4633642930856553,0.5074971164936563,0.6228143213988343,1197.0
409.0,1.7103011084809037e+18,0.5390222984562607,0.47178040020523343,0.4853949707899416,0.4375644994840041,0.5294117647058824,0.6094920899250624,1194.0
410.0,1.7103011084909064e+18,0.5415951972555746,0.4789635710620831,0.4810769621539243,0.44891640866873067,0.5155709342560554,0.6244796003330558,1196.0
411.0,1.7103011085009044e+18,0.5548885077186964,0.47434581836839407,0.4874269748539497,0.434468524251806,0.5271049596309112,0.6094920899250624,1193.0
412.0,1.710301108510903e+18,0.5415951972555746,0.4774243201641868,0.4805689611379223,0.4602683178534572,0.5132641291810842,0.6228143213988343,1194.0
413.0,1.7103011085209044e+18,0.5480274442538593,0.47383273473576193,0.4843789687579375,0.434468524251806,0.5167243367935409,0.604496253122398,1194.0
414.0,1.7103011085309028e+18,0.5445969125214408,0.4776808619805028,0.4805689611379223,0.4716202270381837,0.5201845444059977,0.6244796003330558,1193.0
415.0,1.7103011085409044e+18,0.5557461406518011,0.4751154438173422,0.4846329692659385,0.46233230134158926,0.5432525951557093,0.6136552872606161,1196.0
416.0,1.7103011085509036e+18,0.5394511149228131,0.4787070292457671,0.4820929641859284,0.49019607843137253,0.5190311418685121,0.6261448792672772,1197.0
417.0,1.710301108560904e+18,0.5574614065180102,0.47434581836839407,0.4889509779019558,0.4293085655314757,0.5259515570934256,0.6119900083263947,1194.0
418.0,1.7103011085709028e+18,0.5433104631217839,0.4820420728578758,0.4859029718059436,0.4871001031991744,0.5294117647058824,0.6328059950041632,1198.0
419.0,1.7103011085809047e+18,0.5596054888507719,0.4730631092868138,0.4853949707899416,0.4375644994840041,0.5340253748558247,0.6061615320566195,1195.0
420.0,1.7103011085909043e+18,0.5445969125214408,0.47998973832734737,0.4828549657099314,0.4633642930856553,0.5132641291810842,0.6236469608659451,1197.0
421.0,1.710301108600901e+18,0.565180102915952,0.4720369420215495,0.4859029718059436,0.43653250773993807,0.5224913494809689,0.6094920899250624,1193.0
422.0,1.710301108610903e+18,0.5381646655231561,0.47947665469471523,0.4810769621539243,0.4148606811145511,0.5121107266435986,0.6244796003330558,1199.0
423.0,1.710301108620904e+18,0.5724699828473413,0.47126731657260135,0.4886969773939548,0.4406604747162023,0.5167243367935409,0.6086594504579517,1194.0
424.0,1.7103011086309025e+18,0.5364493996569468,0.48127244740892766,0.4795529591059182,0.4613003095975232,0.5132641291810842,0.6278101582014988,1200.0
425.0,1.7103011086409114e+18,0.5626072041166381,0.47383273473576193,0.4874269748539497,0.43550051599587203,0.48788927335640137,0.604496253122398,1192.0
426.0,1.7103011086509048e+18,0.5351629502572899,0.4820420728578758,0.4777749555499111,0.47058823529411764,0.5074971164936563,0.6236469608659451,1196.0
427.0,1.710301108660903e+18,0.5626072041166381,0.4694715238583889,0.4879349758699517,0.4231166150670795,0.5167243367935409,0.6103247293921732,1195.0
428.0,1.710301108670904e+18,0.5360205831903945,0.4807593637762955,0.4841249682499365,0.4602683178534572,0.5201845444059977,0.6286427976686095,1197.0
429.0,1.7103011086809024e+18,0.565180102915952,0.47383273473576193,0.491744983489967,0.47471620227038186,0.5397923875432526,0.6136552872606161,1197.0
430.0,1.71030110869091e+18,0.5300171526586621,0.4797331965110313,0.4780289560579121,0.4757481940144479,0.5155709342560554,0.6286427976686095,1197.0
431.0,1.710301108700904e+18,0.5668953687821612,0.4733196511031298,0.4876809753619507,0.4324045407636739,0.52479815455594,0.6136552872606161,1197.0
432.0,1.7103011087109048e+18,0.5330188679245284,0.48127244740892766,0.4790449580899162,0.47058823529411764,0.5132641291810842,0.6244796003330558,1196.0
433.0,1.7103011087209068e+18,0.5664665523156089,0.46921498204207285,0.4904749809499619,0.4293085655314757,0.5040369088811996,0.6128226477935054,1197.0
434.0,1.710301108730905e+18,0.5235849056603774,0.47947665469471523,0.4810769621539243,0.4582043343653251,0.5063437139561707,0.6211490424646128,1197.0
435.0,1.7103011087409057e+18,0.5694682675814752,0.46690610569522834,0.4881889763779528,0.45304437564499483,0.5259515570934256,0.6086594504579517,1194.0
436.0,1.7103011087509056e+18,0.5265866209262435,0.4807593637762955,0.4861569723139446,0.46542827657378744,0.5224913494809689,0.6261448792672772,1195.0
437.0,1.7103011087609078e+18,0.5660377358490566,0.47049769112365314,0.4859029718059436,0.4664602683178535,0.5294117647058824,0.6119900083263947,1192.0
438.0,1.7103011087709074e+18,0.5334476843910806,0.48050282195997945,0.4775209550419101,0.47678018575851394,0.5178777393310265,0.6261448792672772,1196.0
439.0,1.7103011087809085e+18,0.5720411663807891,0.46870189840944076,0.4902209804419609,0.4406604747162023,0.52479815455594,0.6119900083263947,1194.0
440.0,1.710301108790909e+18,0.524442538593482,0.4817855310415598,0.47701295402590804,0.4664602683178535,0.5317185697808535,0.6294754371357202,1197.0
441.0,1.7103011088009085e+18,0.5707547169811321,0.47126731657260135,0.4881889763779528,0.43034055727554177,0.5305651672433679,0.6128226477935054,1199.0
442.0,1.7103011088109092e+18,0.5231560891938251,0.4817855310415598,0.4777749555499111,0.48297213622291024,0.510957324106113,0.6261448792672772,1198.0
443.0,1.7103011088209108e+18,0.5741852487135506,0.4720369420215495,0.4909829819659639,0.43343653250773995,0.5178777393310265,0.607826810990841,1195.0
444.0,1.7103011088309102e+18,0.5274442538593482,0.48152898922524373,0.47726695453390905,0.4282765737874097,0.5121107266435986,0.6194837635303914,1196.0
445.0,1.7103011088409121e+18,0.5801886792452831,0.469728065674705,0.4894589789179578,0.43859649122807015,0.52479815455594,0.611157368859284,1194.0
446.0,1.7103011088509115e+18,0.5265866209262435,0.4822986146741919,0.4780289560579121,0.4551083591331269,0.5063437139561707,0.6236469608659451,1196.0
447.0,1.7103011088609106e+18,0.5720411663807891,0.4730631092868138,0.4902209804419609,0.4613003095975232,0.5213379469434832,0.6144879267277269,1194.0
448.0,1.710301108870912e+18,0.5218696397941681,0.4820420728578758,0.4747269494538989,0.4582043343653251,0.5144175317185697,0.6219816819317235,1198.0
449.0,1.7103011088809134e+18,0.5797598627787307,0.46921498204207285,0.4886969773939548,0.49122807017543857,0.5305651672433679,0.6119900083263947,1192.0
450.0,1.710301108890913e+18,0.5167238421955404,0.48050282195997945,0.4790449580899162,0.46233230134158926,0.5028835063437139,0.6203164029975021,1197.0
451.0,1.7103011089009134e+18,0.5776157804459692,0.4715238583889174,0.4871729743459487,0.42518059855521156,0.5374855824682814,0.6119900083263947,1194.0
452.0,1.7103011089109166e+18,0.5214408233276158,0.48255515649050795,0.47650495300990603,0.4891640866873065,0.5178777393310265,0.6261448792672772,1196.0
453.0,1.710301108920915e+18,0.5668953687821612,0.4715238583889174,0.4889509779019558,0.44169246646026833,0.532871972318339,0.6128226477935054,1197.0
454.0,1.7103011089309153e+18,0.5308747855917667,0.4830682401231401,0.47701295402590804,0.4540763673890609,0.5155709342560554,0.626977518734388,1195.0
455.0,1.710301108940915e+18,0.5741852487135506,0.4689584402257568,0.4937769875539751,0.4375644994840041,0.532871972318339,0.6144879267277269,1197.0
456.0,1.7103011089509153e+18,0.5265866209262435,0.4807593637762955,0.4790449580899162,0.46852425180598556,0.5144175317185697,0.6236469608659451,1196.0
457.0,1.7103011089609016e+18,0.5771869639794168,0.46921498204207285,0.4894589789179578,0.4262125902992776,0.5259515570934256,0.611157368859284,1194.0
458.0,1.710301108970916e+18,0.5192967409948542,0.4797331965110313,0.4777749555499111,0.4932920536635707,0.5317185697808535,0.6278101582014988,1195.0
459.0,1.710301108980903e+18,0.5789022298456261,0.469728065674705,0.491744983489967,0.4540763673890609,0.5271049596309112,0.6153205661948377,1196.0
460.0,1.7103011089909202e+18,0.5184391080617495,0.4787070292457671,0.47523495046990094,0.4602683178534572,0.5098039215686274,0.6286427976686095,1193.0
461.0,1.7103011090009032e+18,0.5754716981132075,0.47049769112365314,0.49123698247396497,0.40763673890608876,0.5224913494809689,0.611157368859284,1195.0
462.0,1.710301109010904e+18,0.5240137221269296,0.48383786557208824,0.4777749555499111,0.478844169246646,0.5074971164936563,0.6286427976686095,1196.0
463.0,1.7103011090209042e+18,0.5840480274442539,0.47178040020523343,0.491998983997968,0.43550051599587203,0.5294117647058824,0.6136552872606161,1197.0
464.0,1.7103011090309056e+18,0.5257289879931389,0.48152898922524373,0.47599695199390396,0.434468524251806,0.5074971164936563,0.6219816819317235,1195.0
465.0,1.710301109040905e+18,0.5754716981132075,0.47024114930733707,0.4909829819659639,0.42518059855521156,0.5271049596309112,0.611157368859284,1192.0
466.0,1.7103011090509028e+18,0.5167238421955404,0.47947665469471523,0.47371094742189485,0.4499484004127967,0.5259515570934256,0.6261448792672772,1195.0
467.0,1.710301109060902e+18,0.5857632933104632,0.47049769112365314,0.49123698247396497,0.4262125902992776,0.5271049596309112,0.6128226477935054,1196.0
468.0,1.7103011090709056e+18,0.5227272727272727,0.4830682401231401,0.47523495046990094,0.4716202270381837,0.5051903114186851,0.6261448792672772,1198.0
469.0,1.7103011090809027e+18,0.5776157804459692,0.469728065674705,0.4932689865379731,0.41382868937048506,0.52479815455594,0.6128226477935054,1197.0
470.0,1.7103011090909056e+18,0.5154373927958834,0.4853771164699846,0.47523495046990094,0.4437564499484004,0.5017301038062284,0.6294754371357202,1195.0
471.0,1.7103011091009347e+18,0.5930531732418525,0.47024114930733707,0.4869189738379477,0.44788441692466463,0.52479815455594,0.6153205661948377,1196.0
472.0,1.7103011091109023e+18,0.5180102915951973,0.4820420728578758,0.4747269494538989,0.44272445820433437,0.48788927335640137,0.6228143213988343,1197.0
473.0,1.7103011091209032e+18,0.5686106346483705,0.46870189840944076,0.4884429768859538,0.47781217750258,0.5201845444059977,0.6094920899250624,1194.0
474.0,1.710301109130902e+18,0.5154373927958834,0.4830682401231401,0.47320294640589283,0.4551083591331269,0.5132641291810842,0.6253122398001665,1194.0
475.0,1.7103011091409032e+18,0.5836192109777015,0.46921498204207285,0.49403098806197615,0.43343653250773995,0.5282583621683967,0.611157368859284,1194.0
476.0,1.7103011091508744e+18,0.5090051457975986,0.48127244740892766,0.47396494792989585,0.47058823529411764,0.5098039215686274,0.6244796003330558,1196.0
477.0,1.7103011091609021e+18,0.589622641509434,0.47049769112365314,0.4937769875539751,0.434468524251806,0.52479815455594,0.6136552872606161,1196.0
478.0,1.7103011091709033e+18,0.5098627787307033,0.4835813237557722,0.47218694437388875,0.4375644994840041,0.49596309111880044,0.6228143213988343,1197.0
479.0,1.7103011091809021e+18,0.5763293310463122,0.4676757311441765,0.4937769875539751,0.434468524251806,0.52479815455594,0.6128226477935054,1195.0
480.0,1.7103011091909038e+18,0.5132933104631218,0.4853771164699846,0.47498094996189993,0.49226006191950467,0.5074971164936563,0.6194837635303914,1196.0
481.0,1.7103011092009034e+18,0.5840480274442539,0.46921498204207285,0.4935229870459741,0.4169246646026832,0.5201845444059977,0.6119900083263947,1193.0
482.0,1.7103011092109046e+18,0.5124356775300172,0.48589020010261674,0.47320294640589283,0.4850361197110423,0.5098039215686274,0.6261448792672772,1196.0
483.0,1.7103011092209027e+18,0.5849056603773585,0.4694715238583889,0.491998983997968,0.4241486068111455,0.5213379469434832,0.6094920899250624,1196.0
484.0,1.710301109230914e+18,0.5055746140651801,0.4820420728578758,0.47396494792989585,0.47368421052631576,0.5005767012687428,0.6261448792672772,1196.0
485.0,1.7103011092409183e+18,0.5810463121783876,0.46998460749102106,0.49250698501397006,0.4169246646026832,0.5351787773933102,0.611157368859284,1194.0
486.0,1.710301109250913e+18,0.5235849056603774,0.4830682401231401,0.47879095758191514,0.4664602683178535,0.5040369088811996,0.626977518734388,1196.0
487.0,1.7103011092609106e+18,0.5823327615780446,0.47229348383786557,0.4935229870459741,0.43343653250773995,0.5236447520184544,0.6069941715237303,1194.0
488.0,1.7103011092709059e+18,0.5102915951972555,0.48152898922524373,0.47599695199390396,0.4551083591331269,0.5040369088811996,0.6244796003330558,1197.0
489.0,1.7103011092809047e+18,0.5879073756432247,0.47126731657260135,0.5031750063500127,0.4066047471620227,0.5409457900807382,0.6144879267277269,1194.0
490.0,1.7103011092909066e+18,0.508147512864494,0.48383786557208824,0.47523495046990094,0.46852425180598556,0.4982698961937716,0.6194837635303914,1196.0
491.0,1.7103011093009057e+18,0.589622641509434,0.4661364802462801,0.4950469900939802,0.4148606811145511,0.5374855824682814,0.6103247293921732,1194.0
492.0,1.710301109310908e+18,0.5111492281303602,0.482811698306824,0.47117094234188467,0.4582043343653251,0.5098039215686274,0.6203164029975021,1196.0
493.0,1.7103011093209068e+18,0.5926243567753001,0.4684453565931247,0.49276098552197106,0.4499484004127967,0.532871972318339,0.611157368859284,1194.0
494.0,1.7103011093309064e+18,0.5085763293310464,0.4843509492047204,0.47320294640589283,0.4809081527347781,0.510957324106113,0.6211490424646128,1193.0
495.0,1.7103011093409047e+18,0.5904802744425386,0.46921498204207285,0.4935229870459741,0.44478844169246645,0.5397923875432526,0.611157368859284,1194.0
496.0,1.7103011093509071e+18,0.5107204116638079,0.4840944073884043,0.47421894843789686,0.4850361197110423,0.5098039215686274,0.626977518734388,1195.0
497.0,1.7103011093609057e+18,0.5827615780445969,0.4684453565931247,0.491744983489967,0.4540763673890609,0.5397923875432526,0.6119900083263947,1193.0
498.0,1.7103011093709125e+18,0.5111492281303602,0.48383786557208824,0.4747269494538989,0.4809081527347781,0.5132641291810842,0.6219816819317235,1195.0
499.0,1.7103011093809042e+18,0.5913379073756432,0.4681888147768086,0.4953009906019812,0.4282765737874097,0.5201845444059977,0.6119900083263947,1196.0
500.0,1.7103011093909033e+18,0.49914236706689535,0.4835813237557722,0.47193294386588774,0.4726522187822497,0.5121107266435986,0.6244796003330558,1195.0
501.0,1.710301109400904e+18,0.5891938250428816,0.4689584402257568,0.4953009906019812,0.42208462332301344,0.5340253748558247,0.6103247293921732,1193.0
502.0,1.7103011094109033e+18,0.5064322469982847,0.4840944073884043,0.47040894081788165,0.47471620227038186,0.5040369088811996,0.6228143213988343,1196.0
503.0,1.7103011094209032e+18,0.5891938250428816,0.4707542329399692,0.49606299212598426,0.43962848297213625,0.5155709342560554,0.6103247293921732,1193.0
504.0,1.7103011094309025e+18,0.508147512864494,0.48460749102103645,0.47599695199390396,0.4613003095975232,0.5236447520184544,0.6253122398001665,1194.0
505.0,1.710301109440908e+18,0.5879073756432247,0.4681888147768086,0.4884429768859538,0.39009287925696595,0.5167243367935409,0.6094920899250624,1193.0
506.0,1.7103011094509082e+18,0.5068610634648371,0.4861467419189328,0.4699009398018796,0.4633642930856553,0.5098039215686274,0.6261448792672772,1194.0
507.0,1.7103011094609085e+18,0.5866209262435678,0.46870189840944076,0.49403098806197615,0.42105263157894735,0.5317185697808535,0.6103247293921732,1194.0
508.0,1.710301109470903e+18,0.5158662092624356,0.47998973832734737,0.47193294386588774,0.4674922600619195,0.5132641291810842,0.6286427976686095,1196.0
509.0,1.7103011094809055e+18,0.5887650085763293,0.4681888147768086,0.4937769875539751,0.43343653250773995,0.5259515570934256,0.6103247293921732,1193.0
510.0,1.710301109490904e+18,0.5077186963979416,0.482811698306824,0.47269494538989076,0.4582043343653251,0.4994232987312572,0.6244796003330558,1197.0
511.0,1.7103011095009068e+18,0.5926243567753001,0.46921498204207285,0.49453898907797816,0.4231166150670795,0.5340253748558247,0.6144879267277269,1197.0
512.0,1.710301109510904e+18,0.5090051457975986,0.4820420728578758,0.47091694183388366,0.5025799793601651,0.5074971164936563,0.6286427976686095,1197.0
513.0,1.7103011095209034e+18,0.5840480274442539,0.46921498204207285,0.49250698501397006,0.43034055727554177,0.5213379469434832,0.607826810990841,1193.0
514.0,1.7103011095309064e+18,0.508147512864494,0.48255515649050795,0.47015494030988064,0.44272445820433437,0.5040369088811996,0.626977518734388,1196.0
515.0,1.7103011095409021e+18,0.5844768439108061,0.46664956387891227,0.49580899161798325,0.43034055727554177,0.5305651672433679,0.611157368859284,1192.0
516.0,1.7103011095509043e+18,0.5137221269296741,0.4892252437147255,0.47548895097790195,0.48606811145510836,0.5098039215686274,0.6286427976686095,1196.0
517.0,1.7103011095608996e+18,0.5874785591766724,0.46228835300153925,0.491998983997968,0.42518059855521156,0.5340253748558247,0.6136552872606161,1195.0
518.0,1.710301109570902e+18,0.5102915951972555,0.48589020010261674,0.47371094742189485,0.5087719298245614,0.510957324106113,0.6236469608659451,1196.0
519.0,1.710301109580903e+18,0.5926243567753001,0.46921498204207285,0.49453898907797816,0.44685242518059853,0.5305651672433679,0.6169858451290591,1197.0
520.0,1.7103011095909043e+18,0.5072898799313894,0.4866598255515649,0.47345694691389384,0.4716202270381837,0.5063437139561707,0.6294754371357202,1195.0
521.0,1.7103011096009075e+18,0.5874785591766724,0.469728065674705,0.4937769875539751,0.39628482972136225,0.52479815455594,0.6103247293921732,1193.0
522.0,1.7103011096109494e+18,0.5055746140651801,0.4840944073884043,0.47167894335788674,0.4809081527347781,0.5294117647058824,0.6261448792672772,1197.0
523.0,1.7103011096209065e+18,0.5883361921097771,0.469728065674705,0.49707899415798834,0.42724458204334365,0.5305651672433679,0.611157368859284,1194.0
524.0,1.7103011096309036e+18,0.5051457975986278,0.48255515649050795,0.47244094488188976,0.4726522187822497,0.5028835063437139,0.6219816819317235,1197.0
525.0,1.7103011096409134e+18,0.5947684391080618,0.465366854797332,0.4950469900939802,0.43962848297213625,0.5294117647058824,0.611157368859284,1196.0
526.0,1.7103011096509215e+18,0.49914236706689535,0.48896870189840946,0.47167894335788674,0.5056759545923633,0.538638985005767,0.6261448792672772,1197.0
527.0,1.7103011096609057e+18,0.5789022298456261,0.4676757311441765,0.4909829819659639,0.4241486068111455,0.5282583621683967,0.611157368859284,1194.0
528.0,1.7103011096709952e+18,0.5124356775300172,0.4835813237557722,0.47269494538989076,0.43962848297213625,0.5017301038062284,0.6236469608659451,1195.0
529.0,1.710301109680916e+18,0.5849056603773585,0.4674191893278604,0.49428498856997716,0.4117647058823529,0.52479815455594,0.6161532056619484,1194.0
530.0,1.7103011096908956e+18,0.5068610634648371,0.48460749102103645,0.47371094742189485,0.4520123839009288,0.5086505190311419,0.6236469608659451,1197.0
531.0,1.7103011097009114e+18,0.5934819897084048,0.47049769112365314,0.4950469900939802,0.4458204334365325,0.5294117647058824,0.6136552872606161,1196.0
532.0,1.7103011097109087e+18,0.5090051457975986,0.48819907644946126,0.47117094234188467,0.4716202270381837,0.5028835063437139,0.6228143213988343,1196.0
533.0,1.710301109720912e+18,0.5934819897084048,0.4671626475115444,0.4950469900939802,0.42105263157894735,0.5351787773933102,0.6094920899250624,1196.0
534.0,1.7103011097309097e+18,0.49914236706689535,0.48691636736788096,0.4683769367538735,0.45098039215686275,0.5040369088811996,0.6211490424646128,1195.0
535.0,1.7103011097409106e+18,0.5999142367066895,0.4674191893278604,0.49631699263398527,0.4107327141382869,0.5213379469434832,0.6161532056619484,1197.0
536.0,1.7103011097509133e+18,0.5047169811320755,0.48050282195997945,0.47015494030988064,0.4613003095975232,0.5063437139561707,0.6236469608659451,1194.0
537.0,1.710301109760909e+18,0.589622641509434,0.4674191893278604,0.49631699263398527,0.43034055727554177,0.5305651672433679,0.6144879267277269,1196.0
538.0,1.7103011097709128e+18,0.49485420240137223,0.4817855310415598,0.47066294132588266,0.4499484004127967,0.5098039215686274,0.6244796003330558,1196.0
539.0,1.7103011097809098e+18,0.5891938250428816,0.46562339661364804,0.49733299466598935,0.41279669762641896,0.4844290657439446,0.6061615320566195,1194.0
540.0,1.7103011097909138e+18,0.5030017152658662,0.48460749102103645,0.4699009398018796,0.44685242518059853,0.5005767012687428,0.6261448792672772,1197.0
541.0,1.7103011098009114e+18,0.5874785591766724,0.47049769112365314,0.49479298958597917,0.4282765737874097,0.5294117647058824,0.6103247293921732,1194.0
542.0,1.710301109810911e+18,0.4974271012006861,0.48512057465366853,0.47117094234188467,0.47058823529411764,0.5201845444059977,0.6228143213988343,1197.0
543.0,1.7103011098209108e+18,0.5943396226415094,0.4707542329399692,0.4968249936499873,0.4055727554179567,0.52479815455594,0.6153205661948377,1196.0
544.0,1.7103011098309092e+18,0.5072898799313894,0.4861467419189328,0.4665989331978664,0.46233230134158926,0.5063437139561707,0.6261448792672772,1196.0
545.0,1.710301109840908e+18,0.5960548885077187,0.4710107747562853,0.491490982981966,0.4282765737874097,0.5271049596309112,0.6069941715237303,1193.0
546.0,1.71030110985091e+18,0.5021440823327615,0.4835813237557722,0.47117094234188467,0.49638802889576883,0.4982698961937716,0.626977518734388,1197.0
547.0,1.710301109860908e+18,0.5960548885077187,0.46228835300153925,0.49707899415798834,0.4231166150670795,0.5201845444059977,0.6103247293921732,1195.0
548.0,1.710301109870908e+18,0.5051457975986278,0.4884556182657773,0.47269494538989076,0.48297213622291024,0.5132641291810842,0.6244796003330558,1196.0
549.0,1.71030110988091e+18,0.5891938250428816,0.46921498204207285,0.49606299212598426,0.4148606811145511,0.5294117647058824,0.6119900083263947,1193.0
550.0,1.7103011098909102e+18,0.49013722126929676,0.48896870189840946,0.47117094234188467,0.46233230134158926,0.5051903114186851,0.6228143213988343,1197.0
551.0,1.7103011099009142e+18,0.6003430531732419,0.46664956387891227,0.49809499618999237,0.4262125902992776,0.5374855824682814,0.6136552872606161,1195.0
552.0,1.71030110991092e+18,0.4957118353344768,0.48255515649050795,0.46558293116586236,0.46233230134158926,0.5086505190311419,0.6228143213988343,1197.0
553.0,1.7103011099209247e+18,0.6054888507718696,0.4689584402257568,0.49606299212598426,0.4726522187822497,0.5409457900807382,0.6161532056619484,1196.0
554.0,1.7103011099309087e+18,0.4957118353344768,0.4905079527963058,0.46939293878587757,0.5118679050567595,0.5155709342560554,0.6219816819317235,1196.0
555.0,1.7103011099409224e+18,0.6012006861063465,0.46690610569522834,0.49707899415798834,0.4437564499484004,0.5409457900807382,0.611157368859284,1194.0
556.0,1.7103011099509071e+18,0.4875643224699828,0.4856336582863007,0.47218694437388875,0.4540763673890609,0.49019607843137253,0.6228143213988343,1195.0
557.0,1.7103011099609016e+18,0.5969125214408233,0.46562339661364804,0.49428498856997716,0.4282765737874097,0.5317185697808535,0.6103247293921732,1193.0
558.0,1.71030110997091e+18,0.49656946826758147,0.48819907644946126,0.46736093472186946,0.47058823529411764,0.49019607843137253,0.6194837635303914,1194.0
559.0,1.7103011099809272e+18,0.6050600343053173,0.46664956387891227,0.5064770129540259,0.43962848297213625,0.5271049596309112,0.6136552872606161,1197.0
560.0,1.710301109990914e+18,0.49699828473413377,0.48896870189840946,0.47015494030988064,0.48194014447884415,0.5051903114186851,0.6203164029975021,1194.0
561.0,1.7103011100009147e+18,0.6029159519725558,0.4676757311441765,0.49809499618999237,0.3849329205366357,0.5224913494809689,0.6128226477935054,1196.0
562.0,1.7103011100109046e+18,0.4922813036020583,0.4897383273473576,0.4650749301498603,0.4850361197110423,0.52479815455594,0.6203164029975021,1195.0
563.0,1.7103011100209316e+18,0.6046312178387651,0.469728065674705,0.4983489966979934,0.42518059855521156,0.5432525951557093,0.6144879267277269,1197.0
564.0,1.7103011100309243e+18,0.4939965694682676,0.4835813237557722,0.4648209296418593,0.4674922600619195,0.4925028835063437,0.6194837635303914,1197.0
565.0,1.710301110040924e+18,0.6029159519725558,0.4681888147768086,0.5019050038100076,0.4375644994840041,0.5340253748558247,0.6128226477935054,1195.0
566.0,1.7103011100509112e+18,0.4939965694682676,0.48486403283735247,0.46786893573787147,0.49948400412796695,0.5144175317185697,0.6186511240632806,1196.0
567.0,1.710301110060915e+18,0.6029159519725558,0.46485377116469984,0.49631699263398527,0.43343653250773995,0.5224913494809689,0.6194837635303914,1195.0
568.0,1.7103011100709092e+18,0.4862778730703259,0.4897383273473576,0.47167894335788674,0.4757481940144479,0.5074971164936563,0.6261448792672772,1192.0
569.0,1.7103011100809283e+18,0.6033447684391081,0.4661364802462801,0.49961899923799846,0.43550051599587203,0.5420991926182238,0.6161532056619484,1194.0
570.0,1.7103011100909445e+18,0.4914236706689537,0.48589020010261674,0.46863093726187455,0.48606811145510836,0.5017301038062284,0.6203164029975021,1195.0
571.0,1.7103011101009316e+18,0.6067753001715266,0.46357106208311954,0.5021590043180086,0.40454076367389064,0.5155709342560554,0.6144879267277269,1195.0
572.0,1.7103011101109138e+18,0.49013722126929676,0.4897383273473576,0.4699009398018796,0.48194014447884415,0.5040369088811996,0.6211490424646128,1195.0
573.0,1.7103011101209116e+18,0.6024871355060034,0.46562339661364804,0.5013970027940056,0.44272445820433437,0.5155709342560554,0.6094920899250624,1194.0
574.0,1.7103011101309138e+18,0.48198970840480276,0.4856336582863007,0.46710693421386845,0.4499484004127967,0.49596309111880044,0.6211490424646128,1194.0
575.0,1.7103011101409206e+18,0.6136363636363636,0.4638276038994356,0.49961899923799846,0.43653250773993807,0.5340253748558247,0.6119900083263947,1194.0
576.0,1.710301110150919e+18,0.4897084048027444,0.48896870189840946,0.46913893827787656,0.47987616099071206,0.5017301038062284,0.6203164029975021,1196.0
577.0,1.710301110160914e+18,0.6063464837049742,0.45997947665469474,0.49860299720599444,0.4169246646026832,0.5294117647058824,0.6103247293921732,1194.0
578.0,1.7103011101709117e+18,0.4888507718696398,0.4879425346331452,0.4665989331978664,0.47058823529411764,0.5028835063437139,0.6228143213988343,1197.0
579.0,1.7103011101809137e+18,0.6183533447684391,0.4625448948178553,0.49453898907797816,0.4169246646026832,0.538638985005767,0.611157368859284,1193.0
580.0,1.7103011101909158e+18,0.4777015437392796,0.4930733709594664,0.4665989331978664,0.44272445820433437,0.48327566320645904,0.6203164029975021,1193.0
581.0,1.7103011102009162e+18,0.6097770154373928,0.46998460749102106,0.49809499618999237,0.4437564499484004,0.5340253748558247,0.6161532056619484,1198.0
582.0,1.710301110210915e+18,0.47641509433962265,0.49204720369420213,0.4645669291338583,0.4840041279669763,0.5005767012687428,0.6203164029975021,1197.0
583.0,1.710301110220917e+18,0.6127787307032591,0.469728065674705,0.5003810007620015,0.40763673890608876,0.5259515570934256,0.6194837635303914,1197.0
584.0,1.7103011102309138e+18,0.48713550600343053,0.4861467419189328,0.476250952501905,0.478844169246646,0.5132641291810842,0.6236469608659451,1194.0
585.0,1.7103011102409426e+18,0.6080617495711835,0.46587993842996406,0.5008890017780036,0.4169246646026832,0.5224913494809689,0.6194837635303914,1195.0
586.0,1.7103011102509169e+18,0.4815608919382504,0.48896870189840946,0.46736093472186946,0.42724458204334365,0.5074971164936563,0.6211490424646128,1196.0
587.0,1.7103011102609216e+18,0.6063464837049742,0.4633145202668035,0.4983489966979934,0.43859649122807015,0.5305651672433679,0.6211490424646128,1196.0
588.0,1.7103011102709153e+18,0.4862778730703259,0.48717290918419703,0.4648209296418593,0.48813209494324045,0.5051903114186851,0.6228143213988343,1195.0
589.0,1.7103011102809134e+18,0.6110634648370498,0.4633145202668035,0.5013970027940056,0.4293085655314757,0.5259515570934256,0.6136552872606161,1195.0
590.0,1.7103011102909153e+18,0.47898799313893653,0.49025141097998975,0.4620269240538481,0.4757481940144479,0.4786620530565167,0.6203164029975021,1195.0
591.0,1.710301110300915e+18,0.6144939965694682,0.4633145202668035,0.5021590043180086,0.4055727554179567,0.5294117647058824,0.6144879267277269,1196.0
592.0,1.7103011103109243e+18,0.4897084048027444,0.4835813237557722,0.46863093726187455,0.47368421052631576,0.497116493656286,0.6261448792672772,1195.0
593.0,1.710301110320917e+18,0.6252144082332761,0.46587993842996406,0.5011430022860046,0.39834881320949433,0.5340253748558247,0.6169858451290591,1197.0
594.0,1.7103011103309176e+18,0.4811320754716981,0.4887121600820934,0.47574295148590295,0.4932920536635707,0.5167243367935409,0.6219816819317235,1196.0
595.0,1.7103011103409318e+18,0.6170668953687821,0.4633145202668035,0.49961899923799846,0.41898864809081526,0.5351787773933102,0.6144879267277269,1196.0
596.0,1.7103011103509192e+18,0.47641509433962265,0.4879425346331452,0.4632969265938532,0.4953560371517028,0.5040369088811996,0.6194837635303914,1195.0
597.0,1.7103011103609183e+18,0.6106346483704974,0.46459722934838377,0.49987299974599947,0.4117647058823529,0.52479815455594,0.6153205661948377,1197.0
598.0,1.7103011103709181e+18,0.4811320754716981,0.4892252437147255,0.4645669291338583,0.5118679050567595,0.5155709342560554,0.6211490424646128,1195.0
599.0,1.7103011103809185e+18,0.6136363636363636,0.46228835300153925,0.49936499872999746,0.4200206398348813,0.52479815455594,0.6144879267277269,1197.0
600.0,1.7103011103909204e+18,0.47469982847341335,0.4876859928168291,0.46863093726187455,0.4499484004127967,0.49596309111880044,0.6194837635303914,1197.0
601.0,1.71030111040092e+18,0.614065180102916,0.4604925602873268,0.4983489966979934,0.42105263157894735,0.5340253748558247,0.6194837635303914,1195.0
602.0,1.710301110410921e+18,0.4781303602058319,0.491277578245254,0.46405892811785626,0.4499484004127967,0.49480968858131485,0.6169858451290591,1199.0
603.0,1.7103011104209208e+18,0.6200686106346484,0.46793227296049256,0.5016510033020066,0.4200206398348813,0.532871972318339,0.6194837635303914,1196.0
604.0,1.710301110430921e+18,0.47212692967409947,0.4892252437147255,0.4630429260858522,0.4726522187822497,0.5017301038062284,0.6194837635303914,1196.0
605.0,1.710301110440922e+18,0.6239279588336192,0.4640841457157517,0.49707899415798834,0.4169246646026832,0.5351787773933102,0.6136552872606161,1196.0
606.0,1.7103011104509222e+18,0.4712692967409949,0.4876859928168291,0.4627889255778512,0.47781217750258,0.5028835063437139,0.6244796003330558,1195.0
607.0,1.7103011104609318e+18,0.6265008576329331,0.4684453565931247,0.4983489966979934,0.4004127966976264,0.5317185697808535,0.6169858451290591,1199.0
608.0,1.7103011104709248e+18,0.467409948542024,0.4879425346331452,0.4645669291338583,0.49019607843137253,0.4982698961937716,0.6161532056619484,1197.0
609.0,1.7103011104809247e+18,0.62778730703259,0.4651103129810159,0.5062230124460249,0.4169246646026832,0.5351787773933102,0.6153205661948377,1198.0
610.0,1.7103011104909258e+18,0.4691252144082333,0.48691636736788096,0.4622809245618491,0.4809081527347781,0.5074971164936563,0.6161532056619484,1196.0
611.0,1.710301110500927e+18,0.6209262435677531,0.4681888147768086,0.5026670053340107,0.4169246646026832,0.532871972318339,0.6194837635303914,1196.0
612.0,1.7103011105109263e+18,0.4751286449399657,0.4879425346331452,0.46558293116586236,0.48297213622291024,0.5086505190311419,0.6194837635303914,1195.0
613.0,1.710301110520927e+18,0.6209262435677531,0.46998460749102106,0.5013970027940056,0.3942208462332301,0.5224913494809689,0.6153205661948377,1197.0
614.0,1.710301110530928e+18,0.4751286449399657,0.4905079527963058,0.46710693421386845,0.5036119711042312,0.5086505190311419,0.6128226477935054,1193.0
615.0,1.710301110540913e+18,0.6234991423670669,0.4630579784504874,0.49961899923799846,0.4458204334365325,0.5305651672433679,0.6169858451290591,1196.0
616.0,1.710301110550913e+18,0.47469982847341335,0.4953822473063109,0.4632969265938532,0.4695562435500516,0.5051903114186851,0.6178184845961698,1196.0
617.0,1.7103011105609124e+18,0.6200686106346484,0.4630579784504874,0.4983489966979934,0.43034055727554177,0.5640138408304498,0.6169858451290591,1196.0
618.0,1.7103011105709133e+18,0.4691252144082333,0.4861467419189328,0.4665989331978664,0.46439628482972134,0.4798154555940023,0.6219816819317235,1197.0
619.0,1.7103011105809132e+18,0.6234991423670669,0.46228835300153925,0.5044450088900178,0.4117647058823529,0.5294117647058824,0.6169858451290591,1196.0
620.0,1.7103011105909138e+18,0.4635506003430532,0.4856336582863007,0.46710693421386845,0.4633642930856553,0.497116493656286,0.6228143213988343,1194.0
621.0,1.710301110600931e+18,0.6243567753001715,0.4694715238583889,0.5003810007620015,0.39834881320949433,0.5294117647058824,0.6194837635303914,1196.0
622.0,1.7103011106109325e+18,0.4781303602058319,0.49025141097998975,0.4620269240538481,0.4757481940144479,0.510957324106113,0.6144879267277269,1192.0
623.0,1.7103011106209119e+18,0.6080617495711835,0.45920985120574653,0.5059690119380239,0.4262125902992776,0.5317185697808535,0.6128226477935054,1194.0
624.0,1.7103011106309112e+18,0.4695540308747856,0.49025141097998975,0.4627889255778512,0.48194014447884415,0.5074971164936563,0.6194837635303914,1197.0
625.0,1.7103011106409165e+18,0.6187821612349914,0.46664956387891227,0.49809499618999237,0.4086687306501548,0.5005767012687428,0.6069941715237303,1192.0
626.0,1.710301110650916e+18,0.45926243567753,0.4917906618778861,0.46786893573787147,0.47368421052631576,0.4982698961937716,0.6153205661948377,1196.0
627.0,1.7103011106609124e+18,0.6183533447684391,0.46228835300153925,0.49758699517399035,0.44891640866873067,0.5397923875432526,0.6161532056619484,1197.0
628.0,1.7103011106709143e+18,0.483704974271012,0.4897383273473576,0.46431292862585727,0.47471620227038186,0.4982698961937716,0.6211490424646128,1194.0
629.0,1.7103011106809147e+18,0.6149228130360206,0.4638276038994356,0.5039370078740157,0.4262125902992776,0.5201845444059977,0.6194837635303914,1195.0
630.0,1.7103011106909184e+18,0.4712692967409949,0.4887121600820934,0.46863093726187455,0.4757481940144479,0.5063437139561707,0.6211490424646128,1196.0
631.0,1.7103011107009137e+18,0.6260720411663808,0.4607491021036429,0.5016510033020066,0.4055727554179567,0.5294117647058824,0.611157368859284,1192.0
632.0,1.7103011107109176e+18,0.4669811320754717,0.4923037455105182,0.46583693167386336,0.47058823529411764,0.5017301038062284,0.6153205661948377,1194.0
633.0,1.7103011107209144e+18,0.6239279588336192,0.4671626475115444,0.49911099822199645,0.38080495356037153,0.5305651672433679,0.6186511240632806,1199.0
634.0,1.7103011107309138e+18,0.4815608919382504,0.4917906618778861,0.4645669291338583,0.4891640866873065,0.5074971164936563,0.6261448792672772,1195.0
635.0,1.710301110740919e+18,0.6213550600343053,0.4625448948178553,0.5024130048260097,0.434468524251806,0.5294117647058824,0.6169858451290591,1197.0
636.0,1.7103011107509187e+18,0.46569468267581476,0.4884556182657773,0.46736093472186946,0.45717234262125905,0.43944636678200694,0.6144879267277269,1196.0
637.0,1.7103011107609208e+18,0.6187821612349914,0.4625448948178553,0.5039370078740157,0.41382868937048506,0.5201845444059977,0.6186511240632806,1195.0
638.0,1.7103011107709174e+18,0.4734133790737564,0.4866598255515649,0.4645669291338583,0.49742002063983487,0.5155709342560554,0.6203164029975021,1196.0
639.0,1.7103011107809119e+18,0.6295025728987993,0.4604925602873268,0.5097790195580392,0.3931888544891641,0.52479815455594,0.6169858451290591,1196.0
640.0,1.7103011107909097e+18,0.4609777015437393,0.4876859928168291,0.4630429260858522,0.4840041279669763,0.5074971164936563,0.6186511240632806,1197.0
641.0,1.7103011108009108e+18,0.6312178387650086,0.4651103129810159,0.5041910083820168,0.40970072239422084,0.5224913494809689,0.6169858451290591,1199.0
642.0,1.7103011108109153e+18,0.45969125214408235,0.48717290918419703,0.46583693167386336,0.4757481940144479,0.5098039215686274,0.6169858451290591,1194.0
643.0,1.7103011108209162e+18,0.62778730703259,0.4604925602873268,0.5006350012700025,0.4458204334365325,0.532871972318339,0.6153205661948377,1196.0
644.0,1.7103011108309123e+18,0.45454545454545453,0.4943560800410467,0.46405892811785626,0.49638802889576883,0.4994232987312572,0.6194837635303914,1196.0
645.0,1.7103011108409124e+18,0.6299313893653516,0.4628014366341714,0.49580899161798325,0.39009287925696595,0.5271049596309112,0.6144879267277269,1197.0
646.0,1.7103011108509102e+18,0.4631217838765009,0.4856336582863007,0.4612649225298451,0.4716202270381837,0.5074971164936563,0.6161532056619484,1195.0
647.0,1.710301110860911e+18,0.6209262435677531,0.465366854797332,0.5100330200660401,0.4024767801857585,0.5213379469434832,0.6153205661948377,1197.0
648.0,1.7103011108709115e+18,0.46054888507718694,0.4861467419189328,0.47193294386588774,0.47987616099071206,0.5201845444059977,0.6203164029975021,1194.0
649.0,1.710301110880909e+18,0.6350771869639794,0.46562339661364804,0.49911099822199645,0.43034055727554177,0.5317185697808535,0.6153205661948377,1196.0
650.0,1.7103011108909123e+18,0.45454545454545453,0.4861467419189328,0.4683769367538735,0.47781217750258,0.5086505190311419,0.6178184845961698,1195.0
651.0,1.7103011109009126e+18,0.6346483704974271,0.4661364802462801,0.5011430022860046,0.41589267285861714,0.5409457900807382,0.6203164029975021,1194.0
652.0,1.7103011109109115e+18,0.4635506003430532,0.49025141097998975,0.4665989331978664,0.5211558307533539,0.5098039215686274,0.6219816819317235,1194.0
653.0,1.7103011109209147e+18,0.6372212692967409,0.4581836839404823,0.5057150114300228,0.4262125902992776,0.5271049596309112,0.6161532056619484,1196.0
654.0,1.7103011109309184e+18,0.46269296740994853,0.4892252437147255,0.46888493776987555,0.4726522187822497,0.5074971164936563,0.6194837635303914,1196.0
655.0,1.7103011109409142e+18,0.630360205831904,0.46126218573627503,0.5008890017780036,0.4024767801857585,0.5282583621683967,0.6153205661948377,1196.0
656.0,1.7103011109509112e+18,0.46869639794168094,0.4917906618778861,0.4620269240538481,0.47987616099071206,0.5028835063437139,0.6219816819317235,1194.0
657.0,1.710301110960913e+18,0.630360205831904,0.4630579784504874,0.5016510033020066,0.44685242518059853,0.5259515570934256,0.6194837635303914,1196.0
658.0,1.7103011109709135e+18,0.4665523156089194,0.48819907644946126,0.4615189230378461,0.4582043343653251,0.5051903114186851,0.6194837635303914,1194.0
659.0,1.7103011109809152e+18,0.6239279588336192,0.4651103129810159,0.5062230124460249,0.4169246646026832,0.5317185697808535,0.6169858451290591,1195.0
660.0,1.7103011109909156e+18,0.4631217838765009,0.49076449461262184,0.46710693421386845,0.48606811145510836,0.5063437139561707,0.6169858451290591,1197.0
661.0,1.710301111000914e+18,0.6282161234991424,0.46100564391995896,0.5052070104140208,0.41279669762641896,0.5351787773933102,0.6194837635303914,1195.0
662.0,1.7103011110109138e+18,0.45197255574614065,0.4917906618778861,0.4635509271018542,0.4716202270381837,0.5051903114186851,0.6169858451290591,1198.0
663.0,1.7103011110209147e+18,0.6320754716981132,0.4620318111852232,0.5019050038100076,0.41279669762641896,0.52479815455594,0.6194837635303914,1195.0
664.0,1.7103011110309194e+18,0.45969125214408235,0.48819907644946126,0.460502921005842,0.48297213622291024,0.5074971164936563,0.6144879267277269,1194.0
665.0,1.7103011110409103e+18,0.6290737564322469,0.46434068753206775,0.5034290068580137,0.4293085655314757,0.5397923875432526,0.6169858451290591,1196.0
666.0,1.710301111050914e+18,0.46054888507718694,0.4876859928168291,0.4635509271018542,0.43034055727554177,0.5017301038062284,0.6153205661948377,1196.0
667.0,1.7103011110609088e+18,0.6243567753001715,0.46126218573627503,0.5031750063500127,0.43653250773993807,0.5432525951557093,0.6169858451290591,1196.0
668.0,1.7103011110709143e+18,0.451114922813036,0.48896870189840946,0.4612649225298451,0.5077399380804953,0.5132641291810842,0.6178184845961698,1197.0
669.0,1.7103011110809098e+18,0.6342195540308748,0.4640841457157517,0.5062230124460249,0.4324045407636739,0.5363321799307958,0.6161532056619484,1195.0
670.0,1.710301111090911e+18,0.4485420240137221,0.49409953822473063,0.461010922021844,0.4809081527347781,0.5017301038062284,0.6211490424646128,1197.0
671.0,1.7103011111009106e+18,0.6286449399656947,0.4576706003078502,0.5057150114300228,0.42724458204334365,0.5340253748558247,0.6161532056619484,1195.0
672.0,1.7103011111109133e+18,0.4695540308747856,0.48691636736788096,0.45999491998984,0.48194014447884415,0.5017301038062284,0.6136552872606161,1195.0
673.0,1.7103011111209116e+18,0.6342195540308748,0.4625448948178553,0.5044450088900178,0.3797729618163055,0.5201845444059977,0.6169858451290591,1197.0
674.0,1.710301111130911e+18,0.4562607204116638,0.48896870189840946,0.46558293116586236,0.5159958720330238,0.5294117647058824,0.6219816819317235,1192.0
675.0,1.7103011111409137e+18,0.6329331046312179,0.4640841457157517,0.5123190246380492,0.39525283797729616,0.5074971164936563,0.6161532056619484,1197.0
676.0,1.710301111150914e+18,0.45754716981132076,0.4864032837352488,0.4582169164338329,0.48194014447884415,0.5155709342560554,0.6219816819317235,1194.0
677.0,1.710301111160916e+18,0.6282161234991424,0.4628014366341714,0.5064770129540259,0.4293085655314757,0.5121107266435986,0.6161532056619484,1196.0
678.0,1.710301111170916e+18,0.4691252144082333,0.4910210364289379,0.4630429260858522,0.478844169246646,0.4982698961937716,0.6144879267277269,1195.0
679.0,1.7103011111809172e+18,0.6320754716981132,0.465366854797332,0.5026670053340107,0.42105263157894735,0.5317185697808535,0.6194837635303914,1195.0
680.0,1.710301111190915e+18,0.4584048027444254,0.49461262185736277,0.4559309118618237,0.4674922600619195,0.5132641291810842,0.6178184845961698,1195.0
681.0,1.7103011112009155e+18,0.6445111492281304,0.4663930220625962,0.5016510033020066,0.39215686274509803,0.52479815455594,0.6194837635303914,1196.0
682.0,1.7103011112109138e+18,0.4506861063464837,0.4879425346331452,0.4589789179578359,0.4891640866873065,0.5086505190311419,0.6211490424646128,1195.0
683.0,1.7103011112209144e+18,0.6393653516295026,0.46100564391995896,0.5034290068580137,0.46233230134158926,0.5351787773933102,0.6178184845961698,1196.0
684.0,1.7103011112309156e+18,0.4554030874785592,0.48691636736788096,0.461010922021844,0.47471620227038186,0.4925028835063437,0.6236469608659451,1198.0
685.0,1.7103011112409165e+18,0.630360205831904,0.4604925602873268,0.5031750063500127,0.4282765737874097,0.538638985005767,0.6169858451290591,1195.0
686.0,1.710301111250915e+18,0.46569468267581476,0.4835813237557722,0.4632969265938532,0.41589267285861714,0.5017301038062284,0.6153205661948377,1197.0
687.0,1.7103011112609172e+18,0.6372212692967409,0.4694715238583889,0.5019050038100076,0.38596491228070173,0.5340253748558247,0.6228143213988343,1197.0
688.0,1.7103011112709158e+18,0.4562607204116638,0.4897383273473576,0.46609093218186437,0.4840041279669763,0.4994232987312572,0.6153205661948377,1196.0
689.0,1.7103011112809162e+18,0.6410806174957119,0.4638276038994356,0.5095250190500381,0.42208462332301344,0.5294117647058824,0.6194837635303914,1195.0
690.0,1.7103011112909166e+18,0.4554030874785592,0.4866598255515649,0.46609093218186437,0.49742002063983487,0.5040369088811996,0.6178184845961698,1193.0
691.0,1.7103011113009188e+18,0.6483704974271012,0.46126218573627503,0.5031750063500127,0.40763673890608876,0.5259515570934256,0.6153205661948377,1197.0
692.0,1.7103011113109166e+18,0.4318181818181818,0.4899948691636737,0.4630429260858522,0.4716202270381837,0.5063437139561707,0.6194837635303914,1196.0
693.0,1.710301111320919e+18,0.6457975986277873,0.4661364802462801,0.5133350266700534,0.3735810113519092,0.5224913494809689,0.6136552872606161,1198.0
694.0,1.7103011113309184e+18,0.4485420240137221,0.4917906618778861,0.4650749301498603,0.4850361197110423,0.510957324106113,0.6219816819317235,1193.0
695.0,1.7103011113409467e+18,0.6312178387650086,0.46562339661364804,0.5052070104140208,0.4055727554179567,0.5294117647058824,0.6194837635303914,1197.0
696.0,1.710301111350921e+18,0.4571183533447684,0.49384299640841456,0.46609093218186437,0.47987616099071206,0.5040369088811996,0.6194837635303914,1196.0
697.0,1.710301111360929e+18,0.6500857632933105,0.4617752693689071,0.5003810007620015,0.39215686274509803,0.538638985005767,0.6194837635303914,1196.0
698.0,1.7103011113709222e+18,0.45197255574614065,0.4879425346331452,0.4594869189738379,0.4716202270381837,0.5086505190311419,0.6161532056619484,1196.0
699.0,1.710301111380923e+18,0.6445111492281304,0.46100564391995896,0.5052070104140208,0.37048503611971106,0.5259515570934256,0.6211490424646128,1196.0
700.0,1.7103011113909248e+18,0.4554030874785592,0.49512570548999485,0.459740919481839,0.5087719298245614,0.5074971164936563,0.6211490424646128,1195.0
701.0,1.7103011114009216e+18,0.6363636363636364,0.46100564391995896,0.5003810007620015,0.4293085655314757,0.52479815455594,0.6203164029975021,1195.0
702.0,1.7103011114109256e+18,0.45583190394511147,0.48383786557208824,0.4615189230378461,0.48813209494324045,0.5132641291810842,0.6169858451290591,1196.0
703.0,1.710301111420929e+18,0.6346483704974271,0.45920985120574653,0.5054610109220219,0.42105263157894735,0.5340253748558247,0.6169858451290591,1195.0
704.0,1.7103011114309235e+18,0.4588336192109777,0.4884556182657773,0.4569469138938278,0.5025799793601651,0.5040369088811996,0.6153205661948377,1194.0
705.0,1.7103011114409137e+18,0.6269296740994854,0.46357106208311954,0.5062230124460249,0.41382868937048506,0.5282583621683967,0.6153205661948377,1196.0
706.0,1.7103011114509274e+18,0.44596912521440824,0.48589020010261674,0.4638049276098552,0.4458204334365325,0.5051903114186851,0.6211490424646128,1193.0
707.0,1.7103011114609252e+18,0.6445111492281304,0.4584402257567984,0.5003810007620015,0.42208462332301344,0.5259515570934256,0.6161532056619484,1198.0
708.0,1.7103011114709123e+18,0.45583190394511147,0.4910210364289379,0.4635509271018542,0.5046439628482973,0.5040369088811996,0.6119900083263947,1193.0
709.0,1.7103011114809257e+18,0.6487993138936535,0.46151872755259105,0.5036830073660147,0.4066047471620227,0.5236447520184544,0.6153205661948377,1195.0
710.0,1.7103011114909274e+18,0.45411663807890223,0.4910210364289379,0.4594869189738379,0.4953560371517028,0.4994232987312572,0.6178184845961698,1195.0
711.0,1.7103011115009277e+18,0.6453687821612349,0.4633145202668035,0.5044450088900178,0.4200206398348813,0.5224913494809689,0.6194837635303914,1195.0
712.0,1.710301111510928e+18,0.4506861063464837,0.49461262185736277,0.46405892811785626,0.478844169246646,0.5098039215686274,0.6169858451290591,1197.0
713.0,1.710301111520913e+18,0.6470840480274442,0.469728065674705,0.5074930149860299,0.43343653250773995,0.532871972318339,0.6211490424646128,1198.0
714.0,1.7103011115309286e+18,0.4472555746140652,0.4910210364289379,0.4653289306578613,0.49122807017543857,0.5132641291810842,0.6194837635303914,1193.0
715.0,1.710301111540913e+18,0.6372212692967409,0.4661364802462801,0.508255016510033,0.4458204334365325,0.5294117647058824,0.6178184845961698,1197.0
716.0,1.7103011115509166e+18,0.4554030874785592,0.4897383273473576,0.4592329184658369,0.5056759545923633,0.5317185697808535,0.6203164029975021,1198.0
717.0,1.7103011115609185e+18,0.6415094339622641,0.45920985120574653,0.5034290068580137,0.39628482972136225,0.4809688581314879,0.6169858451290591,1198.0
718.0,1.7103011115709158e+18,0.4472555746140652,0.4866598255515649,0.4650749301498603,0.4674922600619195,0.5017301038062284,0.6153205661948377,1196.0
719.0,1.7103011115809157e+18,0.6453687821612349,0.46459722934838377,0.5044450088900178,0.43343653250773995,0.5294117647058824,0.6169858451290591,1196.0
720.0,1.7103011115909156e+18,0.4403945111492281,0.49025141097998975,0.460756921513843,0.5056759545923633,0.5098039215686274,0.6194837635303914,1196.0
721.0,1.7103011116009132e+18,0.6346483704974271,0.4671626475115444,0.5067310134620269,0.39628482972136225,0.532871972318339,0.6178184845961698,1196.0
722.0,1.710301111610913e+18,0.44554030874785594,0.4856336582863007,0.4632969265938532,0.5025799793601651,0.5305651672433679,0.6236469608659451,1196.0
723.0,1.710301111620913e+18,0.6475128644939966,0.45920985120574653,0.507239014478029,0.4458204334365325,0.5340253748558247,0.6203164029975021,1196.0
724.0,1.7103011116309166e+18,0.451114922813036,0.4876859928168291,0.4648209296418593,0.4695562435500516,0.4913494809688581,0.6136552872606161,1195.0
725.0,1.7103011116409175e+18,0.6406518010291595,0.46228835300153925,0.507747015494031,0.40970072239422084,0.532871972318339,0.6211490424646128,1195.0
726.0,1.7103011116509627e+18,0.45368782161234994,0.4923037455105182,0.461010922021844,0.46852425180598556,0.5051903114186851,0.6194837635303914,1195.0
727.0,1.710301111660915e+18,0.6466552315608919,0.46434068753206775,0.5064770129540259,0.41898864809081526,0.5340253748558247,0.6194837635303914,1197.0
728.0,1.7103011116709197e+18,0.4485420240137221,0.4930733709594664,0.4592329184658369,0.45614035087719296,0.5074971164936563,0.6169858451290591,1194.0
729.0,1.7103011116809152e+18,0.6389365351629502,0.4581836839404823,0.5052070104140208,0.4324045407636739,0.5617070357554786,0.6211490424646128,1196.0
730.0,1.7103011116909176e+18,0.44382504288164665,0.48896870189840946,0.4645669291338583,0.49638802889576883,0.5086505190311419,0.6203164029975021,1196.0
731.0,1.7103011117009137e+18,0.6410806174957119,0.46151872755259105,0.5036830073660147,0.4055727554179567,0.52479815455594,0.6194837635303914,1196.0
732.0,1.7103011117109245e+18,0.45154373927958835,0.49256028732683427,0.4635509271018542,0.5098039215686274,0.5155709342560554,0.6153205661948377,1197.0
733.0,1.710301111720935e+18,0.6325042881646655,0.45792714212416624,0.5049530099060198,0.41382868937048506,0.5363321799307958,0.6194837635303914,1197.0
734.0,1.7103011117309153e+18,0.45240137221269294,0.48486403283735247,0.460756921513843,0.47987616099071206,0.510957324106113,0.6186511240632806,1193.0
735.0,1.7103011117409144e+18,0.6457975986277873,0.4604925602873268,0.5021590043180086,0.42105263157894735,0.5294117647058824,0.6153205661948377,1196.0
736.0,1.7103011117509156e+18,0.4528301886792453,0.4917906618778861,0.460502921005842,0.5025799793601651,0.5144175317185697,0.6228143213988343,1196.0
737.0,1.7103011117609134e+18,0.6427958833619211,0.4594663930220626,0.5062230124460249,0.4117647058823529,0.5236447520184544,0.6161532056619484,1197.0
738.0,1.7103011117709164e+18,0.45926243567753,0.4899948691636737,0.4579629159258318,0.4695562435500516,0.5028835063437139,0.6161532056619484,1195.0
739.0,1.7103011117809137e+18,0.6320754716981132,0.46459722934838377,0.5021590043180086,0.4231166150670795,0.5305651672433679,0.6219816819317235,1198.0
740.0,1.7103011117909174e+18,0.4528301886792453,0.4856336582863007,0.46583693167386336,0.5459236326109391,0.5017301038062284,0.6161532056619484,1195.0
741.0,1.7103011118009144e+18,0.644082332761578,0.4661364802462801,0.5095250190500381,0.4262125902992776,0.538638985005767,0.6194837635303914,1197.0
742.0,1.710301111810916e+18,0.4322469982847341,0.49384299640841456,0.46253492506985017,0.4664602683178535,0.5086505190311419,0.6178184845961698,1196.0
743.0,1.7103011118209152e+18,0.6483704974271012,0.46357106208311954,0.5052070104140208,0.37564499484004127,0.5340253748558247,0.6211490424646128,1195.0
744.0,1.7103011118309148e+18,0.43825042881646653,0.4905079527963058,0.4620269240538481,0.4871001031991744,0.5074971164936563,0.6144879267277269,1197.0
745.0,1.7103011118409157e+18,0.6376500857632933,0.4628014366341714,0.5097790195580392,0.4169246646026832,0.5294117647058824,0.6136552872606161,1198.0
746.0,1.710301111850913e+18,0.4554030874785592,0.49281682914315034,0.4627889255778512,0.49122807017543857,0.5040369088811996,0.6203164029975021,1196.0
747.0,1.7103011118609137e+18,0.6397941680960549,0.4620318111852232,0.5034290068580137,0.4024767801857585,0.5363321799307958,0.6194837635303914,1195.0
748.0,1.7103011118709143e+18,0.436106346483705,0.49076449461262184,0.4592329184658369,0.5036119711042312,0.4936562860438293,0.6203164029975021,1194.0
749.0,1.7103011118809144e+18,0.6406518010291595,0.4617752693689071,0.5044450088900178,0.4086687306501548,0.5236447520184544,0.6194837635303914,1196.0
750.0,1.7103011118909133e+18,0.4262435677530017,0.49384299640841456,0.459740919481839,0.43343653250773995,0.5063437139561707,0.6178184845961698,1194.0
751.0,1.7103011119009147e+18,0.6393653516295026,0.46023601847101075,0.507239014478029,0.4169246646026832,0.532871972318339,0.6194837635303914,1197.0
752.0,1.7103011119109135e+18,0.44982847341337906,0.49281682914315034,0.4584709169418339,0.4499484004127967,0.5028835063437139,0.6169858451290591,1192.0
753.0,1.7103011119209155e+18,0.6462264150943396,0.4576706003078502,0.508255016510033,0.42105263157894735,0.5236447520184544,0.6194837635303914,1198.0
754.0,1.7103011119309143e+18,0.45197255574614065,0.49512570548999485,0.45999491998984,0.48606811145510836,0.5028835063437139,0.6161532056619484,1194.0
755.0,1.7103011119409119e+18,0.644082332761578,0.4628014366341714,0.5052070104140208,0.39628482972136225,0.5317185697808535,0.6194837635303914,1196.0
756.0,1.7103011119509174e+18,0.434819897084048,0.49204720369420213,0.4541529083058166,0.49742002063983487,0.5063437139561707,0.6144879267277269,1195.0
757.0,1.710301111960913e+18,0.6548027444253859,0.45664443304258595,0.5054610109220219,0.3632610939112487,0.5259515570934256,0.6144879267277269,1197.0
758.0,1.7103011119709156e+18,0.4399656946826758,0.4966649563878912,0.4620269240538481,0.4695562435500516,0.49019607843137253,0.6136552872606161,1194.0
759.0,1.7103011119809167e+18,0.6355060034305318,0.45895330938943046,0.508255016510033,0.4117647058823529,0.538638985005767,0.6169858451290591,1194.0
760.0,1.710301111990915e+18,0.43524871355060035,0.4933299127757825,0.4566929133858268,0.4850361197110423,0.4844290657439446,0.6119900083263947,1191.0
761.0,1.710301112000913e+18,0.6629502572898799,0.46228835300153925,0.5113030226060452,0.4004127966976264,0.5282583621683967,0.6211490424646128,1195.0
762.0,1.7103011120109138e+18,0.4502572898799314,0.4917906618778861,0.460756921513843,0.4840041279669763,0.5028835063437139,0.6161532056619484,1196.0
763.0,1.7103011120209116e+18,0.6393653516295026,0.4604925602873268,0.509271018542037,0.40970072239422084,0.5340253748558247,0.6178184845961698,1195.0
764.0,1.710301112030923e+18,0.43782161234991424,0.4897383273473576,0.4584709169418339,0.4850361197110423,0.49480968858131485,0.6169858451290591,1196.0
765.0,1.7103011120409165e+18,0.6565180102915952,0.4617752693689071,0.508255016510033,0.41898864809081526,0.5536332179930796,0.6178184845961698,1195.0
766.0,1.7103011120509107e+18,0.4180960548885077,0.491277578245254,0.4574549149098298,0.5077399380804953,0.49596309111880044,0.6144879267277269,1196.0
767.0,1.7103011120609124e+18,0.6638078902229846,0.46357106208311954,0.5052070104140208,0.39215686274509803,0.5178777393310265,0.6194837635303914,1196.0
768.0,1.7103011120709123e+18,0.43353344768439106,0.4892252437147255,0.4587249174498349,0.49226006191950467,0.510957324106113,0.6169858451290591,1195.0
769.0,1.7103011120809108e+18,0.6492281303602059,0.45997947665469474,0.5074930149860299,0.41279669762641896,0.5294117647058824,0.6169858451290591,1195.0
770.0,1.710301112090914e+18,0.43567753001715265,0.4897383273473576,0.4551689103378207,0.5015479876160991,0.5086505190311419,0.6161532056619484,1195.0
771.0,1.7103011121009119e+18,0.6728130360205832,0.4617752693689071,0.5067310134620269,0.4262125902992776,0.5294117647058824,0.6144879267277269,1197.0
772.0,1.710301112110915e+18,0.43310463121783876,0.4917906618778861,0.45339090678181354,0.46439628482972134,0.5167243367935409,0.6169858451290591,1194.0
773.0,1.7103011121209162e+18,0.6543739279588336,0.46126218573627503,0.509271018542037,0.4282765737874097,0.5305651672433679,0.6194837635303914,1196.0
774.0,1.710301112130915e+18,0.43524871355060035,0.49589533093894306,0.46431292862585727,0.47471620227038186,0.49480968858131485,0.6203164029975021,1192.0
775.0,1.7103011121409137e+18,0.6475128644939966,0.4640841457157517,0.5036830073660147,0.40763673890608876,0.5340253748558247,0.6136552872606161,1194.0
776.0,1.710301112150917e+18,0.43825042881646653,0.4923037455105182,0.45466090932181863,0.49226006191950467,0.4982698961937716,0.6144879267277269,1194.0
777.0,1.7103011121609126e+18,0.6586620926243568,0.4561313494099538,0.507239014478029,0.4086687306501548,0.544405997693195,0.6194837635303914,1195.0
778.0,1.7103011121709156e+18,0.4369639794168096,0.49076449461262184,0.45161290322580644,0.5118679050567595,0.5236447520184544,0.6153205661948377,1194.0
779.0,1.710301112180914e+18,0.6539451114922813,0.46100564391995896,0.5046990093980188,0.39215686274509803,0.532871972318339,0.6211490424646128,1196.0
780.0,1.7103011121909133e+18,0.44168096054888506,0.4974345818368394,0.47167894335788674,0.5128998968008256,0.5098039215686274,0.6194837635303914,1197.0
781.0,1.7103011122009172e+18,0.6595197255574614,0.45997947665469474,0.5085090170180341,0.4024767801857585,0.5167243367935409,0.6169858451290591,1196.0
782.0,1.7103011122109181e+18,0.43353344768439106,0.49281682914315034,0.4632969265938532,0.49226006191950467,0.48788927335640137,0.6203164029975021,1193.0
783.0,1.7103011122209134e+18,0.6586620926243568,0.46357106208311954,0.5085090170180341,0.41279669762641896,0.538638985005767,0.6203164029975021,1196.0
784.0,1.7103011122309187e+18,0.43010291595197253,0.49512570548999485,0.4536449072898146,0.5108359133126935,0.5028835063437139,0.6144879267277269,1197.0
785.0,1.7103011122409124e+18,0.660377358490566,0.45587480759363774,0.508255016510033,0.4293085655314757,0.48788927335640137,0.6153205661948377,1195.0
786.0,1.710301112250913e+18,0.436106346483705,0.491277578245254,0.4612649225298451,0.49948400412796695,0.5063437139561707,0.6194837635303914,1196.0
787.0,1.7103011122609134e+18,0.6616638078902229,0.4617752693689071,0.5100330200660401,0.42208462332301344,0.5305651672433679,0.6203164029975021,1197.0
788.0,1.710301112270913e+18,0.4318181818181818,0.49640841457157514,0.45999491998984,0.49122807017543857,0.5040369088811996,0.6161532056619484,1195.0
789.0,1.710301112280913e+18,0.6492281303602059,0.45715751667521803,0.5113030226060452,0.41898864809081526,0.532871972318339,0.6169858451290591,1194.0
790.0,1.7103011122909138e+18,0.43138936535162953,0.49923037455105185,0.4544069088138176,0.5077399380804953,0.4982698961937716,0.6178184845961698,1195.0
791.0,1.7103011123009137e+18,0.6565180102915952,0.4468958440225757,0.5097790195580392,0.4055727554179567,0.5317185697808535,0.6203164029975021,1196.0
792.0,1.7103011123109115e+18,0.43825042881646653,0.49486916367367884,0.4587249174498349,0.5242518059855521,0.4994232987312572,0.6144879267277269,1195.0
793.0,1.7103011123209106e+18,0.6509433962264151,0.4551051821446896,0.5133350266700534,0.43343653250773995,0.5432525951557093,0.6228143213988343,1197.0
794.0,1.7103011123309443e+18,0.43010291595197253,0.5015392508978963,0.4569469138938278,0.43137254901960786,0.49480968858131485,0.6211490424646128,1193.0
795.0,1.7103011123409134e+18,0.6663807890222985,0.4543355566957414,0.509271018542037,0.39628482972136225,0.5213379469434832,0.6194837635303914,1196.0
796.0,1.710301112350916e+18,0.4343910806174957,0.49717804002052335,0.4622809245618491,0.48297213622291024,0.5074971164936563,0.6136552872606161,1195.0
797.0,1.7103011123609144e+18,0.6616638078902229,0.4586967675731144,0.5110490220980441,0.4024767801857585,0.5363321799307958,0.6219816819317235,1195.0
798.0,1.710301112370916e+18,0.41680960548885077,0.4930733709594664,0.4577089154178308,0.49122807017543857,0.5051903114186851,0.6161532056619484,1197.0
799.0,1.7103011123809162e+18,0.6586620926243568,0.4574140584915341,0.5115570231140463,0.41898864809081526,0.5374855824682814,0.6211490424646128,1196.0
800.0,1.7103011123909146e+18,0.41895368782161235,0.49717804002052335,0.4587249174498349,0.5366357069143447,0.5155709342560554,0.6211490424646128,1197.0
801.0,1.7103011124009121e+18,0.6633790737564322,0.45715751667521803,0.5133350266700534,0.3931888544891641,0.5317185697808535,0.6236469608659451,1193.0
802.0,1.7103011124109243e+18,0.419811320754717,0.49281682914315034,0.4554229108458217,0.4953560371517028,0.5040369088811996,0.6161532056619484,1197.0
803.0,1.7103011124209134e+18,0.6526586620926244,0.452796305797845,0.5123190246380492,0.41279669762641896,0.5236447520184544,0.6211490424646128,1195.0
804.0,1.710301112430916e+18,0.419811320754717,0.49461262185736277,0.45491490982981964,0.5098039215686274,0.5144175317185697,0.6144879267277269,1196.0
805.0,1.7103011124409134e+18,0.6646655231560892,0.45407901487942537,0.5130810261620523,0.4148606811145511,0.5294117647058824,0.6203164029975021,1196.0
806.0,1.7103011124509146e+18,0.4288164665523156,0.49923037455105185,0.4551689103378207,0.5098039215686274,0.5063437139561707,0.6144879267277269,1196.0
807.0,1.7103011124609457e+18,0.6818181818181818,0.456900974858902,0.508255016510033,0.3849329205366357,0.5201845444059977,0.6194837635303914,1196.0
808.0,1.7103011124709363e+18,0.41938250428816465,0.49512570548999485,0.4584709169418339,0.49122807017543857,0.4982698961937716,0.6128226477935054,1197.0
809.0,1.7103011124809137e+18,0.6556603773584906,0.45459209851205745,0.5133350266700534,0.391124871001032,0.5213379469434832,0.6194837635303914,1197.0
810.0,1.7103011124909176e+18,0.42538593481989706,0.4979476654694715,0.4556769113538227,0.49742002063983487,0.5051903114186851,0.6144879267277269,1197.0
811.0,1.7103011125009137e+18,0.6680960548885078,0.45561826577732173,0.5118110236220472,0.42208462332301344,0.5282583621683967,0.6244796003330558,1196.0
812.0,1.7103011125109194e+18,0.42109777015437394,0.49512570548999485,0.45339090678181354,0.49948400412796695,0.497116493656286,0.6119900083263947,1193.0
813.0,1.7103011125209144e+18,0.6788164665523156,0.4551051821446896,0.5140970281940563,0.4004127966976264,0.5294117647058824,0.6228143213988343,1197.0
814.0,1.7103011125309174e+18,0.41852487135506006,0.4979476654694715,0.4582169164338329,0.5025799793601651,0.5017301038062284,0.6119900083263947,1192.0
815.0,1.7103011125409155e+18,0.6775300171526587,0.4538224730631093,0.5173990347980696,0.42208462332301344,0.5536332179930796,0.6261448792672772,1197.0
816.0,1.710301112550915e+18,0.40866209262435677,0.4933299127757825,0.4523749047498095,0.4953560371517028,0.4982698961937716,0.6194837635303914,1195.0
817.0,1.7103011125609134e+18,0.6732418524871355,0.4551051821446896,0.5140970281940563,0.39215686274509803,0.5271049596309112,0.6228143213988343,1196.0
818.0,1.7103011125709138e+18,0.41938250428816465,0.5002565418163161,0.4523749047498095,0.478844169246646,0.5017301038062284,0.6094920899250624,1193.0
819.0,1.7103011125809142e+18,0.6758147512864494,0.45536172396100566,0.5130810261620523,0.35190918472652216,0.5271049596309112,0.6261448792672772,1194.0
820.0,1.7103011125909156e+18,0.4142367066895369,0.5010261672652643,0.4523749047498095,0.49948400412796695,0.49596309111880044,0.611157368859284,1192.0
821.0,1.710301112600914e+18,0.6861063464837049,0.46100564391995896,0.5123190246380492,0.3715170278637771,0.5236447520184544,0.6261448792672772,1197.0
822.0,1.7103011126109166e+18,0.4202401372212693,0.4976911236531555,0.4554229108458217,0.5087719298245614,0.5005767012687428,0.6119900083263947,1193.0
823.0,1.7103011126209234e+18,0.6852487135506004,0.4543355566957414,0.5130810261620523,0.4004127966976264,0.5317185697808535,0.6228143213988343,1196.0
824.0,1.7103011126309184e+18,0.4219554030874786,0.5010261672652643,0.4526289052578105,0.4932920536635707,0.5017301038062284,0.607826810990841,1194.0
825.0,1.7103011126409155e+18,0.6839622641509434,0.452796305797845,0.5143510287020574,0.40763673890608876,0.5363321799307958,0.6261448792672772,1197.0
826.0,1.710301112650918e+18,0.41080617495711835,0.49846074910210364,0.4574549149098298,0.5335397316821465,0.5121107266435986,0.6103247293921732,1193.0
827.0,1.7103011126609137e+18,0.6852487135506004,0.4551051821446896,0.5161290322580645,0.4024767801857585,0.5363321799307958,0.6294754371357202,1197.0
828.0,1.710301112670917e+18,0.40694682675814753,0.5051308363263212,0.4556769113538227,0.5077399380804953,0.5017301038062284,0.611157368859284,1193.0
829.0,1.7103011126809142e+18,0.6775300171526587,0.452796305797845,0.5156210312420625,0.40454076367389064,0.5513264129181085,0.6228143213988343,1196.0
830.0,1.7103011126909176e+18,0.42152658662092624,0.5005130836326321,0.44856489712979425,0.49742002063983487,0.497116493656286,0.6153205661948377,1193.0
831.0,1.7103011127009134e+18,0.6779588336192109,0.45202668034889687,0.5102870205740412,0.4024767801857585,0.5363321799307958,0.626977518734388,1196.0
832.0,1.7103011127109164e+18,0.4125214408233276,0.5023088763468445,0.45008890017780034,0.49432404540763675,0.48904267589388695,0.611157368859284,1195.0
833.0,1.7103011127209165e+18,0.6822469982847341,0.45330938943047716,0.5133350266700534,0.40763673890608876,0.5271049596309112,0.6219816819317235,1197.0
834.0,1.710301112730917e+18,0.4228130360205832,0.5007696254489482,0.44983489966979934,0.478844169246646,0.49596309111880044,0.6086594504579517,1189.0
835.0,1.710301112740918e+18,0.6659519725557461,0.45330938943047716,0.507239014478029,0.32610939112487103,0.4994232987312572,0.6228143213988343,1197.0
836.0,1.7103011127509174e+18,0.4065180102915952,0.49640841457157514,0.4508509017018034,0.4932920536635707,0.5074971164936563,0.6103247293921732,1192.0
837.0,1.7103011127609162e+18,0.6835334476843911,0.4574140584915341,0.5133350266700534,0.4107327141382869,0.5305651672433679,0.6253122398001665,1196.0
838.0,1.7103011127709166e+18,0.4155231560891938,0.49717804002052335,0.4551689103378207,0.49226006191950467,0.5063437139561707,0.607826810990841,1194.0
839.0,1.710301112780916e+18,0.6891080617495712,0.4538224730631093,0.5102870205740412,0.42105263157894735,0.5374855824682814,0.6261448792672772,1194.0
840.0,1.7103011127909176e+18,0.4018010291595197,0.5002565418163161,0.4490728981457963,0.5077399380804953,0.5028835063437139,0.6103247293921732,1196.0
841.0,1.7103011128009165e+18,0.6886792452830188,0.45536172396100566,0.5151130302260605,0.40763673890608876,0.5317185697808535,0.6278101582014988,1198.0
842.0,1.7103011128109169e+18,0.41037735849056606,0.4974345818368394,0.45643891287782573,0.4984520123839009,0.5086505190311419,0.6119900083263947,1192.0
843.0,1.7103011128209178e+18,0.6921097770154374,0.4530528476141611,0.5133350266700534,0.40144478844169246,0.5294117647058824,0.6203164029975021,1197.0
844.0,1.7103011128309192e+18,0.40694682675814753,0.5,0.45643891287782573,0.49742002063983487,0.5017301038062284,0.6086594504579517,1193.0
845.0,1.7103011128409193e+18,0.6736706689536878,0.45407901487942537,0.5148590297180594,0.42518059855521156,0.544405997693195,0.6253122398001665,1197.0
846.0,1.7103011128509194e+18,0.4039451114922813,0.49846074910210364,0.4556769113538227,0.4871001031991744,0.4994232987312572,0.6086594504579517,1195.0
847.0,1.7103011128609206e+18,0.6972555746140652,0.4551051821446896,0.5118110236220472,0.4004127966976264,0.5294117647058824,0.6278101582014988,1195.0
848.0,1.7103011128709202e+18,0.40008576329331047,0.49948691636736786,0.459740919481839,0.49019607843137253,0.49019607843137253,0.6061615320566195,1194.0
849.0,1.7103011128809206e+18,0.6903945111492281,0.4507439712673166,0.5097790195580392,0.40350877192982454,0.52479815455594,0.6253122398001665,1197.0
850.0,1.7103011128909212e+18,0.40480274442538594,0.5002565418163161,0.45034290068580135,0.4809081527347781,0.5005767012687428,0.611157368859284,1193.0
851.0,1.7103011129009219e+18,0.6813893653516295,0.4543355566957414,0.5148590297180594,0.4107327141382869,0.544405997693195,0.6261448792672772,1198.0
852.0,1.7103011129109222e+18,0.4138078902229846,0.5025654181631606,0.45135890271780543,0.4809081527347781,0.4855824682814302,0.607826810990841,1192.0
853.0,1.710301112920923e+18,0.6813893653516295,0.45356593124679323,0.5113030226060452,0.3828689370485036,0.5282583621683967,0.6261448792672772,1197.0
854.0,1.7103011129309228e+18,0.39408233276157806,0.49640841457157514,0.4511049022098044,0.49948400412796695,0.5040369088811996,0.611157368859284,1193.0
855.0,1.7103011129409247e+18,0.6886792452830188,0.4551051821446896,0.5113030226060452,0.4066047471620227,0.5432525951557093,0.6328059950041632,1196.0
856.0,1.7103011129509248e+18,0.3996569468267582,0.49923037455105185,0.4523749047498095,0.49122807017543857,0.5294117647058824,0.607826810990841,1194.0
857.0,1.7103011129609236e+18,0.6878216123499142,0.4574140584915341,0.5214630429260858,0.41898864809081526,0.5155709342560554,0.626977518734388,1195.0
858.0,1.7103011129709253e+18,0.4095197255574614,0.4987172909184197,0.4538989077978156,0.46852425180598556,0.497116493656286,0.6061615320566195,1193.0
859.0,1.7103011129809242e+18,0.6826758147512865,0.45561826577732173,0.5125730251460503,0.41382868937048506,0.5340253748558247,0.6278101582014988,1196.0
860.0,1.710301112990908e+18,0.4056603773584906,0.5005130836326321,0.4556769113538227,0.47471620227038186,0.4982698961937716,0.611157368859284,1193.0
861.0,1.7103011130009073e+18,0.6921097770154374,0.45536172396100566,0.5133350266700534,0.43343653250773995,0.5351787773933102,0.626977518734388,1198.0
862.0,1.710301113010926e+18,0.38379073756432247,0.5005130836326321,0.44831089662179324,0.49226006191950467,0.5028835063437139,0.6094920899250624,1194.0
863.0,1.710301113020907e+18,0.6946826758147513,0.4563878912262699,0.5120650241300483,0.43034055727554177,0.532871972318339,0.6253122398001665,1197.0
864.0,1.7103011130309284e+18,0.4039451114922813,0.49717804002052335,0.4528829057658115,0.46542827657378744,0.5040369088811996,0.6086594504579517,1193.0
865.0,1.7103011130409085e+18,0.6775300171526587,0.4581836839404823,0.5107950215900432,0.41279669762641896,0.5294117647058824,0.6294754371357202,1195.0
866.0,1.7103011130509294e+18,0.41080617495711835,0.5012827090815803,0.44805689611379224,0.49638802889576883,0.5155709342560554,0.6119900083263947,1193.0
867.0,1.7103011130609119e+18,0.6865351629502573,0.45715751667521803,0.5275590551181102,0.45923632610939114,0.5340253748558247,0.626977518734388,1197.0
868.0,1.7103011130709133e+18,0.4078044596912521,0.4974345818368394,0.45313690627381253,0.5325077399380805,0.5063437139561707,0.6094920899250624,1193.0
869.0,1.7103011130809124e+18,0.6783876500857633,0.45587480759363774,0.5140970281940563,0.4086687306501548,0.5213379469434832,0.6236469608659451,1196.0
870.0,1.7103011130909322e+18,0.4125214408233276,0.4969214982042073,0.4508509017018034,0.4664602683178535,0.5132641291810842,0.6069941715237303,1194.0
871.0,1.7103011131009052e+18,0.6903945111492281,0.4576706003078502,0.5133350266700534,0.4148606811145511,0.5236447520184544,0.626977518734388,1196.0
872.0,1.7103011131109345e+18,0.3992281303602058,0.4979476654694715,0.4523749047498095,0.49742002063983487,0.4982698961937716,0.611157368859284,1193.0
873.0,1.710301113120915e+18,0.6732418524871355,0.4530528476141611,0.5148590297180594,0.42208462332301344,0.5501730103806228,0.6294754371357202,1195.0
874.0,1.710301113130915e+18,0.4090909090909091,0.4953822473063109,0.45186690373380745,0.46852425180598556,0.5017301038062284,0.6053288925895087,1192.0
875.0,1.710301113140913e+18,0.6852487135506004,0.45920985120574653,0.5110490220980441,0.43859649122807015,0.5294117647058824,0.6286427976686095,1197.0
876.0,1.7103011131509135e+18,0.3983704974271012,0.4923037455105182,0.4508509017018034,0.4850361197110423,0.4994232987312572,0.6069941715237303,1192.0
877.0,1.7103011131609134e+18,0.6921097770154374,0.46151872755259105,0.5140970281940563,0.37770897832817335,0.5224913494809689,0.6278101582014988,1196.0
878.0,1.7103011131709153e+18,0.39879931389365353,0.49486916367367884,0.45008890017780034,0.47987616099071206,0.5051903114186851,0.6128226477935054,1196.0
879.0,1.710301113180918e+18,0.6882504288164666,0.4561313494099538,0.5118110236220472,0.3973168214654283,0.52479815455594,0.6253122398001665,1195.0
880.0,1.710301113190919e+18,0.40265866209262435,0.4979476654694715,0.45186690373380745,0.48813209494324045,0.5051903114186851,0.6094920899250624,1194.0
881.0,1.7103011132009162e+18,0.6650943396226415,0.4576706003078502,0.5173990347980696,0.4107327141382869,0.5340253748558247,0.6236469608659451,1195.0
882.0,1.7103011132109274e+18,0.40480274442538594,0.4974345818368394,0.45161290322580644,0.4437564499484004,0.5178777393310265,0.6061615320566195,1194.0
883.0,1.710301113220911e+18,0.6976843910806175,0.4543355566957414,0.5133350266700534,0.4179566563467492,0.52479815455594,0.6278101582014988,1196.0
884.0,1.7103011132309153e+18,0.4090909090909091,0.5007696254489482,0.4528829057658115,0.4953560371517028,0.5132641291810842,0.6061615320566195,1194.0
885.0,1.7103011132409126e+18,0.6783876500857633,0.4561313494099538,0.509271018542037,0.4107327141382869,0.5259515570934256,0.626977518734388,1196.0
886.0,1.710301113250915e+18,0.39408233276157806,0.49512570548999485,0.4536449072898146,0.47058823529411764,0.497116493656286,0.6128226477935054,1197.0
887.0,1.7103011132609132e+18,0.6921097770154374,0.4576706003078502,0.5095250190500381,0.41279669762641896,0.5317185697808535,0.6294754371357202,1196.0
888.0,1.7103011132709148e+18,0.395368782161235,0.49717804002052335,0.4523749047498095,0.5077399380804953,0.5017301038062284,0.6103247293921732,1193.0
889.0,1.7103011132809142e+18,0.6843910806174958,0.45792714212416624,0.5095250190500381,0.4200206398348813,0.5340253748558247,0.6319733555370525,1199.0
890.0,1.7103011132909158e+18,0.40265866209262435,0.49923037455105185,0.4544069088138176,0.5108359133126935,0.510957324106113,0.6086594504579517,1192.0
891.0,1.710301113300921e+18,0.6946826758147513,0.456900974858902,0.5123190246380492,0.43343653250773995,0.5397923875432526,0.6311407160699417,1197.0
892.0,1.7103011133109437e+18,0.40051457975986277,0.495638789122627,0.4528829057658115,0.47781217750258,0.5144175317185697,0.6094920899250624,1194.0
893.0,1.7103011133209193e+18,0.6925385934819898,0.4584402257567984,0.5115570231140463,0.4086687306501548,0.5340253748558247,0.6294754371357202,1197.0
894.0,1.710301113330917e+18,0.40051457975986277,0.49384299640841456,0.45161290322580644,0.47368421052631576,0.5074971164936563,0.6119900083263947,1192.0
895.0,1.710301113340918e+18,0.6826758147512865,0.4581836839404823,0.5133350266700534,0.3715170278637771,0.5155709342560554,0.6219816819317235,1195.0
896.0,1.71030111335092e+18,0.3996569468267582,0.49820420728578757,0.4541529083058166,0.49122807017543857,0.5028835063437139,0.6069941715237303,1193.0
897.0,1.7103011133609183e+18,0.6796740994854202,0.46023601847101075,0.5168910337820676,0.43034055727554177,0.5271049596309112,0.6261448792672772,1194.0
898.0,1.7103011133709176e+18,0.4056603773584906,0.49281682914315034,0.45339090678181354,0.4840041279669763,0.5028835063437139,0.6061615320566195,1195.0
899.0,1.7103011133809198e+18,0.676672384219554,0.46100564391995896,0.5110490220980441,0.42518059855521156,0.5363321799307958,0.6261448792672772,1197.0
900.0,1.710301113390917e+18,0.4060891938250429,0.49512570548999485,0.4508509017018034,0.47987616099071206,0.5178777393310265,0.6103247293921732,1193.0
901.0,1.7103011134009132e+18,0.6796740994854202,0.4594663930220626,0.5107950215900432,0.4231166150670795,0.5294117647058824,0.6294754371357202,1195.0
902.0,1.7103011134109181e+18,0.4159519725557461,0.4969214982042073,0.45161290322580644,0.4066047471620227,0.5005767012687428,0.6061615320566195,1193.0
903.0,1.7103011134209178e+18,0.676672384219554,0.45895330938943046,0.507239014478029,0.4602683178534572,0.5478662053056517,0.6311407160699417,1196.0
904.0,1.710301113430921e+18,0.4039451114922813,0.4966649563878912,0.4556769113538227,0.48606811145510836,0.49480968858131485,0.6069941715237303,1195.0
905.0,1.7103011134409152e+18,0.6869639794168096,0.46100564391995896,0.509271018542037,0.42518059855521156,0.5201845444059977,0.6286427976686095,1196.0
906.0,1.7103011134509156e+18,0.41080617495711835,0.4979476654694715,0.45339090678181354,0.4809081527347781,0.5017301038062284,0.6069941715237303,1193.0
907.0,1.7103011134609152e+18,0.6680960548885078,0.45536172396100566,0.508255016510033,0.42518059855521156,0.5259515570934256,0.6261448792672772,1196.0
908.0,1.7103011134709563e+18,0.41638078902229847,0.49820420728578757,0.4523749047498095,0.500515995872033,0.5144175317185697,0.6103247293921732,1192.0
909.0,1.710301113480933e+18,0.6723842195540308,0.4581836839404823,0.5095250190500381,0.4055727554179567,0.5294117647058824,0.6278101582014988,1196.0
910.0,1.710301113490918e+18,0.40523156089193824,0.49589533093894306,0.45034290068580135,0.49122807017543857,0.5121107266435986,0.607826810990841,1193.0
911.0,1.7103011135009073e+18,0.692967409948542,0.4625448948178553,0.509271018542037,0.40970072239422084,0.5155709342560554,0.626977518734388,1195.0
912.0,1.710301113510913e+18,0.41337907375643224,0.4933299127757825,0.4574549149098298,0.49019607843137253,0.5017301038062284,0.6028309741881765,1193.0
913.0,1.7103011135209075e+18,0.6629502572898799,0.4630579784504874,0.5113030226060452,0.41279669762641896,0.5213379469434832,0.6261448792672772,1197.0
914.0,1.7103011135309276e+18,0.40866209262435677,0.49486916367367884,0.4526289052578105,0.49432404540763675,0.5074971164936563,0.611157368859284,1192.0
915.0,1.7103011135409408e+18,0.6775300171526587,0.46023601847101075,0.5130810261620523,0.43550051599587203,0.5259515570934256,0.6261448792672772,1196.0
916.0,1.7103011135509169e+18,0.41037735849056606,0.49512570548999485,0.4505969011938024,0.47368421052631576,0.5051903114186851,0.6061615320566195,1192.0
917.0,1.710301113560966e+18,0.6788164665523156,0.4586967675731144,0.5105410210820421,0.41382868937048506,0.5340253748558247,0.626977518734388,1196.0
918.0,1.7103011135709076e+18,0.4073756432246998,0.49461262185736277,0.4521209042418085,0.49226006191950467,0.5144175317185697,0.607826810990841,1193.0
919.0,1.7103011135809106e+18,0.6783876500857633,0.45920985120574653,0.5128270256540514,0.38080495356037153,0.5294117647058824,0.6203164029975021,1196.0
920.0,1.7103011135909115e+18,0.40523156089193824,0.4989738327347358,0.4511049022098044,0.5015479876160991,0.5155709342560554,0.6086594504579517,1196.0
921.0,1.710301113600912e+18,0.6865351629502573,0.45920985120574653,0.5107950215900432,0.4066047471620227,0.5201845444059977,0.6294754371357202,1196.0
922.0,1.71030111361091e+18,0.4073756432246998,0.4969214982042073,0.45466090932181863,0.49019607843137253,0.497116493656286,0.6061615320566195,1193.0
923.0,1.7103011136209132e+18,0.6740994854202401,0.4617752693689071,0.5120650241300483,0.42518059855521156,0.5213379469434832,0.6294754371357202,1197.0
924.0,1.7103011136309117e+18,0.40008576329331047,0.49281682914315034,0.45186690373380745,0.49019607843137253,0.5167243367935409,0.607826810990841,1193.0
925.0,1.7103011136409178e+18,0.6775300171526587,0.46023601847101075,0.5118110236220472,0.4458204334365325,0.5317185697808535,0.6261448792672772,1197.0
926.0,1.7103011136509123e+18,0.41638078902229847,0.4969214982042073,0.44729489458978916,0.5077399380804953,0.5086505190311419,0.6094920899250624,1193.0
927.0,1.7103011136609126e+18,0.6805317324185248,0.4594663930220626,0.5110490220980441,0.42518059855521156,0.5351787773933102,0.6253122398001665,1196.0
928.0,1.7103011136709453e+18,0.40222984562607206,0.49923037455105185,0.4526289052578105,0.49948400412796695,0.5028835063437139,0.607826810990841,1194.0
929.0,1.710301113680931e+18,0.6771012006861064,0.4563878912262699,0.508763017526035,0.4086687306501548,0.5294117647058824,0.626977518734388,1196.0
930.0,1.71030111369092e+18,0.4176672384219554,0.49512570548999485,0.45186690373380745,0.47058823529411764,0.5017301038062284,0.611157368859284,1193.0
931.0,1.7103011137009183e+18,0.6783876500857633,0.4574140584915341,0.5125730251460503,0.40454076367389064,0.5294117647058824,0.6278101582014988,1197.0
932.0,1.7103011137109174e+18,0.3992281303602058,0.4979476654694715,0.4521209042418085,0.5407636738906089,0.5074971164936563,0.611157368859284,1192.0
933.0,1.7103011137209144e+18,0.6801029159519726,0.45920985120574653,0.5123190246380492,0.43962848297213625,0.52479815455594,0.6253122398001665,1197.0
934.0,1.7103011137309166e+18,0.4142367066895369,0.49948691636736786,0.4566929133858268,0.49948400412796695,0.5074971164936563,0.6103247293921732,1192.0
935.0,1.710301113740922e+18,0.6762435677530018,0.4574140584915341,0.5085090170180341,0.40454076367389064,0.5282583621683967,0.6244796003330558,1196.0
936.0,1.7103011137509184e+18,0.40265866209262435,0.49204720369420213,0.4559309118618237,0.4695562435500516,0.4925028835063437,0.6061615320566195,1193.0
937.0,1.7103011137609167e+18,0.6805317324185248,0.46126218573627503,0.5105410210820421,0.4179566563467492,0.46943483275663206,0.6178184845961698,1195.0
938.0,1.710301113770917e+18,0.40008576329331047,0.4969214982042073,0.4544069088138176,0.48297213622291024,0.4994232987312572,0.6061615320566195,1193.0
939.0,1.7103011137809165e+18,0.6801029159519726,0.4594663930220626,0.5133350266700534,0.4809081527347781,0.5305651672433679,0.6261448792672772,1195.0
940.0,1.710301113790921e+18,0.4073756432246998,0.49256028732683427,0.4523749047498095,0.5159958720330238,0.5074971164936563,0.6086594504579517,1189.0
941.0,1.7103011138009188e+18,0.6693825042881647,0.45895330938943046,0.5118110236220472,0.4086687306501548,0.5294117647058824,0.630308076602831,1195.0
942.0,1.7103011138109202e+18,0.40437392795883365,0.49409953822473063,0.45339090678181354,0.5098039215686274,0.5074971164936563,0.6036636136552873,1193.0
943.0,1.7103011138209203e+18,0.676672384219554,0.46228835300153925,0.508763017526035,0.41279669762641896,0.5305651672433679,0.6328059950041632,1194.0
944.0,1.7103011138309204e+18,0.4146655231560892,0.495638789122627,0.44958089916179833,0.4757481940144479,0.4982698961937716,0.6061615320566195,1193.0
945.0,1.7103011138409208e+18,0.6809605488850772,0.4574140584915341,0.5105410210820421,0.4148606811145511,0.5167243367935409,0.6194837635303914,1197.0
946.0,1.7103011138509207e+18,0.4099485420240137,0.4943560800410467,0.4538989077978156,0.4953560371517028,0.5455594002306805,0.6119900083263947,1192.0
947.0,1.7103011138609213e+18,0.6852487135506004,0.45895330938943046,0.507239014478029,0.4179566563467492,0.5305651672433679,0.6261448792672772,1194.0
948.0,1.7103011138709217e+18,0.39665523156089194,0.49640841457157514,0.45466090932181863,0.5294117647058824,0.52479815455594,0.607826810990841,1192.0
949.0,1.7103011138809213e+18,0.6771012006861064,0.45792714212416624,0.5118110236220472,0.43343653250773995,0.5294117647058824,0.6236469608659451,1197.0
950.0,1.7103011138909276e+18,0.40222984562607206,0.4979476654694715,0.4536449072898146,0.47781217750258,0.5051903114186851,0.6053288925895087,1193.0
951.0,1.7103011139009234e+18,0.6723842195540308,0.4584402257567984,0.5120650241300483,0.39215686274509803,0.5121107266435986,0.6236469608659451,1196.0
952.0,1.7103011139109235e+18,0.40222984562607206,0.4969214982042073,0.45161290322580644,0.49019607843137253,0.5074971164936563,0.6086594504579517,1192.0
953.0,1.7103011139209244e+18,0.6740994854202401,0.456900974858902,0.5120650241300483,0.40763673890608876,0.5397923875432526,0.6311407160699417,1195.0
954.0,1.7103011139309292e+18,0.4056603773584906,0.495638789122627,0.44983489966979934,0.5077399380804953,0.5063437139561707,0.6069941715237303,1190.0
955.0,1.710301113940927e+18,0.6925385934819898,0.46100564391995896,0.5125730251460503,0.3632610939112487,0.52479815455594,0.6294754371357202,1197.0
956.0,1.7103011139509258e+18,0.3915094339622642,0.4979476654694715,0.4526289052578105,0.49948400412796695,0.5086505190311419,0.6119900083263947,1194.0
957.0,1.7103011139609265e+18,0.6728130360205832,0.45895330938943046,0.508255016510033,0.4004127966976264,0.5317185697808535,0.626977518734388,1198.0
958.0,1.7103011139709258e+18,0.39708404802744424,0.4933299127757825,0.4544069088138176,0.4871001031991744,0.5121107266435986,0.6061615320566195,1193.0
959.0,1.7103011139809285e+18,0.6852487135506004,0.46023601847101075,0.5115570231140463,0.4148606811145511,0.5305651672433679,0.6294754371357202,1197.0
960.0,1.710301113990913e+18,0.40265866209262435,0.4953822473063109,0.46253492506985017,0.4953560371517028,0.4844290657439446,0.6094920899250624,1193.0
961.0,1.7103011140009313e+18,0.6831046312178388,0.46100564391995896,0.5156210312420625,0.40970072239422084,0.5167243367935409,0.6294754371357202,1195.0
962.0,1.7103011140109138e+18,0.41037735849056606,0.4961518727552591,0.4526289052578105,0.48606811145510836,0.5028835063437139,0.6028309741881765,1196.0
963.0,1.7103011140209152e+18,0.6826758147512865,0.4594663930220626,0.5115570231140463,0.42518059855521156,0.5294117647058824,0.6336386344712739,1196.0
964.0,1.7103011140309156e+18,0.40480274442538594,0.4930733709594664,0.4493268986537973,0.4891640866873065,0.5155709342560554,0.6103247293921732,1195.0
965.0,1.7103011140409144e+18,0.6822469982847341,0.46023601847101075,0.5125730251460503,0.4200206398348813,0.5432525951557093,0.6278101582014988,1197.0
966.0,1.7103011140509174e+18,0.403516295025729,0.4961518727552591,0.45186690373380745,0.4953560371517028,0.5063437139561707,0.6061615320566195,1193.0
967.0,1.7103011140609165e+18,0.6783876500857633,0.456900974858902,0.5105410210820421,0.4169246646026832,0.5340253748558247,0.6344712739383847,1196.0
968.0,1.7103011140709148e+18,0.39708404802744424,0.4969214982042073,0.45034290068580135,0.4891640866873065,0.5074971164936563,0.6094920899250624,1193.0
969.0,1.7103011140809155e+18,0.6809605488850772,0.4561313494099538,0.5113030226060452,0.4055727554179567,0.5305651672433679,0.6261448792672772,1197.0
970.0,1.7103011140909143e+18,0.40051457975986277,0.4961518727552591,0.45339090678181354,0.5366357069143447,0.497116493656286,0.611157368859284,1194.0
971.0,1.7103011141009157e+18,0.6801029159519726,0.45536172396100566,0.5115570231140463,0.4324045407636739,0.5317185697808535,0.6278101582014988,1196.0
972.0,1.710301114110913e+18,0.40437392795883365,0.49589533093894306,0.45491490982981964,0.4953560371517028,0.5098039215686274,0.611157368859284,1194.0
973.0,1.710301114120914e+18,0.6861063464837049,0.46126218573627503,0.5107950215900432,0.4148606811145511,0.5201845444059977,0.6286427976686095,1197.0
974.0,1.7103011141309135e+18,0.4013722126929674,0.4969214982042073,0.4526289052578105,0.46233230134158926,0.4936562860438293,0.6061615320566195,1192.0
975.0,1.7103011141409188e+18,0.6796740994854202,0.45972293483837867,0.5133350266700534,0.4179566563467492,0.5271049596309112,0.6328059950041632,1196.0
976.0,1.7103011141509135e+18,0.4073756432246998,0.49846074910210364,0.4521209042418085,0.4871001031991744,0.5063437139561707,0.6069941715237303,1193.0
977.0,1.7103011141609134e+18,0.6818181818181818,0.46100564391995896,0.5130810261620523,0.4055727554179567,0.5455594002306805,0.6286427976686095,1196.0
978.0,1.7103011141709158e+18,0.3975128644939966,0.49589533093894306,0.45339090678181354,0.4932920536635707,0.5040369088811996,0.6069941715237303,1192.0
979.0,1.7103011141809134e+18,0.6818181818181818,0.4576706003078502,0.5123190246380492,0.43343653250773995,0.5317185697808535,0.6311407160699417,1196.0
980.0,1.7103011141909138e+18,0.40051457975986277,0.49640841457157514,0.44958089916179833,0.5108359133126935,0.5086505190311419,0.6103247293921732,1194.0
981.0,1.7103011142009157e+18,0.6783876500857633,0.45792714212416624,0.5118110236220472,0.43034055727554177,0.5294117647058824,0.6278101582014988,1197.0
982.0,1.7103011142109148e+18,0.4095197255574614,0.4979476654694715,0.44881889763779526,0.4757481940144479,0.5098039215686274,0.6086594504579517,1194.0
983.0,1.710301114220913e+18,0.6676672384219554,0.45895330938943046,0.5123190246380492,0.39525283797729616,0.5155709342560554,0.6261448792672772,1198.0
984.0,1.7103011142309138e+18,0.40008576329331047,0.4976911236531555,0.45008890017780034,0.47781217750258,0.4936562860438293,0.6036636136552873,1193.0
985.0,1.7103011142409185e+18,0.6891080617495712,0.4574140584915341,0.5105410210820421,0.4169246646026832,0.5271049596309112,0.6278101582014988,1197.0
986.0,1.7103011142509123e+18,0.40437392795883365,0.49948691636736786,0.4493268986537973,0.43137254901960786,0.5017301038062284,0.6086594504579517,1196.0
987.0,1.7103011142609124e+18,0.6835334476843911,0.4576706003078502,0.5095250190500381,0.40970072239422084,0.5282583621683967,0.630308076602831,1196.0
988.0,1.710301114270913e+18,0.40051457975986277,0.4979476654694715,0.4511049022098044,0.49948400412796695,0.5063437139561707,0.6069941715237303,1193.0
989.0,1.7103011142809124e+18,0.6891080617495712,0.4581836839404823,0.508255016510033,0.40763673890608876,0.5294117647058824,0.6244796003330558,1195.0
990.0,1.7103011142909135e+18,0.3996569468267582,0.4969214982042073,0.4526289052578105,0.5087719298245614,0.5074971164936563,0.607826810990841,1194.0
991.0,1.7103011143009152e+18,0.6903945111492281,0.4576706003078502,0.5120650241300483,0.4241486068111455,0.5351787773933102,0.630308076602831,1195.0
992.0,1.710301114310914e+18,0.40437392795883365,0.4969214982042073,0.4538989077978156,0.47781217750258,0.5063437139561707,0.6086594504579517,1192.0
993.0,1.7103011143209152e+18,0.6882504288164666,0.4607491021036429,0.5113030226060452,0.43343653250773995,0.5363321799307958,0.6319733555370525,1200.0
994.0,1.7103011143309143e+18,0.39708404802744424,0.49820420728578757,0.4505969011938024,0.5036119711042312,0.5074971164936563,0.607826810990841,1192.0
995.0,1.7103011143409172e+18,0.6843910806174958,0.45972293483837867,0.5102870205740412,0.40350877192982454,0.5259515570934256,0.6261448792672772,1196.0
996.0,1.7103011143509158e+18,0.40051457975986277,0.49281682914315034,0.44627889255778513,0.4953560371517028,0.5201845444059977,0.607826810990841,1193.0
997.0,1.710301114360915e+18,0.6843910806174958,0.45715751667521803,0.5123190246380492,0.42208462332301344,0.5155709342560554,0.626977518734388,1196.0
