202.0,1.7109947742247158e+18,0.5744125326370757,0.05593607305936073,0.2654054054054054,0.47175348495964786,0.4725274725274725,0.31455004205214465,1189.0
203.0,1.710994774234688e+18,0.38642297650130547,0.7888127853881278,0.46594594594594596,0.5421863536316948,0.8879120879120879,0.5559293523969723,1196.0
204.0,1.7109947742447137e+18,0.5691906005221932,0.04908675799086758,0.2437837837837838,0.45634629493763756,0.4351648351648352,0.3280067283431455,1192.0
205.0,1.710994774254713e+18,0.37989556135770236,0.7328767123287672,0.4145945945945946,0.528980190755686,0.8032967032967033,0.5492010092514719,1196.0
206.0,1.7109947742647122e+18,0.5639686684073107,0.06735159817351598,0.26972972972972975,0.46881878209831257,0.44285714285714284,0.3263246425567704,1192.0
207.0,1.7109947742747098e+18,0.38511749347258484,0.7374429223744292,0.4145945945945946,0.5113719735876743,0.8164835164835165,0.5365853658536586,1195.0
208.0,1.710994774284713e+18,0.5600522193211488,0.0639269406392694,0.24162162162162162,0.47224260210320373,0.44285714285714284,0.3347350714886459,1192.0
209.0,1.7109947742947105e+18,0.38642297650130547,0.7340182648401826,0.4183783783783784,0.5333822450476889,0.8703296703296703,0.5475189234650967,1196.0
210.0,1.7109947743047104e+18,0.556135770234987,0.08105022831050228,0.25351351351351353,0.4727317192467596,0.4340659340659341,0.3296888141295206,1189.0
211.0,1.7109947743147067e+18,0.3825065274151436,0.7340182648401826,0.41243243243243244,0.5302029836145757,0.7835164835164835,0.535744322960471,1192.0
212.0,1.7109947743247086e+18,0.5691906005221932,0.07648401826484018,0.2762162162162162,0.46637319638053315,0.4186813186813187,0.3263246425567704,1188.0
213.0,1.7109947743347077e+18,0.3981723237597911,0.7340182648401826,0.38324324324324327,0.5341159207630227,0.8010989010989011,0.5374264087468461,1196.0
214.0,1.7109947743446904e+18,0.556135770234987,0.091324200913242,0.24702702702702703,0.45683541208119344,0.4318681318681319,0.3380992430613961,1192.0
215.0,1.7109947743547072e+18,0.37989556135770236,0.726027397260274,0.41405405405405404,0.5338713621912448,0.7747252747252747,0.5323801513877208,1193.0
216.0,1.7109947743647086e+18,0.5639686684073107,0.09817351598173515,0.252972972972973,0.46955245781364635,0.4835164835164835,0.343986543313709,1191.0
217.0,1.7109947743747057e+18,0.3968668407310705,0.7100456621004566,0.4010810810810811,0.5358278307654684,0.810989010989011,0.5391084945332212,1193.0
218.0,1.7109947743847086e+18,0.5548302872062664,0.09360730593607305,0.2454054054054054,0.4744436292492052,0.4340659340659341,0.34146341463414637,1193.0
219.0,1.7109947743947044e+18,0.39295039164490864,0.7294520547945206,0.41243243243243244,0.533137686475911,0.7956043956043956,0.5323801513877208,1195.0
220.0,1.7109947744047053e+18,0.5456919060052219,0.09246575342465753,0.24972972972972973,0.4685742235265346,0.44175824175824174,0.3347350714886459,1192.0
221.0,1.7109947744147052e+18,0.39556135770234985,0.7100456621004566,0.41243243243243244,0.5390070921985816,0.8824175824175824,0.5492010092514719,1198.0
222.0,1.7109947744246948e+18,0.54177545691906,0.09817351598173515,0.2118918918918919,0.4685742235265346,0.4208791208791209,0.34146341463414637,1190.0
223.0,1.710994774434709e+18,0.4046997389033943,0.7248858447488584,0.3881081081081081,0.5350941550501345,0.8,0.5323801513877208,1196.0
224.0,1.7109947744447027e+18,0.5522193211488251,0.10388127853881278,0.2627027027027027,0.46661775495231106,0.41208791208791207,0.33725820016820857,1190.0
225.0,1.710994774454703e+18,0.3968668407310705,0.7134703196347032,0.4259459459459459,0.5213988750305698,0.7934065934065934,0.535744322960471,1196.0
226.0,1.7109947744647043e+18,0.54177545691906,0.10388127853881278,0.25675675675675674,0.4631939349474199,0.4461538461538462,0.3448275862068966,1189.0
227.0,1.7109947744747028e+18,0.40339425587467365,0.6986301369863014,0.39837837837837836,0.532648569332355,0.7978021978021979,0.5248107653490328,1195.0
228.0,1.710994774484703e+18,0.5509138381201044,0.11301369863013698,0.2681081081081081,0.46955245781364635,0.44835164835164837,0.3406223717409588,1192.0
229.0,1.7109947744947018e+18,0.3981723237597911,0.7031963470319634,0.3827027027027027,0.5294693078992418,0.7956043956043956,0.5290159798149706,1195.0
230.0,1.710994774504702e+18,0.5391644908616188,0.12100456621004566,0.25675675675675674,0.47053069210075815,0.45494505494505494,0.3448275862068966,1188.0
231.0,1.7109947745147062e+18,0.40339425587467365,0.7100456621004566,0.40594594594594596,0.528980190755686,0.7967032967032966,0.5332211942809083,1195.0
232.0,1.7109947745246912e+18,0.5496083550913838,0.1312785388127854,0.24972972972972973,0.46881878209831257,0.4604395604395604,0.3481917577796468,1189.0
233.0,1.710994774534697e+18,0.40600522193211486,0.6929223744292238,0.39675675675675676,0.5240890193201272,0.778021978021978,0.5315391084945332,1196.0
234.0,1.710994774544707e+18,0.5469973890339426,0.11073059360730593,0.2594594594594595,0.48226950354609927,0.4472527472527473,0.3355761143818335,1192.0
235.0,1.7109947745547128e+18,0.4086161879895561,0.7111872146118722,0.40324324324324323,0.5363169479090242,0.7857142857142857,0.5239697224558453,1195.0
236.0,1.710994774564691e+18,0.54177545691906,0.11187214611872145,0.26054054054054054,0.46808510638297873,0.4175824175824176,0.35744322960470987,1190.0
237.0,1.7109947745747018e+18,0.40992167101827676,0.702054794520548,0.40216216216216216,0.5282465150403521,0.7978021978021979,0.5306980656013457,1196.0
238.0,1.7109947745846953e+18,0.5313315926892951,0.11529680365296803,0.26972972972972975,0.47077525067253606,0.4076923076923077,0.3608074011774601,1189.0
239.0,1.7109947745946941e+18,0.4073107049608355,0.7134703196347032,0.4308108108108108,0.5297138664710198,0.8296703296703297,0.5492010092514719,1195.0
240.0,1.7109947746047086e+18,0.5352480417754569,0.11643835616438356,0.2518918918918919,0.4673514306676449,0.4153846153846154,0.3380992430613961,1190.0
241.0,1.7109947746147113e+18,0.412532637075718,0.6872146118721462,0.4,0.5321594521887992,0.7923076923076923,0.5315391084945332,1196.0
242.0,1.710994774624721e+18,0.5391644908616188,0.1312785388127854,0.2594594594594595,0.4732208363903155,0.46923076923076923,0.3355761143818335,1191.0
243.0,1.7109947746346995e+18,0.3981723237597911,0.6929223744292238,0.39837837837837836,0.532893127904133,0.8032967032967033,0.528174936921783,1196.0
244.0,1.7109947746447268e+18,0.5352480417754569,0.14383561643835616,0.25675675675675674,0.47370995353387135,0.45604395604395603,0.34146341463414637,1190.0
245.0,1.7109947746547062e+18,0.412532637075718,0.6917808219178082,0.43135135135135133,0.5280019564685742,0.7868131868131868,0.5231286795626577,1193.0
246.0,1.710994774664688e+18,0.5352480417754569,0.13926940639269406,0.25891891891891894,0.4690633406700905,0.45714285714285713,0.3423044575273339,1190.0
247.0,1.710994774674706e+18,0.4112271540469974,0.6883561643835616,0.3989189189189189,0.5306921007581316,0.8428571428571429,0.5231286795626577,1196.0
248.0,1.7109947746846881e+18,0.5430809399477807,0.1095890410958904,0.2681081081081081,0.45683541208119344,0.4307692307692308,0.33641715727502103,1191.0
249.0,1.7109947746946836e+18,0.4073107049608355,0.6974885844748858,0.40540540540540543,0.5294693078992418,0.7923076923076923,0.5264928511354079,1195.0
250.0,1.710994774704711e+18,0.5365535248041775,0.1449771689497717,0.2724324324324324,0.47664465639520665,0.46373626373626375,0.343986543313709,1189.0
251.0,1.7109947747146918e+18,0.412532637075718,0.6837899543378996,0.40540540540540543,0.5270237221814624,0.7758241758241758,0.528174936921783,1193.0
252.0,1.7109947747246948e+18,0.5248041775456919,0.1404109589041096,0.2632432432432432,0.4685742235265346,0.44395604395604393,0.3456686291000841,1192.0
253.0,1.7109947747346883e+18,0.4151436031331593,0.682648401826484,0.39297297297297296,0.5250672536072389,0.7769230769230769,0.528174936921783,1196.0
254.0,1.7109947747447058e+18,0.5339425587467362,0.1449771689497717,0.25891891891891894,0.47224260210320373,0.4043956043956044,0.343986543313709,1192.0
255.0,1.7109947747547364e+18,0.4164490861618799,0.6963470319634704,0.40756756756756757,0.5309366593299095,0.7824175824175824,0.5340622371740958,1195.0
256.0,1.7109947747646845e+18,0.5352480417754569,0.12899543378995434,0.26054054054054054,0.4744436292492052,0.4582417582417582,0.33641715727502103,1192.0
257.0,1.710994774774684e+18,0.41906005221932113,0.702054794520548,0.4097297297297297,0.5319148936170213,0.8131868131868132,0.5332211942809083,1196.0
258.0,1.7109947747846922e+18,0.5443864229765013,0.1404109589041096,0.2632432432432432,0.47248716067498164,0.47912087912087914,0.34146341463414637,1192.0
259.0,1.7109947747946872e+18,0.41906005221932113,0.6757990867579908,0.3994594594594595,0.5243335778919052,0.7648351648351648,0.5239697224558453,1195.0
260.0,1.710994774804695e+18,0.54177545691906,0.1278538812785388,0.2583783783783784,0.45659085350941553,0.44175824175824174,0.35912531539108494,1192.0
261.0,1.710994774814685e+18,0.41383812010443866,0.6894977168949772,0.40378378378378377,0.5304475421863536,0.7813186813186813,0.5306980656013457,1196.0
262.0,1.710994774824707e+18,0.5300261096605744,0.1495433789954338,0.2691891891891892,0.4771337735387625,0.45164835164835165,0.3481917577796468,1190.0
263.0,1.7109947748346913e+18,0.42036553524804177,0.6917808219178082,0.41081081081081083,0.5311812179016875,0.7923076923076923,0.5332211942809083,1195.0
264.0,1.710994774844694e+18,0.5365535248041775,0.1358447488584475,0.25513513513513514,0.4773783321105405,0.4582417582417582,0.3473507148864592,1192.0
265.0,1.7109947748546862e+18,0.4216710182767624,0.6860730593607306,0.41945945945945945,0.5304475421863536,0.8032967032967033,0.5290159798149706,1194.0
266.0,1.7109947748646966e+18,0.5287206266318538,0.13926940639269406,0.25405405405405407,0.47346539496209344,0.5164835164835165,0.343986543313709,1192.0
267.0,1.7109947748746908e+18,0.42036553524804177,0.6757990867579908,0.40324324324324323,0.5265346050379066,0.7923076923076923,0.535744322960471,1195.0
268.0,1.710994774884689e+18,0.5261096605744126,0.13926940639269406,0.2691891891891892,0.4702861335289802,0.44285714285714284,0.3507148864592094,1195.0
269.0,1.7109947748946888e+18,0.42036553524804177,0.678082191780822,0.3989189189189189,0.5218879921741257,0.7857142857142857,0.528174936921783,1195.0
270.0,1.7109947749047104e+18,0.5339425587467362,0.1415525114155251,0.2681081081081081,0.4732208363903155,0.4736263736263736,0.351555929352397,1190.0
271.0,1.7109947749146852e+18,0.42428198433420367,0.6792237442922374,0.4010810810810811,0.5258009293225727,0.7868131868131868,0.5298570227081582,1195.0
272.0,1.7109947749246886e+18,0.5339425587467362,0.14269406392694065,0.27135135135135136,0.47199804353142577,0.4978021978021978,0.3608074011774601,1192.0
273.0,1.7109947749347087e+18,0.41906005221932113,0.6792237442922374,0.3978378378378378,0.5284910736121301,0.7615384615384615,0.5214465937762826,1194.0
274.0,1.7109947749447304e+18,0.52088772845953,0.12899543378995434,0.2610810810810811,0.4759109806798728,0.46153846153846156,0.3473507148864592,1190.0
275.0,1.710994774954698e+18,0.40992167101827676,0.6723744292237442,0.3956756756756757,0.5309366593299095,0.8,0.5256518082422204,1195.0
276.0,1.7109947749646868e+18,0.5391644908616188,0.14726027397260275,0.2718918918918919,0.4727317192467596,0.46483516483516485,0.34987384356602186,1192.0
277.0,1.7109947749746844e+18,0.42036553524804177,0.6792237442922374,0.40864864864864864,0.528980190755686,0.7868131868131868,0.5197645079899075,1194.0
278.0,1.7109947749846815e+18,0.5378590078328982,0.15753424657534246,0.27837837837837837,0.467106872095867,0.4153846153846154,0.3423044575273339,1190.0
279.0,1.7109947749946831e+18,0.4216710182767624,0.6837899543378996,0.3978378378378378,0.5294693078992418,0.7373626373626374,0.5155592935239697,1194.0
280.0,1.7109947750047496e+18,0.5339425587467362,0.14726027397260275,0.2708108108108108,0.4741990706774272,0.489010989010989,0.35912531539108494,1191.0
281.0,1.7109947750146842e+18,0.42036553524804177,0.6700913242009132,0.41081081081081083,0.5282465150403521,0.7615384615384615,0.5256518082422204,1197.0
282.0,1.7109947750246764e+18,0.5300261096605744,0.15182648401826485,0.2637837837837838,0.462949376375642,0.42857142857142855,0.3456686291000841,1192.0
283.0,1.7109947750346895e+18,0.42689295039164493,0.6746575342465754,0.4010810810810811,0.5243335778919052,0.7681318681318682,0.5264928511354079,1194.0
284.0,1.7109947750447048e+18,0.5352480417754569,0.1495433789954338,0.2691891891891892,0.4759109806798728,0.46153846153846156,0.3641715727502103,1190.0
285.0,1.7109947750547e+18,0.42950391644908614,0.6860730593607306,0.3994594594594595,0.524578136463683,0.7923076923076923,0.5222876366694701,1194.0
286.0,1.7109947750647086e+18,0.5287206266318538,0.15753424657534246,0.2827027027027027,0.47370995353387135,0.46923076923076923,0.35744322960470987,1192.0
287.0,1.7109947750746819e+18,0.4151436031331593,0.6552511415525114,0.3827027027027027,0.5270237221814624,0.7945054945054945,0.535744322960471,1194.0
288.0,1.7109947750846912e+18,0.5234986945169713,0.1506849315068493,0.267027027027027,0.4732208363903155,0.46923076923076923,0.3448275862068966,1192.0
289.0,1.71099477509469e+18,0.4151436031331593,0.6689497716894978,0.3989189189189189,0.5302029836145757,0.7923076923076923,0.520605550883095,1197.0
290.0,1.710994775104686e+18,0.5313315926892951,0.15753424657534246,0.27135135135135136,0.47957935925654194,0.4945054945054945,0.3523969722455845,1189.0
291.0,1.7109947751146877e+18,0.4216710182767624,0.6552511415525114,0.40378378378378377,0.5306921007581316,0.8032967032967033,0.5239697224558453,1193.0
292.0,1.7109947751246886e+18,0.5391644908616188,0.13812785388127855,0.27297297297297296,0.475177304964539,0.46923076923076923,0.3507148864592094,1192.0
293.0,1.7109947751346842e+18,0.4360313315926893,0.6792237442922374,0.4167567567567568,0.5299584250427978,0.7857142857142857,0.5256518082422204,1195.0
294.0,1.7109947751446976e+18,0.5169712793733682,0.1643835616438356,0.267027027027027,0.47640009782342874,0.4725274725274725,0.3507148864592094,1192.0
295.0,1.7109947751546964e+18,0.4281984334203655,0.6678082191780822,0.3956756756756757,0.5196869650281243,0.7648351648351648,0.5164003364171573,1194.0
296.0,1.7109947751646815e+18,0.5261096605744126,0.17123287671232876,0.27783783783783783,0.4844705306921008,0.47692307692307695,0.3641715727502103,1191.0
297.0,1.7109947751746808e+18,0.42036553524804177,0.6666666666666666,0.39297297297297296,0.5255563707507949,0.7571428571428571,0.5155592935239697,1194.0
298.0,1.7109947751846802e+18,0.52088772845953,0.15753424657534246,0.2627027027027027,0.4619711420885302,0.4230769230769231,0.3473507148864592,1192.0
299.0,1.7109947751947036e+18,0.4281984334203655,0.6552511415525114,0.39135135135135135,0.520665199315236,0.7648351648351648,0.5189234650967199,1196.0
300.0,1.7109947752046943e+18,0.5234986945169713,0.17579908675799086,0.2664864864864865,0.47640009782342874,0.4582417582417582,0.35912531539108494,1192.0
301.0,1.710994775214705e+18,0.42689295039164493,0.6575342465753424,0.3962162162162162,0.5299584250427978,0.7813186813186813,0.511354079058032,1197.0
302.0,1.7109947752246843e+18,0.5234986945169713,0.17009132420091325,0.2718918918918919,0.4788456835412081,0.4703296703296703,0.3481917577796468,1192.0
303.0,1.7109947752346836e+18,0.42689295039164493,0.6518264840182648,0.3945945945945946,0.5255563707507949,0.7692307692307693,0.5155592935239697,1195.0
304.0,1.710994775244735e+18,0.52088772845953,0.1723744292237443,0.2843243243243243,0.4756664221080949,0.42637362637362636,0.3616484440706476,1191.0
305.0,1.710994775254687e+18,0.4308093994778068,0.6575342465753424,0.3924324324324324,0.5280019564685742,0.7747252747252747,0.5155592935239697,1192.0
306.0,1.7109947752646835e+18,0.5143603133159269,0.18378995433789955,0.2724324324324324,0.47224260210320373,0.45164835164835165,0.3633305298570227,1189.0
307.0,1.7109947752746867e+18,0.42950391644908614,0.658675799086758,0.39675675675675676,0.5226216678894595,0.7571428571428571,0.5172413793103449,1192.0
308.0,1.7109947752846856e+18,0.5143603133159269,0.1689497716894977,0.2724324324324324,0.47933480068476403,0.47692307692307695,0.35576114381833474,1191.0
309.0,1.7109947752946834e+18,0.4360313315926893,0.6769406392694064,0.4189189189189189,0.5250672536072389,0.756043956043956,0.5138772077375946,1195.0
310.0,1.7109947753046894e+18,0.5143603133159269,0.1723744292237443,0.2762162162162162,0.4817803864025434,0.42637362637362636,0.3582842724978974,1190.0
311.0,1.710994775314692e+18,0.42036553524804177,0.6415525114155252,0.38594594594594595,0.5262900464661286,0.7681318681318682,0.5088309503784693,1194.0
312.0,1.7109947753246828e+18,0.52088772845953,0.16666666666666666,0.2718918918918919,0.4817803864025434,0.4835164835164835,0.3675357443229605,1190.0
313.0,1.710994775334684e+18,0.4321148825065274,0.658675799086758,0.3945945945945946,0.5174859378821227,0.7296703296703296,0.5130361648444071,1194.0
314.0,1.710994775344711e+18,0.5195822454308094,0.1769406392694064,0.2718918918918919,0.47957935925654194,0.47692307692307695,0.35912531539108494,1190.0
315.0,1.7109947753546941e+18,0.42689295039164493,0.658675799086758,0.3945945945945946,0.5143066764490095,0.743956043956044,0.5121951219512195,1195.0
316.0,1.7109947753646881e+18,0.5130548302872062,0.1860730593607306,0.2648648648648649,0.475177304964539,0.42637362637362636,0.3675357443229605,1190.0
317.0,1.710994775374687e+18,0.42428198433420367,0.634703196347032,0.3837837837837838,0.5250672536072389,0.7758241758241758,0.5239697224558453,1196.0
318.0,1.710994775384687e+18,0.5026109660574413,0.1723744292237443,0.2718918918918919,0.47933480068476403,0.5010989010989011,0.3608074011774601,1192.0
319.0,1.7109947753946852e+18,0.4451697127937337,0.6472602739726028,0.3989189189189189,0.5297138664710198,0.8120879120879121,0.5189234650967199,1195.0
320.0,1.710994775404683e+18,0.5104438642297651,0.18493150684931506,0.27945945945945944,0.47664465639520665,0.4879120879120879,0.36248948696383515,1191.0
321.0,1.7109947754146824e+18,0.4308093994778068,0.6404109589041096,0.3891891891891892,0.5226216678894595,0.7736263736263737,0.5172413793103449,1194.0
322.0,1.710994775424678e+18,0.5052219321148825,0.18949771689497716,0.27135135135135136,0.4859378821227684,0.47802197802197804,0.36248948696383515,1192.0
323.0,1.710994775434678e+18,0.4360313315926893,0.6426940639269406,0.39135135135135135,0.5221325507459036,0.7637362637362637,0.5214465937762826,1194.0
324.0,1.710994775444709e+18,0.5143603133159269,0.18949771689497716,0.26972972972972975,0.48080215211543165,0.5164835164835165,0.3675357443229605,1191.0
325.0,1.7109947754547003e+18,0.4360313315926893,0.639269406392694,0.3908108108108108,0.5174859378821227,0.7604395604395604,0.5147182506307821,1195.0
326.0,1.7109947754646932e+18,0.5104438642297651,0.1769406392694064,0.28216216216216217,0.46637319638053315,0.45604395604395603,0.3582842724978974,1191.0
327.0,1.710994775474681e+18,0.4308093994778068,0.6484018264840182,0.3891891891891892,0.532893127904133,0.7879120879120879,0.5239697224558453,1195.0
328.0,1.7109947754846828e+18,0.5156657963446475,0.182648401826484,0.27837837837837837,0.46930789924186844,0.47912087912087914,0.35323801513877207,1191.0
329.0,1.7109947754946826e+18,0.4360313315926893,0.6289954337899544,0.3908108108108108,0.5228662264612375,0.7384615384615385,0.5138772077375946,1194.0
330.0,1.710994775504697e+18,0.5078328981723238,0.19406392694063926,0.27675675675675676,0.4842259721203228,0.5472527472527473,0.3708999158957107,1192.0
331.0,1.7109947755146854e+18,0.43342036553524804,0.6335616438356164,0.38972972972972975,0.5140621178772316,0.7637362637362637,0.5239697224558453,1195.0
332.0,1.710994775524692e+18,0.5143603133159269,0.1815068493150685,0.27945945945945944,0.49229640498899485,0.5021978021978022,0.3666947014297729,1192.0
333.0,1.7109947755346875e+18,0.4412532637075718,0.6461187214611872,0.4097297297297297,0.5240890193201272,0.7681318681318682,0.535744322960471,1194.0
334.0,1.7109947755446927e+18,0.5078328981723238,0.1906392694063927,0.2827027027027027,0.46392761066275373,0.42527472527472526,0.3523969722455845,1189.0
335.0,1.7109947755547026e+18,0.4360313315926893,0.6426940639269406,0.3902702702702703,0.5223771093176816,0.734065934065934,0.5222876366694701,1193.0
336.0,1.7109947755646876e+18,0.49738903394255873,0.19406392694063926,0.27675675675675676,0.483492296404989,0.4307692307692308,0.351555929352397,1191.0
337.0,1.710994775574689e+18,0.4347258485639687,0.6301369863013698,0.4027027027027027,0.5255563707507949,0.7670329670329671,0.5231286795626577,1195.0
338.0,1.710994775584688e+18,0.5052219321148825,0.1860730593607306,0.27945945945945944,0.4590364392271949,0.44505494505494503,0.3490328006728343,1190.0
339.0,1.7109947755946903e+18,0.43994778067885115,0.6461187214611872,0.3924324324324324,0.5231107850330154,0.7637362637362637,0.5189234650967199,1195.0
340.0,1.7109947756046976e+18,0.5117493472584856,0.1815068493150685,0.2735135135135135,0.4798239178283199,0.5175824175824176,0.3793103448275862,1192.0
341.0,1.710994775614688e+18,0.43994778067885115,0.6735159817351598,0.41027027027027024,0.5460992907801419,0.7791208791208791,0.5332211942809083,1195.0
342.0,1.710994775624693e+18,0.5039164490861618,0.1769406392694064,0.28,0.4800684764000978,0.5087912087912088,0.3582842724978974,1190.0
343.0,1.710994775634693e+18,0.4321148825065274,0.6552511415525114,0.39513513513513515,0.5228662264612375,0.7835164835164835,0.5189234650967199,1197.0
344.0,1.7109947756447153e+18,0.5130548302872062,0.1643835616438356,0.27675675675675676,0.46930789924186844,0.45164835164835165,0.35576114381833474,1193.0
345.0,1.710994775654715e+18,0.42036553524804177,0.6506849315068494,0.3989189189189189,0.5243335778919052,0.7967032967032966,0.5121951219512195,1197.0
346.0,1.7109947756646922e+18,0.5117493472584856,0.17579908675799086,0.2572972972972973,0.48226950354609927,0.46923076923076923,0.3566021867115223,1190.0
347.0,1.7109947756746903e+18,0.44778067885117495,0.6666666666666666,0.37891891891891893,0.5238444607483492,0.8164835164835165,0.5172413793103449,1195.0
348.0,1.7109947756846764e+18,0.5065274151436031,0.15753424657534246,0.27675675675675676,0.4702861335289802,0.45494505494505494,0.33725820016820857,1192.0
349.0,1.7109947756946796e+18,0.4321148825065274,0.6621004566210046,0.3994594594594595,0.5483003179261433,0.7835164835164835,0.5256518082422204,1195.0
350.0,1.7109947757046784e+18,0.5078328981723238,0.16210045662100456,0.27405405405405403,0.48813890926876985,0.45274725274725275,0.3473507148864592,1191.0
351.0,1.710994775714694e+18,0.4490861618798956,0.615296803652968,0.39297297297297296,0.5448764979212521,0.8208791208791208,0.5391084945332212,1195.0
352.0,1.7109947757246728e+18,0.5052219321148825,0.07420091324200913,0.3108108108108108,0.47640009782342874,0.4725274725274725,0.3608074011774601,1192.0
353.0,1.7109947757346767e+18,0.42950391644908614,0.821917808219178,0.3956756756756757,0.5336268036194669,0.7901098901098901,0.520605550883095,1196.0
354.0,1.7109947757446979e+18,0.5195822454308094,0.1267123287671233,0.2648648648648649,0.4741990706774272,0.45164835164835165,0.351555929352397,1192.0
355.0,1.7109947757547072e+18,0.4347258485639687,0.7157534246575342,0.3902702702702703,0.5025678650036683,0.7505494505494505,0.528174936921783,1196.0
356.0,1.710994775764701e+18,0.5104438642297651,0.1004566210045662,0.26756756756756755,0.458547322083639,0.4967032967032967,0.343986543313709,1193.0
357.0,1.710994775774682e+18,0.4386422976501306,0.7077625570776256,0.39837837837837836,0.5270237221814624,0.8208791208791208,0.5239697224558453,1195.0
358.0,1.7109947757846838e+18,0.5065274151436031,0.11187214611872145,0.27405405405405403,0.4590364392271949,0.46483516483516485,0.3380992430613961,1191.0
359.0,1.7109947757946803e+18,0.4360313315926893,0.7123287671232876,0.3972972972972973,0.5324040107605772,0.778021978021978,0.520605550883095,1194.0
360.0,1.710994775804725e+18,0.5104438642297651,0.11073059360730593,0.2891891891891892,0.48789435069699194,0.5065934065934066,0.3507148864592094,1193.0
361.0,1.710994775814681e+18,0.4347258485639687,0.7134703196347032,0.4145945945945946,0.5336268036194669,0.7879120879120879,0.5306980656013457,1197.0
362.0,1.710994775824684e+18,0.5143603133159269,0.11643835616438356,0.2610810810810811,0.4783565663976522,0.46923076923076923,0.34650967199327165,1189.0
363.0,1.710994775834687e+18,0.39947780678851175,0.7203196347031964,0.3918918918918919,0.5287356321839081,0.7923076923076923,0.5248107653490328,1196.0
364.0,1.7109947758447078e+18,0.5456919060052219,0.10730593607305935,0.2745945945945946,0.4756664221080949,0.5010989010989011,0.3608074011774601,1192.0
365.0,1.7109947758546888e+18,0.45039164490861616,0.684931506849315,0.3924324324324324,0.5106382978723404,0.765934065934066,0.5222876366694701,1194.0
366.0,1.710994775864682e+18,0.5287206266318538,0.13926940639269406,0.2772972972972973,0.48226950354609927,0.4593406593406593,0.3481917577796468,1193.0
367.0,1.710994775874689e+18,0.42297650130548303,0.70662100456621,0.3940540540540541,0.5250672536072389,0.7670329670329671,0.5264928511354079,1196.0
368.0,1.710994775884693e+18,0.556135770234987,0.1187214611872146,0.2718918918918919,0.4798239178283199,0.46703296703296704,0.3448275862068966,1191.0
369.0,1.7109947758946831e+18,0.3733681462140992,0.7146118721461188,0.39297297297297296,0.5277573978967963,0.7857142857142857,0.528174936921783,1193.0
370.0,1.7109947759046902e+18,0.5261096605744126,0.1358447488584475,0.27837837837837837,0.4805575935436537,0.47912087912087914,0.3608074011774601,1190.0
371.0,1.7109947759147118e+18,0.402088772845953,0.7100456621004566,0.3935135135135135,0.5394962093421375,0.7813186813186813,0.5197645079899075,1193.0
372.0,1.7109947759246833e+18,0.5221932114882507,0.12557077625570776,0.2724324324324324,0.49229640498899485,0.4736263736263736,0.36248948696383515,1192.0
373.0,1.7109947759346872e+18,0.41906005221932113,0.702054794520548,0.4043243243243243,0.5448764979212521,0.7824175824175824,0.5349032800672834,1195.0
374.0,1.710994775944695e+18,0.5300261096605744,0.1415525114155251,0.26216216216216215,0.49400831499144043,0.46593406593406594,0.3481917577796468,1191.0
375.0,1.710994775954717e+18,0.4151436031331593,0.7248858447488584,0.4,0.5314257764734654,0.8549450549450549,0.5298570227081582,1195.0
376.0,1.7109947759646845e+18,0.5221932114882507,0.1267123287671233,0.2686486486486486,0.46759598923942286,0.4868131868131868,0.3473507148864592,1190.0
377.0,1.7109947759746926e+18,0.4216710182767624,0.7123287671232876,0.39837837837837836,0.5211543164587918,0.7538461538461538,0.535744322960471,1196.0
378.0,1.7109947759846838e+18,0.5287206266318538,0.11757990867579908,0.2691891891891892,0.4927855221325507,0.4901098901098901,0.3481917577796468,1192.0
379.0,1.7109947759946875e+18,0.4216710182767624,0.7054794520547946,0.40378378378378377,0.5382734164832478,0.7604395604395604,0.5256518082422204,1195.0
380.0,1.710994776004701e+18,0.5274151436031331,0.1267123287671233,0.27513513513513516,0.47077525067253606,0.5054945054945055,0.35323801513877207,1191.0
381.0,1.7109947760146847e+18,0.42689295039164493,0.6940639269406392,0.3972972972972973,0.5258009293225727,0.7967032967032966,0.5231286795626577,1196.0
382.0,1.710994776024685e+18,0.52088772845953,0.11757990867579908,0.2745945945945946,0.44680851063829785,0.46263736263736266,0.35912531539108494,1192.0
383.0,1.7109947760346826e+18,0.4177545691906005,0.7157534246575342,0.3956756756756757,0.5319148936170213,0.7769230769230769,0.5239697224558453,1193.0
384.0,1.7109947760447037e+18,0.5234986945169713,0.11301369863013698,0.2632432432432432,0.46637319638053315,0.46263736263736266,0.3507148864592094,1191.0
385.0,1.710994776054704e+18,0.42428198433420367,0.70662100456621,0.3989189189189189,0.5348495964783566,0.7824175824175824,0.5298570227081582,1196.0
386.0,1.7109947760646996e+18,0.5234986945169713,0.12557077625570776,0.2648648648648649,0.4741990706774272,0.4032967032967033,0.3549201009251472,1192.0
387.0,1.710994776074687e+18,0.4255874673629243,0.6757990867579908,0.3978378378378378,0.5311812179016875,0.7681318681318682,0.5231286795626577,1195.0
388.0,1.7109947760846784e+18,0.5248041775456919,0.1278538812785388,0.2724324324324324,0.47909024211298606,0.45384615384615384,0.3523969722455845,1192.0
389.0,1.7109947760946755e+18,0.4308093994778068,0.7328767123287672,0.39837837837837836,0.528980190755686,0.8087912087912088,0.5391084945332212,1195.0
390.0,1.7109947761046953e+18,0.5221932114882507,0.11529680365296803,0.2702702702702703,0.4900953778429934,0.46923076923076923,0.3448275862068966,1189.0
391.0,1.710994776114691e+18,0.4151436031331593,0.708904109589041,0.40324324324324323,0.5152849107361213,0.7945054945054945,0.5231286795626577,1196.0
392.0,1.7109947761246915e+18,0.5195822454308094,0.11529680365296803,0.2745945945945946,0.4641721692345317,0.4582417582417582,0.3355761143818335,1191.0
393.0,1.710994776134686e+18,0.42297650130548303,0.6917808219178082,0.3972972972972973,0.5277573978967963,0.7681318681318682,0.520605550883095,1195.0
394.0,1.7109947761446991e+18,0.5248041775456919,0.12557077625570776,0.2735135135135135,0.4761555392516508,0.4901098901098901,0.3633305298570227,1191.0
395.0,1.710994776154687e+18,0.42950391644908614,0.6963470319634704,0.3945945945945946,0.541697236488139,0.7835164835164835,0.5138772077375946,1196.0
396.0,1.710994776164681e+18,0.5261096605744126,0.1278538812785388,0.27405405405405403,0.4715089263878699,0.45164835164835165,0.3566021867115223,1192.0
397.0,1.7109947761746765e+18,0.41906005221932113,0.6917808219178082,0.39675675675675676,0.5006113964294449,0.7362637362637363,0.5264928511354079,1196.0
398.0,1.710994776184677e+18,0.5143603133159269,0.12214611872146118,0.2686486486486486,0.4827586206896552,0.46263736263736266,0.3490328006728343,1191.0
399.0,1.7109947761946775e+18,0.4177545691906005,0.7031963470319634,0.39675675675675676,0.5282465150403521,0.7813186813186813,0.5306980656013457,1194.0
400.0,1.7109947762047017e+18,0.5261096605744126,0.13812785388127855,0.2637837837837838,0.46955245781364635,0.46813186813186813,0.35576114381833474,1192.0
401.0,1.7109947762147064e+18,0.4216710182767624,0.6940639269406392,0.4010810810810811,0.5228662264612375,0.7857142857142857,0.535744322960471,1196.0
402.0,1.7109947762246817e+18,0.5248041775456919,0.1278538812785388,0.2648648648648649,0.47640009782342874,0.4725274725274725,0.3523969722455845,1192.0
403.0,1.7109947762346836e+18,0.4255874673629243,0.704337899543379,0.3962162162162162,0.5086818292981169,0.7637362637362637,0.5239697224558453,1194.0
404.0,1.7109947762446863e+18,0.5182767624020888,0.1324200913242009,0.28,0.4842259721203228,0.4835164835164835,0.3473507148864592,1192.0
405.0,1.7109947762546982e+18,0.4308093994778068,0.7054794520547946,0.3978378378378378,0.5184641721692346,0.7648351648351648,0.5222876366694701,1194.0
406.0,1.7109947762646825e+18,0.5104438642297651,0.13013698630136986,0.27135135135135136,0.4827586206896552,0.532967032967033,0.3616484440706476,1193.0
407.0,1.710994776274689e+18,0.4308093994778068,0.7146118721461188,0.40216216216216216,0.5358278307654684,0.7571428571428571,0.5264928511354079,1197.0
408.0,1.7109947762846866e+18,0.5221932114882507,0.10616438356164383,0.2735135135135135,0.47664465639520665,0.45384615384615384,0.36248948696383515,1193.0
409.0,1.7109947762946875e+18,0.42297650130548303,0.7100456621004566,0.40054054054054056,0.5507459036439227,0.7879120879120879,0.5349032800672834,1195.0
410.0,1.7109947763047186e+18,0.5156657963446475,0.1495433789954338,0.2735135135135135,0.4830031792614331,0.4835164835164835,0.3448275862068966,1188.0
411.0,1.7109947763146898e+18,0.4255874673629243,0.7134703196347032,0.4016216216216216,0.5306921007581316,0.8472527472527472,0.520605550883095,1195.0
412.0,1.7109947763246845e+18,0.5261096605744126,0.12557077625570776,0.26972972972972975,0.46343849351919786,0.45494505494505494,0.3616484440706476,1192.0
413.0,1.7109947763346844e+18,0.4347258485639687,0.6974885844748858,0.3989189189189189,0.549523110785033,0.7725274725274726,0.5222876366694701,1194.0
414.0,1.7109947763447324e+18,0.5091383812010444,0.12214611872146118,0.27837837837837837,0.49205184641721694,0.44065934065934065,0.3423044575273339,1193.0
415.0,1.710994776354729e+18,0.42950391644908614,0.6894977168949772,0.3994594594594595,0.5172413793103449,0.7912087912087912,0.5264928511354079,1193.0
416.0,1.710994776364715e+18,0.5117493472584856,0.1541095890410959,0.27837837837837837,0.48789435069699194,0.44395604395604393,0.3507148864592094,1192.0
417.0,1.7109947763746903e+18,0.4255874673629243,0.6860730593607306,0.3956756756756757,0.5272682807532404,0.7714285714285715,0.5256518082422204,1196.0
418.0,1.7109947763846848e+18,0.5234986945169713,0.1723744292237443,0.2756756756756757,0.4888725849841037,0.4868131868131868,0.3616484440706476,1190.0
419.0,1.710994776394685e+18,0.44386422976501305,0.6917808219178082,0.39297297297297296,0.5213988750305698,0.8252747252747252,0.5231286795626577,1196.0
420.0,1.7109947764047153e+18,0.5182767624020888,0.1404109589041096,0.2681081081081081,0.49523110785033014,0.45714285714285713,0.3406223717409588,1190.0
421.0,1.71099477641469e+18,0.44778067885117495,0.7031963470319634,0.39513513513513515,0.5297138664710198,0.798901098901099,0.5306980656013457,1196.0
422.0,1.7109947764246902e+18,0.5117493472584856,0.1415525114155251,0.2702702702702703,0.48911714355588165,0.5318681318681319,0.3608074011774601,1194.0
423.0,1.7109947764346865e+18,0.4360313315926893,0.6929223744292238,0.3924324324324324,0.5160185864514552,0.7527472527472527,0.5306980656013457,1197.0
424.0,1.710994776444693e+18,0.5104438642297651,0.14726027397260275,0.2772972972972973,0.47664465639520665,0.5131868131868131,0.34650967199327165,1192.0
425.0,1.7109947764546929e+18,0.42950391644908614,0.7009132420091324,0.3972972972972973,0.5157740278796772,0.7703296703296704,0.528174936921783,1194.0
426.0,1.7109947764646817e+18,0.5039164490861618,0.15296803652968036,0.27837837837837837,0.48251406211787723,0.46923076923076923,0.343986543313709,1192.0
427.0,1.7109947764746808e+18,0.4347258485639687,0.7054794520547946,0.3956756756756757,0.5306921007581316,0.789010989010989,0.5231286795626577,1197.0
428.0,1.7109947764846892e+18,0.5104438642297651,0.13356164383561644,0.2756756756756757,0.4883834678405478,0.48021978021978023,0.3423044575273339,1192.0
429.0,1.71099477649469e+18,0.4347258485639687,0.70662100456621,0.39837837837837836,0.5348495964783566,0.7956043956043956,0.5315391084945332,1196.0
430.0,1.7109947765047135e+18,0.5130548302872062,0.14269406392694065,0.2718918918918919,0.4558571777940817,0.46483516483516485,0.3389402859545837,1192.0
431.0,1.7109947765146857e+18,0.42950391644908614,0.6746575342465754,0.3945945945945946,0.5505013450721448,0.8219780219780219,0.5197645079899075,1195.0
432.0,1.7109947765246912e+18,0.5130548302872062,0.14383561643835616,0.27675675675675676,0.483492296404989,0.42857142857142855,0.3347350714886459,1190.0
433.0,1.7109947765346926e+18,0.4360313315926893,0.6963470319634704,0.3945945945945946,0.5306921007581316,0.8142857142857143,0.5290159798149706,1196.0
434.0,1.7109947765447173e+18,0.5026109660574413,0.12214611872146118,0.27837837837837837,0.49327463927610665,0.45604395604395603,0.3448275862068966,1191.0
435.0,1.710994776554693e+18,0.43342036553524804,0.6940639269406392,0.39675675675675676,0.520665199315236,0.7637362637362637,0.5298570227081582,1194.0
436.0,1.71099477656469e+18,0.5234986945169713,0.16210045662100456,0.27135135135135136,0.4541452677916361,0.4461538461538462,0.33978132884777124,1191.0
437.0,1.7109947765746903e+18,0.43733681462140994,0.6917808219178082,0.40054054054054056,0.5253118121790169,0.7461538461538462,0.5290159798149706,1194.0
438.0,1.710994776584691e+18,0.5117493472584856,0.1312785388127854,0.267027027027027,0.475177304964539,0.4461538461538462,0.33389402859545836,1190.0
439.0,1.7109947765946924e+18,0.4347258485639687,0.6963470319634704,0.40324324324324323,0.5372951821961359,0.7824175824175824,0.5273338940285954,1195.0
440.0,1.7109947766046979e+18,0.5130548302872062,0.16210045662100456,0.27837837837837837,0.47957935925654194,0.45384615384615384,0.343986543313709,1193.0
441.0,1.7109947766146934e+18,0.42950391644908614,0.6974885844748858,0.40054054054054056,0.5341159207630227,0.8175824175824176,0.5298570227081582,1198.0
442.0,1.7109947766246922e+18,0.5182767624020888,0.1324200913242009,0.2810810810810811,0.4871606749816581,0.49230769230769234,0.3473507148864592,1192.0
443.0,1.7109947766346941e+18,0.4308093994778068,0.6837899543378996,0.4010810810810811,0.5211543164587918,0.7615384615384615,0.5374264087468461,1196.0
444.0,1.71099477664473e+18,0.5065274151436031,0.1495433789954338,0.2708108108108108,0.45096600635852285,0.45164835164835165,0.34314550042052144,1191.0
445.0,1.710994776654737e+18,0.4216710182767624,0.6666666666666666,0.39837837837837836,0.5311812179016875,0.7923076923076923,0.5374264087468461,1196.0
446.0,1.7109947766647007e+18,0.5104438642297651,0.1404109589041096,0.2718918918918919,0.47664465639520665,0.44835164835164837,0.33389402859545836,1190.0
447.0,1.7109947766746967e+18,0.43733681462140994,0.702054794520548,0.3940540540540541,0.5282465150403521,0.7615384615384615,0.5391084945332212,1195.0
448.0,1.7109947766846825e+18,0.5143603133159269,0.13812785388127855,0.2691891891891892,0.4600146735143067,0.4736263736263736,0.3380992430613961,1191.0
449.0,1.710994776694683e+18,0.4321148825065274,0.6940639269406392,0.4010810810810811,0.5451210564930301,0.8340659340659341,0.535744322960471,1196.0
450.0,1.7109947767046943e+18,0.5182767624020888,0.1461187214611872,0.27783783783783783,0.49205184641721694,0.5043956043956044,0.3481917577796468,1189.0
451.0,1.710994776714699e+18,0.4347258485639687,0.7203196347031964,0.3989189189189189,0.5434091464905845,0.7824175824175824,0.5365853658536586,1195.0
452.0,1.7109947767246848e+18,0.5195822454308094,0.12214611872146118,0.2637837837837838,0.4761555392516508,0.4472527472527473,0.3473507148864592,1190.0
453.0,1.7109947767346844e+18,0.42689295039164493,0.6883561643835616,0.3994594594594595,0.5233553436047933,0.798901098901099,0.5264928511354079,1196.0
454.0,1.7109947767446945e+18,0.52088772845953,0.13926940639269406,0.26594594594594595,0.45023233064318907,0.4582417582417582,0.3481917577796468,1191.0
455.0,1.710994776754706e+18,0.4308093994778068,0.6917808219178082,0.40378378378378377,0.5282465150403521,0.8307692307692308,0.5458368376787216,1194.0
456.0,1.7109947767646856e+18,0.5143603133159269,0.1232876712328767,0.2718918918918919,0.4644167278063096,0.46153846153846156,0.3280067283431455,1192.0
457.0,1.7109947767746798e+18,0.4347258485639687,0.7146118721461188,0.4043243243243243,0.5311812179016875,0.8263736263736263,0.5534062237174096,1197.0
458.0,1.7109947767846863e+18,0.5156657963446475,0.136986301369863,0.26594594594594595,0.47493274639276106,0.4208791208791209,0.3355761143818335,1191.0
459.0,1.7109947767946867e+18,0.4386422976501306,0.7054794520547946,0.4010810810810811,0.5368060650525801,0.8054945054945055,0.5374264087468461,1196.0
460.0,1.7109947768046991e+18,0.5195822454308094,0.11986301369863013,0.2708108108108108,0.48691611640988014,0.45164835164835165,0.33389402859545836,1193.0
461.0,1.710994776814682e+18,0.4255874673629243,0.7123287671232876,0.40216216216216216,0.5324040107605772,0.8153846153846154,0.5349032800672834,1197.0
462.0,1.7109947768246894e+18,0.5248041775456919,0.12100456621004566,0.2691891891891892,0.4810467106872096,0.4582417582417582,0.3473507148864592,1190.0
463.0,1.7109947768346862e+18,0.4255874673629243,0.7111872146118722,0.40540540540540543,0.532893127904133,0.8296703296703297,0.5365853658536586,1196.0
464.0,1.710994776844688e+18,0.5234986945169713,0.12557077625570776,0.2681081081081081,0.4756664221080949,0.4340659340659341,0.34146341463414637,1190.0
465.0,1.7109947768547128e+18,0.42036553524804177,0.7054794520547946,0.4010810810810811,0.5302029836145757,0.7912087912087912,0.5382674516400336,1196.0
466.0,1.7109947768646753e+18,0.5234986945169713,0.136986301369863,0.26972972972972975,0.47248716067498164,0.45714285714285713,0.343986543313709,1193.0
467.0,1.7109947768746844e+18,0.4308093994778068,0.7054794520547946,0.4010810810810811,0.5448764979212521,0.8076923076923077,0.5424726661059714,1197.0
468.0,1.710994776884681e+18,0.5261096605744126,0.08447488584474885,0.267027027027027,0.48667155783810223,0.44175824175824174,0.3423044575273339,1192.0
469.0,1.7109947768946836e+18,0.4255874673629243,0.747716894977169,0.4145945945945946,0.5429200293470287,0.7912087912087912,0.5424726661059714,1195.0
470.0,1.7109947769046863e+18,0.5221932114882507,0.1141552511415525,0.2648648648648649,0.47224260210320373,0.45714285714285713,0.3389402859545837,1188.0
471.0,1.7109947769147041e+18,0.41906005221932113,0.723744292237443,0.3978378378378378,0.5108828564441183,0.789010989010989,0.5407905803195963,1197.0
472.0,1.7109947769246892e+18,0.5182767624020888,0.11757990867579908,0.26972972972972975,0.4741990706774272,0.46153846153846156,0.34146341463414637,1192.0
473.0,1.710994776934688e+18,0.4255874673629243,0.7146118721461188,0.4064864864864865,0.5321594521887992,0.7945054945054945,0.5365853658536586,1195.0
474.0,1.7109947769447063e+18,0.5130548302872062,0.11187214611872145,0.26,0.4595255563707508,0.43626373626373627,0.3322119428090833,1189.0
475.0,1.710994776954689e+18,0.42950391644908614,0.7168949771689498,0.4064864864864865,0.5235999021765713,0.845054945054945,0.5365853658536586,1196.0
476.0,1.7109947769646907e+18,0.52088772845953,0.11073059360730593,0.267027027027027,0.49938860357055515,0.4868131868131868,0.3355761143818335,1190.0
477.0,1.7109947769746916e+18,0.4216710182767624,0.728310502283105,0.4016216216216216,0.524822695035461,0.8241758241758241,0.5559293523969723,1197.0
478.0,1.7109947769846853e+18,0.5182767624020888,0.11986301369863013,0.2654054054054054,0.46368305209097577,0.43956043956043955,0.33725820016820857,1192.0
479.0,1.7109947769946831e+18,0.4164490861618799,0.7111872146118722,0.40324324324324323,0.5407190022010272,0.7791208791208791,0.5290159798149706,1196.0
480.0,1.7109947770046943e+18,0.5339425587467362,0.1141552511415525,0.2648648648648649,0.4759109806798728,0.4703296703296703,0.34987384356602186,1189.0
481.0,1.7109947770146903e+18,0.4255874673629243,0.6929223744292238,0.4027027027027027,0.5336268036194669,0.8,0.5391084945332212,1196.0
482.0,1.710994777024686e+18,0.5248041775456919,0.12100456621004566,0.267027027027027,0.4673514306676449,0.45714285714285713,0.3406223717409588,1192.0
483.0,1.7109947770346862e+18,0.42689295039164493,0.7100456621004566,0.4010810810810811,0.5487894350696992,0.7769230769230769,0.5391084945332212,1195.0
484.0,1.7109947770447007e+18,0.5300261096605744,0.12100456621004566,0.2681081081081081,0.46808510638297873,0.44395604395604393,0.3406223717409588,1192.0
485.0,1.7109947770553649e+18,0.4308093994778068,0.7134703196347032,0.4097297297297297,0.5292247493274639,0.8406593406593407,0.5391084945332212,1196.0
486.0,1.710994777064685e+18,0.5313315926892951,0.13013698630136986,0.27135135135135136,0.4702861335289802,0.4703296703296703,0.3507148864592094,1195.0
487.0,1.7109947770746908e+18,0.4151436031331593,0.7054794520547946,0.40324324324324323,0.5353387136219124,0.8142857142857143,0.5290159798149706,1195.0
488.0,1.7109947770846894e+18,0.5195822454308094,0.12557077625570776,0.2632432432432432,0.458547322083639,0.45054945054945056,0.343986543313709,1190.0
489.0,1.7109947770946867e+18,0.42036553524804177,0.7191780821917808,0.40594594594594596,0.528980190755686,0.7681318681318682,0.5256518082422204,1197.0
490.0,1.7109947771047276e+18,0.5352480417754569,0.1267123287671233,0.2735135135135135,0.46637319638053315,0.45714285714285713,0.3490328006728343,1192.0
491.0,1.7109947771146875e+18,0.42297650130548303,0.7226027397260274,0.4097297297297297,0.5333822450476889,0.810989010989011,0.5323801513877208,1194.0
492.0,1.7109947771246904e+18,0.54177545691906,0.12899543378995434,0.267027027027027,0.4595255563707508,0.45714285714285713,0.343986543313709,1192.0
493.0,1.7109947771346816e+18,0.42297650130548303,0.7054794520547946,0.4064864864864865,0.5319148936170213,0.7978021978021979,0.5256518082422204,1195.0
494.0,1.7109947771446897e+18,0.5234986945169713,0.12899543378995434,0.2686486486486486,0.48080215211543165,0.46483516483516485,0.3540790580319596,1193.0
495.0,1.710994777154711e+18,0.42297650130548303,0.7009132420091324,0.3924324324324324,0.541697236488139,0.8142857142857143,0.5256518082422204,1196.0
496.0,1.7109947771647012e+18,0.5221932114882507,0.11301369863013698,0.2745945945945946,0.4602592320860846,0.5043956043956044,0.3423044575273339,1193.0
497.0,1.7109947771746926e+18,0.4308093994778068,0.7100456621004566,0.40540540540540543,0.5302029836145757,0.8164835164835165,0.528174936921783,1196.0
498.0,1.710994777184696e+18,0.5182767624020888,0.10159817351598173,0.2664864864864865,0.47542186353631694,0.46813186813186813,0.34650967199327165,1192.0
499.0,1.7109947771946944e+18,0.42950391644908614,0.6940639269406392,0.41081081081081083,0.5365615064808021,0.7351648351648352,0.5306980656013457,1193.0
500.0,1.71099477720472e+18,0.5104438642297651,0.1267123287671233,0.26054054054054054,0.4272438248960626,0.42967032967032964,0.3406223717409588,1192.0
501.0,1.7109947772147192e+18,0.4308093994778068,0.702054794520548,0.4,0.532893127904133,0.8175824175824176,0.5340622371740958,1196.0
502.0,1.7109947772247004e+18,0.5221932114882507,0.1141552511415525,0.2708108108108108,0.46539496209342135,0.47912087912087914,0.351555929352397,1190.0
503.0,1.7109947772346893e+18,0.43733681462140994,0.6963470319634704,0.40378378378378377,0.5240890193201272,0.8340659340659341,0.5298570227081582,1193.0
504.0,1.7109947772447222e+18,0.5234986945169713,0.10388127853881278,0.2648648648648649,0.4578136463683052,0.4857142857142857,0.351555929352397,1192.0
505.0,1.7109947772546998e+18,0.42428198433420367,0.7009132420091324,0.4016216216216216,0.5302029836145757,0.7714285714285715,0.5306980656013457,1195.0
506.0,1.710994777264693e+18,0.5274151436031331,0.14383561643835616,0.27135135135135136,0.4759109806798728,0.45164835164835165,0.3582842724978974,1192.0
507.0,1.710994777274688e+18,0.4321148825065274,0.6872146118721462,0.40378378378378377,0.5316703350452433,0.7769230769230769,0.5290159798149706,1196.0
508.0,1.7109947772846935e+18,0.5039164490861618,0.12557077625570776,0.2654054054054054,0.4384935191978479,0.45384615384615384,0.343986543313709,1194.0
509.0,1.710994777294694e+18,0.42689295039164493,0.6894977168949772,0.3978378378378378,0.5306921007581316,0.7681318681318682,0.5256518082422204,1196.0
510.0,1.7109947773046945e+18,0.5195822454308094,0.1312785388127854,0.26972972972972975,0.4702861335289802,0.43736263736263736,0.34987384356602186,1190.0
511.0,1.7109947773147046e+18,0.42950391644908614,0.7009132420091324,0.4027027027027027,0.5047688921496698,0.765934065934066,0.5273338940285954,1195.0
512.0,1.71099477732471e+18,0.5091383812010444,0.1404109589041096,0.2681081081081081,0.4727317192467596,0.45164835164835165,0.351555929352397,1192.0
513.0,1.7109947773346885e+18,0.4386422976501306,0.6757990867579908,0.4,0.5527023722181462,0.7681318681318682,0.5382674516400336,1195.0
514.0,1.710994777344703e+18,0.48172323759791125,0.13812785388127855,0.2681081081081081,0.4859378821227684,0.4582417582417582,0.3599663582842725,1191.0
515.0,1.7109947773547067e+18,0.47780678851174935,0.678082191780822,0.3972972972972973,0.5314257764734654,0.8120879120879121,0.5256518082422204,1194.0
516.0,1.7109947773646912e+18,0.5039164490861618,0.14726027397260275,0.2724324324324324,0.4803130349718758,0.47692307692307695,0.35744322960470987,1192.0
517.0,1.7109947773746852e+18,0.42297650130548303,0.7009132420091324,0.3956756756756757,0.5387625336268036,0.7901098901098901,0.5222876366694701,1196.0
518.0,1.7109947773846815e+18,0.5182767624020888,0.15182648401826485,0.2681081081081081,0.4700415749572022,0.4868131868131868,0.351555929352397,1192.0
519.0,1.7109947773946865e+18,0.42950391644908614,0.6883561643835616,0.40324324324324323,0.5294693078992418,0.7769230769230769,0.5399495374264087,1195.0
520.0,1.7109947774046792e+18,0.5195822454308094,0.1495433789954338,0.26756756756756755,0.4641721692345317,0.46813186813186813,0.3490328006728343,1192.0
521.0,1.7109947774146755e+18,0.43994778067885115,0.702054794520548,0.39675675675675676,0.5280019564685742,0.7857142857142857,0.535744322960471,1196.0
522.0,1.7109947774246892e+18,0.5143603133159269,0.13470319634703196,0.27135135135135136,0.4573245292247493,0.46703296703296704,0.3473507148864592,1192.0
523.0,1.7109947774346842e+18,0.42428198433420367,0.6917808219178082,0.4027027027027027,0.524578136463683,0.7637362637362637,0.5323801513877208,1194.0
524.0,1.710994777444695e+18,0.52088772845953,0.1495433789954338,0.27405405405405403,0.46661775495231106,0.4879120879120879,0.3448275862068966,1192.0
525.0,1.7109947774546885e+18,0.4360313315926893,0.6963470319634704,0.3989189189189189,0.5216434336023478,0.7813186813186813,0.5306980656013457,1196.0
526.0,1.7109947774647002e+18,0.5130548302872062,0.14383561643835616,0.2686486486486486,0.4702861335289802,0.4824175824175824,0.3456686291000841,1192.0
527.0,1.7109947774746895e+18,0.4464751958224543,0.6963470319634704,0.40216216216216216,0.5436537050623624,0.8483516483516483,0.5315391084945332,1195.0
528.0,1.710994777484688e+18,0.5026109660574413,0.1678082191780822,0.2724324324324324,0.47664465639520665,0.5384615384615384,0.36248948696383515,1192.0
529.0,1.7109947774946857e+18,0.43733681462140994,0.6872146118721462,0.40378378378378377,0.5211543164587918,0.7692307692307693,0.5315391084945332,1194.0
530.0,1.7109947775046843e+18,0.52088772845953,0.1449771689497717,0.2654054054054054,0.4614820249449743,0.4153846153846154,0.3507148864592094,1192.0
531.0,1.7109947775146993e+18,0.4386422976501306,0.682648401826484,0.3972972972972973,0.5172413793103449,0.7329670329670329,0.5264928511354079,1196.0
532.0,1.710994777524693e+18,0.5156657963446475,0.15639269406392695,0.27675675675675676,0.4859378821227684,0.4868131868131868,0.351555929352397,1192.0
533.0,1.710994777534688e+18,0.4216710182767624,0.7157534246575342,0.3978378378378378,0.5135730007336757,0.7824175824175824,0.5290159798149706,1196.0
534.0,1.710994777544688e+18,0.5078328981723238,0.15639269406392695,0.2745945945945946,0.47224260210320373,0.4164835164835165,0.3406223717409588,1190.0
535.0,1.7109947775546952e+18,0.44778067885117495,0.702054794520548,0.39675675675675676,0.5155294693078992,0.765934065934066,0.5273338940285954,1196.0
536.0,1.7109947775647076e+18,0.5718015665796344,0.1267123287671233,0.2718918918918919,0.47248716067498164,0.46263736263736266,0.3456686291000841,1193.0
537.0,1.7109947775746867e+18,0.24804177545691905,0.6837899543378996,0.4010810810810811,0.5086818292981169,0.7912087912087912,0.5180824222035324,1193.0
538.0,1.7109947775846856e+18,0.618798955613577,0.09360730593607305,0.27135135135135136,0.46539496209342135,0.4736263736263736,0.34146341463414637,1192.0
539.0,1.7109947775946852e+18,0.45039164490861616,0.7146118721461188,0.4010810810810811,0.5341159207630227,0.7703296703296704,0.5306980656013457,1194.0
540.0,1.7109947776046866e+18,0.5182767624020888,0.1769406392694064,0.27297297297297296,0.4715089263878699,0.45604395604395603,0.3456686291000841,1192.0
541.0,1.7109947776146888e+18,0.3720626631853786,0.678082191780822,0.3972972972972973,0.5189532893127904,0.8384615384615385,0.528174936921783,1197.0
542.0,1.710994777624687e+18,0.5522193211488251,0.158675799086758,0.2718918918918919,0.4771337735387625,0.46813186813186813,0.3481917577796468,1189.0
543.0,1.7109947776346875e+18,0.38511749347258484,0.6917808219178082,0.4010810810810811,0.5372951821961359,0.7813186813186813,0.5273338940285954,1196.0
544.0,1.710994777644699e+18,0.5509138381201044,0.13470319634703196,0.2583783783783784,0.4781120078258743,0.4725274725274725,0.3549201009251472,1192.0
545.0,1.7109947776546982e+18,0.40339425587467365,0.7009132420091324,0.40378378378378377,0.5074590364392272,0.7593406593406593,0.5222876366694701,1197.0
546.0,1.7109947776646868e+18,0.566579634464752,0.14726027397260275,0.2724324324324324,0.4788456835412081,0.4340659340659341,0.3481917577796468,1191.0
547.0,1.7109947776746857e+18,0.39295039164490864,0.6894977168949772,0.40324324324324323,0.5370506236243581,0.7769230769230769,0.5273338940285954,1193.0
548.0,1.7109947776846822e+18,0.5496083550913838,0.1324200913242009,0.26594594594594595,0.4578136463683052,0.4582417582417582,0.3473507148864592,1192.0
549.0,1.710994777694682e+18,0.402088772845953,0.6952054794520548,0.40756756756756757,0.5397407679139153,0.7868131868131868,0.5264928511354079,1195.0
550.0,1.7109947777046828e+18,0.5574412532637075,0.1324200913242009,0.26216216216216215,0.48202494497432136,0.47912087912087914,0.351555929352397,1190.0
551.0,1.7109947777146854e+18,0.3981723237597911,0.7031963470319634,0.4010810810810811,0.5311812179016875,0.7813186813186813,0.5256518082422204,1195.0
552.0,1.710994777724722e+18,0.5574412532637075,0.136986301369863,0.267027027027027,0.4781120078258743,0.47692307692307695,0.36585365853658536,1192.0
553.0,1.7109947777346872e+18,0.3981723237597911,0.6894977168949772,0.4016216216216216,0.5297138664710198,0.8252747252747252,0.5323801513877208,1195.0
554.0,1.7109947777446876e+18,0.5522193211488251,0.15753424657534246,0.2951351351351351,0.5008559550012228,0.4978021978021978,0.351555929352397,1192.0
555.0,1.7109947777546895e+18,0.39425587467362927,0.6986301369863014,0.40540540540540543,0.5316703350452433,0.7846153846153846,0.5298570227081582,1196.0
556.0,1.7109947777646902e+18,0.5391644908616188,0.13926940639269406,0.267027027027027,0.48520420640743456,0.46593406593406594,0.35323801513877207,1191.0
557.0,1.7109947777747046e+18,0.402088772845953,0.7100456621004566,0.4097297297297297,0.541208119344583,0.8340659340659341,0.5290159798149706,1194.0
558.0,1.7109947777846915e+18,0.5456919060052219,0.1541095890410959,0.2702702702702703,0.4700415749572022,0.42967032967032964,0.34314550042052144,1192.0
559.0,1.7109947777946926e+18,0.38903394255874674,0.682648401826484,0.40540540540540543,0.5116165321594522,0.798901098901099,0.5399495374264087,1192.0
560.0,1.7109947778046932e+18,0.5548302872062664,0.1449771689497717,0.2681081081081081,0.475177304964539,0.4582417582417582,0.3608074011774601,1191.0
561.0,1.7109947778146908e+18,0.4007832898172324,0.6917808219178082,0.40540540540540543,0.5240890193201272,0.7835164835164835,0.5298570227081582,1196.0
562.0,1.710994777824672e+18,0.5430809399477807,0.14383561643835616,0.2724324324324324,0.4649058449498655,0.4604395604395604,0.3473507148864592,1192.0
563.0,1.7109947778346726e+18,0.40339425587467365,0.6917808219178082,0.4064864864864865,0.5306921007581316,0.8043956043956044,0.528174936921783,1195.0
564.0,1.710994777844689e+18,0.5391644908616188,0.14840182648401826,0.2637837837837838,0.4619711420885302,0.4868131868131868,0.343986543313709,1191.0
565.0,1.7109947778546954e+18,0.40339425587467365,0.6883561643835616,0.40324324324324323,0.5407190022010272,0.7593406593406593,0.5256518082422204,1196.0
566.0,1.7109947778646922e+18,0.5404699738903395,0.12557077625570776,0.26594594594594595,0.46881878209831257,0.46703296703296704,0.35576114381833474,1192.0
567.0,1.7109947778747044e+18,0.39947780678851175,0.6860730593607306,0.3972972972972973,0.533137686475911,0.756043956043956,0.5290159798149706,1195.0
568.0,1.7109947778847e+18,0.5313315926892951,0.12557077625570776,0.2735135135135135,0.47933480068476403,0.4703296703296703,0.3456686291000841,1191.0
569.0,1.7109947778946988e+18,0.40339425587467365,0.704337899543379,0.40216216216216216,0.5348495964783566,0.7615384615384615,0.5239697224558453,1193.0
570.0,1.7109947779047007e+18,0.5483028720626631,0.13356164383561644,0.2756756756756757,0.4756664221080949,0.46923076923076923,0.351555929352397,1190.0
571.0,1.7109947779146954e+18,0.39425587467362927,0.6815068493150684,0.4010810810810811,0.5172413793103449,0.7791208791208791,0.5290159798149706,1195.0
572.0,1.7109947779246804e+18,0.5339425587467362,0.13470319634703196,0.2648648648648649,0.47370995353387135,0.4703296703296703,0.3566021867115223,1191.0
573.0,1.7109947779346803e+18,0.4164490861618799,0.702054794520548,0.4016216216216216,0.5368060650525801,0.8153846153846154,0.528174936921783,1193.0
574.0,1.7109947779447055e+18,0.5469973890339426,0.13926940639269406,0.26594594594594595,0.4727317192467596,0.45274725274725275,0.3490328006728343,1192.0
575.0,1.7109947779547044e+18,0.39425587467362927,0.6917808219178082,0.4010810810810811,0.5311812179016875,0.8208791208791208,0.5239697224558453,1195.0
576.0,1.7109947779647063e+18,0.5391644908616188,0.12899543378995434,0.2610810810810811,0.47248716067498164,0.45604395604395603,0.3633305298570227,1193.0
577.0,1.7109947779746767e+18,0.40339425587467365,0.6929223744292238,0.4,0.5372951821961359,0.7923076923076923,0.520605550883095,1195.0
578.0,1.7109947779846746e+18,0.54177545691906,0.1324200913242009,0.2718918918918919,0.4805575935436537,0.48021978021978023,0.35744322960470987,1192.0
579.0,1.7109947779946714e+18,0.40600522193211486,0.6883561643835616,0.4043243243243243,0.5314257764734654,0.7725274725274726,0.5264928511354079,1194.0
580.0,1.710994778004681e+18,0.5261096605744126,0.1415525114155251,0.2632432432432432,0.4570799706529714,0.4736263736263736,0.35744322960470987,1194.0
581.0,1.7109947780146803e+18,0.4112271540469974,0.6735159817351598,0.3935135135135135,0.5059916850085595,0.7857142857142857,0.5189234650967199,1194.0
582.0,1.7109947780246807e+18,0.5456919060052219,0.16210045662100456,0.2572972972972973,0.491807287845439,0.5032967032967033,0.3641715727502103,1191.0
583.0,1.7109947780346732e+18,0.4112271540469974,0.6712328767123288,0.4010810810810811,0.5155294693078992,0.7670329670329671,0.5180824222035324,1192.0
584.0,1.7109947780446902e+18,0.5313315926892951,0.1643835616438356,0.2724324324324324,0.49229640498899485,0.4736263736263736,0.3616484440706476,1191.0
585.0,1.7109947780547512e+18,0.4007832898172324,0.6735159817351598,0.3978378378378378,0.5465884079236977,0.7879120879120879,0.520605550883095,1195.0
586.0,1.7109947780647078e+18,0.5287206266318538,0.14840182648401826,0.27135135135135136,0.47664465639520665,0.4879120879120879,0.35744322960470987,1189.0
587.0,1.710994778074688e+18,0.41906005221932113,0.6883561643835616,0.39513513513513515,0.5282465150403521,0.7791208791208791,0.5189234650967199,1194.0
588.0,1.7109947780846766e+18,0.54177545691906,0.07191780821917808,0.27837837837837837,0.45341159207630227,0.46263736263736266,0.36921783010933557,1192.0
589.0,1.710994778094683e+18,0.42036553524804177,0.6815068493150684,0.41027027027027024,0.5138175593054537,0.8274725274725274,0.5121951219512195,1193.0
590.0,1.7109947781046766e+18,0.5182767624020888,0.04794520547945205,0.27405405405405403,0.47224260210320373,0.49340659340659343,0.3633305298570227,1189.0
591.0,1.710994778114687e+18,0.4046997389033943,0.8573059360730594,0.4081081081081081,0.5265346050379066,0.7582417582417582,0.5105130361648444,1196.0
592.0,1.7109947781246892e+18,0.5234986945169713,0.07990867579908675,0.24864864864864866,0.48813890926876985,0.4912087912087912,0.35744322960470987,1189.0
593.0,1.7109947781346916e+18,0.42950391644908614,0.769406392694064,0.4081081081081081,0.5348495964783566,0.7868131868131868,0.5164003364171573,1193.0
594.0,1.7109947781446797e+18,0.5234986945169713,0.07077625570776255,0.27783783783783783,0.48080215211543165,0.4747252747252747,0.36248948696383515,1190.0
595.0,1.7109947781546893e+18,0.42428198433420367,0.7408675799086758,0.4064864864864865,0.491562729273661,0.7824175824175824,0.5147182506307821,1194.0
596.0,1.71099477816468e+18,0.5234986945169713,0.07420091324200913,0.26972972972972975,0.4817803864025434,0.47912087912087914,0.3616484440706476,1192.0
597.0,1.7109947781746775e+18,0.4347258485639687,0.747716894977169,0.4010810810810811,0.5221325507459036,0.7406593406593407,0.503784693019344,1196.0
598.0,1.7109947781846766e+18,0.5143603133159269,0.09360730593607305,0.2718918918918919,0.4744436292492052,0.4747252747252747,0.37174095878889823,1192.0
599.0,1.710994778194679e+18,0.41906005221932113,0.7420091324200914,0.3989189189189189,0.5387625336268036,0.7923076923076923,0.511354079058032,1196.0
600.0,1.7109947782046807e+18,0.5169712793733682,0.0821917808219178,0.2762162162162162,0.4600146735143067,0.4846153846153846,0.36248948696383515,1192.0
601.0,1.7109947782146888e+18,0.4255874673629243,0.7111872146118722,0.3891891891891892,0.5187087307410124,0.7417582417582418,0.5012615643397813,1196.0
602.0,1.7109947782246907e+18,0.5104438642297651,0.1004566210045662,0.2772972972972973,0.46784054781120077,0.5,0.375946173254836,1192.0
603.0,1.7109947782346913e+18,0.4216710182767624,0.7328767123287672,0.3945945945945946,0.4741990706774272,0.721978021978022,0.49957947855340623,1194.0
604.0,1.7109947782447025e+18,0.5234986945169713,0.0958904109589041,0.27297297297297296,0.47664465639520665,0.4758241758241758,0.3809924306139613,1193.0
605.0,1.7109947782546867e+18,0.42950391644908614,0.7511415525114156,0.3972972972972973,0.5267791636096845,0.7505494505494505,0.5021026072329688,1196.0
606.0,1.7109947782646879e+18,0.5182767624020888,0.10844748858447488,0.2724324324324324,0.4781120078258743,0.521978021978022,0.3843566021867115,1193.0
607.0,1.7109947782746796e+18,0.4360313315926893,0.7294520547945206,0.3978378378378378,0.5429200293470287,0.7879120879120879,0.5029436501261564,1194.0
608.0,1.7109947782846884e+18,0.5326370757180157,0.091324200913242,0.2718918918918919,0.4859378821227684,0.4912087912087912,0.38183347350714886,1193.0
609.0,1.7109947782946842e+18,0.4255874673629243,0.6952054794520548,0.3978378378378378,0.5152849107361213,0.7230769230769231,0.488645920941968,1195.0
610.0,1.7109947783046858e+18,0.5104438642297651,0.10273972602739725,0.27945945945945944,0.45072144778674494,0.47802197802197804,0.3793103448275862,1190.0
611.0,1.7109947783146847e+18,0.4308093994778068,0.7100456621004566,0.387027027027027,0.5011005135730008,0.7538461538461538,0.4978973927670311,1195.0
612.0,1.710994778324679e+18,0.5091383812010444,0.1187214611872146,0.27405405405405403,0.4746881878209831,0.489010989010989,0.38183347350714886,1193.0
613.0,1.710994778334674e+18,0.4347258485639687,0.6929223744292238,0.3881081081081081,0.5218879921741257,0.7516483516483516,0.5088309503784693,1193.0
614.0,1.710994778344708e+18,0.5104438642297651,0.1415525114155251,0.2810810810810811,0.48520420640743456,0.4989010989010989,0.383515559293524,1192.0
615.0,1.7109947783546888e+18,0.4308093994778068,0.7203196347031964,0.40756756756756757,0.520665199315236,0.7582417582417582,0.5046257359125316,1196.0
616.0,1.7109947783646904e+18,0.5130548302872062,0.1324200913242009,0.2789189189189189,0.48251406211787723,0.545054945054945,0.3919259882253995,1192.0
617.0,1.7109947783747082e+18,0.4007832898172324,0.6643835616438356,0.3881081081081081,0.5194424064563463,0.7065934065934066,0.4920100925147183,1194.0
618.0,1.7109947783846833e+18,0.5065274151436031,0.1780821917808219,0.27297297297297296,0.46539496209342135,0.5087912087912088,0.3902439024390244,1190.0
619.0,1.710994778394682e+18,0.43994778067885115,0.7214611872146118,0.4,0.5348495964783566,0.7637362637362637,0.4920100925147183,1193.0
620.0,1.7109947784046817e+18,0.5835509138381201,0.11757990867579908,0.2735135135135135,0.4888725849841037,0.44835164835164837,0.37174095878889823,1191.0
621.0,1.7109947784146819e+18,0.39947780678851175,0.7009132420091324,0.42648648648648646,0.5375397407679139,0.7868131868131868,0.496215306980656,1193.0
622.0,1.7109947784246787e+18,0.5182767624020888,0.1404109589041096,0.2935135135135135,0.5003668378576669,0.5406593406593406,0.39444911690496215,1192.0
623.0,1.7109947784346844e+18,0.42428198433420367,0.702054794520548,0.3708108108108108,0.5377842993396919,0.7505494505494505,0.4852817493692178,1193.0
624.0,1.7109947784446996e+18,0.5091383812010444,0.1278538812785388,0.23243243243243245,0.4781120078258743,0.5417582417582417,0.3885618166526493,1189.0
625.0,1.7109947784546883e+18,0.40992167101827676,0.6963470319634704,0.37783783783783786,0.5473220836390316,0.7571428571428571,0.4894869638351556,1196.0
626.0,1.7109947784646904e+18,0.5339425587467362,0.1358447488584475,0.29783783783783785,0.48789435069699194,0.5010989010989011,0.38519764507989906,1192.0
627.0,1.710994778474704e+18,0.4308093994778068,0.6963470319634704,0.3989189189189189,0.5270237221814624,0.7153846153846154,0.4852817493692178,1196.0
628.0,1.7109947784846894e+18,0.5300261096605744,0.1541095890410959,0.28702702702702704,0.4842259721203228,0.4846153846153846,0.383515559293524,1190.0
629.0,1.7109947784946819e+18,0.42950391644908614,0.6746575342465754,0.39135135135135135,0.5204206407434581,0.7384615384615385,0.48444070647603027,1194.0
630.0,1.7109947785046774e+18,0.5169712793733682,0.1552511415525114,0.2891891891891892,0.48667155783810223,0.5043956043956044,0.3860386879730866,1191.0
631.0,1.7109947785146844e+18,0.42428198433420367,0.6837899543378996,0.4016216216216216,0.5622401565174859,0.7923076923076923,0.4861227922624054,1194.0
632.0,1.7109947785246945e+18,0.5195822454308094,0.16666666666666666,0.28216216216216217,0.48911714355588165,0.532967032967033,0.3809924306139613,1189.0
633.0,1.7109947785346977e+18,0.4321148825065274,0.6461187214611872,0.38432432432432434,0.5162631450232331,0.7417582417582418,0.49957947855340623,1195.0
634.0,1.7109947785446894e+18,0.5078328981723238,0.17123287671232876,0.2843243243243243,0.4830031792614331,0.5230769230769231,0.39781328847771236,1192.0
635.0,1.710994778554687e+18,0.42036553524804177,0.6529680365296804,0.3924324324324324,0.5089263878698949,0.7505494505494505,0.4785534062237174,1196.0
636.0,1.710994778564684e+18,0.5078328981723238,0.182648401826484,0.29081081081081084,0.4886280264123258,0.4956043956043956,0.39444911690496215,1191.0
637.0,1.7109947785747026e+18,0.4412532637075718,0.660958904109589,0.3886486486486487,0.5297138664710198,0.7417582417582418,0.4945332211942809,1193.0
638.0,1.7109947785846897e+18,0.5130548302872062,0.14840182648401826,0.29405405405405405,0.48202494497432136,0.5505494505494506,0.3952901597981497,1192.0
639.0,1.7109947785946847e+18,0.4321148825065274,0.6746575342465754,0.37513513513513513,0.5174859378821227,0.7307692307692307,0.48107653490328006,1195.0
640.0,1.710994778604684e+18,0.5143603133159269,0.15182648401826485,0.28324324324324324,0.4854487649792125,0.5362637362637362,0.3885618166526493,1193.0
641.0,1.7109947786146834e+18,0.4360313315926893,0.66324200913242,0.3810810810810811,0.5299584250427978,0.7604395604395604,0.4785534062237174,1193.0
642.0,1.7109947786246858e+18,0.52088772845953,0.1678082191780822,0.2843243243243243,0.48691611640988014,0.5296703296703297,0.3952901597981497,1193.0
643.0,1.7109947786347013e+18,0.43733681462140994,0.660958904109589,0.37891891891891893,0.5089263878698949,0.7065934065934066,0.48359966358284273,1194.0
644.0,1.7109947786446922e+18,0.5130548302872062,0.1643835616438356,0.29027027027027025,0.4827586206896552,0.5175824175824176,0.4020185029436501,1192.0
645.0,1.7109947786546916e+18,0.4347258485639687,0.6700913242009132,0.3827027027027027,0.5238444607483492,0.7241758241758242,0.4768713204373423,1194.0
646.0,1.71099477866469e+18,0.5182767624020888,0.18036529680365296,0.2789189189189189,0.4925409635607728,0.5296703296703297,0.40117746005046256,1192.0
647.0,1.7109947786747064e+18,0.4321148825065274,0.6735159817351598,0.3827027027027027,0.5113719735876743,0.7263736263736263,0.479394449116905,1193.0
648.0,1.710994778684696e+18,0.5104438642297651,0.1769406392694064,0.29081081081081084,0.4812912692589875,0.5318681318681319,0.4020185029436501,1192.0
649.0,1.7109947786946885e+18,0.42950391644908614,0.6746575342465754,0.37945945945945947,0.5020787478601125,0.710989010989011,0.47434819175777965,1193.0
650.0,1.7109947787046915e+18,0.5,0.20776255707762556,0.2972972972972973,0.47933480068476403,0.5296703296703297,0.39444911690496215,1190.0
651.0,1.7109947787146893e+18,0.4516971279373368,0.6552511415525114,0.3816216216216216,0.5138175593054537,0.7241758241758242,0.4726661059714045,1196.0
652.0,1.7109947787246922e+18,0.5091383812010444,0.1769406392694064,0.31027027027027027,0.4800684764000978,0.5076923076923077,0.40117746005046256,1193.0
653.0,1.7109947787347144e+18,0.4321148825065274,0.6415525114155252,0.38432432432432434,0.524822695035461,0.7142857142857143,0.4735071488645921,1196.0
654.0,1.7109947787446838e+18,0.5143603133159269,0.182648401826484,0.28054054054054056,0.48618244069454636,0.5494505494505495,0.40454163162321277,1190.0
655.0,1.7109947787546854e+18,0.4451697127937337,0.6312785388127854,0.3762162162162162,0.5135730007336757,0.7076923076923077,0.4735071488645921,1193.0
656.0,1.7109947787646897e+18,0.5065274151436031,0.1917808219178082,0.2897297297297297,0.48667155783810223,0.5747252747252747,0.4095878889823381,1192.0
657.0,1.710994778774699e+18,0.45039164490861616,0.6210045662100456,0.3762162162162162,0.5172413793103449,0.6923076923076923,0.471825063078217,1193.0
658.0,1.710994778784718e+18,0.5,0.20319634703196346,0.28162162162162163,0.5013450721447786,0.532967032967033,0.4062237174095879,1192.0
659.0,1.710994778794707e+18,0.43994778067885115,0.6415525114155252,0.3675675675675676,0.5184641721692346,0.7076923076923077,0.4726661059714045,1195.0
660.0,1.710994778804697e+18,0.49738903394255873,0.2089041095890411,0.30864864864864866,0.4996331621423331,0.5395604395604395,0.4095878889823381,1193.0
661.0,1.7109947788146975e+18,0.4490861618798956,0.632420091324201,0.36864864864864866,0.491562729273661,0.6912087912087912,0.46846089150546677,1197.0
662.0,1.7109947788246986e+18,0.49738903394255873,0.20205479452054795,0.28540540540540543,0.491807287845439,0.5604395604395604,0.4112699747687132,1191.0
663.0,1.7109947788346985e+18,0.45039164490861616,0.6438356164383562,0.40324324324324323,0.5184641721692346,0.7604395604395604,0.46509671993271656,1194.0
664.0,1.710994778844697e+18,0.5026109660574413,0.2054794520547945,0.2935135135135135,0.46099290780141844,0.512087912087912,0.40706476030277544,1192.0
665.0,1.7109947788546936e+18,0.46344647519582244,0.6084474885844748,0.3708108108108108,0.499877720714111,0.6802197802197802,0.4634146341463415,1193.0
666.0,1.7109947788646948e+18,0.49738903394255873,0.19406392694063926,0.28702702702702704,0.49058449498654927,0.5439560439560439,0.4062237174095879,1191.0
667.0,1.7109947788746934e+18,0.45039164490861616,0.6426940639269406,0.4016216216216216,0.5226216678894595,0.6846153846153846,0.4608915054667788,1194.0
668.0,1.710994778884702e+18,0.4960835509138381,0.1997716894977169,0.292972972972973,0.4871606749816581,0.5483516483516484,0.4112699747687132,1192.0
669.0,1.7109947788947072e+18,0.4556135770234987,0.6050228310502284,0.37945945945945947,0.5157740278796772,0.7175824175824176,0.44911690496215306,1194.0
670.0,1.7109947789046812e+18,0.489556135770235,0.22602739726027396,0.28540540540540543,0.43775984348251407,0.521978021978022,0.4129520605550883,1190.0
671.0,1.710994778914682e+18,0.45039164490861616,0.6027397260273972,0.37351351351351353,0.5179750550256786,0.676923076923077,0.46509671993271656,1194.0
672.0,1.710994778924682e+18,0.49738903394255873,0.2579908675799087,0.2897297297297297,0.49033993641477136,0.5362637362637362,0.4213624894869638,1193.0
673.0,1.7109947789346831e+18,0.45691906005221933,0.5821917808219178,0.3545945945945946,0.5121056493030081,0.656043956043956,0.45500420521446594,1195.0
674.0,1.7109947789447012e+18,0.4869451697127937,0.2328767123287671,0.3037837837837838,0.49645390070921985,0.5560439560439561,0.4280908326324643,1193.0
675.0,1.7109947789546985e+18,0.48172323759791125,0.5536529680365296,0.37405405405405406,0.520665199315236,0.778021978021978,0.4625735912531539,1195.0
676.0,1.7109947789646948e+18,0.4856396866840731,0.1461187214611872,0.3108108108108108,0.49033993641477136,0.6197802197802198,0.42977291841883936,1192.0
677.0,1.7109947789746865e+18,0.4556135770234987,0.6278538812785388,0.35945945945945945,0.4927855221325507,0.7329670329670329,0.45500420521446594,1194.0
678.0,1.7109947789846945e+18,0.4869451697127937,0.2694063926940639,0.292972972972973,0.4888725849841037,0.5505494505494506,0.4255677039529016,1193.0
679.0,1.7109947789947471e+18,0.4621409921671018,0.6643835616438356,0.3675675675675676,0.5006113964294449,0.6956043956043956,0.45164003364171573,1194.0
680.0,1.7109947790046764e+18,0.4869451697127937,0.19863013698630136,0.3210810810810811,0.4937637564196625,0.5725274725274725,0.42977291841883936,1192.0
681.0,1.7109947790146734e+18,0.4725848563968668,0.6575342465753424,0.37783783783783786,0.5094155050134507,0.6835164835164835,0.4558452481076535,1195.0
682.0,1.7109947790246833e+18,0.4804177545691906,0.2237442922374429,0.31351351351351353,0.4854487649792125,0.5021978021978022,0.4121110176619008,1193.0
683.0,1.710994779034683e+18,0.4660574412532637,0.589041095890411,0.35567567567567565,0.47664465639520665,0.6230769230769231,0.4449116904962153,1194.0
684.0,1.710994779044692e+18,0.48172323759791125,0.2454337899543379,0.29945945945945945,0.47957935925654194,0.5791208791208792,0.432296047098402,1192.0
685.0,1.7109947790546793e+18,0.4751958224543081,0.5947488584474886,0.3708108108108108,0.5111274150158963,0.6758241758241759,0.4432296047098402,1197.0
686.0,1.710994779064684e+18,0.4765013054830287,0.2317351598173516,0.31567567567567567,0.491807287845439,0.5505494505494506,0.4339781328847771,1191.0
687.0,1.7109947790746842e+18,0.45691906005221933,0.593607305936073,0.3783783783783784,0.5103937393005625,0.7,0.4533221194280908,1196.0
688.0,1.7109947790846858e+18,0.4660574412532637,0.2534246575342466,0.2967567567567568,0.47224260210320373,0.5747252747252747,0.4280908326324643,1191.0
689.0,1.710994779094703e+18,0.46736292428198434,0.5639269406392694,0.35405405405405405,0.49498654927855223,0.721978021978022,0.4381833473507149,1194.0
690.0,1.7109947791046758e+18,0.47127937336814624,0.2568493150684932,0.3324324324324324,0.4942528735632184,0.5791208791208792,0.4432296047098402,1192.0
691.0,1.7109947791146926e+18,0.46866840731070497,0.5970319634703196,0.3551351351351351,0.4812912692589875,0.6736263736263737,0.4381833473507149,1193.0
692.0,1.710994779124686e+18,0.4765013054830287,0.2545662100456621,0.32756756756756755,0.4988994864269993,0.5615384615384615,0.4432296047098402,1195.0
693.0,1.7109947791346842e+18,0.4660574412532637,0.5662100456621004,0.36324324324324325,0.5030569821472243,0.6857142857142857,0.44575273338940286,1195.0
694.0,1.7109947791446858e+18,0.47780678851174935,0.2511415525114155,0.2897297297297297,0.49474199070677427,0.5835164835164836,0.4339781328847771,1190.0
695.0,1.7109947791547077e+18,0.47911227154047,0.5776255707762558,0.36648648648648646,0.5084372707263389,0.689010989010989,0.44238856181665265,1196.0
696.0,1.7109947791646804e+18,0.46475195822454307,0.271689497716895,0.31189189189189187,0.5006113964294449,0.6197802197802198,0.43566021867115223,1195.0
697.0,1.7109947791746767e+18,0.4869451697127937,0.5684931506849316,0.37945945945945947,0.5086818292981169,0.6571428571428571,0.4415475189234651,1195.0
698.0,1.7109947791846781e+18,0.45691906005221933,0.2831050228310502,0.3091891891891892,0.49033993641477136,0.5758241758241758,0.4415475189234651,1193.0
699.0,1.710994779194679e+18,0.4751958224543081,0.5570776255707762,0.35783783783783785,0.4974321349963316,0.6516483516483517,0.432296047098402,1190.0
700.0,1.710994779204683e+18,0.4660574412532637,0.2819634703196347,0.3005405405405405,0.5030569821472243,0.5263736263736264,0.44238856181665265,1195.0
701.0,1.7109947792146732e+18,0.47389033942558745,0.5639269406392694,0.36648648648648646,0.5015896307165566,0.6626373626373626,0.43313708999158956,1192.0
702.0,1.7109947792246774e+18,0.47127937336814624,0.2648401826484018,0.3075675675675676,0.4966984592809978,0.5846153846153846,0.45164003364171573,1195.0
703.0,1.710994779234678e+18,0.489556135770235,0.565068493150685,0.37945945945945947,0.5145512350207875,0.6868131868131868,0.4432296047098402,1192.0
704.0,1.7109947792446833e+18,0.4595300261096606,0.271689497716895,0.3232432432432432,0.4888725849841037,0.5846153846153846,0.43650126156433977,1195.0
705.0,1.7109947792547023e+18,0.47911227154047,0.5319634703196348,0.35405405405405405,0.5059916850085595,0.6450549450549451,0.4348191757779647,1196.0
706.0,1.7109947792646833e+18,0.46866840731070497,0.295662100456621,0.32972972972972975,0.5037906578625581,0.6054945054945055,0.45500420521446594,1196.0
707.0,1.7109947792746783e+18,0.47780678851174935,0.5388127853881278,0.387027027027027,0.5055025678650037,0.6626373626373626,0.4381833473507149,1193.0
708.0,1.7109947792846766e+18,0.46475195822454307,0.3082191780821918,0.31567567567567567,0.48813890926876985,0.5846153846153846,0.4449116904962153,1195.0
709.0,1.7109947792946772e+18,0.4960835509138381,0.5182648401826484,0.35567567567567565,0.49938860357055515,0.6131868131868132,0.4306139613120269,1192.0
710.0,1.7109947793046843e+18,0.4608355091383812,0.3093607305936073,0.31675675675675674,0.4984103692834434,0.5802197802197803,0.4440706476030278,1194.0
711.0,1.7109947793146898e+18,0.4856396866840731,0.5285388127853882,0.3427027027027027,0.5077035950110051,0.6274725274725275,0.4255677039529016,1192.0
712.0,1.7109947793246915e+18,0.46475195822454307,0.3047945205479452,0.3308108108108108,0.504035216434336,0.578021978021978,0.43986543313709,1194.0
713.0,1.7109947793346872e+18,0.4869451697127937,0.5182648401826484,0.3464864864864865,0.5057471264367817,0.6241758241758242,0.4306139613120269,1190.0
714.0,1.7109947793447224e+18,0.45822454308093996,0.3036529680365297,0.32432432432432434,0.4896062606994375,0.6274725274725275,0.44911690496215306,1193.0
715.0,1.7109947793546998e+18,0.489556135770235,0.526255707762557,0.35945945945945945,0.504524333577892,0.6417582417582418,0.42640874684608915,1191.0
716.0,1.7109947793646781e+18,0.46344647519582244,0.3150684931506849,0.3162162162162162,0.5011005135730008,0.6175824175824176,0.45836837678721615,1193.0
717.0,1.710994779374691e+18,0.5039164490861618,0.5045662100456622,0.36,0.5094155050134507,0.6296703296703297,0.4289318755256518,1191.0
718.0,1.710994779384686e+18,0.45822454308093996,0.3242009132420091,0.3210810810810811,0.49058449498654927,0.6153846153846154,0.4415475189234651,1196.0
719.0,1.7109947793946852e+18,0.48825065274151436,0.5273972602739726,0.36648648648648646,0.5057471264367817,0.6384615384615384,0.43313708999158956,1192.0
720.0,1.7109947794047078e+18,0.45822454308093996,0.295662100456621,0.2967567567567568,0.5094155050134507,0.634065934065934,0.45248107653490327,1196.0
721.0,1.7109947794146885e+18,0.49477806788511747,0.5091324200913242,0.35027027027027025,0.47664465639520665,0.6329670329670329,0.42977291841883936,1192.0
722.0,1.7109947794246802e+18,0.4556135770234987,0.3367579908675799,0.30972972972972973,0.49498654927855223,0.6164835164835165,0.4533221194280908,1194.0
723.0,1.7109947794346826e+18,0.4960835509138381,0.5205479452054794,0.35567567567567565,0.49938860357055515,0.6142857142857143,0.42977291841883936,1192.0
724.0,1.7109947794447265e+18,0.4595300261096606,0.341324200913242,0.30648648648648646,0.5055025678650037,0.589010989010989,0.45164003364171573,1196.0
725.0,1.710994779454682e+18,0.47911227154047,0.4954337899543379,0.34324324324324323,0.5028124235754463,0.5978021978021978,0.4112699747687132,1192.0
726.0,1.7109947794646935e+18,0.4516971279373368,0.3470319634703196,0.31405405405405407,0.5015896307165566,0.6142857142857143,0.456686291000841,1195.0
727.0,1.7109947794746813e+18,0.49869451697127937,0.5171232876712328,0.3567567567567568,0.49816581071166544,0.6186813186813187,0.4238856181665265,1191.0
728.0,1.7109947794846822e+18,0.4556135770234987,0.339041095890411,0.31351351351351353,0.4996331621423331,0.5923076923076923,0.46173254835996635,1196.0
729.0,1.710994779494681e+18,0.4934725848563969,0.4931506849315068,0.3567567567567568,0.499877720714111,0.6384615384615384,0.4121110176619008,1194.0
730.0,1.71099477950469e+18,0.4556135770234987,0.3310502283105023,0.31351351351351353,0.504035216434336,0.6373626373626373,0.45836837678721615,1195.0
731.0,1.710994779514684e+18,0.489556135770235,0.5034246575342466,0.3318918918918919,0.504524333577892,0.6362637362637362,0.4213624894869638,1193.0
732.0,1.7109947795246868e+18,0.4595300261096606,0.319634703196347,0.3172972972972973,0.504524333577892,0.6098901098901099,0.4507989907485282,1196.0
733.0,1.710994779534683e+18,0.49738903394255873,0.4840182648401826,0.33135135135135135,0.5064808021521154,0.6307692307692307,0.407905803195963,1191.0
734.0,1.7109947795446876e+18,0.4425587467362924,0.3447488584474886,0.3345945945945946,0.5309366593299095,0.6164835164835165,0.45164003364171573,1195.0
735.0,1.7109947795547057e+18,0.49477806788511747,0.5057077625570776,0.3372972972972973,0.48813890926876985,0.6318681318681318,0.42052144659377627,1193.0
736.0,1.7109947795646915e+18,0.45300261096605743,0.3595890410958904,0.3643243243243243,0.5057471264367817,0.6076923076923076,0.4600504625735913,1196.0
737.0,1.710994779574686e+18,0.49477806788511747,0.4908675799086758,0.34054054054054056,0.4969430178527757,0.6241758241758242,0.42052144659377627,1193.0
738.0,1.7109947795846994e+18,0.45300261096605743,0.3550228310502283,0.3254054054054054,0.504524333577892,0.6098901098901099,0.4592094196804037,1194.0
739.0,1.7109947795946844e+18,0.4960835509138381,0.4771689497716895,0.33837837837837836,0.4966984592809978,0.6054945054945055,0.4121110176619008,1192.0
740.0,1.7109947796046853e+18,0.4490861618798956,0.3641552511415525,0.32432432432432434,0.5035460992907801,0.6417582417582418,0.464255677039529,1195.0
741.0,1.7109947796146862e+18,0.49216710182767626,0.4680365296803653,0.34540540540540543,0.49205184641721694,0.6428571428571429,0.41968040370058873,1191.0
742.0,1.7109947796246838e+18,0.4412532637075718,0.3675799086757991,0.3216216216216216,0.5047688921496698,0.5989010989010989,0.4507989907485282,1196.0
743.0,1.710994779634686e+18,0.49216710182767626,0.4726027397260274,0.33837837837837836,0.5059916850085595,0.6175824175824176,0.4129520605550883,1192.0
744.0,1.7109947796446912e+18,0.44386422976501305,0.3401826484018265,0.3232432432432432,0.495720224993886,0.643956043956044,0.4592094196804037,1196.0
745.0,1.7109947796547018e+18,0.5039164490861618,0.4748858447488584,0.34324324324324323,0.4984103692834434,0.5923076923076923,0.4053826745164003,1194.0
746.0,1.7109947796646843e+18,0.45039164490861616,0.3664383561643836,0.3302702702702703,0.5113719735876743,0.6681318681318681,0.4726661059714045,1195.0
747.0,1.7109947796746908e+18,0.49869451697127937,0.4497716894977169,0.34702702702702704,0.49816581071166544,0.6241758241758242,0.4146341463414634,1191.0
748.0,1.7109947796847014e+18,0.45300261096605743,0.3755707762557078,0.31891891891891894,0.5086818292981169,0.6428571428571429,0.46846089150546677,1196.0
749.0,1.7109947796946867e+18,0.49869451697127937,0.4680365296803653,0.37513513513513513,0.5094155050134507,0.6428571428571429,0.4213624894869638,1193.0
750.0,1.710994779704692e+18,0.45300261096605743,0.3778538812785388,0.3291891891891892,0.5152849107361213,0.621978021978022,0.4608915054667788,1193.0
751.0,1.7109947797146867e+18,0.5078328981723238,0.4646118721461187,0.3302702702702703,0.5018341892883346,0.6186813186813187,0.4129520605550883,1190.0
752.0,1.710994779724687e+18,0.4516971279373368,0.3995433789954338,0.3372972972972973,0.5179750550256786,0.6274725274725275,0.46846089150546677,1196.0
753.0,1.7109947797346819e+18,0.5130548302872062,0.4589041095890411,0.3464864864864865,0.4991440449987772,0.6406593406593407,0.4188393608074012,1193.0
754.0,1.7109947797446904e+18,0.4425587467362924,0.3675799086757991,0.3318918918918919,0.5050134507214478,0.6021978021978022,0.4634146341463415,1196.0
755.0,1.7109947797549363e+18,0.5104438642297651,0.4463470319634703,0.3324324324324324,0.48642699926632427,0.5945054945054945,0.41379310344827586,1190.0
756.0,1.710994779764705e+18,0.4464751958224543,0.3995433789954338,0.3264864864864865,0.5255563707507949,0.6208791208791209,0.46846089150546677,1194.0
757.0,1.7109947797746924e+18,0.49738903394255873,0.4406392694063927,0.3302702702702703,0.4900953778429934,0.6274725274725275,0.407905803195963,1193.0
758.0,1.7109947797846876e+18,0.4425587467362924,0.4018264840182648,0.3302702702702703,0.4974321349963316,0.6153846153846154,0.4726661059714045,1193.0
759.0,1.710994779794688e+18,0.49738903394255873,0.4360730593607306,0.33405405405405403,0.5008559550012228,0.6450549450549451,0.4062237174095879,1192.0
760.0,1.7109947798046856e+18,0.4412532637075718,0.4063926940639269,0.3481081081081081,0.504524333577892,0.6142857142857143,0.46846089150546677,1195.0
761.0,1.710994779814702e+18,0.5104438642297651,0.454337899543379,0.34594594594594597,0.4925409635607728,0.5758241758241758,0.4062237174095879,1192.0
762.0,1.71099477982468e+18,0.44386422976501305,0.3824200913242009,0.3389189189189189,0.512594766446564,0.6538461538461539,0.4693019343986543,1196.0
763.0,1.7109947798346867e+18,0.5026109660574413,0.4349315068493151,0.32972972972972975,0.5018341892883346,0.6054945054945055,0.407905803195963,1189.0
764.0,1.7109947798446904e+18,0.43994778067885115,0.3984018264840183,0.3356756756756757,0.5064808021521154,0.6494505494505495,0.471825063078217,1194.0
765.0,1.7109947798546831e+18,0.5,0.4486301369863014,0.327027027027027,0.4773783321105405,0.589010989010989,0.4095878889823381,1192.0
766.0,1.7109947798647155e+18,0.45039164490861616,0.3858447488584475,0.3345945945945946,0.5106382978723404,0.6472527472527473,0.4693019343986543,1195.0
767.0,1.710994779874689e+18,0.5065274151436031,0.4383561643835616,0.34054054054054056,0.5015896307165566,0.5967032967032967,0.4062237174095879,1193.0
768.0,1.7109947798846804e+18,0.43994778067885115,0.4063926940639269,0.3362162162162162,0.512594766446564,0.654945054945055,0.4785534062237174,1194.0
769.0,1.7109947798946826e+18,0.5039164490861618,0.4246575342465753,0.3264864864864865,0.4937637564196625,0.5879120879120879,0.400336417157275,1193.0
770.0,1.7109947799046835e+18,0.44386422976501305,0.4098173515981735,0.34054054054054056,0.5067253607238934,0.6373626373626373,0.4751892346509672,1196.0
771.0,1.710994779914686e+18,0.5039164490861618,0.4143835616438356,0.3254054054054054,0.49400831499144043,0.610989010989011,0.407905803195963,1190.0
772.0,1.7109947799246884e+18,0.44386422976501305,0.4018264840182648,0.3362162162162162,0.5015896307165566,0.6593406593406593,0.4827586206896552,1196.0
773.0,1.7109947799346847e+18,0.5039164490861618,0.4212328767123288,0.32432432432432434,0.49400831499144043,0.6417582417582418,0.4163162321278385,1191.0
774.0,1.7109947799447027e+18,0.4386422976501306,0.4041095890410959,0.34864864864864864,0.5015896307165566,0.6571428571428571,0.4760302775441548,1194.0
775.0,1.710994779954696e+18,0.5091383812010444,0.410958904109589,0.3286486486486486,0.4971875764245537,0.6164835164835165,0.40117746005046256,1191.0
776.0,1.7109947799646915e+18,0.4347258485639687,0.4406392694063927,0.3654054054054054,0.5128393250183418,0.6681318681318681,0.4802354920100925,1194.0
777.0,1.7109947799746908e+18,0.5078328981723238,0.4041095890410959,0.3264864864864865,0.4969430178527757,0.6384615384615384,0.4028595458368377,1192.0
778.0,1.7109947799846897e+18,0.43994778067885115,0.4006849315068493,0.33405405405405403,0.5086818292981169,0.6230769230769231,0.479394449116905,1195.0
779.0,1.7109947799946916e+18,0.5065274151436031,0.4166666666666667,0.3254054054054054,0.49107361213010514,0.610989010989011,0.4020185029436501,1192.0
780.0,1.710994780004693e+18,0.43994778067885115,0.3949771689497717,0.34,0.5035460992907801,0.6197802197802198,0.4701429772918419,1196.0
781.0,1.7109947800146929e+18,0.5234986945169713,0.4269406392694064,0.34756756756756757,0.491807287845439,0.6010989010989011,0.4121110176619008,1193.0
782.0,1.710994780024689e+18,0.43733681462140994,0.410958904109589,0.3410810810810811,0.5184641721692346,0.6648351648351648,0.4760302775441548,1196.0
783.0,1.7109947800346954e+18,0.5078328981723238,0.4052511415525114,0.31675675675675674,0.49498654927855223,0.6384615384615384,0.4112699747687132,1193.0
784.0,1.7109947800446927e+18,0.4412532637075718,0.4098173515981735,0.34324324324324323,0.5155294693078992,0.6428571428571429,0.4861227922624054,1193.0
785.0,1.710994780054695e+18,0.5130548302872062,0.4155251141552511,0.3302702702702703,0.49474199070677427,0.5384615384615384,0.40370058873002523,1191.0
786.0,1.7109947800647096e+18,0.43733681462140994,0.4269406392694064,0.34162162162162163,0.5086818292981169,0.667032967032967,0.4751892346509672,1195.0
787.0,1.7109947800746995e+18,0.5130548302872062,0.4178082191780822,0.3362162162162162,0.49229640498899485,0.5978021978021978,0.4028595458368377,1195.0
788.0,1.7109947800846776e+18,0.4451697127937337,0.4212328767123288,0.34162162162162163,0.5108828564441183,0.6,0.4726661059714045,1195.0
789.0,1.710994780094698e+18,0.5130548302872062,0.4063926940639269,0.3345945945945946,0.4944974321349963,0.6131868131868132,0.4053826745164003,1193.0
790.0,1.7109947801046986e+18,0.4347258485639687,0.4292237442922374,0.34486486486486484,0.5069699192956714,0.6802197802197802,0.48444070647603027,1193.0
791.0,1.710994780114698e+18,0.5156657963446475,0.4029680365296804,0.3237837837837838,0.4913181707018831,0.4725274725274725,0.3994953742640875,1194.0
792.0,1.7109947801247194e+18,0.4347258485639687,0.4280821917808219,0.34324324324324323,0.512350207874786,0.5945054945054945,0.46509671993271656,1196.0
793.0,1.7109947801346993e+18,0.5052219321148825,0.3984018264840183,0.3210810810810811,0.4944974321349963,0.6054945054945055,0.4188393608074012,1190.0
794.0,1.7109947801447007e+18,0.43733681462140994,0.4292237442922374,0.34702702702702704,0.5064808021521154,0.654945054945055,0.4894869638351556,1196.0
795.0,1.710994780154681e+18,0.5117493472584856,0.3892694063926941,0.31513513513513514,0.4925409635607728,0.5802197802197803,0.39781328847771236,1192.0
796.0,1.710994780164685e+18,0.4308093994778068,0.4486301369863014,0.3691891891891892,0.504279775006114,0.6637362637362637,0.4827586206896552,1193.0
797.0,1.7109947801747261e+18,0.5143603133159269,0.3778538812785388,0.3210810810810811,0.4966984592809978,0.567032967032967,0.3952901597981497,1192.0
798.0,1.7109947801846766e+18,0.4347258485639687,0.4417808219178082,0.34756756756756757,0.5084372707263389,0.6736263736263737,0.48444070647603027,1196.0
799.0,1.7109947801946826e+18,0.5026109660574413,0.3972602739726027,0.3264864864864865,0.4759109806798728,0.6197802197802198,0.40706476030277544,1192.0
800.0,1.7109947802046766e+18,0.42689295039164493,0.4531963470319635,0.34324324324324323,0.5162631450232331,0.6978021978021978,0.4819175777964676,1197.0
801.0,1.7109947802146836e+18,0.5156657963446475,0.3835616438356164,0.3216216216216216,0.5001222792858889,0.6516483516483517,0.407905803195963,1194.0
802.0,1.7109947802246853e+18,0.4386422976501306,0.4440639269406393,0.35567567567567565,0.5086818292981169,0.6736263736263737,0.4861227922624054,1195.0
803.0,1.7109947802346803e+18,0.5130548302872062,0.3858447488584475,0.32,0.4883834678405478,0.5868131868131868,0.4053826745164003,1191.0
804.0,1.7109947802447086e+18,0.4360313315926893,0.454337899543379,0.3535135135135135,0.512350207874786,0.6802197802197802,0.4785534062237174,1195.0
805.0,1.710994780254708e+18,0.5104438642297651,0.3858447488584475,0.31567567567567567,0.499877720714111,0.5879120879120879,0.4095878889823381,1193.0
806.0,1.710994780264684e+18,0.4347258485639687,0.4360730593607306,0.35405405405405405,0.512594766446564,0.667032967032967,0.4852817493692178,1196.0
807.0,1.7109947802746877e+18,0.5143603133159269,0.3881278538812785,0.32054054054054054,0.49767669356810956,0.6637362637362637,0.4095878889823381,1192.0
808.0,1.710994780284685e+18,0.4347258485639687,0.4623287671232877,0.35243243243243244,0.512594766446564,0.6714285714285714,0.4861227922624054,1195.0
809.0,1.710994780294679e+18,0.5091383812010444,0.3915525114155251,0.32216216216216215,0.5086818292981169,0.6296703296703297,0.4062237174095879,1194.0
810.0,1.710994780304685e+18,0.43733681462140994,0.4429223744292237,0.35405405405405405,0.5157740278796772,0.6802197802197802,0.4953742640874685,1196.0
811.0,1.710994780314677e+18,0.5130548302872062,0.386986301369863,0.3232432432432432,0.49229640498899485,0.47802197802197804,0.40370058873002523,1192.0
812.0,1.7109947803246715e+18,0.42689295039164493,0.4611872146118721,0.3464864864864865,0.5233553436047933,0.5681318681318681,0.4768713204373423,1196.0
813.0,1.7109947803347136e+18,0.5143603133159269,0.3721461187214612,0.3178378378378378,0.5020787478601125,0.5791208791208792,0.3994953742640875,1192.0
814.0,1.7109947803446886e+18,0.4255874673629243,0.4452054794520548,0.3583783783783784,0.5275128393250184,0.6758241758241759,0.48444070647603027,1195.0
815.0,1.710994780354675e+18,0.5156657963446475,0.3812785388127854,0.3286486486486486,0.4937637564196625,0.5725274725274725,0.407905803195963,1191.0
816.0,1.710994780364687e+18,0.42297650130548303,0.4383561643835616,0.3491891891891892,0.5111274150158963,0.689010989010989,0.5004205214465938,1194.0
817.0,1.7109947803747174e+18,0.5065274151436031,0.384703196347032,0.31891891891891894,0.49082905355832723,0.5626373626373626,0.39444911690496215,1192.0
818.0,1.7109947803847232e+18,0.4321148825065274,0.45662100456621,0.34756756756756757,0.5113719735876743,0.6659340659340659,0.4819175777964676,1195.0
819.0,1.7109947803946844e+18,0.5143603133159269,0.3778538812785388,0.3210810810810811,0.487649792125214,0.5923076923076923,0.40117746005046256,1194.0
820.0,1.7109947804046804e+18,0.42950391644908614,0.4600456621004566,0.35243243243243244,0.5187087307410124,0.6659340659340659,0.4768713204373423,1196.0
821.0,1.7109947804146836e+18,0.5104438642297651,0.3824200913242009,0.3286486486486486,0.495964783565664,0.6131868131868132,0.3961312026913373,1192.0
822.0,1.7109947804246817e+18,0.42428198433420367,0.4554794520547945,0.3605405405405405,0.5243335778919052,0.7076923076923077,0.496215306980656,1195.0
823.0,1.7109947804346836e+18,0.5052219321148825,0.3915525114155251,0.32432432432432434,0.5008559550012228,0.5912087912087912,0.3969722455845248,1191.0
824.0,1.71099478044469e+18,0.4281984334203655,0.4600456621004566,0.3518918918918919,0.5037906578625581,0.6472527472527473,0.4819175777964676,1196.0
825.0,1.7109947804546888e+18,0.5130548302872062,0.3812785388127854,0.3308108108108108,0.49058449498654927,0.6208791208791209,0.3994953742640875,1192.0
826.0,1.710994780464683e+18,0.4347258485639687,0.4840182648401826,0.36702702702702705,0.5235999021765713,0.7846153846153846,0.488645920941968,1193.0
827.0,1.7109947804747092e+18,0.5117493472584856,0.4098173515981735,0.3232432432432432,0.49327463927610665,0.6186813186813187,0.40117746005046256,1192.0
828.0,1.7109947804846986e+18,0.4255874673629243,0.4383561643835616,0.3518918918918919,0.512594766446564,0.667032967032967,0.4953742640874685,1194.0
829.0,1.7109947804946977e+18,0.5091383812010444,0.3858447488584475,0.3108108108108108,0.4578136463683052,0.5593406593406594,0.3994953742640875,1193.0
830.0,1.7109947805046804e+18,0.42950391644908614,0.4931506849315068,0.35621621621621624,0.5096600635852286,0.6725274725274726,0.4987384356602187,1194.0
831.0,1.7109947805146854e+18,0.5065274151436031,0.3835616438356164,0.30864864864864866,0.46784054781120077,0.5956043956043956,0.3885618166526493,1189.0
832.0,1.710994780524684e+18,0.4360313315926893,0.4668949771689498,0.3572972972972973,0.5147957935925654,0.667032967032967,0.496215306980656,1195.0
833.0,1.7109947805346847e+18,0.5143603133159269,0.4075342465753425,0.3237837837837838,0.4927855221325507,0.5703296703296703,0.3986543313708999,1191.0
834.0,1.7109947805446845e+18,0.43342036553524804,0.4805936073059361,0.35567567567567565,0.5138175593054537,0.676923076923077,0.49032800672834315,1194.0
835.0,1.7109947805546857e+18,0.5117493472584856,0.3881278538812785,0.3372972972972973,0.49474199070677427,0.5714285714285714,0.4062237174095879,1191.0
836.0,1.7109947805646881e+18,0.42689295039164493,0.4737442922374429,0.3518918918918919,0.5143066764490095,0.6967032967032967,0.4920100925147183,1194.0
837.0,1.7109947805746857e+18,0.5143603133159269,0.3607305936073059,0.3286486486486486,0.5001222792858889,0.5835164835164836,0.3961312026913373,1190.0
838.0,1.7109947805846948e+18,0.42428198433420367,0.4885844748858447,0.3621621621621622,0.5211543164587918,0.6604395604395604,0.488645920941968,1196.0
839.0,1.71099478059469e+18,0.5195822454308094,0.363013698630137,0.32594594594594595,0.504035216434336,0.5582417582417583,0.39444911690496215,1192.0
840.0,1.710994780604691e+18,0.42689295039164493,0.4817351598173516,0.35945945945945945,0.5096600635852286,0.6648351648351648,0.5021026072329688,1196.0
841.0,1.710994780614685e+18,0.5091383812010444,0.3744292237442922,0.3232432432432432,0.4886280264123258,0.5736263736263736,0.3919259882253995,1193.0
842.0,1.710994780624687e+18,0.4321148825065274,0.4771689497716895,0.3551351351351351,0.5140621178772316,0.7065934065934066,0.503784693019344,1197.0
843.0,1.7109947806346875e+18,0.5130548302872062,0.3778538812785388,0.32756756756756755,0.4966984592809978,0.5747252747252747,0.40117746005046256,1193.0
844.0,1.7109947806446904e+18,0.4255874673629243,0.4908675799086758,0.3605405405405405,0.5152849107361213,0.6747252747252748,0.4894869638351556,1195.0
845.0,1.7109947806546803e+18,0.5143603133159269,0.386986301369863,0.32054054054054054,0.49498654927855223,0.6021978021978022,0.3919259882253995,1192.0
846.0,1.7109947806646925e+18,0.41906005221932113,0.502283105022831,0.36486486486486486,0.5270237221814624,0.7120879120879121,0.49957947855340623,1196.0
847.0,1.710994780674686e+18,0.5130548302872062,0.3744292237442922,0.31675675675675674,0.504035216434336,0.6054945054945055,0.3936080740117746,1192.0
848.0,1.7109947806846984e+18,0.43342036553524804,0.4942922374429224,0.3583783783783784,0.5216434336023478,0.7406593406593407,0.5029436501261564,1193.0
849.0,1.7109947806946952e+18,0.5221932114882507,0.3744292237442922,0.3248648648648649,0.4781120078258743,0.5626373626373626,0.3919259882253995,1190.0
850.0,1.7109947807046932e+18,0.4321148825065274,0.4863013698630137,0.35621621621621624,0.5162631450232331,0.6714285714285714,0.5054667788057191,1195.0
851.0,1.710994780714699e+18,0.5104438642297651,0.3767123287671233,0.32594594594594595,0.48495964783565665,0.5703296703296703,0.39781328847771236,1192.0
852.0,1.7109947807246843e+18,0.4308093994778068,0.4954337899543379,0.3627027027027027,0.5191978478845684,0.7307692307692307,0.5012615643397813,1193.0
853.0,1.710994780734684e+18,0.5130548302872062,0.365296803652968,0.32756756756756755,0.4529224749327464,0.6329670329670329,0.3969722455845248,1190.0
854.0,1.7109947807447414e+18,0.42036553524804177,0.4691780821917808,0.3572972972972973,0.5147957935925654,0.6802197802197802,0.49957947855340623,1195.0
855.0,1.7109947807546929e+18,0.5195822454308094,0.3858447488584475,0.3227027027027027,0.4886280264123258,0.5846153846153846,0.3902439024390244,1192.0
856.0,1.710994780764683e+18,0.4281984334203655,0.4885844748858447,0.3627027027027027,0.5140621178772316,0.689010989010989,0.5105130361648444,1194.0
857.0,1.7109947807746913e+18,0.5117493472584856,0.3812785388127854,0.3108108108108108,0.48691611640988014,0.5538461538461539,0.39444911690496215,1192.0
858.0,1.7109947807846812e+18,0.42428198433420367,0.4931506849315068,0.36864864864864866,0.5213988750305698,0.7021978021978021,0.5088309503784693,1196.0
859.0,1.7109947807946903e+18,0.52088772845953,0.3778538812785388,0.31567567567567567,0.48691611640988014,0.5901098901098901,0.3843566021867115,1192.0
860.0,1.7109947808047078e+18,0.4216710182767624,0.4954337899543379,0.3691891891891892,0.5270237221814624,0.7153846153846154,0.5029436501261564,1193.0
861.0,1.710994780814698e+18,0.5091383812010444,0.3573059360730594,0.31189189189189187,0.48985081927121543,0.5835164835164836,0.3902439024390244,1193.0
862.0,1.7109947808246868e+18,0.42428198433420367,0.4965753424657534,0.34864864864864864,0.5157740278796772,0.701098901098901,0.5063078216989066,1195.0
863.0,1.7109947808346852e+18,0.5156657963446475,0.363013698630137,0.31405405405405407,0.49400831499144043,0.5472527472527473,0.38772077375946173,1193.0
864.0,1.7109947808447048e+18,0.42950391644908614,0.5296803652968036,0.36324324324324325,0.5152849107361213,0.7087912087912088,0.5063078216989066,1196.0
865.0,1.71099478085468e+18,0.5182767624020888,0.3344748858447489,0.31189189189189187,0.4886280264123258,0.5626373626373626,0.39444911690496215,1192.0
866.0,1.7109947808646932e+18,0.42950391644908614,0.4863013698630137,0.3627027027027027,0.5272682807532404,0.7153846153846154,0.5021026072329688,1194.0
867.0,1.7109947808746885e+18,0.5182767624020888,0.3447488584474886,0.31405405405405407,0.48936170212765956,0.49340659340659343,0.375946173254836,1189.0
868.0,1.7109947808846945e+18,0.42297650130548303,0.521689497716895,0.3643243243243243,0.48251406211787723,0.7527472527472527,0.5155592935239697,1194.0
869.0,1.7109947808947036e+18,0.5182767624020888,0.3721461187214612,0.33135135135135135,0.4944974321349963,0.5802197802197803,0.3868797308662742,1191.0
870.0,1.7109947809047014e+18,0.42297650130548303,0.5102739726027398,0.3643243243243243,0.5182196135974566,0.6934065934065934,0.5029436501261564,1193.0
871.0,1.7109947809146926e+18,0.52088772845953,0.3584474885844749,0.3145945945945946,0.48520420640743456,0.5736263736263736,0.3894028595458368,1192.0
872.0,1.7109947809246935e+18,0.412532637075718,0.5273972602739726,0.3621621621621622,0.5084372707263389,0.7120879120879121,0.5189234650967199,1195.0
873.0,1.7109947809346936e+18,0.5234986945169713,0.3584474885844749,0.3124324324324324,0.487649792125214,0.5439560439560439,0.3742640874684609,1192.0
874.0,1.7109947809447012e+18,0.4281984334203655,0.5114155251141552,0.38594594594594595,0.5179750550256786,0.6846153846153846,0.503784693019344,1195.0
875.0,1.7109947809546883e+18,0.5065274151436031,0.3310502283105023,0.30486486486486486,0.49033993641477136,0.5065934065934066,0.37510513036164844,1191.0
876.0,1.7109947809646979e+18,0.42036553524804177,0.5308219178082192,0.3621621621621622,0.5213988750305698,0.7230769230769231,0.5121951219512195,1193.0
877.0,1.7109947809746954e+18,0.5182767624020888,0.3504566210045662,0.3081081081081081,0.48202494497432136,0.5362637362637362,0.3776282590412111,1190.0
878.0,1.7109947809846973e+18,0.41383812010443866,0.5296803652968036,0.37513513513513513,0.5211543164587918,0.7241758241758242,0.5054667788057191,1196.0
879.0,1.7109947809947128e+18,0.5261096605744126,0.3595890410958904,0.31027027027027027,0.4810467106872096,0.5285714285714286,0.375946173254836,1190.0
880.0,1.7109947810046979e+18,0.40600522193211486,0.5547945205479452,0.3627027027027027,0.528980190755686,0.7945054945054945,0.520605550883095,1194.0
881.0,1.710994781014695e+18,0.5182767624020888,0.3584474885844749,0.312972972972973,0.48691611640988014,0.5527472527472528,0.3801513877207738,1192.0
882.0,1.710994781024699e+18,0.42297650130548303,0.5319634703196348,0.3708108108108108,0.5250672536072389,0.6978021978021978,0.5121951219512195,1197.0
883.0,1.7109947810346957e+18,0.5156657963446475,0.3310502283105023,0.31513513513513514,0.49645390070921985,0.5428571428571428,0.3767872161480236,1192.0
884.0,1.710994781044692e+18,0.4281984334203655,0.5445205479452054,0.372972972972973,0.5199315235999021,0.7175824175824176,0.511354079058032,1193.0
885.0,1.7109947810547003e+18,0.5182767624020888,0.3242009132420091,0.3178378378378378,0.4871606749816581,0.5494505494505495,0.37510513036164844,1192.0
886.0,1.7109947810646922e+18,0.4216710182767624,0.5319634703196348,0.36864864864864866,0.5262900464661286,0.6945054945054945,0.5063078216989066,1194.0
887.0,1.7109947810746929e+18,0.5287206266318538,0.3127853881278539,0.30486486486486486,0.4871606749816581,0.5637362637362637,0.3767872161480236,1192.0
888.0,1.7109947810846894e+18,0.42950391644908614,0.5331050228310502,0.36864864864864866,0.5221325507459036,0.6747252747252748,0.5004205214465938,1193.0
889.0,1.7109947810946877e+18,0.5156657963446475,0.3299086757990868,0.31027027027027027,0.4988994864269993,0.5923076923076923,0.3801513877207738,1192.0
890.0,1.7109947811046892e+18,0.4112271540469974,0.5331050228310502,0.3708108108108108,0.5172413793103449,0.6934065934065934,0.5105130361648444,1194.0
891.0,1.710994781114704e+18,0.5143603133159269,0.3230593607305936,0.31351351351351353,0.49205184641721694,0.5626373626373626,0.3725820016820858,1192.0
892.0,1.7109947811246848e+18,0.42950391644908614,0.545662100456621,0.3675675675675676,0.5270237221814624,0.7274725274725274,0.5248107653490328,1195.0
893.0,1.710994781134684e+18,0.5182767624020888,0.3367579908675799,0.30648648648648646,0.48911714355588165,0.5439560439560439,0.3843566021867115,1193.0
894.0,1.7109947811447168e+18,0.41383812010443866,0.5285388127853882,0.36972972972972973,0.524822695035461,0.7241758241758242,0.5096719932716569,1194.0
895.0,1.7109947811546982e+18,0.5287206266318538,0.3378995433789954,0.31189189189189187,0.4925409635607728,0.6065934065934065,0.3742640874684609,1192.0
896.0,1.710994781164682e+18,0.42036553524804177,0.523972602739726,0.37243243243243246,0.5240890193201272,0.7923076923076923,0.5138772077375946,1194.0
897.0,1.710994781174684e+18,0.5130548302872062,0.319634703196347,0.30594594594594593,0.4649058449498655,0.5186813186813187,0.3742640874684609,1190.0
898.0,1.7109947811846856e+18,0.41906005221932113,0.5468036529680366,0.37135135135135133,0.5064808021521154,0.7274725274725274,0.5164003364171573,1196.0
899.0,1.7109947811946898e+18,0.5234986945169713,0.3287671232876712,0.3043243243243243,0.4844705306921008,0.5791208791208792,0.3675357443229605,1191.0
900.0,1.7109947812046945e+18,0.4216710182767624,0.541095890410959,0.37405405405405406,0.5282465150403521,0.710989010989011,0.5147182506307821,1197.0
901.0,1.7109947812146765e+18,0.5234986945169713,0.3584474885844749,0.307027027027027,0.49058449498654927,0.5813186813186814,0.3666947014297729,1194.0
902.0,1.710994781224678e+18,0.42689295039164493,0.5547945205479452,0.3827027027027027,0.5187087307410124,0.6857142857142857,0.5180824222035324,1196.0
903.0,1.7109947812346844e+18,0.5182767624020888,0.3150684931506849,0.3027027027027027,0.4800684764000978,0.5263736263736264,0.3708999158957107,1190.0
904.0,1.7109947812446894e+18,0.4112271540469974,0.5490867579908676,0.3708108108108108,0.5211543164587918,0.7373626373626374,0.5164003364171573,1193.0
905.0,1.7109947812547046e+18,0.5195822454308094,0.3424657534246575,0.3183783783783784,0.4397163120567376,0.5395604395604395,0.368376787216148,1192.0
906.0,1.710994781264684e+18,0.41383812010443866,0.5376712328767124,0.36972972972972973,0.5292247493274639,0.7593406593406593,0.5189234650967199,1195.0
907.0,1.710994781274689e+18,0.52088772845953,0.3184931506849315,0.3124324324324324,0.48911714355588165,0.554945054945055,0.37510513036164844,1192.0
908.0,1.7109947812846866e+18,0.4086161879895561,0.541095890410959,0.37135135135135133,0.5221325507459036,0.7208791208791209,0.5130361648444071,1195.0
909.0,1.7109947812946967e+18,0.5234986945169713,0.3127853881278539,0.3005405405405405,0.4896062606994375,0.5285714285714286,0.36921783010933557,1191.0
910.0,1.7109947813046902e+18,0.4151436031331593,0.5547945205479452,0.37945945945945947,0.5172413793103449,0.7230769230769231,0.5138772077375946,1193.0
911.0,1.7109947813146803e+18,0.5287206266318538,0.3276255707762557,0.307027027027027,0.4810467106872096,0.5186813186813187,0.37174095878889823,1191.0
912.0,1.7109947813246881e+18,0.4151436031331593,0.5547945205479452,0.37945945945945947,0.5368060650525801,0.7329670329670329,0.5088309503784693,1194.0
913.0,1.710994781334685e+18,0.5234986945169713,0.3162100456621005,0.3016216216216216,0.48080215211543165,0.5373626373626373,0.3776282590412111,1194.0
914.0,1.7109947813447626e+18,0.42297650130548303,0.5559360730593608,0.372972972972973,0.5223771093176816,0.743956043956044,0.5172413793103449,1195.0
915.0,1.7109947813546857e+18,0.5195822454308094,0.3276255707762557,0.30648648648648646,0.4871606749816581,0.5483516483516484,0.3700588730025231,1192.0
916.0,1.710994781364695e+18,0.41906005221932113,0.5468036529680366,0.36972972972972973,0.5211543164587918,0.7329670329670329,0.5155592935239697,1195.0
917.0,1.710994781374696e+18,0.5195822454308094,0.3162100456621005,0.3108108108108108,0.47248716067498164,0.5417582417582417,0.3708999158957107,1191.0
918.0,1.710994781384684e+18,0.4164490861618799,0.5547945205479452,0.36324324324324325,0.5152849107361213,0.6637362637362637,0.5079899074852817,1195.0
919.0,1.7109947813946875e+18,0.5234986945169713,0.3047945205479452,0.3043243243243243,0.49474199070677427,0.5417582417582417,0.383515559293524,1192.0
920.0,1.7109947814046897e+18,0.41906005221932113,0.5684931506849316,0.37351351351351353,0.5231107850330154,0.7648351648351648,0.5298570227081582,1195.0
921.0,1.710994781414685e+18,0.5221932114882507,0.3002283105022831,0.3016216216216216,0.48495964783565665,0.5263736263736264,0.3700588730025231,1192.0
922.0,1.71099478142468e+18,0.41383812010443866,0.5502283105022832,0.3708108108108108,0.5306921007581316,0.7703296703296704,0.5172413793103449,1194.0
923.0,1.7109947814346788e+18,0.52088772845953,0.3116438356164384,0.29945945945945945,0.49767669356810956,0.5351648351648352,0.3641715727502103,1193.0
924.0,1.7109947814446876e+18,0.4112271540469974,0.5547945205479452,0.3772972972972973,0.5280019564685742,0.7384615384615385,0.511354079058032,1195.0
925.0,1.710994781454707e+18,0.5313315926892951,0.3093607305936073,0.30324324324324325,0.48667155783810223,0.5417582417582417,0.368376787216148,1193.0
926.0,1.7109947814646868e+18,0.4151436031331593,0.5639269406392694,0.37243243243243246,0.5255563707507949,0.7241758241758242,0.5239697224558453,1195.0
927.0,1.710994781474677e+18,0.5313315926892951,0.3082191780821918,0.3172972972972973,0.48691611640988014,0.554945054945055,0.3582842724978974,1193.0
928.0,1.7109947814846774e+18,0.4086161879895561,0.5468036529680366,0.37783783783783786,0.532893127904133,0.7978021978021979,0.535744322960471,1194.0
929.0,1.7109947814946772e+18,0.5287206266318538,0.3162100456621005,0.3021621621621622,0.49400831499144043,0.5274725274725275,0.36585365853658536,1192.0
930.0,1.710994781504684e+18,0.4255874673629243,0.5513698630136986,0.37351351351351353,0.5194424064563463,0.7384615384615385,0.5189234650967199,1196.0
931.0,1.7109947815146842e+18,0.5248041775456919,0.2945205479452055,0.31513513513513514,0.4812912692589875,0.521978021978022,0.3708999158957107,1189.0
932.0,1.7109947815246902e+18,0.4177545691906005,0.5639269406392694,0.3745945945945946,0.5272682807532404,0.7538461538461538,0.5222876366694701,1193.0
933.0,1.710994781534697e+18,0.5261096605744126,0.2773972602739726,0.3005405405405405,0.47664465639520665,0.5527472527472528,0.3608074011774601,1190.0
934.0,1.710994781544711e+18,0.412532637075718,0.5844748858447488,0.38054054054054054,0.5265346050379066,0.743956043956044,0.5374264087468461,1196.0
935.0,1.7109947815547036e+18,0.5248041775456919,0.3025114155251142,0.29567567567567565,0.4800684764000978,0.5087912087912088,0.35744322960470987,1189.0
936.0,1.710994781564684e+18,0.4255874673629243,0.569634703196347,0.372972972972973,0.5319148936170213,0.7626373626373626,0.5172413793103449,1197.0
937.0,1.7109947815746913e+18,0.5352480417754569,0.2853881278538813,0.292972972972973,0.48740523355343607,0.5175824175824176,0.3582842724978974,1192.0
938.0,1.710994781584689e+18,0.4216710182767624,0.5787671232876712,0.38216216216216214,0.5243335778919052,0.7406593406593407,0.5239697224558453,1194.0
939.0,1.7109947815946862e+18,0.52088772845953,0.2899543378995434,0.3091891891891892,0.47493274639276106,0.5241758241758242,0.3566021867115223,1189.0
940.0,1.710994781604689e+18,0.41383812010443866,0.5593607305936074,0.37135135135135133,0.528980190755686,0.7648351648351648,0.5315391084945332,1196.0
941.0,1.7109947816146926e+18,0.5261096605744126,0.2808219178082192,0.29567567567567565,0.4817803864025434,0.5076923076923077,0.368376787216148,1191.0
942.0,1.7109947816246833e+18,0.42950391644908614,0.5559360730593608,0.38,0.5106382978723404,0.734065934065934,0.528174936921783,1195.0
943.0,1.7109947816346857e+18,0.5313315926892951,0.2751141552511416,0.29405405405405405,0.4859378821227684,0.4989010989010989,0.3540790580319596,1191.0
944.0,1.7109947816447058e+18,0.4255874673629243,0.569634703196347,0.3827027027027027,0.5292247493274639,0.743956043956044,0.5256518082422204,1196.0
945.0,1.7109947816546936e+18,0.5287206266318538,0.2945205479452055,0.29783783783783785,0.48226950354609927,0.4901098901098901,0.3389402859545837,1192.0
946.0,1.710994781664683e+18,0.41383812010443866,0.5787671232876712,0.3810810810810811,0.5258009293225727,0.7406593406593407,0.5298570227081582,1196.0
947.0,1.7109947816746967e+18,0.5300261096605744,0.2865296803652968,0.2989189189189189,0.48373685497676694,0.5362637362637362,0.36248948696383515,1192.0
948.0,1.7109947816846853e+18,0.4086161879895561,0.591324200913242,0.3908108108108108,0.5280019564685742,0.7681318681318682,0.5340622371740958,1197.0
949.0,1.710994781694685e+18,0.5352480417754569,0.3070776255707763,0.2951351351351351,0.4815358278307655,0.5318681318681319,0.3566021867115223,1193.0
950.0,1.710994781704689e+18,0.4112271540469974,0.6004566210045662,0.3837837837837838,0.5235999021765713,0.7593406593406593,0.5298570227081582,1193.0
951.0,1.710994781714675e+18,0.5261096605744126,0.2785388127853881,0.2983783783783784,0.4746881878209831,0.49230769230769234,0.35912531539108494,1193.0
952.0,1.7109947817246843e+18,0.40992167101827676,0.5742009132420092,0.3902702702702703,0.5277573978967963,0.7384615384615385,0.5239697224558453,1195.0
953.0,1.710994781734682e+18,0.5313315926892951,0.2853881278538813,0.2913513513513514,0.4803130349718758,0.49340659340659343,0.3523969722455845,1189.0
954.0,1.710994781744686e+18,0.4151436031331593,0.5707762557077626,0.37783783783783786,0.5282465150403521,0.7505494505494505,0.5256518082422204,1195.0
955.0,1.7109947817549614e+18,0.5313315926892951,0.2865296803652968,0.2864864864864865,0.47664465639520665,0.4989010989010989,0.3582842724978974,1192.0
956.0,1.7109947817651223e+18,0.4151436031331593,0.5981735159817352,0.3837837837837838,0.5211543164587918,0.7604395604395604,0.5365853658536586,1194.0
957.0,1.7109947817746898e+18,0.5339425587467362,0.2705479452054795,0.2897297297297297,0.4741990706774272,0.5043956043956044,0.351555929352397,1191.0
958.0,1.7109947817846902e+18,0.40992167101827676,0.5799086757990868,0.38324324324324327,0.5250672536072389,0.7725274725274726,0.5374264087468461,1198.0
959.0,1.7109947817946883e+18,0.5300261096605744,0.2625570776255708,0.2945945945945946,0.48667155783810223,0.5615384615384615,0.3523969722455845,1189.0
960.0,1.710994781804709e+18,0.4073107049608355,0.5958904109589042,0.3848648648648649,0.5370506236243581,0.8153846153846154,0.535744322960471,1197.0
961.0,1.7109947818146877e+18,0.5274151436031331,0.2648401826484018,0.2875675675675676,0.4746881878209831,0.5087912087912088,0.3481917577796468,1192.0
962.0,1.7109947818246802e+18,0.4177545691906005,0.5878995433789954,0.3827027027027027,0.5260454878943507,0.7505494505494505,0.5349032800672834,1196.0
963.0,1.710994781834688e+18,0.5261096605744126,0.2773972602739726,0.28216216216216217,0.47224260210320373,0.4824175824175824,0.3481917577796468,1192.0
964.0,1.710994781844682e+18,0.4112271540469974,0.6004566210045662,0.3902702702702703,0.5280019564685742,0.6879120879120879,0.5172413793103449,1195.0
965.0,1.7109947818546885e+18,0.52088772845953,0.2534246575342466,0.2875675675675676,0.46784054781120077,0.47912087912087914,0.3540790580319596,1192.0
966.0,1.710994781864696e+18,0.4073107049608355,0.5810502283105022,0.3886486486486487,0.5299584250427978,0.7692307692307693,0.5315391084945332,1194.0
967.0,1.710994781874688e+18,0.5339425587467362,0.2534246575342466,0.29081081081081084,0.47640009782342874,0.4868131868131868,0.3473507148864592,1194.0
968.0,1.710994781884681e+18,0.4086161879895561,0.6027397260273972,0.39297297297297296,0.49400831499144043,0.743956043956044,0.5222876366694701,1196.0
969.0,1.7109947818946842e+18,0.5287206266318538,0.2602739726027397,0.29783783783783785,0.48495964783565665,0.5846153846153846,0.35576114381833474,1192.0
970.0,1.7109947819046876e+18,0.4073107049608355,0.6015981735159818,0.38594594594594595,0.528980190755686,0.7593406593406593,0.5332211942809083,1193.0
971.0,1.7109947819146847e+18,0.5496083550913838,0.2557077625570776,0.28486486486486484,0.4759109806798728,0.4879120879120879,0.3448275862068966,1192.0
972.0,1.7109947819247137e+18,0.40600522193211486,0.589041095890411,0.38972972972972975,0.5294693078992418,0.789010989010989,0.5391084945332212,1194.0
973.0,1.7109947819346778e+18,0.5261096605744126,0.24885844748858446,0.2827027027027027,0.49058449498654927,0.5351648351648352,0.3582842724978974,1190.0
974.0,1.710994781944687e+18,0.4151436031331593,0.6027397260273972,0.39135135135135135,0.5368060650525801,0.778021978021978,0.5391084945332212,1195.0
975.0,1.7109947819546877e+18,0.5287206266318538,0.2648401826484018,0.292972972972973,0.4788456835412081,0.5043956043956044,0.3490328006728343,1190.0
976.0,1.7109947819646886e+18,0.40992167101827676,0.6004566210045662,0.38432432432432434,0.528980190755686,0.7725274725274726,0.535744322960471,1195.0
977.0,1.7109947819746918e+18,0.5195822454308094,0.2568493150684932,0.29027027027027025,0.47786744925409635,0.5043956043956044,0.3473507148864592,1189.0
978.0,1.7109947819846838e+18,0.412532637075718,0.6141552511415526,0.3864864864864865,0.5324040107605772,0.7912087912087912,0.5290159798149706,1195.0
979.0,1.710994781994684e+18,0.5326370757180157,0.2557077625570776,0.28378378378378377,0.47126436781609193,0.489010989010989,0.3456686291000841,1192.0
980.0,1.7109947820046774e+18,0.40339425587467365,0.6073059360730594,0.4016216216216216,0.5265346050379066,0.7593406593406593,0.5290159798149706,1196.0
981.0,1.7109947820146778e+18,0.5300261096605744,0.273972602739726,0.2983783783783784,0.47346539496209344,0.4967032967032967,0.34987384356602186,1192.0
982.0,1.7109947820246804e+18,0.4007832898172324,0.6004566210045662,0.387027027027027,0.5397407679139153,0.7593406593406593,0.5256518082422204,1195.0
983.0,1.7109947820347128e+18,0.5391644908616188,0.23515981735159816,0.2897297297297297,0.4810467106872096,0.521978021978022,0.34314550042052144,1192.0
984.0,1.7109947820446917e+18,0.40339425587467365,0.5833333333333334,0.3848648648648649,0.5280019564685742,0.7681318681318682,0.5407905803195963,1195.0
985.0,1.7109947820546854e+18,0.54177545691906,0.25,0.30324324324324325,0.4800684764000978,0.4956043956043956,0.3490328006728343,1192.0
986.0,1.7109947820647022e+18,0.4216710182767624,0.6278538812785388,0.3994594594594595,0.5309366593299095,0.7824175824175824,0.5424726661059714,1195.0
987.0,1.7109947820746908e+18,0.5326370757180157,0.2465753424657534,0.28594594594594597,0.47640009782342874,0.5164835164835165,0.3473507148864592,1191.0
988.0,1.7109947820846845e+18,0.40339425587467365,0.6221461187214612,0.387027027027027,0.5211543164587918,0.7549450549450549,0.543313708999159,1195.0
989.0,1.7109947820946854e+18,0.54177545691906,0.2454337899543379,0.29027027027027025,0.48936170212765956,0.5274725274725275,0.3507148864592094,1192.0
990.0,1.7109947821046868e+18,0.4007832898172324,0.6061643835616438,0.3827027027027027,0.5213988750305698,0.7351648351648352,0.5340622371740958,1193.0
991.0,1.7109947821146865e+18,0.5365535248041775,0.2363013698630137,0.29243243243243244,0.47370995353387135,0.4879120879120879,0.3456686291000841,1189.0
992.0,1.7109947821246886e+18,0.402088772845953,0.6061643835616438,0.3908108108108108,0.5294693078992418,0.7857142857142857,0.5458368376787216,1196.0
993.0,1.7109947821346936e+18,0.5248041775456919,0.22146118721461186,0.27783783783783783,0.4732208363903155,0.46263736263736266,0.3448275862068966,1190.0
994.0,1.710994782144693e+18,0.39947780678851175,0.5958904109589042,0.3837837837837838,0.5270237221814624,0.7230769230769231,0.535744322960471,1195.0
995.0,1.710994782154693e+18,0.5352480417754569,0.228310502283105,0.2864864864864865,0.47957935925654194,0.5153846153846153,0.3380992430613961,1189.0
996.0,1.7109947821646922e+18,0.402088772845953,0.6381278538812786,0.40324324324324323,0.5387625336268036,0.7538461538461538,0.5332211942809083,1196.0
997.0,1.7109947821746918e+18,0.5339425587467362,0.23972602739726026,0.29405405405405405,0.48373685497676694,0.5186813186813187,0.34987384356602186,1192.0
998.0,1.710994782184693e+18,0.4046997389033943,0.6187214611872146,0.3864864864864865,0.5262900464661286,0.7527472527472527,0.5340622371740958,1196.0
999.0,1.710994782194693e+18,0.5456919060052219,0.2557077625570776,0.28540540540540543,0.47542186353631694,0.49340659340659343,0.3423044575273339,1189.0
1000.0,1.7109947822046922e+18,0.39947780678851175,0.6118721461187214,0.3902702702702703,0.5304475421863536,0.7835164835164835,0.5424726661059714,1199.0
