202.0,1.710927163995299e+18,0.47780678851174935,0.4452054794520548,0.3654054054054054,0.5011005135730008,0.6274725274725275,0.43902439024390244,1197.0
203.0,1.7109271640053046e+18,0.46475195822454307,0.4018264840182648,0.3232432432432432,0.499877720714111,0.6230769230769231,0.4381833473507149,1196.0
204.0,1.7109271640152975e+18,0.46736292428198434,0.4223744292237443,0.34594594594594597,0.5008559550012228,0.6208791208791209,0.43902439024390244,1194.0
205.0,1.7109271640252987e+18,0.49477806788511747,0.4075342465753425,0.2913513513513514,0.504035216434336,0.6472527472527473,0.4432296047098402,1194.0
206.0,1.7109271640352942e+18,0.47911227154047,0.4200913242009132,0.33837837837837836,0.5006113964294449,0.6164835164835165,0.4339781328847771,1192.0
207.0,1.7109271640452938e+18,0.47389033942558745,0.4075342465753425,0.3264864864864865,0.5011005135730008,0.6241758241758242,0.4381833473507149,1193.0
208.0,1.7109271640552983e+18,0.4830287206266319,0.4691780821917808,0.37351351351351353,0.5052580092932257,0.6208791208791209,0.4415475189234651,1195.0
209.0,1.710927164065294e+18,0.489556135770235,0.4646118721461187,0.3481081081081081,0.5030569821472243,0.6296703296703297,0.43902439024390244,1193.0
210.0,1.7109271640752957e+18,0.4660574412532637,0.3961187214611872,0.31675675675675674,0.5015896307165566,0.6241758241758242,0.43986543313709,1195.0
211.0,1.7109271640853053e+18,0.46736292428198434,0.3995433789954338,0.3232432432432432,0.5011005135730008,0.6274725274725275,0.4348191757779647,1195.0
212.0,1.7109271640952975e+18,0.46736292428198434,0.3961187214611872,0.3362162162162162,0.5015896307165566,0.6285714285714286,0.4432296047098402,1194.0
213.0,1.7109271641052987e+18,0.4765013054830287,0.4178082191780822,0.3324324324324324,0.4996331621423331,0.6230769230769231,0.4381833473507149,1194.0
214.0,1.7109271641152955e+18,0.4765013054830287,0.4212328767123288,0.3210810810810811,0.4988994864269993,0.6230769230769231,0.43902439024390244,1197.0
215.0,1.710927164125298e+18,0.4608355091383812,0.3881278538812785,0.327027027027027,0.5011005135730008,0.621978021978022,0.4373423044575273,1193.0
216.0,1.7109271641352932e+18,0.47127937336814624,0.3881278538812785,0.34216216216216216,0.5015896307165566,0.6230769230769231,0.43902439024390244,1193.0
217.0,1.7109271641452982e+18,0.4751958224543081,0.4143835616438356,0.3372972972972973,0.5035460992907801,0.6318681318681318,0.4381833473507149,1194.0
218.0,1.710927164155281e+18,0.46736292428198434,0.4189497716894977,0.33783783783783783,0.5030569821472243,0.6230769230769231,0.4415475189234651,1194.0
219.0,1.7109271641652977e+18,0.4765013054830287,0.4280821917808219,0.3281081081081081,0.5003668378576669,0.6230769230769231,0.4381833473507149,1193.0
220.0,1.7109271641753078e+18,0.46736292428198434,0.3824200913242009,0.33405405405405403,0.4984103692834434,0.6274725274725275,0.44070647603027757,1194.0
221.0,1.7109271641853005e+18,0.4699738903394256,0.4029680365296804,0.3281081081081081,0.5015896307165566,0.6274725274725275,0.44238856181665265,1195.0
222.0,1.7109271641952996e+18,0.4765013054830287,0.3812785388127854,0.3302702702702703,0.5008559550012228,0.6208791208791209,0.44070647603027757,1195.0
223.0,1.710927164205302e+18,0.489556135770235,0.4212328767123288,0.3281081081081081,0.5006113964294449,0.6296703296703297,0.4415475189234651,1194.0
224.0,1.7109271642152996e+18,0.46475195822454307,0.4041095890410959,0.32972972972972975,0.499877720714111,0.6230769230769231,0.4381833473507149,1195.0
225.0,1.71092716422526e+18,0.4725848563968668,0.3995433789954338,0.3210810810810811,0.5008559550012228,0.6208791208791209,0.4381833473507149,1195.0
226.0,1.7109271642353062e+18,0.4765013054830287,0.4269406392694064,0.35621621621621624,0.5018341892883346,0.6252747252747253,0.4415475189234651,1193.0
227.0,1.710927164245285e+18,0.46344647519582244,0.4018264840182648,0.33297297297297296,0.5030569821472243,0.6285714285714286,0.4314550042052145,1192.0
228.0,1.7109271642553004e+18,0.47911227154047,0.4075342465753425,0.3286486486486486,0.5011005135730008,0.6164835164835165,0.44238856181665265,1196.0
229.0,1.7109271642653153e+18,0.4751958224543081,0.3961187214611872,0.31567567567567567,0.4971875764245537,0.6076923076923076,0.43902439024390244,1195.0
230.0,1.7109271642753027e+18,0.4765013054830287,0.4132420091324201,0.33675675675675676,0.5018341892883346,0.6241758241758242,0.4415475189234651,1196.0
231.0,1.7109271642852984e+18,0.4725848563968668,0.4041095890410959,0.3345945945945946,0.5003668378576669,0.6175824175824176,0.44238856181665265,1194.0
232.0,1.7109271642952973e+18,0.47780678851174935,0.4360730593607306,0.3389189189189189,0.5001222792858889,0.6175824175824176,0.43650126156433977,1196.0
233.0,1.710927164305297e+18,0.47389033942558745,0.4337899543378995,0.3491891891891892,0.5001222792858889,0.6175824175824176,0.43650126156433977,1195.0
234.0,1.710927164315257e+18,0.4725848563968668,0.4577625570776256,0.33783783783783783,0.5006113964294449,0.6153846153846154,0.4348191757779647,1193.0
235.0,1.7109271643252854e+18,0.4660574412532637,0.4052511415525114,0.32432432432432434,0.5023233064318905,0.6241758241758242,0.4381833473507149,1195.0
236.0,1.7109271643353034e+18,0.4908616187989556,0.4132420091324201,0.3362162162162162,0.5006113964294449,0.6186813186813187,0.4373423044575273,1195.0
237.0,1.710927164345299e+18,0.47780678851174935,0.4143835616438356,0.32756756756756755,0.5008559550012228,0.6296703296703297,0.43986543313709,1193.0
238.0,1.7109271643552986e+18,0.46866840731070497,0.4155251141552511,0.34486486486486484,0.5028124235754463,0.6241758241758242,0.43650126156433977,1194.0
239.0,1.7109271643653002e+18,0.4765013054830287,0.3972602739726027,0.3232432432432432,0.5015896307165566,0.6230769230769231,0.43902439024390244,1193.0
240.0,1.7109271643753874e+18,0.4751958224543081,0.4052511415525114,0.3389189189189189,0.5020787478601125,0.6241758241758242,0.4381833473507149,1195.0
241.0,1.7109271643853e+18,0.4765013054830287,0.4178082191780822,0.3643243243243243,0.5025678650036683,0.6329670329670329,0.4440706476030278,1193.0
242.0,1.7109271643953009e+18,0.48172323759791125,0.4235159817351598,0.3621621621621622,0.5035460992907801,0.6230769230769231,0.43986543313709,1195.0
243.0,1.7109271644052956e+18,0.4725848563968668,0.4178082191780822,0.35567567567567565,0.5033015407190022,0.6450549450549451,0.4381833473507149,1196.0
244.0,1.7109271644153032e+18,0.46866840731070497,0.410958904109589,0.3345945945945946,0.4988994864269993,0.6153846153846154,0.4381833473507149,1192.0
245.0,1.710927164425315e+18,0.47389033942558745,0.4246575342465753,0.3372972972972973,0.5008559550012228,0.6164835164835165,0.43650126156433977,1193.0
246.0,1.710927164435298e+18,0.47780678851174935,0.4223744292237443,0.3491891891891892,0.5001222792858889,0.6098901098901099,0.4415475189234651,1195.0
247.0,1.710927164445299e+18,0.47127937336814624,0.410958904109589,0.31513513513513514,0.5015896307165566,0.6252747252747253,0.4348191757779647,1195.0
248.0,1.7109271644552986e+18,0.4725848563968668,0.4155251141552511,0.3281081081081081,0.4988994864269993,0.621978021978022,0.4415475189234651,1196.0
249.0,1.7109271644653002e+18,0.4856396866840731,0.4246575342465753,0.3464864864864865,0.5015896307165566,0.6252747252747253,0.4381833473507149,1195.0
250.0,1.710927164475302e+18,0.4856396866840731,0.4063926940639269,0.33513513513513515,0.49767669356810956,0.6164835164835165,0.43902439024390244,1195.0
251.0,1.7109271644853033e+18,0.4725848563968668,0.408675799086758,0.33135135135135135,0.5008559550012228,0.6197802197802198,0.43650126156433977,1193.0
252.0,1.710927164495299e+18,0.47127937336814624,0.408675799086758,0.32756756756756755,0.5015896307165566,0.6241758241758242,0.4415475189234651,1195.0
253.0,1.7109271645052961e+18,0.4608355091383812,0.3767123287671233,0.30594594594594593,0.4966984592809978,0.6153846153846154,0.4339781328847771,1192.0
254.0,1.7109271645152968e+18,0.4751958224543081,0.4121004566210046,0.34702702702702704,0.4971875764245537,0.6274725274725275,0.4381833473507149,1195.0
255.0,1.7109271645252232e+18,0.4765013054830287,0.4143835616438356,0.3345945945945946,0.4984103692834434,0.6263736263736264,0.4373423044575273,1196.0
256.0,1.710927164535302e+18,0.48172323759791125,0.4200913242009132,0.34486486486486484,0.5037906578625581,0.6274725274725275,0.4415475189234651,1196.0
257.0,1.710927164545297e+18,0.4608355091383812,0.3915525114155251,0.312972972972973,0.5025678650036683,0.6142857142857143,0.43566021867115223,1197.0
258.0,1.7109271645552965e+18,0.47911227154047,0.4052511415525114,0.29783783783783785,0.5035460992907801,0.6175824175824176,0.4415475189234651,1197.0
259.0,1.7109271645652938e+18,0.4725848563968668,0.4018264840182648,0.3124324324324324,0.5008559550012228,0.6241758241758242,0.43902439024390244,1195.0
260.0,1.7109271645752863e+18,0.46475195822454307,0.386986301369863,0.32594594594594595,0.5006113964294449,0.6197802197802198,0.43986543313709,1193.0
261.0,1.7109271645852987e+18,0.47127937336814624,0.4178082191780822,0.34324324324324323,0.4966984592809978,0.6208791208791209,0.4381833473507149,1194.0
262.0,1.7109271645952988e+18,0.47780678851174935,0.4269406392694064,0.36324324324324325,0.5037906578625581,0.6142857142857143,0.44238856181665265,1196.0
263.0,1.7109271646052964e+18,0.489556135770235,0.4212328767123288,0.33135135135135135,0.49767669356810956,0.6186813186813187,0.4415475189234651,1194.0
264.0,1.7109271646152975e+18,0.46866840731070497,0.4394977168949772,0.32756756756756755,0.4996331621423331,0.610989010989011,0.43650126156433977,1194.0
265.0,1.710927164625254e+18,0.47780678851174935,0.4143835616438356,0.3389189189189189,0.5020787478601125,0.6274725274725275,0.43986543313709,1193.0
266.0,1.7109271646353096e+18,0.4765013054830287,0.4155251141552511,0.33405405405405403,0.4986549278552213,0.6274725274725275,0.43986543313709,1194.0
267.0,1.7109271646453043e+18,0.47389033942558745,0.4223744292237443,0.33297297297297296,0.5025678650036683,0.6384615384615384,0.43986543313709,1194.0
268.0,1.710927164655297e+18,0.4660574412532637,0.3995433789954338,0.3308108108108108,0.504524333577892,0.6164835164835165,0.44238856181665265,1193.0
269.0,1.7109271646652948e+18,0.46866840731070497,0.4121004566210046,0.3443243243243243,0.5035460992907801,0.6175824175824176,0.43650126156433977,1193.0
270.0,1.7109271646753037e+18,0.4725848563968668,0.4098173515981735,0.34702702702702704,0.5008559550012228,0.6142857142857143,0.4432296047098402,1193.0
271.0,1.710927164685299e+18,0.47780678851174935,0.4143835616438356,0.3237837837837838,0.4991440449987772,0.6241758241758242,0.4306139613120269,1194.0
272.0,1.7109271646953114e+18,0.48172323759791125,0.4075342465753425,0.3232432432432432,0.4996331621423331,0.6318681318681318,0.4465937762825904,1194.0
273.0,1.710927164705303e+18,0.4725848563968668,0.4269406392694064,0.33837837837837836,0.5037906578625581,0.6131868131868132,0.4280908326324643,1192.0
274.0,1.7109271647153016e+18,0.46866840731070497,0.4200913242009132,0.3324324324324324,0.5008559550012228,0.6175824175824176,0.43902439024390244,1197.0
275.0,1.710927164725302e+18,0.47911227154047,0.4063926940639269,0.3264864864864865,0.5037906578625581,0.6208791208791209,0.4381833473507149,1196.0
276.0,1.7109271647352996e+18,0.47389033942558745,0.4063926940639269,0.33297297297297296,0.5015896307165566,0.6186813186813187,0.4381833473507149,1195.0
277.0,1.710927164745301e+18,0.4660574412532637,0.3812785388127854,0.30972972972972973,0.49498654927855223,0.6164835164835165,0.43650126156433977,1195.0
278.0,1.710927164755301e+18,0.48172323759791125,0.4269406392694064,0.35027027027027025,0.5028124235754463,0.6274725274725275,0.4415475189234651,1194.0
279.0,1.7109271647653036e+18,0.4804177545691906,0.4200913242009132,0.3589189189189189,0.5015896307165566,0.6296703296703297,0.4415475189234651,1194.0
280.0,1.710927164775302e+18,0.46866840731070497,0.4132420091324201,0.3362162162162162,0.5025678650036683,0.6241758241758242,0.4381833473507149,1195.0
281.0,1.710927164785301e+18,0.47780678851174935,0.4280821917808219,0.34324324324324323,0.5008559550012228,0.6274725274725275,0.43566021867115223,1195.0
282.0,1.7109271647953083e+18,0.45822454308093996,0.3949771689497717,0.3291891891891892,0.504035216434336,0.6153846153846154,0.4314550042052145,1193.0
283.0,1.7109271648053036e+18,0.4765013054830287,0.3904109589041096,0.3281081081081081,0.4986549278552213,0.6252747252747253,0.43902439024390244,1193.0
284.0,1.7109271648153042e+18,0.47780678851174935,0.4132420091324201,0.34162162162162163,0.5023233064318905,0.6241758241758242,0.4415475189234651,1196.0
285.0,1.7109271648252977e+18,0.46344647519582244,0.3710045662100457,0.3254054054054054,0.5028124235754463,0.6208791208791209,0.4339781328847771,1192.0
286.0,1.7109271648353103e+18,0.4830287206266319,0.432648401826484,0.3675675675675676,0.5006113964294449,0.6186813186813187,0.4381833473507149,1193.0
287.0,1.7109271648453048e+18,0.4869451697127937,0.4200913242009132,0.3210810810810811,0.4966984592809978,0.621978021978022,0.43902439024390244,1197.0
288.0,1.7109271648553052e+18,0.4699738903394256,0.4075342465753425,0.3286486486486486,0.5018341892883346,0.6263736263736264,0.43986543313709,1195.0
289.0,1.710927164865306e+18,0.47127937336814624,0.4212328767123288,0.3362162162162162,0.4984103692834434,0.6351648351648351,0.4381833473507149,1195.0
290.0,1.7109271648753096e+18,0.4725848563968668,0.4223744292237443,0.35621621621621624,0.5006113964294449,0.6285714285714286,0.4381833473507149,1194.0
291.0,1.7109271648853112e+18,0.4699738903394256,0.4337899543378995,0.32432432432432434,0.5015896307165566,0.6274725274725275,0.432296047098402,1193.0
292.0,1.7109271648953014e+18,0.46866840731070497,0.3881278538812785,0.3497297297297297,0.49938860357055515,0.6186813186813187,0.44070647603027757,1194.0
293.0,1.7109271649053071e+18,0.47127937336814624,0.4098173515981735,0.32594594594594595,0.5015896307165566,0.6329670329670329,0.43650126156433977,1196.0
294.0,1.710927164915307e+18,0.46736292428198434,0.4018264840182648,0.3145945945945946,0.5025678650036683,0.6230769230769231,0.4373423044575273,1193.0
295.0,1.7109271649253107e+18,0.4765013054830287,0.4155251141552511,0.34,0.5008559550012228,0.6230769230769231,0.43902439024390244,1194.0
296.0,1.7109271649352952e+18,0.49477806788511747,0.4257990867579909,0.35567567567567565,0.5059916850085595,0.6318681318681318,0.44238856181665265,1194.0
297.0,1.7109271649453153e+18,0.4960835509138381,0.454337899543379,0.3886486486486487,0.504279775006114,0.6274725274725275,0.4449116904962153,1194.0
298.0,1.7109271649553057e+18,0.47127937336814624,0.4098173515981735,0.33135135135135135,0.5020787478601125,0.6175824175824176,0.4348191757779647,1196.0
299.0,1.7109271649653059e+18,0.4830287206266319,0.4257990867579909,0.3232432432432432,0.5020787478601125,0.6296703296703297,0.43902439024390244,1194.0
300.0,1.710927164975306e+18,0.4765013054830287,0.4417808219178082,0.36702702702702705,0.5015896307165566,0.6263736263736264,0.44238856181665265,1194.0
301.0,1.7109271649853123e+18,0.4804177545691906,0.4246575342465753,0.34378378378378377,0.5035460992907801,0.6296703296703297,0.44070647603027757,1195.0
302.0,1.710927164995318e+18,0.47127937336814624,0.4121004566210046,0.3389189189189189,0.5028124235754463,0.621978021978022,0.43986543313709,1196.0
303.0,1.7109271650053107e+18,0.4869451697127937,0.4178082191780822,0.33297297297297296,0.5052580092932257,0.6285714285714286,0.4415475189234651,1195.0
304.0,1.7109271650153124e+18,0.4751958224543081,0.4269406392694064,0.3762162162162162,0.5015896307165566,0.6208791208791209,0.4381833473507149,1197.0
305.0,1.7109271650253112e+18,0.4765013054830287,0.4075342465753425,0.33837837837837836,0.5023233064318905,0.6164835164835165,0.4381833473507149,1196.0
306.0,1.7109271650353114e+18,0.4660574412532637,0.4041095890410959,0.33297297297297296,0.5037906578625581,0.6285714285714286,0.4432296047098402,1196.0
307.0,1.710927165045313e+18,0.4804177545691906,0.4155251141552511,0.33945945945945943,0.5020787478601125,0.6296703296703297,0.43902439024390244,1197.0
308.0,1.7109271650552968e+18,0.46475195822454307,0.4041095890410959,0.3318918918918919,0.4988994864269993,0.6175824175824176,0.4348191757779647,1196.0
309.0,1.710927165065299e+18,0.49216710182767626,0.4315068493150685,0.34486486486486484,0.4996331621423331,0.6274725274725275,0.4465937762825904,1196.0
310.0,1.7109271650753044e+18,0.47911227154047,0.410958904109589,0.3535135135135135,0.5037906578625581,0.6307692307692307,0.4415475189234651,1195.0
311.0,1.7109271650852992e+18,0.47127937336814624,0.4406392694063927,0.32972972972972975,0.5015896307165566,0.6285714285714286,0.43902439024390244,1193.0
312.0,1.7109271650952993e+18,0.48433420365535246,0.432648401826484,0.3772972972972973,0.5018341892883346,0.6252747252747253,0.4432296047098402,1196.0
313.0,1.710927165105296e+18,0.489556135770235,0.4223744292237443,0.3232432432432432,0.5028124235754463,0.6285714285714286,0.44238856181665265,1194.0
314.0,1.7109271651152986e+18,0.47780678851174935,0.4155251141552511,0.3335135135135135,0.5030569821472243,0.6263736263736264,0.43902439024390244,1195.0
315.0,1.7109271651252992e+18,0.4751958224543081,0.4589041095890411,0.34216216216216216,0.5035460992907801,0.6285714285714286,0.43566021867115223,1195.0
316.0,1.7109271651352998e+18,0.4869451697127937,0.4406392694063927,0.34702702702702704,0.5006113964294449,0.6208791208791209,0.4415475189234651,1196.0
317.0,1.7109271651452948e+18,0.46866840731070497,0.3984018264840183,0.32432432432432434,0.4986549278552213,0.6274725274725275,0.4381833473507149,1195.0
318.0,1.7109271651553006e+18,0.4725848563968668,0.4178082191780822,0.33837837837837836,0.5025678650036683,0.621978021978022,0.4415475189234651,1197.0
319.0,1.7109271651653025e+18,0.47389033942558745,0.4292237442922374,0.3518918918918919,0.5006113964294449,0.6241758241758242,0.43650126156433977,1193.0
320.0,1.7109271651752978e+18,0.4869451697127937,0.4257990867579909,0.33513513513513515,0.5015896307165566,0.6274725274725275,0.4465937762825904,1194.0
321.0,1.710927165186372e+18,0.47780678851174935,0.4349315068493151,0.3643243243243243,0.5035460992907801,0.6329670329670329,0.43902439024390244,1195.0
322.0,1.7109271651952893e+18,0.4869451697127937,0.4121004566210046,0.33405405405405403,0.5011005135730008,0.6186813186813187,0.4432296047098402,1194.0
323.0,1.710927165205298e+18,0.48172323759791125,0.3972602739726027,0.3308108108108108,0.5008559550012228,0.621978021978022,0.43566021867115223,1195.0
324.0,1.7109271652152998e+18,0.47911227154047,0.4018264840182648,0.3345945945945946,0.49938860357055515,0.6252747252747253,0.4373423044575273,1195.0
325.0,1.710927165225305e+18,0.4830287206266319,0.4132420091324201,0.33297297297297296,0.5028124235754463,0.6285714285714286,0.44238856181665265,1195.0
326.0,1.7109271652353034e+18,0.47911227154047,0.4018264840182648,0.3162162162162162,0.5003668378576669,0.6164835164835165,0.4415475189234651,1195.0
327.0,1.710927165245309e+18,0.4804177545691906,0.4235159817351598,0.3145945945945946,0.5030569821472243,0.6296703296703297,0.4381833473507149,1193.0
328.0,1.7109271652553009e+18,0.47127937336814624,0.410958904109589,0.35027027027027025,0.5035460992907801,0.6296703296703297,0.4440706476030278,1193.0
329.0,1.710927165265301e+18,0.47389033942558745,0.4098173515981735,0.3324324324324324,0.5008559550012228,0.6241758241758242,0.4432296047098402,1196.0
330.0,1.7109271652753042e+18,0.47389033942558745,0.4143835616438356,0.33405405405405403,0.4974321349963316,0.6208791208791209,0.4381833473507149,1194.0
331.0,1.7109271652852882e+18,0.4725848563968668,0.4178082191780822,0.3372972972972973,0.5020787478601125,0.634065934065934,0.44238856181665265,1197.0
332.0,1.710927165295289e+18,0.47127937336814624,0.4143835616438356,0.3372972972972973,0.5003668378576669,0.6164835164835165,0.43986543313709,1197.0
333.0,1.710927165305295e+18,0.4765013054830287,0.4178082191780822,0.34540540540540543,0.4996331621423331,0.6252747252747253,0.4381833473507149,1197.0
334.0,1.7109271653152986e+18,0.4608355091383812,0.3892694063926941,0.33135135135135135,0.5028124235754463,0.6274725274725275,0.4289318755256518,1194.0
335.0,1.7109271653252995e+18,0.47127937336814624,0.384703196347032,0.33135135135135135,0.5067253607238934,0.634065934065934,0.4432296047098402,1194.0
336.0,1.7109271653358467e+18,0.4725848563968668,0.4223744292237443,0.3362162162162162,0.5015896307165566,0.6208791208791209,0.4381833473507149,1196.0
337.0,1.7109271653452984e+18,0.5026109660574413,0.4041095890410959,0.3308108108108108,0.5030569821472243,0.6208791208791209,0.43902439024390244,1195.0
338.0,1.7109271653553004e+18,0.4934725848563969,0.410958904109589,0.33945945945945943,0.5055025678650037,0.6329670329670329,0.432296047098402,1192.0
339.0,1.710927165365295e+18,0.3981723237597911,0.4041095890410959,0.3372972972972973,0.5015896307165566,0.6351648351648351,0.4465937762825904,1193.0
340.0,1.7109271653752983e+18,0.5313315926892951,0.4292237442922374,0.3410810810810811,0.5057471264367817,0.6197802197802198,0.4163162321278385,1192.0
341.0,1.7109271653853007e+18,0.45691906005221933,0.4041095890410959,0.33135135135135135,0.5047688921496698,0.634065934065934,0.43986543313709,1193.0
342.0,1.7109271653952896e+18,0.4608355091383812,0.4006849315068493,0.33297297297297296,0.4996331621423331,0.5956043956043956,0.4272497897392767,1194.0
343.0,1.7109271654052974e+18,0.5052219321148825,0.4657534246575342,0.33945945945945943,0.5052580092932257,0.6296703296703297,0.44911690496215306,1196.0
344.0,1.7109271654153004e+18,0.4621409921671018,0.4166666666666667,0.34378378378378377,0.5035460992907801,0.6098901098901099,0.4507989907485282,1194.0
345.0,1.7109271654253018e+18,0.4164490861618799,0.430365296803653,0.34162162162162163,0.4971875764245537,0.6329670329670329,0.45500420521446594,1197.0
346.0,1.7109271654353004e+18,0.3838120104438642,0.4006849315068493,0.3362162162162162,0.4996331621423331,0.634065934065934,0.43566021867115223,1194.0
347.0,1.7109271654453007e+18,0.4595300261096606,0.4200913242009132,0.32756756756756755,0.4988994864269993,0.6197802197802198,0.4339781328847771,1192.0
348.0,1.7109271654552876e+18,0.45691906005221933,0.432648401826484,0.34540540540540543,0.5057471264367817,0.6208791208791209,0.43650126156433977,1197.0
349.0,1.710927165465288e+18,0.47911227154047,0.4269406392694064,0.33297297297297296,0.4979212521398875,0.6197802197802198,0.4415475189234651,1196.0
350.0,1.710927165475289e+18,0.5182767624020888,0.4189497716894977,0.32756756756756755,0.5006113964294449,0.6230769230769231,0.43902439024390244,1196.0
351.0,1.7109271654852964e+18,0.47127937336814624,0.4360730593607306,0.3481081081081081,0.5057471264367817,0.6329670329670329,0.44238856181665265,1195.0
352.0,1.7109271654953134e+18,0.46344647519582244,0.4075342465753425,0.33675675675675676,0.5064808021521154,0.6296703296703297,0.43650126156433977,1197.0
353.0,1.7109271655053084e+18,0.5182767624020888,0.408675799086758,0.3308108108108108,0.5008559550012228,0.6505494505494506,0.44911690496215306,1195.0
354.0,1.7109271655153037e+18,0.43994778067885115,0.4075342465753425,0.34162162162162163,0.504035216434336,0.667032967032967,0.4499579478553406,1195.0
355.0,1.710927165525303e+18,0.5704960835509139,0.4189497716894977,0.3308108108108108,0.4991440449987772,0.6241758241758242,0.4415475189234651,1194.0
356.0,1.7109271655352957e+18,0.5026109660574413,0.4360730593607306,0.3464864864864865,0.4971875764245537,0.6197802197802198,0.4381833473507149,1194.0
357.0,1.7109271655453023e+18,0.4516971279373368,0.3995433789954338,0.32972972972972975,0.5023233064318905,0.6450549450549451,0.44575273338940286,1195.0
358.0,1.7109271655552973e+18,0.46866840731070497,0.4132420091324201,0.33945945945945943,0.5001222792858889,0.6318681318681318,0.4415475189234651,1195.0
359.0,1.710927165565288e+18,0.5156657963446475,0.4474885844748858,0.33783783783783783,0.4969430178527757,0.6285714285714286,0.4339781328847771,1191.0
360.0,1.7109271655753014e+18,0.4556135770234987,0.4041095890410959,0.3286486486486486,0.5006113964294449,0.6329670329670329,0.45500420521446594,1194.0
361.0,1.710927165585295e+18,0.4751958224543081,0.4155251141552511,0.32594594594594595,0.5006113964294449,0.6175824175824176,0.42977291841883936,1193.0
362.0,1.7109271655953078e+18,0.5509138381201044,0.4257990867579909,0.33675675675675676,0.504524333577892,0.6318681318681318,0.4440706476030278,1193.0
363.0,1.710927165605292e+18,0.4425587467362924,0.3984018264840183,0.3318918918918919,0.5008559550012228,0.6494505494505495,0.4373423044575273,1195.0
364.0,1.710927165615307e+18,0.4725848563968668,0.4075342465753425,0.33297297297297296,0.5023233064318905,0.6208791208791209,0.447434819175778,1197.0
365.0,1.7109271656252974e+18,0.4830287206266319,0.430365296803653,0.35027027027027025,0.5008559550012228,0.6285714285714286,0.4415475189234651,1194.0
366.0,1.7109271656352952e+18,0.5,0.4075342465753425,0.33135135135135135,0.5011005135730008,0.6043956043956044,0.4306139613120269,1192.0
367.0,1.7109271656452977e+18,0.4830287206266319,0.4246575342465753,0.31405405405405407,0.4984103692834434,0.6230769230769231,0.43986543313709,1195.0
368.0,1.710927165655305e+18,0.45822454308093996,0.4018264840182648,0.33675675675675676,0.5020787478601125,0.6230769230769231,0.4289318755256518,1192.0
369.0,1.710927165665296e+18,0.46736292428198434,0.4178082191780822,0.3318918918918919,0.5023233064318905,0.6604395604395604,0.4482758620689655,1196.0
370.0,1.7109271656752878e+18,0.47911227154047,0.4075342465753425,0.33135135135135135,0.5028124235754463,0.6450549450549451,0.4339781328847771,1193.0
371.0,1.7109271656852915e+18,0.46866840731070497,0.4143835616438356,0.33675675675675676,0.5015896307165566,0.6241758241758242,0.4306139613120269,1193.0
372.0,1.710927165695308e+18,0.46736292428198434,0.4041095890410959,0.3362162162162162,0.5030569821472243,0.6186813186813187,0.43986543313709,1198.0
373.0,1.7109271657052882e+18,0.4765013054830287,0.4098173515981735,0.33297297297297296,0.5028124235754463,0.6274725274725275,0.4381833473507149,1195.0
374.0,1.7109271657153042e+18,0.49216710182767626,0.4497716894977169,0.3302702702702703,0.4954756664221081,0.6285714285714286,0.43902439024390244,1195.0
375.0,1.7109271657253012e+18,0.4830287206266319,0.4223744292237443,0.3281081081081081,0.5057471264367817,0.6208791208791209,0.4415475189234651,1195.0
376.0,1.7109271657352968e+18,0.4830287206266319,0.4269406392694064,0.34054054054054056,0.5035460992907801,0.6373626373626373,0.45164003364171573,1197.0
377.0,1.7109271657453107e+18,0.4765013054830287,0.4600456621004566,0.36972972972972973,0.5047688921496698,0.6846153846153846,0.44911690496215306,1196.0
378.0,1.7109271657553e+18,0.5182767624020888,0.4121004566210046,0.3281081081081081,0.504524333577892,0.6285714285714286,0.4415475189234651,1195.0
379.0,1.7109271657652954e+18,0.4660574412532637,0.4212328767123288,0.34756756756756757,0.5006113964294449,0.6329670329670329,0.43650126156433977,1194.0
380.0,1.710927165775296e+18,0.48825065274151436,0.3995433789954338,0.34162162162162163,0.5055025678650037,0.6285714285714286,0.4415475189234651,1195.0
381.0,1.710927165785296e+18,0.47389033942558745,0.3904109589041096,0.3281081081081081,0.5008559550012228,0.6241758241758242,0.4415475189234651,1196.0
382.0,1.7109271657952714e+18,0.47127937336814624,0.4269406392694064,0.3427027027027027,0.5033015407190022,0.6296703296703297,0.4415475189234651,1196.0
383.0,1.7109271658052833e+18,0.45822454308093996,0.4041095890410959,0.3281081081081081,0.4974321349963316,0.6054945054945055,0.4314550042052145,1194.0
384.0,1.7109271658152986e+18,0.4869451697127937,0.4360730593607306,0.35027027027027025,0.5055025678650037,0.634065934065934,0.44238856181665265,1194.0
385.0,1.7109271658253e+18,0.47780678851174935,0.410958904109589,0.32594594594594595,0.48789435069699194,0.6230769230769231,0.43986543313709,1195.0
386.0,1.7109271658352957e+18,0.4830287206266319,0.4132420091324201,0.3308108108108108,0.5101491807287846,0.621978021978022,0.4415475189234651,1193.0
387.0,1.7109271658453e+18,0.4660574412532637,0.4269406392694064,0.3362162162162162,0.5037906578625581,0.6164835164835165,0.4339781328847771,1193.0
388.0,1.7109271658552686e+18,0.4608355091383812,0.3995433789954338,0.33675675675675676,0.5006113964294449,0.5967032967032967,0.43566021867115223,1195.0
389.0,1.7109271658652987e+18,0.4804177545691906,0.410958904109589,0.33135135135135135,0.5015896307165566,0.6296703296703297,0.4440706476030278,1193.0
390.0,1.710927165875299e+18,0.48433420365535246,0.4452054794520548,0.34756756756756757,0.49816581071166544,0.610989010989011,0.43566021867115223,1195.0
391.0,1.7109271658852997e+18,0.47911227154047,0.4155251141552511,0.3427027027027027,0.5067253607238934,0.6417582417582418,0.43986543313709,1197.0
392.0,1.7109271658952952e+18,0.4765013054830287,0.4121004566210046,0.3308108108108108,0.5006113964294449,0.6186813186813187,0.43902439024390244,1193.0
393.0,1.7109271659053018e+18,0.48172323759791125,0.4406392694063927,0.36486486486486486,0.49938860357055515,0.6362637362637362,0.4415475189234651,1198.0
394.0,1.7109271659153068e+18,0.48172323759791125,0.4714611872146119,0.3345945945945946,0.5003668378576669,0.6120879120879121,0.43566021867115223,1195.0
395.0,1.7109271659253056e+18,0.4765013054830287,0.4235159817351598,0.34702702702702704,0.5006113964294449,0.6208791208791209,0.4381833473507149,1194.0
396.0,1.710927165935301e+18,0.4725848563968668,0.4052511415525114,0.3281081081081081,0.5050134507214478,0.6274725274725275,0.447434819175778,1196.0
397.0,1.710927165945305e+18,0.46866840731070497,0.3892694063926941,0.3227027027027027,0.5023233064318905,0.6285714285714286,0.4432296047098402,1195.0
398.0,1.7109271659553032e+18,0.46736292428198434,0.4223744292237443,0.34702702702702704,0.4979212521398875,0.6230769230769231,0.43566021867115223,1196.0
399.0,1.710927165965295e+18,0.47127937336814624,0.4235159817351598,0.34486486486486484,0.5023233064318905,0.6065934065934065,0.4339781328847771,1192.0
400.0,1.7109271659752975e+18,0.4830287206266319,0.4143835616438356,0.3362162162162162,0.49645390070921985,0.6186813186813187,0.4381833473507149,1194.0
401.0,1.710927165985298e+18,0.48433420365535246,0.4178082191780822,0.35567567567567565,0.5047688921496698,0.6241758241758242,0.4415475189234651,1197.0
402.0,1.7109271659952983e+18,0.48172323759791125,0.4121004566210046,0.33837837837837836,0.5028124235754463,0.6516483516483517,0.4449116904962153,1194.0
403.0,1.710927166005302e+18,0.4765013054830287,0.4075342465753425,0.3254054054054054,0.5025678650036683,0.6241758241758242,0.43566021867115223,1195.0
404.0,1.710927166015299e+18,0.4660574412532637,0.3961187214611872,0.3237837837837838,0.495964783565664,0.6164835164835165,0.43313708999158956,1192.0
405.0,1.7109271660252974e+18,0.4725848563968668,0.4223744292237443,0.3318918918918919,0.5015896307165566,0.6186813186813187,0.4339781328847771,1192.0
406.0,1.7109271660353e+18,0.48825065274151436,0.4372146118721461,0.3583783783783784,0.49938860357055515,0.6230769230769231,0.4415475189234651,1196.0
407.0,1.710927166045311e+18,0.4595300261096606,0.3732876712328767,0.3232432432432432,0.5028124235754463,0.6296703296703297,0.4432296047098402,1196.0
408.0,1.7109271660552955e+18,0.4830287206266319,0.4132420091324201,0.33405405405405403,0.5008559550012228,0.6230769230769231,0.4440706476030278,1196.0
409.0,1.7109271660652966e+18,0.47780678851174935,0.4292237442922374,0.33297297297297296,0.5025678650036683,0.6285714285714286,0.4415475189234651,1196.0
410.0,1.710927166075296e+18,0.4830287206266319,0.4269406392694064,0.3427027027027027,0.499877720714111,0.6142857142857143,0.44238856181665265,1194.0
411.0,1.710927166085296e+18,0.4804177545691906,0.4132420091324201,0.327027027027027,0.4930300807043287,0.6120879120879121,0.43650126156433977,1198.0
412.0,1.710927166095303e+18,0.48172323759791125,0.4520547945205479,0.35621621621621624,0.504279775006114,0.6208791208791209,0.4432296047098402,1194.0
413.0,1.7109271661053012e+18,0.47911227154047,0.4269406392694064,0.32,0.4984103692834434,0.6065934065934065,0.4381833473507149,1196.0
414.0,1.7109271661152975e+18,0.4751958224543081,0.3938356164383562,0.3362162162162162,0.504035216434336,0.6274725274725275,0.44238856181665265,1196.0
415.0,1.7109271661252992e+18,0.46344647519582244,0.4052511415525114,0.34,0.5035460992907801,0.6120879120879121,0.4348191757779647,1196.0
416.0,1.710927166135299e+18,0.47780678851174935,0.4098173515981735,0.32972972972972975,0.5050134507214478,0.6318681318681318,0.4415475189234651,1195.0
417.0,1.7109271661452995e+18,0.46344647519582244,0.3995433789954338,0.32594594594594595,0.4988994864269993,0.6142857142857143,0.4306139613120269,1194.0
418.0,1.7109271661553e+18,0.47127937336814624,0.4052511415525114,0.34162162162162163,0.5055025678650037,0.6296703296703297,0.44070647603027757,1195.0
419.0,1.7109271661652946e+18,0.4699738903394256,0.3995433789954338,0.32756756756756755,0.5030569821472243,0.6197802197802198,0.43566021867115223,1193.0
420.0,1.7109271661752955e+18,0.47780678851174935,0.4223744292237443,0.34378378378378377,0.5006113964294449,0.6164835164835165,0.43566021867115223,1194.0
421.0,1.7109271661853174e+18,0.4765013054830287,0.410958904109589,0.33135135135135135,0.5006113964294449,0.6230769230769231,0.4381833473507149,1193.0
422.0,1.7109271661952993e+18,0.47127937336814624,0.3755707762557078,0.33675675675675676,0.5006113964294449,0.6208791208791209,0.4373423044575273,1196.0
423.0,1.7109271662052972e+18,0.4725848563968668,0.4075342465753425,0.3291891891891892,0.5008559550012228,0.6296703296703297,0.4381833473507149,1196.0
424.0,1.710927166215299e+18,0.48825065274151436,0.4189497716894977,0.3335135135135135,0.5057471264367817,0.6351648351648351,0.4449116904962153,1196.0
425.0,1.7109271662253087e+18,0.47911227154047,0.4132420091324201,0.32972972972972975,0.5037906578625581,0.6318681318681318,0.43313708999158956,1194.0
426.0,1.7109271662353021e+18,0.46736292428198434,0.3926940639269406,0.34162162162162163,0.4942528735632184,0.6274725274725275,0.43902439024390244,1197.0
427.0,1.7109271662453005e+18,0.47389033942558745,0.4098173515981735,0.33405405405405403,0.5018341892883346,0.6318681318681318,0.4381833473507149,1197.0
428.0,1.710927166255297e+18,0.48172323759791125,0.4200913242009132,0.33135135135135135,0.5057471264367817,0.6362637362637362,0.4381833473507149,1198.0
429.0,1.7109271662652928e+18,0.4751958224543081,0.430365296803653,0.36108108108108106,0.5050134507214478,0.6527472527472528,0.43902439024390244,1197.0
430.0,1.7109271662752553e+18,0.4725848563968668,0.3972602739726027,0.33675675675675676,0.5006113964294449,0.621978021978022,0.43902439024390244,1197.0
431.0,1.7109271662853187e+18,0.47780678851174935,0.4406392694063927,0.3281081081081081,0.5011005135730008,0.6197802197802198,0.43986543313709,1197.0
432.0,1.710927166295306e+18,0.47780678851174935,0.4098173515981735,0.34054054054054056,0.504524333577892,0.621978021978022,0.4415475189234651,1195.0
433.0,1.7109271663053066e+18,0.48433420365535246,0.4189497716894977,0.34378378378378377,0.49938860357055515,0.6274725274725275,0.4415475189234651,1196.0
434.0,1.7109271663152975e+18,0.47780678851174935,0.4132420091324201,0.33297297297297296,0.5028124235754463,0.6296703296703297,0.4415475189234651,1198.0
435.0,1.710927166325294e+18,0.47780678851174935,0.4212328767123288,0.3372972972972973,0.5035460992907801,0.6307692307692307,0.4381833473507149,1196.0
436.0,1.7109271663353006e+18,0.48433420365535246,0.4098173515981735,0.35621621621621624,0.5030569821472243,0.6395604395604395,0.44238856181665265,1197.0
437.0,1.7109271663453033e+18,0.47389033942558745,0.3926940639269406,0.3362162162162162,0.5015896307165566,0.6274725274725275,0.4373423044575273,1197.0
438.0,1.7109271663552878e+18,0.4725848563968668,0.4132420091324201,0.36,0.5055025678650037,0.6274725274725275,0.4415475189234651,1196.0
439.0,1.7109271663652972e+18,0.48172323759791125,0.410958904109589,0.3389189189189189,0.5025678650036683,0.6318681318681318,0.4415475189234651,1196.0
440.0,1.7109271663752952e+18,0.47911227154047,0.4075342465753425,0.32972972972972975,0.49938860357055515,0.621978021978022,0.43650126156433977,1195.0
441.0,1.710927166385292e+18,0.4699738903394256,0.4098173515981735,0.3302702702702703,0.5011005135730008,0.6230769230769231,0.4339781328847771,1193.0
442.0,1.7109271663952963e+18,0.4765013054830287,0.4121004566210046,0.33513513513513515,0.5008559550012228,0.6230769230769231,0.4415475189234651,1196.0
443.0,1.7109271664052938e+18,0.4869451697127937,0.4178082191780822,0.3286486486486486,0.5003668378576669,0.6285714285714286,0.43902439024390244,1196.0
444.0,1.7109271664153157e+18,0.48172323759791125,0.4178082191780822,0.34054054054054056,0.5028124235754463,0.6307692307692307,0.4432296047098402,1194.0
445.0,1.7109271664252961e+18,0.4660574412532637,0.4189497716894977,0.34216216216216216,0.5020787478601125,0.634065934065934,0.4381833473507149,1196.0
446.0,1.7109271664352942e+18,0.4869451697127937,0.4463470319634703,0.3481081081081081,0.5050134507214478,0.6362637362637362,0.447434819175778,1196.0
447.0,1.7109271664452984e+18,0.46866840731070497,0.4063926940639269,0.3286486486486486,0.49620934213744194,0.6076923076923076,0.43566021867115223,1196.0
448.0,1.7109271664552986e+18,0.4765013054830287,0.4143835616438356,0.33945945945945943,0.5037906578625581,0.6307692307692307,0.4415475189234651,1196.0
449.0,1.710927166465295e+18,0.4725848563968668,0.4155251141552511,0.33297297297297296,0.5011005135730008,0.6241758241758242,0.43650126156433977,1196.0
450.0,1.710927166475295e+18,0.4765013054830287,0.4383561643835616,0.35783783783783785,0.5006113964294449,0.6197802197802198,0.4415475189234651,1198.0
451.0,1.7109271664852938e+18,0.4595300261096606,0.4132420091324201,0.3232432432432432,0.5001222792858889,0.634065934065934,0.4415475189234651,1196.0
452.0,1.710927166495302e+18,0.47127937336814624,0.4200913242009132,0.3621621621621622,0.5030569821472243,0.5505494505494506,0.43566021867115223,1197.0
453.0,1.7109271665052398e+18,0.4830287206266319,0.4577625570776256,0.34162162162162163,0.4988994864269993,0.6098901098901099,0.4339781328847771,1192.0
454.0,1.7109271665152986e+18,0.4556135770234987,0.3915525114155251,0.3286486486486486,0.5003668378576669,0.6142857142857143,0.43566021867115223,1194.0
455.0,1.7109271665253076e+18,0.47911227154047,0.4132420091324201,0.34162162162162163,0.5028124235754463,0.6197802197802198,0.4381833473507149,1195.0
456.0,1.7109271665353014e+18,0.4556135770234987,0.4212328767123288,0.3518918918918919,0.49327463927610665,0.6164835164835165,0.4381833473507149,1195.0
457.0,1.710927166545323e+18,0.4869451697127937,0.4178082191780822,0.3362162162162162,0.5020787478601125,0.6274725274725275,0.4415475189234651,1196.0
458.0,1.7109271665552963e+18,0.489556135770235,0.4178082191780822,0.3362162162162162,0.5020787478601125,0.6252747252747253,0.4440706476030278,1196.0
459.0,1.7109271665653043e+18,0.46736292428198434,0.410958904109589,0.3318918918918919,0.5001222792858889,0.6186813186813187,0.4415475189234651,1193.0
460.0,1.7109271665753e+18,0.4751958224543081,0.4155251141552511,0.3281081081081081,0.504279775006114,0.621978021978022,0.4415475189234651,1193.0
461.0,1.7109271665853074e+18,0.4960835509138381,0.4874429223744292,0.34594594594594597,0.5006113964294449,0.6329670329670329,0.4415475189234651,1195.0
462.0,1.7109271665953208e+18,0.4608355091383812,0.3972602739726027,0.3318918918918919,0.5006113964294449,0.6186813186813187,0.43650126156433977,1195.0
463.0,1.7109271666053107e+18,0.45430809399477806,0.3892694063926941,0.31567567567567567,0.49816581071166544,0.6230769230769231,0.43313708999158956,1194.0
464.0,1.7109271666153044e+18,0.4765013054830287,0.432648401826484,0.3481081081081081,0.5028124235754463,0.6230769230769231,0.4415475189234651,1195.0
465.0,1.7109271666253074e+18,0.47389033942558745,0.410958904109589,0.3302702702702703,0.4986549278552213,0.6164835164835165,0.4373423044575273,1195.0
466.0,1.7109271666352998e+18,0.4725848563968668,0.4132420091324201,0.3389189189189189,0.5015896307165566,0.6230769230769231,0.4373423044575273,1195.0
467.0,1.710927166645302e+18,0.46866840731070497,0.4063926940639269,0.3308108108108108,0.5015896307165566,0.6120879120879121,0.4373423044575273,1196.0
468.0,1.710927166655305e+18,0.4804177545691906,0.4429223744292237,0.35567567567567565,0.495720224993886,0.610989010989011,0.4415475189234651,1195.0
469.0,1.710927166665306e+18,0.47127937336814624,0.4235159817351598,0.34702702702702704,0.5001222792858889,0.6241758241758242,0.43902439024390244,1196.0
470.0,1.7109271666752993e+18,0.47911227154047,0.4269406392694064,0.3372972972972973,0.4974321349963316,0.6197802197802198,0.43986543313709,1196.0
471.0,1.7109271666852997e+18,0.47127937336814624,0.408675799086758,0.33513513513513515,0.5015896307165566,0.6208791208791209,0.4381833473507149,1195.0
472.0,1.7109271666952998e+18,0.4804177545691906,0.4212328767123288,0.3497297297297297,0.5057471264367817,0.6351648351648351,0.4449116904962153,1195.0
473.0,1.7109271667053048e+18,0.46736292428198434,0.4132420091324201,0.3232432432432432,0.4986549278552213,0.6274725274725275,0.4415475189234651,1196.0
474.0,1.7109271667153016e+18,0.48433420365535246,0.4315068493150685,0.3589189189189189,0.5020787478601125,0.6274725274725275,0.43902439024390244,1193.0
475.0,1.710927166725303e+18,0.46866840731070497,0.4063926940639269,0.33135135135135135,0.5025678650036683,0.6296703296703297,0.4381833473507149,1195.0
476.0,1.7109271667353021e+18,0.47911227154047,0.4006849315068493,0.3362162162162162,0.5050134507214478,0.6274725274725275,0.4373423044575273,1194.0
477.0,1.7109271667453112e+18,0.4804177545691906,0.4006849315068493,0.31405405405405407,0.5008559550012228,0.6285714285714286,0.44238856181665265,1195.0
478.0,1.7109271667553116e+18,0.4516971279373368,0.3892694063926941,0.31675675675675674,0.4988994864269993,0.6153846153846154,0.4381833473507149,1195.0
479.0,1.7109271667653046e+18,0.4765013054830287,0.4189497716894977,0.34540540540540543,0.4986549278552213,0.634065934065934,0.44575273338940286,1194.0
480.0,1.710927166775305e+18,0.4765013054830287,0.4292237442922374,0.3589189189189189,0.49767669356810956,0.6208791208791209,0.44070647603027757,1195.0
481.0,1.7109271667853025e+18,0.4765013054830287,0.4121004566210046,0.3335135135135135,0.5008559550012228,0.6274725274725275,0.4381833473507149,1195.0
482.0,1.7109271667953124e+18,0.47389033942558745,0.4132420091324201,0.33297297297297296,0.495720224993886,0.6230769230769231,0.43902439024390244,1195.0
483.0,1.7109271668053002e+18,0.48172323759791125,0.4143835616438356,0.3335135135135135,0.5028124235754463,0.6142857142857143,0.43650126156433977,1197.0
484.0,1.7109271668153027e+18,0.4725848563968668,0.4178082191780822,0.32756756756756755,0.499877720714111,0.6241758241758242,0.4381833473507149,1196.0
485.0,1.7109271668253028e+18,0.4869451697127937,0.4394977168949772,0.35945945945945945,0.5047688921496698,0.6285714285714286,0.43902439024390244,1196.0
486.0,1.7109271668353032e+18,0.46866840731070497,0.4041095890410959,0.327027027027027,0.5008559550012228,0.5934065934065934,0.4289318755256518,1192.0
487.0,1.7109271668453036e+18,0.47389033942558745,0.4075342465753425,0.3172972972972973,0.49767669356810956,0.5989010989010989,0.42977291841883936,1192.0
488.0,1.7109271668553034e+18,0.47911227154047,0.4075342465753425,0.31513513513513514,0.5025678650036683,0.621978021978022,0.4415475189234651,1195.0
489.0,1.7109271668653043e+18,0.4608355091383812,0.3835616438356164,0.31405405405405407,0.495720224993886,0.6076923076923076,0.4373423044575273,1197.0
490.0,1.7109271668753037e+18,0.4869451697127937,0.4292237442922374,0.3535135135135135,0.49620934213744194,0.5846153846153846,0.4314550042052145,1192.0
491.0,1.710927166885305e+18,0.46475195822454307,0.410958904109589,0.3248648648648649,0.5028124235754463,0.6285714285714286,0.4348191757779647,1195.0
492.0,1.7109271668953188e+18,0.47780678851174935,0.408675799086758,0.3302702702702703,0.4986549278552213,0.610989010989011,0.42977291841883936,1192.0
493.0,1.7109271669053153e+18,0.4725848563968668,0.3961187214611872,0.3286486486486486,0.49938860357055515,0.6186813186813187,0.43902439024390244,1195.0
494.0,1.7109271669153236e+18,0.4804177545691906,0.410958904109589,0.3372972972972973,0.5028124235754463,0.6208791208791209,0.44575273338940286,1196.0
495.0,1.7109271669253094e+18,0.46736292428198434,0.3995433789954338,0.3145945945945946,0.5006113964294449,0.6197802197802198,0.4381833473507149,1195.0
496.0,1.7109271669353065e+18,0.5026109660574413,0.4497716894977169,0.3583783783783784,0.5069699192956714,0.6285714285714286,0.4339781328847771,1192.0
497.0,1.7109271669453074e+18,0.4660574412532637,0.4406392694063927,0.3216216216216216,0.495964783565664,0.5967032967032967,0.4314550042052145,1192.0
498.0,1.7109271669553096e+18,0.46866840731070497,0.4041095890410959,0.32972972972972975,0.5047688921496698,0.6461538461538462,0.4373423044575273,1196.0
499.0,1.7109271669653084e+18,0.46736292428198434,0.3904109589041096,0.30972972972972973,0.5008559550012228,0.6120879120879121,0.43650126156433977,1192.0
500.0,1.7109271669753083e+18,0.47127937336814624,0.3812785388127854,0.2913513513513514,0.4979212521398875,0.6032967032967033,0.43566021867115223,1194.0
501.0,1.7109271669853435e+18,0.4765013054830287,0.3926940639269406,0.327027027027027,0.5069699192956714,0.6274725274725275,0.4381833473507149,1194.0
502.0,1.7109271669952906e+18,0.48172323759791125,0.4029680365296804,0.33135135135135135,0.5015896307165566,0.6186813186813187,0.4465937762825904,1195.0
503.0,1.710927167005322e+18,0.48172323759791125,0.4178082191780822,0.3281081081081081,0.5035460992907801,0.6043956043956044,0.4339781328847771,1193.0
504.0,1.7109271670152904e+18,0.47389033942558745,0.4223744292237443,0.3345945945945946,0.5015896307165566,0.621978021978022,0.4339781328847771,1194.0
505.0,1.710927167025278e+18,0.4804177545691906,0.4269406392694064,0.33135135135135135,0.48985081927121543,0.5835164835164836,0.43313708999158956,1193.0
506.0,1.7109271670352922e+18,0.46475195822454307,0.4178082191780822,0.34540540540540543,0.5023233064318905,0.6164835164835165,0.43313708999158956,1193.0
507.0,1.7109271670452938e+18,0.47389033942558745,0.4132420091324201,0.30594594594594593,0.5011005135730008,0.6142857142857143,0.43650126156433977,1196.0
508.0,1.7109271670552924e+18,0.47389033942558745,0.4257990867579909,0.35405405405405405,0.499877720714111,0.6274725274725275,0.43313708999158956,1193.0
509.0,1.7109271670653207e+18,0.47389033942558745,0.408675799086758,0.32216216216216215,0.5025678650036683,0.6230769230769231,0.4415475189234651,1196.0
510.0,1.7109271670753108e+18,0.4830287206266319,0.4589041095890411,0.3589189189189189,0.5028124235754463,0.6274725274725275,0.44238856181665265,1195.0
511.0,1.7109271670852928e+18,0.4660574412532637,0.4098173515981735,0.32972972972972975,0.4966984592809978,0.6230769230769231,0.43566021867115223,1195.0
512.0,1.710927167095278e+18,0.47127937336814624,0.4063926940639269,0.33405405405405403,0.5025678650036683,0.6065934065934065,0.4373423044575273,1197.0
513.0,1.7109271671053153e+18,0.47780678851174935,0.4075342465753425,0.3183783783783784,0.5015896307165566,0.6296703296703297,0.4415475189234651,1193.0
514.0,1.7109271671153137e+18,0.489556135770235,0.4474885844748858,0.34540540540540543,0.5025678650036683,0.6252747252747253,0.4415475189234651,1196.0
515.0,1.7109271671252959e+18,0.4699738903394256,0.4246575342465753,0.3232432432432432,0.5020787478601125,0.6230769230769231,0.43986543313709,1196.0
516.0,1.7109271671352978e+18,0.4830287206266319,0.4509132420091324,0.3772972972972973,0.5015896307165566,0.6241758241758242,0.4449116904962153,1195.0
517.0,1.710927167145296e+18,0.4765013054830287,0.4246575342465753,0.39297297297297296,0.5015896307165566,0.6197802197802198,0.43650126156433977,1195.0
518.0,1.7109271671552973e+18,0.48172323759791125,0.4223744292237443,0.34540540540540543,0.5018341892883346,0.6241758241758242,0.43902439024390244,1196.0
519.0,1.710927167165297e+18,0.4621409921671018,0.4029680365296804,0.3210810810810811,0.5035460992907801,0.6098901098901099,0.4381833473507149,1195.0
520.0,1.7109271671752996e+18,0.45822454308093996,0.4075342465753425,0.32432432432432434,0.49620934213744194,0.6153846153846154,0.4314550042052145,1192.0
521.0,1.7109271671852995e+18,0.4804177545691906,0.4223744292237443,0.3291891891891892,0.5018341892883346,0.6274725274725275,0.44238856181665265,1196.0
522.0,1.7109271671953004e+18,0.45822454308093996,0.408675799086758,0.3518918918918919,0.5015896307165566,0.6230769230769231,0.43650126156433977,1197.0
523.0,1.7109271672052803e+18,0.47127937336814624,0.4257990867579909,0.34324324324324323,0.5033015407190022,0.6241758241758242,0.4381833473507149,1196.0
524.0,1.710927167215329e+18,0.4765013054830287,0.410958904109589,0.32972972972972975,0.5008559550012228,0.6252747252747253,0.4415475189234651,1196.0
525.0,1.7109271672253082e+18,0.46866840731070497,0.3881278538812785,0.3254054054054054,0.504279775006114,0.6274725274725275,0.44238856181665265,1194.0
526.0,1.7109271672352998e+18,0.47389033942558745,0.3995433789954338,0.3308108108108108,0.5015896307165566,0.6329670329670329,0.4415475189234651,1194.0
527.0,1.7109271672452984e+18,0.4830287206266319,0.4269406392694064,0.36324324324324325,0.5033015407190022,0.6285714285714286,0.4415475189234651,1194.0
528.0,1.7109271672552973e+18,0.46736292428198434,0.4052511415525114,0.3308108108108108,0.5059916850085595,0.6274725274725275,0.4381833473507149,1195.0
529.0,1.7109271672653268e+18,0.4765013054830287,0.4132420091324201,0.34054054054054056,0.5020787478601125,0.6252747252747253,0.44070647603027757,1194.0
530.0,1.7109271672752998e+18,0.47389033942558745,0.4006849315068493,0.34054054054054056,0.5015896307165566,0.6274725274725275,0.4415475189234651,1194.0
531.0,1.7109271672853046e+18,0.47127937336814624,0.3984018264840183,0.3232432432432432,0.4996331621423331,0.6208791208791209,0.43566021867115223,1196.0
532.0,1.7109271672952955e+18,0.4765013054830287,0.4052511415525114,0.3308108108108108,0.5003668378576669,0.6230769230769231,0.43902439024390244,1197.0
533.0,1.710927167305295e+18,0.4621409921671018,0.3915525114155251,0.3324324324324324,0.5011005135730008,0.6263736263736264,0.43902439024390244,1195.0
534.0,1.7109271673152986e+18,0.4765013054830287,0.3949771689497717,0.31405405405405407,0.5030569821472243,0.6329670329670329,0.43902439024390244,1195.0
535.0,1.7109271673252915e+18,0.47127937336814624,0.3984018264840183,0.3216216216216216,0.4927855221325507,0.5978021978021978,0.4381833473507149,1197.0
536.0,1.7109271673352927e+18,0.4804177545691906,0.4121004566210046,0.33405405405405403,0.5023233064318905,0.6142857142857143,0.43313708999158956,1191.0
537.0,1.7109271673453043e+18,0.4830287206266319,0.4452054794520548,0.3481081081081081,0.5008559550012228,0.5912087912087912,0.4289318755256518,1192.0
538.0,1.7109271673552978e+18,0.4725848563968668,0.4029680365296804,0.3362162162162162,0.49938860357055515,0.6054945054945055,0.43986543313709,1194.0
539.0,1.7109271673652972e+18,0.4804177545691906,0.4132420091324201,0.3172972972972973,0.5018341892883346,0.6450549450549451,0.4432296047098402,1193.0
540.0,1.7109271673752996e+18,0.49869451697127937,0.4589041095890411,0.4183783783783784,0.5064808021521154,0.6384615384615384,0.447434819175778,1194.0
541.0,1.7109271673853064e+18,0.4621409921671018,0.3915525114155251,0.3108108108108108,0.5006113964294449,0.6230769230769231,0.4339781328847771,1193.0
542.0,1.7109271673953006e+18,0.47127937336814624,0.4052511415525114,0.34054054054054056,0.5006113964294449,0.6175824175824176,0.43650126156433977,1195.0
543.0,1.7109271674052943e+18,0.4725848563968668,0.4041095890410959,0.3286486486486486,0.5020787478601125,0.6285714285714286,0.43650126156433977,1196.0
544.0,1.710927167415297e+18,0.4765013054830287,0.4178082191780822,0.33297297297297296,0.5028124235754463,0.6274725274725275,0.4432296047098402,1197.0
545.0,1.7109271674252961e+18,0.48825065274151436,0.4292237442922374,0.3491891891891892,0.4937637564196625,0.6241758241758242,0.4432296047098402,1193.0
546.0,1.7109271674353183e+18,0.48433420365535246,0.4041095890410959,0.3567567567567568,0.5035460992907801,0.6230769230769231,0.43986543313709,1197.0
547.0,1.7109271674452966e+18,0.4765013054830287,0.3995433789954338,0.34864864864864864,0.5015896307165566,0.6164835164835165,0.4348191757779647,1193.0
548.0,1.710927167455296e+18,0.4725848563968668,0.4223744292237443,0.35945945945945945,0.5020787478601125,0.6252747252747253,0.44238856181665265,1195.0
549.0,1.710927167465294e+18,0.4765013054830287,0.4075342465753425,0.3237837837837838,0.5035460992907801,0.6274725274725275,0.4415475189234651,1196.0
550.0,1.7109271674752945e+18,0.4660574412532637,0.4052511415525114,0.33783783783783783,0.5018341892883346,0.6208791208791209,0.4373423044575273,1196.0
551.0,1.7109271674853005e+18,0.4765013054830287,0.4235159817351598,0.3286486486486486,0.5011005135730008,0.6241758241758242,0.4339781328847771,1194.0
552.0,1.7109271674953032e+18,0.46344647519582244,0.408675799086758,0.3254054054054054,0.5059916850085595,0.6274725274725275,0.43986543313709,1194.0
553.0,1.7109271675052966e+18,0.4856396866840731,0.4178082191780822,0.34324324324324323,0.5020787478601125,0.6274725274725275,0.44238856181665265,1195.0
554.0,1.7109271675152965e+18,0.46344647519582244,0.4041095890410959,0.3308108108108108,0.504524333577892,0.6285714285714286,0.4415475189234651,1195.0
555.0,1.710927167525327e+18,0.4804177545691906,0.432648401826484,0.32756756756756755,0.5018341892883346,0.6296703296703297,0.4415475189234651,1195.0
556.0,1.7109271675352947e+18,0.47911227154047,0.4280821917808219,0.327027027027027,0.5015896307165566,0.6329670329670329,0.4432296047098402,1194.0
557.0,1.7109271675453033e+18,0.46866840731070497,0.4006849315068493,0.3172972972972973,0.5020787478601125,0.6208791208791209,0.4339781328847771,1193.0
558.0,1.710927167555299e+18,0.46736292428198434,0.4041095890410959,0.32972972972972975,0.5025678650036683,0.6186813186813187,0.4348191757779647,1194.0
559.0,1.710927167565309e+18,0.46344647519582244,0.4429223744292237,0.3372972972972973,0.5015896307165566,0.6241758241758242,0.43650126156433977,1194.0
560.0,1.710927167575297e+18,0.4765013054830287,0.4223744292237443,0.34,0.5015896307165566,0.6274725274725275,0.43986543313709,1193.0
561.0,1.710927167585298e+18,0.4765013054830287,0.3915525114155251,0.3108108108108108,0.4913181707018831,0.6296703296703297,0.4440706476030278,1195.0
562.0,1.710927167595317e+18,0.47127937336814624,0.3972602739726027,0.3291891891891892,0.504035216434336,0.6307692307692307,0.4381833473507149,1193.0
563.0,1.7109271676052959e+18,0.4869451697127937,0.4121004566210046,0.3172972972972973,0.5018341892883346,0.6208791208791209,0.43902439024390244,1196.0
564.0,1.710927167615297e+18,0.46344647519582244,0.3984018264840183,0.3324324324324324,0.5015896307165566,0.6230769230769231,0.4415475189234651,1194.0
565.0,1.710927167625299e+18,0.5052219321148825,0.4771689497716895,0.40594594594594596,0.504035216434336,0.6241758241758242,0.4348191757779647,1196.0
566.0,1.7109271676353006e+18,0.4725848563968668,0.410958904109589,0.33675675675675676,0.5086818292981169,0.6318681318681318,0.44070647603027757,1194.0
567.0,1.7109271676453148e+18,0.4751958224543081,0.4075342465753425,0.3286486486486486,0.5020787478601125,0.6230769230769231,0.4373423044575273,1194.0
568.0,1.7109271676552973e+18,0.4751958224543081,0.3995433789954338,0.3308108108108108,0.5025678650036683,0.6263736263736264,0.44070647603027757,1193.0
569.0,1.7109271676652974e+18,0.4765013054830287,0.3984018264840183,0.3356756756756757,0.5018341892883346,0.6252747252747253,0.43902439024390244,1196.0
570.0,1.7109271676753e+18,0.48172323759791125,0.4063926940639269,0.3281081081081081,0.5006113964294449,0.6274725274725275,0.432296047098402,1194.0
571.0,1.710927167685296e+18,0.4751958224543081,0.430365296803653,0.3362162162162162,0.5020787478601125,0.6329670329670329,0.4339781328847771,1194.0
572.0,1.7109271676952996e+18,0.4725848563968668,0.384703196347032,0.3248648648648649,0.5035460992907801,0.6285714285714286,0.4415475189234651,1196.0
573.0,1.7109271677052997e+18,0.48825065274151436,0.4417808219178082,0.3935135135135135,0.504524333577892,0.6318681318681318,0.43986543313709,1194.0
574.0,1.7109271677152975e+18,0.4765013054830287,0.4189497716894977,0.35135135135135137,0.5030569821472243,0.6252747252747253,0.43986543313709,1194.0
575.0,1.710927167725298e+18,0.4725848563968668,0.4132420091324201,0.33945945945945943,0.5006113964294449,0.6285714285714286,0.4373423044575273,1195.0
576.0,1.7109271677353044e+18,0.4765013054830287,0.4246575342465753,0.3443243243243243,0.4954756664221081,0.6197802197802198,0.43650126156433977,1196.0
577.0,1.710927167745307e+18,0.47127937336814624,0.4041095890410959,0.3372972972972973,0.5025678650036683,0.6241758241758242,0.44070647603027757,1196.0
578.0,1.7109271677552428e+18,0.4830287206266319,0.4178082191780822,0.33675675675675676,0.5018341892883346,0.6274725274725275,0.4440706476030278,1196.0
579.0,1.7109271677652918e+18,0.46866840731070497,0.4063926940639269,0.32756756756756755,0.5030569821472243,0.6252747252747253,0.4373423044575273,1195.0
580.0,1.7109271677752983e+18,0.46736292428198434,0.4189497716894977,0.33675675675675676,0.504035216434336,0.6241758241758242,0.4415475189234651,1194.0
581.0,1.71092716778531e+18,0.4765013054830287,0.4178082191780822,0.3324324324324324,0.49498654927855223,0.6230769230769231,0.4381833473507149,1195.0
582.0,1.7109271677952968e+18,0.47127937336814624,0.4166666666666667,0.34216216216216216,0.5001222792858889,0.6241758241758242,0.4373423044575273,1197.0
583.0,1.7109271678052933e+18,0.4765013054830287,0.4383561643835616,0.37567567567567567,0.4986549278552213,0.6318681318681318,0.4415475189234651,1196.0
584.0,1.7109271678153006e+18,0.4765013054830287,0.4315068493150685,0.3318918918918919,0.5015896307165566,0.6296703296703297,0.44238856181665265,1195.0
585.0,1.710927167825296e+18,0.45822454308093996,0.3744292237442922,0.3308108108108108,0.5003668378576669,0.6230769230769231,0.43650126156433977,1195.0
586.0,1.7109271678352945e+18,0.4765013054830287,0.4006849315068493,0.3227027027027027,0.49816581071166544,0.6208791208791209,0.4381833473507149,1197.0
587.0,1.7109271678453036e+18,0.4856396866840731,0.4178082191780822,0.32756756756756755,0.5030569821472243,0.6252747252747253,0.4415475189234651,1193.0
588.0,1.7109271678553027e+18,0.46344647519582244,0.3858447488584475,0.31027027027027027,0.4988994864269993,0.6274725274725275,0.4381833473507149,1195.0
589.0,1.7109271678653112e+18,0.47911227154047,0.3949771689497717,0.3254054054054054,0.5035460992907801,0.634065934065934,0.4381833473507149,1195.0
590.0,1.710927167875302e+18,0.4869451697127937,0.4509132420091324,0.36864864864864866,0.5028124235754463,0.6274725274725275,0.4415475189234651,1195.0
591.0,1.7109271678852908e+18,0.4765013054830287,0.4041095890410959,0.327027027027027,0.5015896307165566,0.6274725274725275,0.4415475189234651,1196.0
592.0,1.7109271678952993e+18,0.47780678851174935,0.4235159817351598,0.3372972972972973,0.49498654927855223,0.6186813186813187,0.4381833473507149,1194.0
593.0,1.710927167905298e+18,0.46736292428198434,0.4098173515981735,0.3308108108108108,0.499877720714111,0.6263736263736264,0.43650126156433977,1196.0
594.0,1.7109271679153126e+18,0.47780678851174935,0.410958904109589,0.3308108108108108,0.5025678650036683,0.6274725274725275,0.4415475189234651,1193.0
595.0,1.7109271679252946e+18,0.4830287206266319,0.4394977168949772,0.33837837837837836,0.4996331621423331,0.6285714285714286,0.4339781328847771,1193.0
596.0,1.7109271679352922e+18,0.45430809399477806,0.3881278538812785,0.3291891891891892,0.5020787478601125,0.621978021978022,0.4373423044575273,1194.0
597.0,1.710927167945292e+18,0.47127937336814624,0.4189497716894977,0.31945945945945947,0.5033015407190022,0.6274725274725275,0.4415475189234651,1194.0
598.0,1.7109271679552947e+18,0.4804177545691906,0.410958904109589,0.33297297297297296,0.5003668378576669,0.6230769230769231,0.43650126156433977,1194.0
599.0,1.7109271679653181e+18,0.48433420365535246,0.4178082191780822,0.32594594594594595,0.5064808021521154,0.6318681318681318,0.43986543313709,1192.0
600.0,1.710927167975291e+18,0.47780678851174935,0.4121004566210046,0.31891891891891894,0.5025678650036683,0.6274725274725275,0.4415475189234651,1194.0
601.0,1.710927167985302e+18,0.47127937336814624,0.4132420091324201,0.31675675675675674,0.5011005135730008,0.6230769230769231,0.4348191757779647,1194.0
602.0,1.7109271679952993e+18,0.4725848563968668,0.3984018264840183,0.3281081081081081,0.5050134507214478,0.6318681318681318,0.43986543313709,1196.0
603.0,1.7109271680053025e+18,0.4608355091383812,0.4063926940639269,0.32972972972972975,0.49767669356810956,0.6230769230769231,0.4381833473507149,1195.0
604.0,1.71092716801528e+18,0.47127937336814624,0.4235159817351598,0.33405405405405403,0.5069699192956714,0.6252747252747253,0.4381833473507149,1193.0
605.0,1.7109271680252943e+18,0.47911227154047,0.432648401826484,0.3589189189189189,0.5037906578625581,0.6285714285714286,0.43986543313709,1194.0
606.0,1.7109271680352968e+18,0.47911227154047,0.4280821917808219,0.35621621621621624,0.5086818292981169,0.6230769230769231,0.44238856181665265,1194.0
607.0,1.7109271680453005e+18,0.4830287206266319,0.4235159817351598,0.3281081081081081,0.49938860357055515,0.6164835164835165,0.43566021867115223,1196.0
608.0,1.7109271680552983e+18,0.4725848563968668,0.4166666666666667,0.34324324324324323,0.4996331621423331,0.6241758241758242,0.4381833473507149,1197.0
609.0,1.7109271680653117e+18,0.4830287206266319,0.4269406392694064,0.33675675675675676,0.5064808021521154,0.6230769230769231,0.44238856181665265,1196.0
610.0,1.710927168075294e+18,0.4869451697127937,0.4315068493150685,0.37189189189189187,0.5055025678650037,0.6230769230769231,0.4381833473507149,1194.0
611.0,1.7109271680852895e+18,0.4765013054830287,0.3949771689497717,0.3248648648648649,0.5008559550012228,0.6208791208791209,0.43902439024390244,1197.0
612.0,1.71092716809521e+18,0.4765013054830287,0.408675799086758,0.32972972972972975,0.5015896307165566,0.6285714285714286,0.4449116904962153,1195.0
613.0,1.7109271681052995e+18,0.4699738903394256,0.4075342465753425,0.31945945945945947,0.5035460992907801,0.6274725274725275,0.4373423044575273,1195.0
614.0,1.7109271681152978e+18,0.46866840731070497,0.4463470319634703,0.3264864864864865,0.5001222792858889,0.6208791208791209,0.4373423044575273,1195.0
615.0,1.710927168125257e+18,0.4804177545691906,0.4269406392694064,0.33837837837837836,0.49327463927610665,0.6153846153846154,0.4373423044575273,1195.0
616.0,1.7109271681352924e+18,0.4856396866840731,0.4143835616438356,0.33675675675675676,0.5035460992907801,0.6197802197802198,0.4381833473507149,1196.0
617.0,1.7109271681452997e+18,0.47389033942558745,0.4063926940639269,0.3318918918918919,0.4966984592809978,0.6274725274725275,0.4339781328847771,1193.0
618.0,1.7109271681552978e+18,0.48433420365535246,0.4269406392694064,0.31891891891891894,0.5015896307165566,0.6230769230769231,0.4415475189234651,1195.0
619.0,1.7109271681652987e+18,0.4765013054830287,0.4155251141552511,0.32972972972972975,0.5028124235754463,0.6274725274725275,0.4415475189234651,1195.0
620.0,1.7109271681752755e+18,0.4869451697127937,0.4292237442922374,0.34594594594594597,0.5020787478601125,0.6274725274725275,0.4415475189234651,1194.0
621.0,1.710927168185294e+18,0.47911227154047,0.408675799086758,0.3216216216216216,0.5064808021521154,0.634065934065934,0.4465937762825904,1194.0
622.0,1.7109271681952468e+18,0.4660574412532637,0.4132420091324201,0.3227027027027027,0.5025678650036683,0.621978021978022,0.4381833473507149,1194.0
623.0,1.7109271682052936e+18,0.47780678851174935,0.408675799086758,0.3232432432432432,0.5006113964294449,0.6230769230769231,0.4381833473507149,1196.0
624.0,1.7109271682152648e+18,0.48172323759791125,0.4041095890410959,0.3345945945945946,0.504035216434336,0.6252747252747253,0.4415475189234651,1197.0
625.0,1.7109271682253056e+18,0.48172323759791125,0.4189497716894977,0.3535135135135135,0.5035460992907801,0.6241758241758242,0.4381833473507149,1194.0
626.0,1.710927168235294e+18,0.47127937336814624,0.4018264840182648,0.3302702702702703,0.5064808021521154,0.6241758241758242,0.4381833473507149,1195.0
627.0,1.710927168245296e+18,0.49216710182767626,0.4246575342465753,0.35135135135135137,0.49767669356810956,0.6175824175824176,0.43650126156433977,1196.0
628.0,1.7109271682553006e+18,0.4725848563968668,0.4029680365296804,0.33405405405405403,0.5018341892883346,0.6252747252747253,0.44070647603027757,1196.0
629.0,1.7109271682652964e+18,0.4725848563968668,0.4212328767123288,0.3410810810810811,0.5008559550012228,0.6230769230769231,0.4381833473507149,1194.0
630.0,1.7109271682753083e+18,0.4765013054830287,0.384703196347032,0.34324324324324323,0.5020787478601125,0.6274725274725275,0.43902439024390244,1197.0
631.0,1.710927168285303e+18,0.4856396866840731,0.3858447488584475,0.3302702702702703,0.5006113964294449,0.6274725274725275,0.4381833473507149,1196.0
632.0,1.7109271682953021e+18,0.49738903394255873,0.4600456621004566,0.3848648648648649,0.5015896307165566,0.6241758241758242,0.4415475189234651,1194.0
633.0,1.7109271683053028e+18,0.4725848563968668,0.4063926940639269,0.3254054054054054,0.5015896307165566,0.621978021978022,0.43566021867115223,1196.0
634.0,1.7109271683153134e+18,0.47780678851174935,0.3984018264840183,0.3237837837837838,0.5008559550012228,0.6153846153846154,0.4381833473507149,1196.0
635.0,1.71092716832526e+18,0.4765013054830287,0.4189497716894977,0.32972972972972975,0.5023233064318905,0.6241758241758242,0.4373423044575273,1196.0
636.0,1.7109271683352317e+18,0.4765013054830287,0.4075342465753425,0.33405405405405403,0.5006113964294449,0.6230769230769231,0.4381833473507149,1194.0
637.0,1.7109271683453169e+18,0.45822454308093996,0.3835616438356164,0.3232432432432432,0.5023233064318905,0.6208791208791209,0.43650126156433977,1196.0
638.0,1.7109271683553078e+18,0.4830287206266319,0.4052511415525114,0.3286486486486486,0.5037906578625581,0.6307692307692307,0.4440706476030278,1196.0
639.0,1.7109271683653056e+18,0.48433420365535246,0.430365296803653,0.3443243243243243,0.5037906578625581,0.6252747252747253,0.43902439024390244,1192.0
640.0,1.7109271683753055e+18,0.4856396866840731,0.4041095890410959,0.32054054054054054,0.5020787478601125,0.6142857142857143,0.4381833473507149,1195.0
641.0,1.7109271683853059e+18,0.4765013054830287,0.4212328767123288,0.32216216216216215,0.49498654927855223,0.6285714285714286,0.4449116904962153,1194.0
642.0,1.7109271683953044e+18,0.4725848563968668,0.4360730593607306,0.3345945945945946,0.5037906578625581,0.6197802197802198,0.4381833473507149,1194.0
643.0,1.710927168405309e+18,0.47389033942558745,0.4269406392694064,0.3291891891891892,0.5006113964294449,0.6373626373626373,0.43902439024390244,1194.0
644.0,1.7109271684153108e+18,0.4765013054830287,0.4200913242009132,0.32972972972972975,0.4988994864269993,0.6164835164835165,0.4381833473507149,1196.0
645.0,1.7109271684253115e+18,0.4751958224543081,0.4143835616438356,0.34324324324324323,0.5015896307165566,0.6252747252747253,0.43986543313709,1196.0
646.0,1.710927168435311e+18,0.46736292428198434,0.3995433789954338,0.31513513513513514,0.5035460992907801,0.6208791208791209,0.4373423044575273,1194.0
647.0,1.7109271684453138e+18,0.47911227154047,0.408675799086758,0.30864864864864866,0.5015896307165566,0.6274725274725275,0.43902439024390244,1195.0
648.0,1.7109271684553155e+18,0.47780678851174935,0.4132420091324201,0.34324324324324323,0.5064808021521154,0.6318681318681318,0.4381833473507149,1193.0
649.0,1.710927168465315e+18,0.4725848563968668,0.3961187214611872,0.3318918918918919,0.4991440449987772,0.6296703296703297,0.4415475189234651,1195.0
650.0,1.7109271684753137e+18,0.489556135770235,0.4417808219178082,0.3708108108108108,0.5084372707263389,0.6417582417582418,0.4440706476030278,1195.0
651.0,1.7109271684853146e+18,0.48172323759791125,0.4246575342465753,0.3232432432432432,0.4986549278552213,0.6230769230769231,0.43650126156433977,1196.0
652.0,1.7109271684962872e+18,0.47389033942558745,0.4029680365296804,0.3291891891891892,0.5037906578625581,0.6285714285714286,0.4415475189234651,1197.0
653.0,1.7109271685053012e+18,0.4765013054830287,0.4052511415525114,0.31567567567567567,0.5028124235754463,0.6329670329670329,0.43650126156433977,1194.0
654.0,1.710927168515302e+18,0.4699738903394256,0.4063926940639269,0.327027027027027,0.5020787478601125,0.6230769230769231,0.43986543313709,1195.0
655.0,1.7109271685253036e+18,0.4765013054830287,0.410958904109589,0.3227027027027027,0.5059916850085595,0.6230769230769231,0.43650126156433977,1194.0
656.0,1.7109271685353341e+18,0.47780678851174935,0.408675799086758,0.3308108108108108,0.5055025678650037,0.6186813186813187,0.4381833473507149,1194.0
657.0,1.710927168545291e+18,0.47127937336814624,0.4063926940639269,0.3318918918918919,0.5020787478601125,0.6186813186813187,0.43650126156433977,1193.0
658.0,1.7109271685552934e+18,0.48825065274151436,0.4098173515981735,0.33513513513513515,0.499877720714111,0.6197802197802198,0.4373423044575273,1193.0
659.0,1.7109271685652933e+18,0.47127937336814624,0.4269406392694064,0.3362162162162162,0.5006113964294449,0.6230769230769231,0.43313708999158956,1192.0
660.0,1.7109271685752873e+18,0.4869451697127937,0.4143835616438356,0.33513513513513515,0.5008559550012228,0.6351648351648351,0.43902439024390244,1196.0
661.0,1.710927168585291e+18,0.4725848563968668,0.410958904109589,0.3254054054054054,0.49474199070677427,0.6208791208791209,0.43566021867115223,1195.0
662.0,1.7109271685953203e+18,0.4660574412532637,0.4052511415525114,0.3254054054054054,0.5035460992907801,0.621978021978022,0.4339781328847771,1192.0
663.0,1.7109271686052959e+18,0.46866840731070497,0.4178082191780822,0.31567567567567567,0.49938860357055515,0.6164835164835165,0.43566021867115223,1195.0
664.0,1.7109271686152993e+18,0.4765013054830287,0.4463470319634703,0.37351351351351353,0.4996331621423331,0.6230769230769231,0.44575273338940286,1196.0
665.0,1.7109271686252972e+18,0.47780678851174935,0.4200913242009132,0.3362162162162162,0.4988994864269993,0.6274725274725275,0.43986543313709,1196.0
666.0,1.7109271686352817e+18,0.47389033942558745,0.4189497716894977,0.33405405405405403,0.5050134507214478,0.621978021978022,0.44070647603027757,1196.0
667.0,1.7109271686453087e+18,0.4725848563968668,0.4189497716894977,0.3302702702702703,0.4888725849841037,0.6274725274725275,0.4381833473507149,1195.0
668.0,1.7109271686553037e+18,0.47780678851174935,0.4200913242009132,0.33675675675675676,0.5020787478601125,0.621978021978022,0.4415475189234651,1195.0
669.0,1.710927168665296e+18,0.47780678851174935,0.4315068493150685,0.3227027027027027,0.5018341892883346,0.6329670329670329,0.43650126156433977,1193.0
670.0,1.710927168675296e+18,0.46475195822454307,0.4292237442922374,0.37513513513513513,0.5023233064318905,0.621978021978022,0.4381833473507149,1195.0
671.0,1.710927168685308e+18,0.4725848563968668,0.4337899543378995,0.3302702702702703,0.499877720714111,0.6186813186813187,0.4415475189234651,1197.0
672.0,1.7109271686952937e+18,0.47780678851174935,0.4200913242009132,0.33945945945945943,0.49523110785033014,0.6274725274725275,0.43986543313709,1194.0
673.0,1.7109271687053018e+18,0.4660574412532637,0.3812785388127854,0.32216216216216215,0.5015896307165566,0.6241758241758242,0.4373423044575273,1195.0
674.0,1.7109271687152963e+18,0.48825065274151436,0.4349315068493151,0.3389189189189189,0.4996331621423331,0.621978021978022,0.4381833473507149,1196.0
675.0,1.710927168725295e+18,0.4830287206266319,0.4029680365296804,0.32,0.4944974321349963,0.6241758241758242,0.4373423044575273,1195.0
676.0,1.710927168735304e+18,0.47780678851174935,0.4315068493150685,0.33513513513513515,0.5020787478601125,0.621978021978022,0.43902439024390244,1194.0
677.0,1.7109271687453043e+18,0.48172323759791125,0.4394977168949772,0.32972972972972975,0.5015896307165566,0.6406593406593407,0.4415475189234651,1193.0
678.0,1.710927168755299e+18,0.4765013054830287,0.4166666666666667,0.3216216216216216,0.5067253607238934,0.6274725274725275,0.4415475189234651,1195.0
679.0,1.7109271687652995e+18,0.4765013054830287,0.4121004566210046,0.3281081081081081,0.5015896307165566,0.6318681318681318,0.43902439024390244,1193.0
680.0,1.7109271687753004e+18,0.46736292428198434,0.3995433789954338,0.32,0.49816581071166544,0.6208791208791209,0.44238856181665265,1194.0
681.0,1.7109271687853018e+18,0.4830287206266319,0.4337899543378995,0.3708108108108108,0.4996331621423331,0.6197802197802198,0.43902439024390244,1193.0
682.0,1.7109271687952904e+18,0.46736292428198434,0.408675799086758,0.3491891891891892,0.504524333577892,0.6153846153846154,0.43650126156433977,1195.0
683.0,1.7109271688053015e+18,0.48172323759791125,0.4315068493150685,0.34756756756756757,0.5033015407190022,0.6252747252747253,0.4373423044575273,1195.0
684.0,1.710927168815302e+18,0.47780678851174935,0.4646118721461187,0.3254054054054054,0.5059916850085595,0.6142857142857143,0.43650126156433977,1195.0
685.0,1.7109271688252992e+18,0.4699738903394256,0.3995433789954338,0.3232432432432432,0.49938860357055515,0.621978021978022,0.43566021867115223,1194.0
686.0,1.7109271688353147e+18,0.46475195822454307,0.410958904109589,0.3362162162162162,0.5018341892883346,0.6296703296703297,0.4415475189234651,1196.0
687.0,1.710927168845299e+18,0.47911227154047,0.4132420091324201,0.3308108108108108,0.5023233064318905,0.6252747252747253,0.4415475189234651,1195.0
688.0,1.7109271688553014e+18,0.4725848563968668,0.4121004566210046,0.3345945945945946,0.5006113964294449,0.6208791208791209,0.4415475189234651,1194.0
689.0,1.710927168865301e+18,0.48433420365535246,0.454337899543379,0.3810810810810811,0.5035460992907801,0.6296703296703297,0.43902439024390244,1198.0
690.0,1.7109271688752988e+18,0.46475195822454307,0.4257990867579909,0.33675675675675676,0.5006113964294449,0.6164835164835165,0.42977291841883936,1193.0
691.0,1.710927168885308e+18,0.47127937336814624,0.4155251141552511,0.3264864864864865,0.4966984592809978,0.6208791208791209,0.43650126156433977,1194.0
692.0,1.710927168895577e+18,0.47389033942558745,0.4577625570776256,0.33405405405405403,0.5003668378576669,0.6241758241758242,0.43902439024390244,1196.0
693.0,1.7109271689053036e+18,0.4725848563968668,0.4063926940639269,0.31567567567567567,0.499877720714111,0.6274725274725275,0.4381833473507149,1193.0
694.0,1.7109271689153044e+18,0.47780678851174935,0.4143835616438356,0.3302702702702703,0.5064808021521154,0.6274725274725275,0.43986543313709,1192.0
695.0,1.710927168925302e+18,0.47127937336814624,0.4143835616438356,0.3324324324324324,0.4988994864269993,0.6241758241758242,0.43650126156433977,1194.0
696.0,1.7109271689352973e+18,0.46344647519582244,0.4006849315068493,0.33297297297297296,0.5003668378576669,0.6120879120879121,0.4348191757779647,1196.0
697.0,1.7109271689452498e+18,0.4765013054830287,0.4052511415525114,0.31351351351351353,0.5020787478601125,0.6164835164835165,0.4373423044575273,1196.0
698.0,1.7109271689553308e+18,0.46475195822454307,0.386986301369863,0.32972972972972975,0.5020787478601125,0.6186813186813187,0.43902439024390244,1194.0
699.0,1.710927168965313e+18,0.48825065274151436,0.4075342465753425,0.3227027027027027,0.5006113964294449,0.6274725274725275,0.4373423044575273,1193.0
700.0,1.710927168975312e+18,0.47127937336814624,0.4200913242009132,0.35783783783783785,0.5008559550012228,0.6208791208791209,0.4381833473507149,1196.0
701.0,1.7109271689853e+18,0.48172323759791125,0.4360730593607306,0.3318918918918919,0.49767669356810956,0.6241758241758242,0.43986543313709,1194.0
702.0,1.710927168995298e+18,0.47127937336814624,0.4063926940639269,0.3324324324324324,0.5020787478601125,0.6186813186813187,0.4381833473507149,1193.0
703.0,1.7109271690052943e+18,0.4830287206266319,0.4429223744292237,0.3827027027027027,0.5025678650036683,0.6296703296703297,0.4415475189234651,1196.0
704.0,1.7109271690153078e+18,0.46866840731070497,0.430365296803653,0.31027027027027027,0.5023233064318905,0.6142857142857143,0.4381833473507149,1194.0
705.0,1.7109271690252961e+18,0.4765013054830287,0.3995433789954338,0.3227027027027027,0.5008559550012228,0.6230769230769231,0.4373423044575273,1193.0
706.0,1.7109271690352955e+18,0.47911227154047,0.4246575342465753,0.33837837837837836,0.5077035950110051,0.6230769230769231,0.44070647603027757,1194.0
707.0,1.7109271690452936e+18,0.4869451697127937,0.45662100456621,0.36486486486486486,0.504279775006114,0.6296703296703297,0.4415475189234651,1193.0
708.0,1.7109271690553252e+18,0.4699738903394256,0.3961187214611872,0.3172972972972973,0.5033015407190022,0.6241758241758242,0.43902439024390244,1193.0
709.0,1.7109271690653046e+18,0.47127937336814624,0.4132420091324201,0.34540540540540543,0.5015896307165566,0.6274725274725275,0.4415475189234651,1193.0
710.0,1.7109271690753009e+18,0.4765013054830287,0.4223744292237443,0.3497297297297297,0.5064808021521154,0.6252747252747253,0.4415475189234651,1194.0
711.0,1.7109271690853115e+18,0.4765013054830287,0.4246575342465753,0.32756756756756755,0.5055025678650037,0.6230769230769231,0.44070647603027757,1195.0
712.0,1.7109271690953188e+18,0.46866840731070497,0.4018264840182648,0.3291891891891892,0.5074590364392272,0.6296703296703297,0.4440706476030278,1195.0
713.0,1.7109271691053133e+18,0.46475195822454307,0.3915525114155251,0.32756756756756755,0.5030569821472243,0.6208791208791209,0.43986543313709,1194.0
714.0,1.7109271691153114e+18,0.46866840731070497,0.3915525114155251,0.3318918918918919,0.5025678650036683,0.6208791208791209,0.43902439024390244,1196.0
715.0,1.7109271691253112e+18,0.48172323759791125,0.430365296803653,0.3643243243243243,0.5011005135730008,0.6241758241758242,0.43902439024390244,1195.0
716.0,1.7109271691353134e+18,0.4765013054830287,0.4166666666666667,0.3362162162162162,0.5064808021521154,0.6274725274725275,0.4415475189234651,1195.0
717.0,1.7109271691453248e+18,0.4934725848563969,0.4178082191780822,0.33513513513513515,0.49767669356810956,0.6252747252747253,0.43650126156433977,1194.0
718.0,1.710927169155319e+18,0.4804177545691906,0.4121004566210046,0.33405405405405403,0.5015896307165566,0.6164835164835165,0.4381833473507149,1196.0
719.0,1.7109271691653076e+18,0.4765013054830287,0.4063926940639269,0.34594594594594597,0.5015896307165566,0.6329670329670329,0.43650126156433977,1194.0
720.0,1.7109271691753047e+18,0.47780678851174935,0.4315068493150685,0.3389189189189189,0.49400831499144043,0.6241758241758242,0.44238856181665265,1196.0
721.0,1.7109271691853094e+18,0.47911227154047,0.4121004566210046,0.32,0.5001222792858889,0.6175824175824176,0.43902439024390244,1195.0
722.0,1.7109271691953336e+18,0.4765013054830287,0.4132420091324201,0.3362162162162162,0.49205184641721694,0.6252747252747253,0.43566021867115223,1194.0
723.0,1.7109271692053297e+18,0.4765013054830287,0.4406392694063927,0.3227027027027027,0.5023233064318905,0.6307692307692307,0.43650126156433977,1193.0
724.0,1.7109271692153065e+18,0.46736292428198434,0.4257990867579909,0.3254054054054054,0.5028124235754463,0.6208791208791209,0.43650126156433977,1195.0
725.0,1.7109271692253071e+18,0.4725848563968668,0.4349315068493151,0.372972972972973,0.4979212521398875,0.6241758241758242,0.4381833473507149,1194.0
726.0,1.7109271692353044e+18,0.47127937336814624,0.4383561643835616,0.3372972972972973,0.5011005135730008,0.6230769230769231,0.43650126156433977,1196.0
727.0,1.7109271692453243e+18,0.4765013054830287,0.4132420091324201,0.34378378378378377,0.4927855221325507,0.6153846153846154,0.4381833473507149,1193.0
728.0,1.7109271692553162e+18,0.4725848563968668,0.410958904109589,0.33405405405405403,0.5037906578625581,0.6241758241758242,0.4381833473507149,1196.0
729.0,1.710927169265312e+18,0.47127937336814624,0.4063926940639269,0.33405405405405403,0.5006113964294449,0.6208791208791209,0.43902439024390244,1195.0
730.0,1.7109271692753096e+18,0.46866840731070497,0.4132420091324201,0.327027027027027,0.5001222792858889,0.6208791208791209,0.4381833473507149,1194.0
731.0,1.7109271692853212e+18,0.4621409921671018,0.3949771689497717,0.2967567567567568,0.5006113964294449,0.6296703296703297,0.4306139613120269,1193.0
732.0,1.710927169295385e+18,0.4765013054830287,0.4041095890410959,0.31675675675675674,0.4974321349963316,0.6186813186813187,0.43650126156433977,1193.0
733.0,1.710927169305315e+18,0.46866840731070497,0.4075342465753425,0.3302702702702703,0.5069699192956714,0.6373626373626373,0.43986543313709,1195.0
734.0,1.7109271693153206e+18,0.48433420365535246,0.4349315068493151,0.34162162162162163,0.5015896307165566,0.6230769230769231,0.4381833473507149,1196.0
735.0,1.7109271693253112e+18,0.47780678851174935,0.4269406392694064,0.3291891891891892,0.5018341892883346,0.6263736263736264,0.44070647603027757,1196.0
736.0,1.7109271693353044e+18,0.47389033942558745,0.4132420091324201,0.3237837837837838,0.5025678650036683,0.6197802197802198,0.43902439024390244,1195.0
737.0,1.7109271693453102e+18,0.46866840731070497,0.4075342465753425,0.31891891891891894,0.5025678650036683,0.6274725274725275,0.4381833473507149,1196.0
738.0,1.710927169355331e+18,0.47911227154047,0.4189497716894977,0.3172972972972973,0.4974321349963316,0.6274725274725275,0.4415475189234651,1197.0
739.0,1.7109271693653138e+18,0.47780678851174935,0.4143835616438356,0.3281081081081081,0.5008559550012228,0.6142857142857143,0.4381833473507149,1193.0
740.0,1.710927169375314e+18,0.4765013054830287,0.4075342465753425,0.33405405405405403,0.5020787478601125,0.6098901098901099,0.43566021867115223,1194.0
741.0,1.7109271693853117e+18,0.47127937336814624,0.4121004566210046,0.33513513513513515,0.504035216434336,0.6274725274725275,0.44070647603027757,1196.0
742.0,1.7109271693952748e+18,0.489556135770235,0.4646118721461187,0.33945945945945943,0.5030569821472243,0.6406593406593407,0.4415475189234651,1194.0
743.0,1.7109271694053307e+18,0.489556135770235,0.4554794520547945,0.38756756756756755,0.5028124235754463,0.6197802197802198,0.4381833473507149,1194.0
744.0,1.7109271694153147e+18,0.4804177545691906,0.4155251141552511,0.3389189189189189,0.5011005135730008,0.6208791208791209,0.4415475189234651,1194.0
745.0,1.7109271694253053e+18,0.47127937336814624,0.4041095890410959,0.3318918918918919,0.5015896307165566,0.6241758241758242,0.43986543313709,1196.0
746.0,1.7109271694353042e+18,0.47911227154047,0.430365296803653,0.34054054054054056,0.504524333577892,0.6274725274725275,0.4415475189234651,1194.0
747.0,1.7109271694453043e+18,0.47911227154047,0.4280821917808219,0.3621621621621622,0.5006113964294449,0.6241758241758242,0.4381833473507149,1193.0
748.0,1.710927169455305e+18,0.4765013054830287,0.410958904109589,0.34540540540540543,0.5035460992907801,0.6274725274725275,0.4432296047098402,1193.0
749.0,1.7109271694653056e+18,0.4830287206266319,0.4246575342465753,0.3210810810810811,0.5015896307165566,0.6296703296703297,0.4373423044575273,1195.0
750.0,1.7109271694753055e+18,0.47127937336814624,0.3881278538812785,0.3178378378378378,0.5013450721447786,0.6406593406593407,0.4381833473507149,1193.0
751.0,1.7109271694853425e+18,0.47127937336814624,0.408675799086758,0.327027027027027,0.5025678650036683,0.621978021978022,0.43650126156433977,1195.0
752.0,1.7109271694953334e+18,0.47389033942558745,0.4132420091324201,0.3497297297297297,0.5028124235754463,0.6230769230769231,0.43902439024390244,1196.0
753.0,1.7109271695053297e+18,0.46344647519582244,0.3812785388127854,0.3291891891891892,0.5035460992907801,0.6274725274725275,0.4373423044575273,1195.0
754.0,1.710927169515278e+18,0.46736292428198434,0.4212328767123288,0.35621621621621624,0.5047688921496698,0.6197802197802198,0.4415475189234651,1193.0
755.0,1.710927169525308e+18,0.46866840731070497,0.4006849315068493,0.327027027027027,0.5011005135730008,0.6252747252747253,0.4373423044575273,1196.0
756.0,1.7109271695353055e+18,0.47389033942558745,0.410958904109589,0.33513513513513515,0.5013450721447786,0.6208791208791209,0.4381833473507149,1195.0
757.0,1.7109271695453053e+18,0.48172323759791125,0.3995433789954338,0.32594594594594595,0.5035460992907801,0.6208791208791209,0.43566021867115223,1193.0
758.0,1.710927169555313e+18,0.4765013054830287,0.4155251141552511,0.3389189189189189,0.5059916850085595,0.6318681318681318,0.43902439024390244,1196.0
759.0,1.7109271695653146e+18,0.489556135770235,0.4691780821917808,0.35027027027027025,0.5035460992907801,0.6153846153846154,0.4373423044575273,1193.0
760.0,1.7109271695753073e+18,0.47911227154047,0.4269406392694064,0.34486486486486484,0.5020787478601125,0.6241758241758242,0.4381833473507149,1195.0
761.0,1.7109271695853153e+18,0.4608355091383812,0.4063926940639269,0.32756756756756755,0.4969430178527757,0.6131868131868132,0.4348191757779647,1194.0
762.0,1.7109271695953352e+18,0.4725848563968668,0.4143835616438356,0.3491891891891892,0.5059916850085595,0.6417582417582418,0.4381833473507149,1195.0
763.0,1.7109271696053023e+18,0.4830287206266319,0.4474885844748858,0.3545945945945946,0.5035460992907801,0.6362637362637362,0.4415475189234651,1195.0
764.0,1.7109271696153114e+18,0.4804177545691906,0.454337899543379,0.41081081081081083,0.5079481535827831,0.6285714285714286,0.44238856181665265,1195.0
765.0,1.7109271696253076e+18,0.4699738903394256,0.410958904109589,0.3264864864864865,0.5020787478601125,0.6230769230769231,0.4348191757779647,1197.0
766.0,1.7109271696353055e+18,0.4621409921671018,0.4006849315068493,0.3324324324324324,0.49620934213744194,0.6098901098901099,0.42977291841883936,1192.0
767.0,1.7109271696453181e+18,0.47780678851174935,0.4200913242009132,0.3481081081081081,0.5018341892883346,0.6307692307692307,0.4415475189234651,1195.0
768.0,1.7109271696553055e+18,0.46475195822454307,0.4098173515981735,0.3362162162162162,0.5050134507214478,0.6241758241758242,0.4381833473507149,1194.0
769.0,1.7109271696653343e+18,0.4869451697127937,0.4315068493150685,0.3372972972972973,0.49816581071166544,0.621978021978022,0.4415475189234651,1197.0
770.0,1.7109271696753126e+18,0.4699738903394256,0.4063926940639269,0.3291891891891892,0.5003668378576669,0.6274725274725275,0.43650126156433977,1193.0
771.0,1.7109271696853184e+18,0.47127937336814624,0.4063926940639269,0.327027027027027,0.4974321349963316,0.6252747252747253,0.4373423044575273,1195.0
772.0,1.7109271696953283e+18,0.4765013054830287,0.4178082191780822,0.33783783783783783,0.5025678650036683,0.6274725274725275,0.43902439024390244,1194.0
773.0,1.7109271697053174e+18,0.47127937336814624,0.4121004566210046,0.3345945945945946,0.5059916850085595,0.6241758241758242,0.43986543313709,1194.0
774.0,1.7109271697153016e+18,0.48825065274151436,0.4235159817351598,0.3362162162162162,0.5084372707263389,0.6285714285714286,0.44238856181665265,1193.0
775.0,1.7109271697253048e+18,0.47911227154047,0.4383561643835616,0.3708108108108108,0.5030569821472243,0.6274725274725275,0.4373423044575273,1198.0
776.0,1.710927169735305e+18,0.4765013054830287,0.3824200913242009,0.32972972972972975,0.5055025678650037,0.6285714285714286,0.4449116904962153,1195.0
777.0,1.7109271697453166e+18,0.4869451697127937,0.4052511415525114,0.3464864864864865,0.5006113964294449,0.6384615384615384,0.4415475189234651,1197.0
778.0,1.7109271697553247e+18,0.4830287206266319,0.4406392694063927,0.33135135135135135,0.5023233064318905,0.6230769230769231,0.43650126156433977,1195.0
779.0,1.7109271697652915e+18,0.4908616187989556,0.4315068493150685,0.32972972972972975,0.5035460992907801,0.6406593406593407,0.4381833473507149,1192.0
780.0,1.7109271697753034e+18,0.46475195822454307,0.4223744292237443,0.3362162162162162,0.49938860357055515,0.6197802197802198,0.43986543313709,1195.0
781.0,1.7109271697852966e+18,0.47780678851174935,0.4178082191780822,0.3324324324324324,0.49938860357055515,0.6230769230769231,0.4415475189234651,1195.0
782.0,1.7109271697953078e+18,0.4765013054830287,0.4063926940639269,0.32972972972972975,0.5069699192956714,0.6241758241758242,0.4381833473507149,1194.0
783.0,1.7109271698053025e+18,0.4660574412532637,0.4098173515981735,0.35027027027027025,0.504035216434336,0.6274725274725275,0.43313708999158956,1193.0
784.0,1.710927169815296e+18,0.48172323759791125,0.4315068493150685,0.32756756756756755,0.4979212521398875,0.6197802197802198,0.43986543313709,1194.0
785.0,1.7109271698252961e+18,0.46475195822454307,0.4006849315068493,0.31675675675675674,0.5006113964294449,0.6252747252747253,0.4381833473507149,1194.0
786.0,1.7109271698352942e+18,0.4765013054830287,0.4292237442922374,0.34594594594594597,0.5003668378576669,0.6208791208791209,0.4415475189234651,1192.0
787.0,1.7109271698453233e+18,0.48172323759791125,0.4280821917808219,0.3254054054054054,0.504524333577892,0.6230769230769231,0.43650126156433977,1194.0
788.0,1.7109271698553075e+18,0.4856396866840731,0.4223744292237443,0.33135135135135135,0.5013450721447786,0.6164835164835165,0.43902439024390244,1195.0
789.0,1.7109271698652685e+18,0.47780678851174935,0.4063926940639269,0.32216216216216215,0.49033993641477136,0.6208791208791209,0.44238856181665265,1194.0
790.0,1.7109271698752855e+18,0.47127937336814624,0.4041095890410959,0.3286486486486486,0.5006113964294449,0.6142857142857143,0.43986543313709,1196.0
791.0,1.7109271698852995e+18,0.489556135770235,0.4280821917808219,0.33405405405405403,0.504279775006114,0.6296703296703297,0.4415475189234651,1194.0
792.0,1.7109271698952968e+18,0.48172323759791125,0.4360730593607306,0.3783783783783784,0.5013450721447786,0.6241758241758242,0.4415475189234651,1196.0
793.0,1.7109271699053586e+18,0.48433420365535246,0.4063926940639269,0.3248648648648649,0.4954756664221081,0.6098901098901099,0.43902439024390244,1193.0
794.0,1.7109271699153021e+18,0.4699738903394256,0.4452054794520548,0.3281081081081081,0.5035460992907801,0.621978021978022,0.44070647603027757,1195.0
795.0,1.7109271699252956e+18,0.47127937336814624,0.408675799086758,0.33405405405405403,0.5015896307165566,0.6142857142857143,0.43313708999158956,1191.0
796.0,1.7109271699352934e+18,0.4725848563968668,0.4041095890410959,0.3302702702702703,0.5020787478601125,0.6274725274725275,0.44070647603027757,1195.0
797.0,1.710927169945294e+18,0.46475195822454307,0.4018264840182648,0.32756756756756755,0.5015896307165566,0.6175824175824176,0.43650126156433977,1195.0
798.0,1.7109271699553165e+18,0.47389033942558745,0.3972602739726027,0.33135135135135135,0.49498654927855223,0.6241758241758242,0.43650126156433977,1197.0
799.0,1.710927169965304e+18,0.47389033942558745,0.3995433789954338,0.32756756756756755,0.504035216434336,0.6263736263736264,0.4373423044575273,1194.0
800.0,1.710927169975286e+18,0.47389033942558745,0.4178082191780822,0.3410810810810811,0.4896062606994375,0.6252747252747253,0.4415475189234651,1195.0
801.0,1.7109271699853005e+18,0.48433420365535246,0.4006849315068493,0.3254054054054054,0.499877720714111,0.6241758241758242,0.4415475189234651,1195.0
802.0,1.710927169995326e+18,0.47780678851174935,0.4280821917808219,0.36864864864864866,0.5018341892883346,0.6164835164835165,0.4415475189234651,1196.0
803.0,1.7109271700053002e+18,0.47127937336814624,0.4052511415525114,0.3210810810810811,0.4996331621423331,0.6296703296703297,0.4373423044575273,1196.0
804.0,1.7109271700152998e+18,0.48172323759791125,0.4360730593607306,0.3372972972972973,0.504035216434336,0.6241758241758242,0.43986543313709,1194.0
805.0,1.7109271700253028e+18,0.4765013054830287,0.4155251141552511,0.3281081081081081,0.5020787478601125,0.6285714285714286,0.4415475189234651,1195.0
806.0,1.7109271700352955e+18,0.47127937336814624,0.3812785388127854,0.32594594594594595,0.5084372707263389,0.6329670329670329,0.44238856181665265,1195.0
807.0,1.7109271700452987e+18,0.4856396866840731,0.4052511415525114,0.33513513513513515,0.5006113964294449,0.6153846153846154,0.4339781328847771,1192.0
808.0,1.7109271700552937e+18,0.4608355091383812,0.3961187214611872,0.31891891891891894,0.5006113964294449,0.6197802197802198,0.43986543313709,1194.0
809.0,1.710927170065324e+18,0.46866840731070497,0.4029680365296804,0.3081081081081081,0.5035460992907801,0.6362637362637362,0.43650126156433977,1195.0
810.0,1.7109271700753016e+18,0.4804177545691906,0.4280821917808219,0.33135135135135135,0.5023233064318905,0.6362637362637362,0.43986543313709,1196.0
811.0,1.7109271700852997e+18,0.4725848563968668,0.4041095890410959,0.31945945945945947,0.49938860357055515,0.6186813186813187,0.43986543313709,1196.0
812.0,1.7109271700953093e+18,0.47127937336814624,0.4155251141552511,0.3291891891891892,0.4986549278552213,0.6274725274725275,0.43902439024390244,1195.0
813.0,1.7109271701053064e+18,0.4830287206266319,0.4052511415525114,0.3308108108108108,0.5037906578625581,0.6285714285714286,0.4415475189234651,1195.0
814.0,1.7109271701153126e+18,0.47389033942558745,0.408675799086758,0.33675675675675676,0.49498654927855223,0.6208791208791209,0.4381833473507149,1194.0
815.0,1.7109271701253036e+18,0.47127937336814624,0.4178082191780822,0.37783783783783786,0.504279775006114,0.6241758241758242,0.43902439024390244,1194.0
816.0,1.7109271701352957e+18,0.47127937336814624,0.4018264840182648,0.3178378378378378,0.49767669356810956,0.6164835164835165,0.4381833473507149,1195.0
817.0,1.7109271701452961e+18,0.47780678851174935,0.4315068493150685,0.3389189189189189,0.4966984592809978,0.6241758241758242,0.4381833473507149,1197.0
818.0,1.7109271701552955e+18,0.46736292428198434,0.4063926940639269,0.3302702702702703,0.5020787478601125,0.6175824175824176,0.4381833473507149,1195.0
819.0,1.7109271701653053e+18,0.47389033942558745,0.4155251141552511,0.3302702702702703,0.5059916850085595,0.6274725274725275,0.4381833473507149,1192.0
820.0,1.7109271701753024e+18,0.46736292428198434,0.4611872146118721,0.3427027027027027,0.504524333577892,0.6285714285714286,0.43902439024390244,1194.0
821.0,1.710927170185316e+18,0.46344647519582244,0.4029680365296804,0.33135135135135135,0.5018341892883346,0.6230769230769231,0.4314550042052145,1192.0
822.0,1.7109271701952975e+18,0.47127937336814624,0.4098173515981735,0.32216216216216215,0.5008559550012228,0.621978021978022,0.4381833473507149,1193.0
823.0,1.7109271702052982e+18,0.47127937336814624,0.3995433789954338,0.327027027027027,0.5015896307165566,0.610989010989011,0.43902439024390244,1194.0
824.0,1.710927170215329e+18,0.47911227154047,0.410958904109589,0.33135135135135135,0.49645390070921985,0.6241758241758242,0.4415475189234651,1195.0
825.0,1.7109271702253038e+18,0.47911227154047,0.4132420091324201,0.3210810810810811,0.4925409635607728,0.6153846153846154,0.43986543313709,1197.0
826.0,1.7109271702352986e+18,0.4765013054830287,0.4041095890410959,0.3302702702702703,0.504279775006114,0.6252747252747253,0.44238856181665265,1194.0
827.0,1.7109271702453038e+18,0.4621409921671018,0.4075342465753425,0.32594594594594595,0.5015896307165566,0.6329670329670329,0.4381833473507149,1196.0
828.0,1.7109271702553193e+18,0.4765013054830287,0.4075342465753425,0.33675675675675676,0.5006113964294449,0.6230769230769231,0.4415475189234651,1193.0
829.0,1.7109271702653038e+18,0.4765013054830287,0.4052511415525114,0.3232432432432432,0.5013450721447786,0.6241758241758242,0.4373423044575273,1196.0
830.0,1.710927170275302e+18,0.4830287206266319,0.4315068493150685,0.3389189189189189,0.4942528735632184,0.6263736263736264,0.4432296047098402,1195.0
831.0,1.710927170285331e+18,0.47127937336814624,0.4029680365296804,0.3291891891891892,0.5006113964294449,0.621978021978022,0.4373423044575273,1195.0
832.0,1.71092717029531e+18,0.47127937336814624,0.410958904109589,0.33675675675675676,0.5011005135730008,0.6230769230769231,0.43902439024390244,1195.0
833.0,1.710927170305308e+18,0.47911227154047,0.4178082191780822,0.3427027027027027,0.49523110785033014,0.6175824175824176,0.432296047098402,1192.0
834.0,1.7109271703153444e+18,0.4765013054830287,0.4200913242009132,0.33675675675675676,0.499877720714111,0.6197802197802198,0.4415475189234651,1195.0
835.0,1.7109271703253253e+18,0.45691906005221933,0.3995433789954338,0.34486486486486484,0.4966984592809978,0.6175824175824176,0.43986543313709,1197.0
836.0,1.7109271703353244e+18,0.46866840731070497,0.4041095890410959,0.31945945945945947,0.5030569821472243,0.6329670329670329,0.4381833473507149,1196.0
837.0,1.7109271703453174e+18,0.489556135770235,0.4257990867579909,0.34162162162162163,0.5035460992907801,0.6241758241758242,0.4415475189234651,1193.0
838.0,1.7109271703553093e+18,0.47911227154047,0.4246575342465753,0.34216216216216216,0.5020787478601125,0.6252747252747253,0.4432296047098402,1195.0
839.0,1.7109271703653107e+18,0.47780678851174935,0.4474885844748858,0.34324324324324323,0.5074590364392272,0.6296703296703297,0.4415475189234651,1195.0
840.0,1.7109271703753121e+18,0.46736292428198434,0.408675799086758,0.34702702702702704,0.5037906578625581,0.6186813186813187,0.43902439024390244,1193.0
841.0,1.7109271703853146e+18,0.4869451697127937,0.4394977168949772,0.37135135135135133,0.5023233064318905,0.6263736263736264,0.43902439024390244,1194.0
842.0,1.7109271703953085e+18,0.46736292428198434,0.410958904109589,0.3172972972972973,0.5055025678650037,0.6285714285714286,0.43986543313709,1194.0
843.0,1.7109271704053105e+18,0.4830287206266319,0.454337899543379,0.35405405405405405,0.5006113964294449,0.6186813186813187,0.44070647603027757,1195.0
844.0,1.71092717041531e+18,0.47389033942558745,0.4075342465753425,0.3302702702702703,0.4954756664221081,0.6263736263736264,0.4415475189234651,1195.0
845.0,1.7109271704253363e+18,0.46736292428198434,0.4143835616438356,0.32756756756756755,0.4988994864269993,0.621978021978022,0.43313708999158956,1191.0
846.0,1.7109271704353147e+18,0.47389033942558745,0.430365296803653,0.3389189189189189,0.5020787478601125,0.6428571428571429,0.43986543313709,1194.0
847.0,1.7109271704453115e+18,0.47911227154047,0.4166666666666667,0.33135135135135135,0.504279775006114,0.6274725274725275,0.4415475189234651,1192.0
848.0,1.7109271704553116e+18,0.4725848563968668,0.4200913242009132,0.34864864864864864,0.5030569821472243,0.621978021978022,0.4381833473507149,1195.0
849.0,1.7109271704653105e+18,0.4830287206266319,0.4200913242009132,0.3254054054054054,0.5028124235754463,0.621978021978022,0.43566021867115223,1195.0
850.0,1.7109271704753108e+18,0.4699738903394256,0.4246575342465753,0.33783783783783783,0.49498654927855223,0.6164835164835165,0.43902439024390244,1196.0
851.0,1.7109271704853138e+18,0.47127937336814624,0.4143835616438356,0.3605405405405405,0.5055025678650037,0.6241758241758242,0.4348191757779647,1196.0
852.0,1.7109271704953137e+18,0.47911227154047,0.4212328767123288,0.35243243243243244,0.49816581071166544,0.621978021978022,0.43902439024390244,1195.0
853.0,1.7109271705053148e+18,0.47389033942558745,0.4075342465753425,0.3286486486486486,0.4930300807043287,0.6252747252747253,0.4415475189234651,1196.0
854.0,1.7109271705153277e+18,0.46736292428198434,0.4018264840182648,0.33135135135135135,0.5028124235754463,0.6175824175824176,0.4373423044575273,1194.0
855.0,1.710927170525311e+18,0.46344647519582244,0.4121004566210046,0.3335135135135135,0.49816581071166544,0.6384615384615384,0.43650126156433977,1193.0
856.0,1.7109271705353075e+18,0.4765013054830287,0.4075342465753425,0.3254054054054054,0.5052580092932257,0.6274725274725275,0.44238856181665265,1196.0
857.0,1.7109271705453115e+18,0.47127937336814624,0.4235159817351598,0.3302702702702703,0.5003668378576669,0.6230769230769231,0.4373423044575273,1195.0
858.0,1.7109271705553116e+18,0.4725848563968668,0.4257990867579909,0.3372972972972973,0.499877720714111,0.6274725274725275,0.4381833473507149,1194.0
859.0,1.7109271705653125e+18,0.46475195822454307,0.4018264840182648,0.32432432432432434,0.504035216434336,0.6241758241758242,0.4348191757779647,1195.0
860.0,1.7109271705753157e+18,0.4608355091383812,0.3778538812785388,0.32054054054054054,0.5028124235754463,0.6208791208791209,0.43566021867115223,1194.0
861.0,1.710927170585289e+18,0.4869451697127937,0.4315068493150685,0.35783783783783785,0.5006113964294449,0.6263736263736264,0.43902439024390244,1194.0
862.0,1.7109271705953124e+18,0.4725848563968668,0.4098173515981735,0.3324324324324324,0.5030569821472243,0.6285714285714286,0.4415475189234651,1195.0
863.0,1.710927170605314e+18,0.4725848563968668,0.4269406392694064,0.32972972972972975,0.5015896307165566,0.6241758241758242,0.43650126156433977,1194.0
864.0,1.7109271706152975e+18,0.47389033942558745,0.4132420091324201,0.3497297297297297,0.49474199070677427,0.6230769230769231,0.43650126156433977,1195.0
865.0,1.7109271706253263e+18,0.4765013054830287,0.4223744292237443,0.3535135135135135,0.4991440449987772,0.6285714285714286,0.4381833473507149,1195.0
866.0,1.7109271706352963e+18,0.4765013054830287,0.4315068493150685,0.3491891891891892,0.49498654927855223,0.6274725274725275,0.4415475189234651,1195.0
867.0,1.710927170645298e+18,0.4660574412532637,0.4006849315068493,0.32972972972972975,0.5035460992907801,0.6329670329670329,0.4373423044575273,1195.0
868.0,1.710927170655297e+18,0.47389033942558745,0.4143835616438356,0.33513513513513515,0.4988994864269993,0.6296703296703297,0.4415475189234651,1193.0
869.0,1.7109271706652977e+18,0.46866840731070497,0.4132420091324201,0.32756756756756755,0.4966984592809978,0.6164835164835165,0.43986543313709,1194.0
870.0,1.710927170675296e+18,0.4830287206266319,0.454337899543379,0.3481081081081081,0.5035460992907801,0.6329670329670329,0.43902439024390244,1196.0
871.0,1.7109271706853215e+18,0.4751958224543081,0.3972602739726027,0.32756756756756755,0.5008559550012228,0.621978021978022,0.4373423044575273,1193.0
872.0,1.7109271706952932e+18,0.4765013054830287,0.4155251141552511,0.34594594594594597,0.5035460992907801,0.634065934065934,0.43902439024390244,1197.0
873.0,1.710927170705299e+18,0.4869451697127937,0.4246575342465753,0.32756756756756755,0.5018341892883346,0.621978021978022,0.43902439024390244,1194.0
874.0,1.7109271707152945e+18,0.45822454308093996,0.4098173515981735,0.3318918918918919,0.48936170212765956,0.6186813186813187,0.4348191757779647,1195.0
875.0,1.7109271707252692e+18,0.4699738903394256,0.4246575342465753,0.32432432432432434,0.49816581071166544,0.6186813186813187,0.4381833473507149,1195.0
876.0,1.7109271707353526e+18,0.4765013054830287,0.4417808219178082,0.3356756756756757,0.5018341892883346,0.6230769230769231,0.4415475189234651,1196.0
877.0,1.7109271707453002e+18,0.4608355091383812,0.3961187214611872,0.3232432432432432,0.5037906578625581,0.6175824175824176,0.43902439024390244,1193.0
878.0,1.7109271707552996e+18,0.47911227154047,0.4280821917808219,0.33945945945945943,0.5011005135730008,0.6197802197802198,0.43566021867115223,1194.0
879.0,1.7109271707653002e+18,0.4725848563968668,0.4121004566210046,0.33405405405405403,0.5023233064318905,0.6164835164835165,0.43566021867115223,1192.0
880.0,1.710927170775298e+18,0.4751958224543081,0.4132420091324201,0.33513513513513515,0.4988994864269993,0.6186813186813187,0.4373423044575273,1193.0
881.0,1.7109271707853e+18,0.4908616187989556,0.4817351598173516,0.36972972972972973,0.49767669356810956,0.6208791208791209,0.43566021867115223,1195.0
882.0,1.7109271707953065e+18,0.45822454308093996,0.4006849315068493,0.33675675675675676,0.5025678650036683,0.6153846153846154,0.43650126156433977,1195.0
883.0,1.7109271708053056e+18,0.45691906005221933,0.3812785388127854,0.3345945945945946,0.4991440449987772,0.6263736263736264,0.4339781328847771,1194.0
884.0,1.7109271708152978e+18,0.49216710182767626,0.4337899543378995,0.32756756756756755,0.4966984592809978,0.6241758241758242,0.4415475189234651,1194.0
885.0,1.710927170825295e+18,0.4660574412532637,0.4006849315068493,0.32594594594594595,0.5008559550012228,0.6285714285714286,0.43902439024390244,1197.0
886.0,1.7109271708353262e+18,0.4765013054830287,0.4315068493150685,0.34702702702702704,0.5033015407190022,0.6329670329670329,0.4432296047098402,1196.0
887.0,1.7109271708452636e+18,0.4765013054830287,0.4178082191780822,0.32,0.5001222792858889,0.6241758241758242,0.4381833473507149,1195.0
888.0,1.7109271708552996e+18,0.4869451697127937,0.4360730593607306,0.33783783783783783,0.5025678650036683,0.6230769230769231,0.43986543313709,1194.0
889.0,1.7109271708652828e+18,0.4660574412532637,0.3824200913242009,0.33297297297297296,0.504524333577892,0.6230769230769231,0.43902439024390244,1195.0
890.0,1.710927170875302e+18,0.489556135770235,0.3995433789954338,0.3567567567567568,0.5028124235754463,0.6241758241758242,0.4432296047098402,1196.0
891.0,1.7109271708853084e+18,0.46736292428198434,0.3961187214611872,0.31945945945945947,0.49767669356810956,0.6274725274725275,0.4432296047098402,1196.0
892.0,1.710927170895302e+18,0.4765013054830287,0.4315068493150685,0.3372972972972973,0.5013450721447786,0.6230769230769231,0.4415475189234651,1196.0
893.0,1.7109271709052946e+18,0.46475195822454307,0.4063926940639269,0.3308108108108108,0.49816581071166544,0.6142857142857143,0.43313708999158956,1192.0
894.0,1.7109271709152842e+18,0.4765013054830287,0.4315068493150685,0.3372972972972973,0.5008559550012228,0.6274725274725275,0.4415475189234651,1194.0
895.0,1.710927170925299e+18,0.46475195822454307,0.386986301369863,0.35027027027027025,0.5055025678650037,0.6274725274725275,0.4348191757779647,1197.0
896.0,1.7109271709352993e+18,0.4869451697127937,0.3995433789954338,0.31945945945945947,0.5018341892883346,0.6230769230769231,0.4415475189234651,1195.0
897.0,1.7109271709452984e+18,0.49216710182767626,0.4463470319634703,0.3308108108108108,0.5035460992907801,0.6274725274725275,0.4415475189234651,1195.0
898.0,1.7109271709553014e+18,0.46866840731070497,0.4394977168949772,0.32432432432432434,0.5015896307165566,0.6197802197802198,0.43902439024390244,1195.0
899.0,1.7109271709652948e+18,0.4608355091383812,0.3915525114155251,0.3345945945945946,0.5013450721447786,0.6186813186813187,0.43566021867115223,1193.0
900.0,1.7109271709752735e+18,0.4660574412532637,0.4554794520547945,0.33297297297297296,0.5015896307165566,0.6197802197802198,0.4373423044575273,1195.0
901.0,1.7109271709853e+18,0.46866840731070497,0.3858447488584475,0.33297297297297296,0.5025678650036683,0.6395604395604395,0.4432296047098402,1195.0
902.0,1.710927170995291e+18,0.48825065274151436,0.4246575342465753,0.33837837837837836,0.5037906578625581,0.6318681318681318,0.4440706476030278,1196.0
903.0,1.7109271710052918e+18,0.46866840731070497,0.4155251141552511,0.34054054054054056,0.5030569821472243,0.6450549450549451,0.4415475189234651,1194.0
904.0,1.7109271710152975e+18,0.47127937336814624,0.4178082191780822,0.3345945945945946,0.4969430178527757,0.6153846153846154,0.4381833473507149,1194.0
905.0,1.7109271710252936e+18,0.4608355091383812,0.3949771689497717,0.3318918918918919,0.5008559550012228,0.6263736263736264,0.43566021867115223,1194.0
906.0,1.7109271710352932e+18,0.4725848563968668,0.4360730593607306,0.3643243243243243,0.5035460992907801,0.6230769230769231,0.43650126156433977,1194.0
907.0,1.710927171045298e+18,0.46866840731070497,0.408675799086758,0.3464864864864865,0.5028124235754463,0.6186813186813187,0.43986543313709,1196.0
908.0,1.7109271710552643e+18,0.4804177545691906,0.4166666666666667,0.3227027027027027,0.5015896307165566,0.6373626373626373,0.43902439024390244,1195.0
909.0,1.7109271710652966e+18,0.47780678851174935,0.4075342465753425,0.31405405405405407,0.5015896307165566,0.6197802197802198,0.4339781328847771,1192.0
910.0,1.7109271710752983e+18,0.4725848563968668,0.4132420091324201,0.3281081081081081,0.5025678650036683,0.621978021978022,0.43650126156433977,1194.0
911.0,1.710927171085297e+18,0.4725848563968668,0.4143835616438356,0.3335135135135135,0.495964783565664,0.6230769230769231,0.43566021867115223,1194.0
912.0,1.7109271710952975e+18,0.46736292428198434,0.4269406392694064,0.3345945945945946,0.5035460992907801,0.634065934065934,0.43986543313709,1197.0
913.0,1.7109271711053012e+18,0.46736292428198434,0.3892694063926941,0.31891891891891894,0.5025678650036683,0.621978021978022,0.4381833473507149,1196.0
914.0,1.7109271711152932e+18,0.4725848563968668,0.4223744292237443,0.3345945945945946,0.5084372707263389,0.6318681318681318,0.43986543313709,1195.0
915.0,1.710927171125298e+18,0.46475195822454307,0.3710045662100457,0.3264864864864865,0.5006113964294449,0.6285714285714286,0.43902439024390244,1195.0
916.0,1.7109271711352937e+18,0.4869451697127937,0.4360730593607306,0.35567567567567565,0.5006113964294449,0.6351648351648351,0.4440706476030278,1194.0
917.0,1.7109271711452936e+18,0.489556135770235,0.4394977168949772,0.3621621621621622,0.5013450721447786,0.6208791208791209,0.4381833473507149,1197.0
918.0,1.710927171155306e+18,0.46344647519582244,0.4121004566210046,0.3318918918918919,0.4986549278552213,0.6241758241758242,0.4381833473507149,1195.0
919.0,1.7109271711652997e+18,0.46475195822454307,0.3995433789954338,0.32756756756756755,0.499877720714111,0.6142857142857143,0.4373423044575273,1194.0
920.0,1.7109271711752932e+18,0.48433420365535246,0.4178082191780822,0.3281081081081081,0.5018341892883346,0.6230769230769231,0.4348191757779647,1194.0
921.0,1.7109271711853036e+18,0.4765013054830287,0.4041095890410959,0.31891891891891894,0.5037906578625581,0.6208791208791209,0.4348191757779647,1197.0
922.0,1.7109271711952988e+18,0.4830287206266319,0.4874429223744292,0.34324324324324323,0.5020787478601125,0.6263736263736264,0.43986543313709,1195.0
923.0,1.710927171205307e+18,0.46736292428198434,0.3949771689497717,0.32594594594594595,0.5025678650036683,0.6274725274725275,0.4373423044575273,1196.0
924.0,1.7109271712152973e+18,0.46736292428198434,0.4178082191780822,0.34324324324324323,0.49938860357055515,0.6263736263736264,0.4415475189234651,1193.0
925.0,1.710927171225302e+18,0.47127937336814624,0.4052511415525114,0.3281081081081081,0.504524333577892,0.6329670329670329,0.43986543313709,1194.0
926.0,1.7109271712353006e+18,0.4765013054830287,0.4143835616438356,0.37189189189189187,0.49107361213010514,0.6131868131868132,0.4339781328847771,1192.0
927.0,1.7109271712452954e+18,0.48825065274151436,0.4383561643835616,0.3481081081081081,0.5037906578625581,0.634065934065934,0.4432296047098402,1196.0
928.0,1.7109271712553009e+18,0.46344647519582244,0.3812785388127854,0.32972972972972975,0.5006113964294449,0.6153846153846154,0.4339781328847771,1192.0
929.0,1.7109271712652995e+18,0.47780678851174935,0.4121004566210046,0.3302702702702703,0.5008559550012228,0.6241758241758242,0.44070647603027757,1196.0
930.0,1.710927171275256e+18,0.4765013054830287,0.3961187214611872,0.3286486486486486,0.5035460992907801,0.6252747252747253,0.44070647603027757,1194.0
931.0,1.710927171285301e+18,0.4725848563968668,0.4132420091324201,0.3335135135135135,0.5028124235754463,0.6450549450549451,0.4381833473507149,1194.0
932.0,1.7109271712952586e+18,0.47389033942558745,0.4417808219178082,0.3254054054054054,0.5008559550012228,0.6120879120879121,0.43902439024390244,1194.0
933.0,1.7109271713053204e+18,0.4725848563968668,0.4132420091324201,0.3372972972972973,0.5033015407190022,0.6153846153846154,0.43650126156433977,1197.0
934.0,1.7109271713152911e+18,0.4765013054830287,0.4132420091324201,0.3308108108108108,0.49816581071166544,0.6274725274725275,0.44238856181665265,1195.0
935.0,1.7109271713252905e+18,0.4804177545691906,0.4178082191780822,0.32756756756756755,0.5006113964294449,0.6197802197802198,0.43902439024390244,1196.0
936.0,1.7109271713352899e+18,0.46736292428198434,0.4075342465753425,0.33135135135135135,0.48985081927121543,0.6230769230769231,0.4415475189234651,1194.0
937.0,1.7109271713452902e+18,0.47127937336814624,0.4121004566210046,0.33513513513513515,0.4991440449987772,0.6241758241758242,0.4381833473507149,1194.0
938.0,1.7109271713552906e+18,0.47911227154047,0.4269406392694064,0.33297297297297296,0.5033015407190022,0.6186813186813187,0.43566021867115223,1193.0
939.0,1.7109271713653033e+18,0.47127937336814624,0.410958904109589,0.3237837837837838,0.5001222792858889,0.6208791208791209,0.43902439024390244,1193.0
940.0,1.7109271713753024e+18,0.46736292428198434,0.4052511415525114,0.3302702702702703,0.5015896307165566,0.6208791208791209,0.4348191757779647,1194.0
941.0,1.710927171385302e+18,0.4765013054830287,0.408675799086758,0.31675675675675674,0.5050134507214478,0.6230769230769231,0.4381833473507149,1197.0
942.0,1.7109271713953298e+18,0.46736292428198434,0.4200913242009132,0.34,0.5055025678650037,0.6274725274725275,0.4381833473507149,1194.0
943.0,1.7109271714053005e+18,0.4725848563968668,0.4200913242009132,0.33675675675675676,0.5006113964294449,0.6252747252747253,0.43650126156433977,1195.0
944.0,1.7109271714153006e+18,0.49738903394255873,0.4417808219178082,0.3535135135135135,0.5023233064318905,0.6230769230769231,0.4415475189234651,1194.0
945.0,1.710927171425299e+18,0.46344647519582244,0.3824200913242009,0.35081081081081084,0.5035460992907801,0.6296703296703297,0.4415475189234651,1196.0
946.0,1.7109271714352952e+18,0.48433420365535246,0.4691780821917808,0.3410810810810811,0.49498654927855223,0.6186813186813187,0.4373423044575273,1194.0
947.0,1.7109271714452974e+18,0.47780678851174935,0.3961187214611872,0.31891891891891894,0.5006113964294449,0.6230769230769231,0.43566021867115223,1195.0
948.0,1.7109271714552968e+18,0.5143603133159269,0.4863013698630137,0.3345945945945946,0.5033015407190022,0.6329670329670329,0.4415475189234651,1193.0
949.0,1.7109271714652984e+18,0.4869451697127937,0.4794520547945205,0.33405405405405403,0.5015896307165566,0.6175824175824176,0.43986543313709,1197.0
950.0,1.7109271714752955e+18,0.4516971279373368,0.3915525114155251,0.32594594594594595,0.5035460992907801,0.621978021978022,0.43650126156433977,1195.0
951.0,1.7109271714853217e+18,0.4621409921671018,0.363013698630137,0.3124324324324324,0.5006113964294449,0.6208791208791209,0.432296047098402,1193.0
952.0,1.7109271714953e+18,0.48172323759791125,0.4178082191780822,0.33405405405405403,0.5064808021521154,0.6296703296703297,0.44070647603027757,1195.0
953.0,1.710927171505313e+18,0.4725848563968668,0.4132420091324201,0.3410810810810811,0.5062362435803375,0.6450549450549451,0.4449116904962153,1195.0
954.0,1.7109271715153006e+18,0.47127937336814624,0.3812785388127854,0.3264864864864865,0.4991440449987772,0.6241758241758242,0.43986543313709,1195.0
955.0,1.7109271715252984e+18,0.4765013054830287,0.3984018264840183,0.33135135135135135,0.5015896307165566,0.6285714285714286,0.43650126156433977,1195.0
956.0,1.710927171535297e+18,0.47127937336814624,0.4166666666666667,0.33405405405405403,0.499877720714111,0.6230769230769231,0.4339781328847771,1195.0
957.0,1.7109271715452992e+18,0.47389033942558745,0.454337899543379,0.34486486486486484,0.5028124235754463,0.6241758241758242,0.4381833473507149,1196.0
958.0,1.7109271715552916e+18,0.4725848563968668,0.4132420091324201,0.33837837837837836,0.5055025678650037,0.6241758241758242,0.43986543313709,1196.0
959.0,1.7109271715652977e+18,0.46475195822454307,0.410958904109589,0.3302702702702703,0.49938860357055515,0.6142857142857143,0.4339781328847771,1190.0
960.0,1.7109271715752965e+18,0.47911227154047,0.4292237442922374,0.3324324324324324,0.5011005135730008,0.6362637362637362,0.44070647603027757,1195.0
961.0,1.710927171585301e+18,0.47127937336814624,0.4257990867579909,0.33675675675675676,0.49107361213010514,0.6120879120879121,0.432296047098402,1192.0
962.0,1.7109271715953e+18,0.489556135770235,0.4737442922374429,0.3410810810810811,0.5018341892883346,0.621978021978022,0.43566021867115223,1195.0
963.0,1.7109271716052966e+18,0.47389033942558745,0.4189497716894977,0.3172972972972973,0.5028124235754463,0.6241758241758242,0.4381833473507149,1198.0
964.0,1.7109271716153157e+18,0.47780678851174935,0.4452054794520548,0.3643243243243243,0.5062362435803375,0.6131868131868132,0.44238856181665265,1193.0
965.0,1.7109271716252928e+18,0.4830287206266319,0.4075342465753425,0.327027027027027,0.504524333577892,0.6230769230769231,0.43986543313709,1193.0
966.0,1.7109271716352924e+18,0.4556135770234987,0.4006849315068493,0.33135135135135135,0.5020787478601125,0.6098901098901099,0.4348191757779647,1194.0
967.0,1.710927171645297e+18,0.4804177545691906,0.4315068493150685,0.35621621621621624,0.5047688921496698,0.6274725274725275,0.4415475189234651,1194.0
968.0,1.710927171655296e+18,0.4765013054830287,0.4383561643835616,0.3302702702702703,0.5025678650036683,0.634065934065934,0.4373423044575273,1195.0
969.0,1.7109271716652933e+18,0.46344647519582244,0.4063926940639269,0.33297297297297296,0.5062362435803375,0.6230769230769231,0.4415475189234651,1196.0
970.0,1.7109271716752993e+18,0.4595300261096606,0.4212328767123288,0.3389189189189189,0.5023233064318905,0.6175824175824176,0.43313708999158956,1192.0
971.0,1.7109271716853005e+18,0.48825065274151436,0.430365296803653,0.36648648648648646,0.5033015407190022,0.6230769230769231,0.43986543313709,1197.0
972.0,1.7109271716953024e+18,0.47780678851174935,0.4360730593607306,0.3232432432432432,0.5018341892883346,0.6208791208791209,0.4381833473507149,1195.0
973.0,1.710927171705302e+18,0.47911227154047,0.4178082191780822,0.3372972972972973,0.5003668378576669,0.6153846153846154,0.43566021867115223,1194.0
974.0,1.7109271717153021e+18,0.46736292428198434,0.3972602739726027,0.3232432432432432,0.504279775006114,0.6208791208791209,0.43650126156433977,1196.0
975.0,1.7109271717253059e+18,0.4765013054830287,0.4212328767123288,0.34054054054054056,0.4986549278552213,0.621978021978022,0.43902439024390244,1194.0
976.0,1.7109271717353014e+18,0.47780678851174935,0.4611872146118721,0.3389189189189189,0.5006113964294449,0.6186813186813187,0.43902439024390244,1193.0
977.0,1.7109271717453018e+18,0.4699738903394256,0.4189497716894977,0.33405405405405403,0.4942528735632184,0.6274725274725275,0.4415475189234651,1193.0
978.0,1.7109271717553016e+18,0.4804177545691906,0.4280821917808219,0.3389189189189189,0.5020787478601125,0.6285714285714286,0.4415475189234651,1193.0
979.0,1.7109271717653043e+18,0.46736292428198434,0.4041095890410959,0.3302702702702703,0.5015896307165566,0.6252747252747253,0.4381833473507149,1192.0
980.0,1.7109271717753047e+18,0.47389033942558745,0.4041095890410959,0.33297297297297296,0.49767669356810956,0.6230769230769231,0.43650126156433977,1195.0
981.0,1.7109271717852997e+18,0.47780678851174935,0.408675799086758,0.3362162162162162,0.5025678650036683,0.6274725274725275,0.4449116904962153,1194.0
982.0,1.7109271717953103e+18,0.48172323759791125,0.4509132420091324,0.3410810810810811,0.5037906578625581,0.6329670329670329,0.4482758620689655,1193.0
983.0,1.7109271718053084e+18,0.47127937336814624,0.4212328767123288,0.3410810810810811,0.5015896307165566,0.6230769230769231,0.4381833473507149,1194.0
984.0,1.7109271718153068e+18,0.4699738903394256,0.3892694063926941,0.3345945945945946,0.5006113964294449,0.621978021978022,0.4348191757779647,1196.0
985.0,1.7109271718253025e+18,0.47127937336814624,0.4155251141552511,0.33945945945945943,0.5037906578625581,0.6285714285714286,0.4440706476030278,1193.0
986.0,1.710927171835302e+18,0.48433420365535246,0.4235159817351598,0.34702702702702704,0.5035460992907801,0.6285714285714286,0.43986543313709,1193.0
987.0,1.710927171845302e+18,0.4765013054830287,0.4132420091324201,0.32972972972972975,0.49938860357055515,0.6230769230769231,0.4381833473507149,1198.0
988.0,1.7109271718553057e+18,0.4908616187989556,0.4817351598173516,0.3345945945945946,0.5015896307165566,0.621978021978022,0.4373423044575273,1196.0
989.0,1.7109271718653056e+18,0.46736292428198434,0.4132420091324201,0.3362162162162162,0.5023233064318905,0.6252747252747253,0.4381833473507149,1195.0
990.0,1.7109271718753252e+18,0.47780678851174935,0.410958904109589,0.32972972972972975,0.49082905355832723,0.6197802197802198,0.44238856181665265,1195.0
991.0,1.7109271718853059e+18,0.4765013054830287,0.4143835616438356,0.33297297297297296,0.5001222792858889,0.6208791208791209,0.43650126156433977,1196.0
992.0,1.710927171895307e+18,0.5078328981723238,0.4257990867579909,0.3362162162162162,0.4991440449987772,0.6274725274725275,0.4449116904962153,1195.0
993.0,1.710927171905301e+18,0.42689295039164493,0.3926940639269406,0.3372972972972973,0.5003668378576669,0.6197802197802198,0.4339781328847771,1192.0
994.0,1.7109271719157624e+18,0.44778067885117495,0.4360730593607306,0.34378378378378377,0.5018341892883346,0.6274725274725275,0.43650126156433977,1195.0
995.0,1.7109271719253176e+18,0.4725848563968668,0.4143835616438356,0.34702702702702704,0.5006113964294449,0.6252747252747253,0.44070647603027757,1193.0
996.0,1.710927171935327e+18,0.4804177545691906,0.410958904109589,0.3389189189189189,0.5050134507214478,0.6274725274725275,0.4415475189234651,1195.0
997.0,1.7109271719453082e+18,0.48433420365535246,0.4178082191780822,0.33405405405405403,0.504279775006114,0.6186813186813187,0.43650126156433977,1196.0
998.0,1.7109271719553055e+18,0.46344647519582244,0.4223744292237443,0.33135135135135135,0.49938860357055515,0.6230769230769231,0.43986543313709,1195.0
999.0,1.7109271719653059e+18,0.45691906005221933,0.4052511415525114,0.3302702702702703,0.5028124235754463,0.6252747252747253,0.43902439024390244,1194.0
