202.0,1.7109265798092198e+18,0.47911227154047,0.4200913242009132,0.34486486486486484,0.5094155050134507,0.6098901098901099,0.44238856181665265,1196.0
203.0,1.7109265798192312e+18,0.47911227154047,0.4098173515981735,0.31891891891891894,0.4991440449987772,0.6648351648351648,0.4465937762825904,1194.0
204.0,1.7109265798292093e+18,0.4830287206266319,0.4178082191780822,0.32972972972972975,0.4991440449987772,0.6461538461538462,0.4449116904962153,1195.0
205.0,1.710926579839219e+18,0.47127937336814624,0.410958904109589,0.3324324324324324,0.5001222792858889,0.6263736263736264,0.43650126156433977,1194.0
206.0,1.7109265798492168e+18,0.48172323759791125,0.4246575342465753,0.33783783783783783,0.5035460992907801,0.6230769230769231,0.44238856181665265,1197.0
207.0,1.710926579859215e+18,0.48172323759791125,0.4178082191780822,0.32756756756756755,0.5079481535827831,0.6461538461538462,0.43902439024390244,1195.0
208.0,1.7109265798692168e+18,0.47389033942558745,0.410958904109589,0.3372972972972973,0.5086818292981169,0.6274725274725275,0.44238856181665265,1192.0
209.0,1.7109265798792146e+18,0.47911227154047,0.410958904109589,0.31945945945945947,0.5020787478601125,0.6164835164835165,0.43986543313709,1195.0
210.0,1.7109265798892142e+18,0.47780678851174935,0.4075342465753425,0.3345945945945946,0.5018341892883346,0.6208791208791209,0.4415475189234651,1193.0
211.0,1.710926579899215e+18,0.489556135770235,0.4417808219178082,0.3854054054054054,0.5052580092932257,0.6274725274725275,0.4415475189234651,1195.0
212.0,1.7109265799092155e+18,0.4765013054830287,0.410958904109589,0.3281081081081081,0.5055025678650037,0.6197802197802198,0.4381833473507149,1194.0
213.0,1.7109265799192156e+18,0.4765013054830287,0.410958904109589,0.31945945945945947,0.5025678650036683,0.6483516483516484,0.44070647603027757,1195.0
214.0,1.7109265799292163e+18,0.47389033942558745,0.4337899543378995,0.3908108108108108,0.5035460992907801,0.6285714285714286,0.4432296047098402,1193.0
215.0,1.7109265799392161e+18,0.4869451697127937,0.4280821917808219,0.34702702702702704,0.499877720714111,0.6274725274725275,0.4381833473507149,1195.0
216.0,1.7109265799492168e+18,0.4765013054830287,0.4075342465753425,0.3172972972972973,0.5025678650036683,0.6208791208791209,0.4381833473507149,1194.0
217.0,1.7109265799592184e+18,0.4765013054830287,0.4052511415525114,0.307027027027027,0.49229640498899485,0.6351648351648351,0.42304457527333894,1192.0
218.0,1.7109265799692173e+18,0.4660574412532637,0.3904109589041096,0.31405405405405407,0.504524333577892,0.6274725274725275,0.43650126156433977,1195.0
219.0,1.7109265799792184e+18,0.4765013054830287,0.4075342465753425,0.29621621621621624,0.4996331621423331,0.6296703296703297,0.4381833473507149,1195.0
220.0,1.7109265799892186e+18,0.46475195822454307,0.3972602739726027,0.32,0.5018341892883346,0.6208791208791209,0.4381833473507149,1195.0
221.0,1.710926579999219e+18,0.4765013054830287,0.4143835616438356,0.3372972972972973,0.5023233064318905,0.6142857142857143,0.4348191757779647,1194.0
222.0,1.710926580009219e+18,0.4556135770234987,0.386986301369863,0.3172972972972973,0.4979212521398875,0.610989010989011,0.4306139613120269,1195.0
223.0,1.7109265800192197e+18,0.4725848563968668,0.4143835616438356,0.33513513513513515,0.5037906578625581,0.6296703296703297,0.4415475189234651,1196.0
224.0,1.710926580029227e+18,0.4765013054830287,0.4178082191780822,0.32756756756756755,0.5050134507214478,0.6252747252747253,0.4415475189234651,1197.0
225.0,1.7109265800392207e+18,0.48172323759791125,0.4143835616438356,0.33135135135135135,0.4996331621423331,0.6362637362637362,0.4449116904962153,1196.0
226.0,1.7109265800492204e+18,0.4725848563968668,0.4178082191780822,0.33945945945945943,0.504035216434336,0.6406593406593407,0.4432296047098402,1195.0
227.0,1.7109265800592207e+18,0.46866840731070497,0.4041095890410959,0.32594594594594595,0.4991440449987772,0.621978021978022,0.4381833473507149,1195.0
228.0,1.7109265800692316e+18,0.46866840731070497,0.3984018264840183,0.3108108108108108,0.5028124235754463,0.6296703296703297,0.44575273338940286,1197.0
229.0,1.7109265800792256e+18,0.4725848563968668,0.4006849315068493,0.30648648648648646,0.4969430178527757,0.6505494505494506,0.4289318755256518,1191.0
230.0,1.7109265800892237e+18,0.47911227154047,0.430365296803653,0.37945945945945947,0.5050134507214478,0.6274725274725275,0.44238856181665265,1195.0
231.0,1.7109265800992233e+18,0.4869451697127937,0.432648401826484,0.3535135135135135,0.4984103692834434,0.621978021978022,0.4381833473507149,1194.0
232.0,1.7109265801092234e+18,0.47911227154047,0.4200913242009132,0.34324324324324323,0.5020787478601125,0.6274725274725275,0.43902439024390244,1196.0
233.0,1.7109265801192246e+18,0.46475195822454307,0.3972602739726027,0.327027027027027,0.5015896307165566,0.6208791208791209,0.43313708999158956,1192.0
234.0,1.7109265801292298e+18,0.49738903394255873,0.4383561643835616,0.38594594594594595,0.4988994864269993,0.6230769230769231,0.4348191757779647,1192.0
235.0,1.7109265801392276e+18,0.46736292428198434,0.4052511415525114,0.31945945945945947,0.504524333577892,0.6417582417582418,0.43902439024390244,1196.0
236.0,1.7109265801492285e+18,0.48172323759791125,0.4292237442922374,0.35945945945945945,0.5011005135730008,0.6296703296703297,0.44238856181665265,1195.0
237.0,1.710926580159228e+18,0.47127937336814624,0.4098173515981735,0.3232432432432432,0.5067253607238934,0.6241758241758242,0.4348191757779647,1195.0
238.0,1.710926580169228e+18,0.47127937336814624,0.4063926940639269,0.3178378378378378,0.4937637564196625,0.6032967032967033,0.4381833473507149,1195.0
239.0,1.7109265801792374e+18,0.4765013054830287,0.4178082191780822,0.3281081081081081,0.5018341892883346,0.6318681318681318,0.44238856181665265,1197.0
240.0,1.7109265801892293e+18,0.48172323759791125,0.4178082191780822,0.32972972972972975,0.5015896307165566,0.6164835164835165,0.43902439024390244,1196.0
241.0,1.7109265801992284e+18,0.4765013054830287,0.4178082191780822,0.33837837837837836,0.4986549278552213,0.5923076923076923,0.4306139613120269,1193.0
242.0,1.7109265802092296e+18,0.48172323759791125,0.430365296803653,0.37189189189189187,0.508192712154561,0.6362637362637362,0.44238856181665265,1196.0
243.0,1.7109265802192307e+18,0.489556135770235,0.4246575342465753,0.30486486486486486,0.5015896307165566,0.6362637362637362,0.43986543313709,1197.0
244.0,1.71092658022923e+18,0.4765013054830287,0.4315068493150685,0.35567567567567565,0.5035460992907801,0.6142857142857143,0.43566021867115223,1194.0
245.0,1.710926580239226e+18,0.47780678851174935,0.4006849315068493,0.3237837837837838,0.5020787478601125,0.6197802197802198,0.4339781328847771,1193.0
246.0,1.7109265802492534e+18,0.4765013054830287,0.4246575342465753,0.33837837837837836,0.5015896307165566,0.6197802197802198,0.43986543313709,1195.0
247.0,1.710926580259231e+18,0.47127937336814624,0.4143835616438356,0.33675675675675676,0.5008559550012228,0.6417582417582418,0.4533221194280908,1195.0
248.0,1.7109265802692308e+18,0.46866840731070497,0.4052511415525114,0.3210810810810811,0.4930300807043287,0.6582417582417582,0.44911690496215306,1196.0
249.0,1.710926580279235e+18,0.4725848563968668,0.4132420091324201,0.327027027027027,0.4986549278552213,0.6406593406593407,0.4381833473507149,1194.0
250.0,1.7109265802892357e+18,0.4699738903394256,0.4075342465753425,0.3145945945945946,0.5015896307165566,0.6054945054945055,0.42977291841883936,1191.0
251.0,1.7109265802992543e+18,0.4725848563968668,0.4178082191780822,0.3254054054054054,0.5015896307165566,0.6329670329670329,0.43313708999158956,1190.0
252.0,1.7109265803092355e+18,0.4869451697127937,0.4178082191780822,0.33405405405405403,0.4969430178527757,0.6208791208791209,0.43650126156433977,1194.0
253.0,1.7109265803192596e+18,0.4621409921671018,0.3904109589041096,0.3145945945945946,0.4937637564196625,0.6208791208791209,0.43566021867115223,1195.0
254.0,1.7109265803292383e+18,0.4765013054830287,0.4349315068493151,0.3545945945945946,0.4986549278552213,0.621978021978022,0.43650126156433977,1196.0
255.0,1.7109265803392376e+18,0.46475195822454307,0.4029680365296804,0.3324324324324324,0.5008559550012228,0.6362637362637362,0.43566021867115223,1195.0
256.0,1.7109265803491914e+18,0.47780678851174935,0.4280821917808219,0.3491891891891892,0.4979212521398875,0.6285714285714286,0.4339781328847771,1194.0
257.0,1.7109265803592374e+18,0.46475195822454307,0.4063926940639269,0.31567567567567567,0.5015896307165566,0.6263736263736264,0.432296047098402,1193.0
258.0,1.7109265803692157e+18,0.4660574412532637,0.4121004566210046,0.3345945945945946,0.4996331621423331,0.5901098901098901,0.4306139613120269,1193.0
259.0,1.7109265803792453e+18,0.47127937336814624,0.408675799086758,0.3264864864864865,0.5018341892883346,0.6164835164835165,0.4348191757779647,1195.0
260.0,1.710926580389242e+18,0.4869451697127937,0.4486301369863014,0.38,0.5037906578625581,0.6296703296703297,0.4415475189234651,1197.0
261.0,1.7109265803992197e+18,0.46866840731070497,0.4041095890410959,0.3248648648648649,0.5033015407190022,0.6230769230769231,0.4373423044575273,1197.0
262.0,1.7109265804092196e+18,0.4725848563968668,0.4223744292237443,0.39675675675675676,0.5057471264367817,0.6263736263736264,0.4415475189234651,1196.0
263.0,1.7109265804192425e+18,0.4725848563968668,0.4132420091324201,0.33405405405405403,0.5020787478601125,0.6373626373626373,0.4348191757779647,1198.0
264.0,1.710926580429244e+18,0.4765013054830287,0.4178082191780822,0.32594594594594595,0.495720224993886,0.6208791208791209,0.4348191757779647,1194.0
265.0,1.7109265804392387e+18,0.47911227154047,0.4178082191780822,0.33297297297297296,0.5025678650036683,0.6241758241758242,0.43986543313709,1195.0
266.0,1.710926580449223e+18,0.45822454308093996,0.4006849315068493,0.3232432432432432,0.5006113964294449,0.6076923076923076,0.4348191757779647,1195.0
267.0,1.7109265804592238e+18,0.47780678851174935,0.4132420091324201,0.3302702702702703,0.5018341892883346,0.654945054945055,0.43566021867115223,1197.0
268.0,1.7109265804692232e+18,0.46866840731070497,0.4098173515981735,0.34054054054054056,0.4974321349963316,0.6010989010989011,0.4339781328847771,1192.0
269.0,1.7109265804792236e+18,0.4934725848563969,0.4417808219178082,0.34540540540540543,0.5020787478601125,0.6362637362637362,0.447434819175778,1196.0
270.0,1.7109265804892242e+18,0.4765013054830287,0.4132420091324201,0.3145945945945946,0.5084372707263389,0.6329670329670329,0.44911690496215306,1194.0
271.0,1.7109265804992218e+18,0.4751958224543081,0.4121004566210046,0.3324324324324324,0.5008559550012228,0.6175824175824176,0.43650126156433977,1198.0
272.0,1.7109265805092244e+18,0.4765013054830287,0.4132420091324201,0.32,0.5025678650036683,0.6318681318681318,0.43902439024390244,1197.0
273.0,1.7109265805192591e+18,0.47127937336814624,0.3915525114155251,0.312972972972973,0.5023233064318905,0.6472527472527473,0.4280908326324643,1192.0
274.0,1.7109265805292221e+18,0.47911227154047,0.4246575342465753,0.32972972972972975,0.4974321349963316,0.6274725274725275,0.44238856181665265,1195.0
275.0,1.710926580539225e+18,0.47780678851174935,0.4292237442922374,0.3583783783783784,0.5023233064318905,0.6153846153846154,0.43986543313709,1195.0
276.0,1.7109265805492257e+18,0.4699738903394256,0.4178082191780822,0.3291891891891892,0.5001222792858889,0.6197802197802198,0.4415475189234651,1197.0
277.0,1.710926580559227e+18,0.4660574412532637,0.3995433789954338,0.3237837837837838,0.4988994864269993,0.6274725274725275,0.4381833473507149,1194.0
278.0,1.710926580569226e+18,0.4699738903394256,0.4178082191780822,0.3410810810810811,0.5020787478601125,0.6065934065934065,0.43902439024390244,1196.0
279.0,1.7109265805792466e+18,0.4765013054830287,0.4098173515981735,0.32756756756756755,0.5025678650036683,0.6241758241758242,0.43902439024390244,1196.0
280.0,1.7109265805892224e+18,0.4725848563968668,0.4029680365296804,0.3210810810810811,0.5035460992907801,0.6285714285714286,0.4373423044575273,1198.0
281.0,1.710926580599223e+18,0.4660574412532637,0.3984018264840183,0.31351351351351353,0.49938860357055515,0.5923076923076923,0.4348191757779647,1194.0
282.0,1.7109265806092221e+18,0.4725848563968668,0.4075342465753425,0.34540540540540543,0.5015896307165566,0.6274725274725275,0.43902439024390244,1197.0
283.0,1.7109265806192543e+18,0.4765013054830287,0.4212328767123288,0.3491891891891892,0.49938860357055515,0.6450549450549451,0.43986543313709,1195.0
284.0,1.710926580629254e+18,0.4725848563968668,0.3995433789954338,0.3227027027027027,0.5011005135730008,0.634065934065934,0.44911690496215306,1196.0
285.0,1.7109265806392271e+18,0.4765013054830287,0.4143835616438356,0.3210810810810811,0.504035216434336,0.6307692307692307,0.4449116904962153,1195.0
286.0,1.7109265806492296e+18,0.4765013054830287,0.4132420091324201,0.3302702702702703,0.5121056493030081,0.6208791208791209,0.4339781328847771,1196.0
287.0,1.7109265806592256e+18,0.48172323759791125,0.430365296803653,0.3708108108108108,0.504279775006114,0.6318681318681318,0.43902439024390244,1195.0
288.0,1.710926580669224e+18,0.4699738903394256,0.4292237442922374,0.3481081081081081,0.5001222792858889,0.6329670329670329,0.43566021867115223,1195.0
289.0,1.710926580679231e+18,0.4765013054830287,0.4189497716894977,0.3264864864864865,0.4996331621423331,0.6021978021978022,0.4213624894869638,1193.0
290.0,1.7109265806892214e+18,0.4765013054830287,0.4098173515981735,0.3172972972972973,0.4930300807043287,0.6285714285714286,0.4415475189234651,1195.0
291.0,1.7109265806992238e+18,0.47911227154047,0.4143835616438356,0.3232432432432432,0.504524333577892,0.6230769230769231,0.43986543313709,1198.0
292.0,1.7109265807092234e+18,0.4725848563968668,0.4132420091324201,0.3291891891891892,0.4991440449987772,0.610989010989011,0.43313708999158956,1194.0
293.0,1.7109265807192187e+18,0.4765013054830287,0.4235159817351598,0.3637837837837838,0.504035216434336,0.6406593406593407,0.4415475189234651,1194.0
294.0,1.710926580729253e+18,0.47911227154047,0.4269406392694064,0.36486486486486486,0.5055025678650037,0.6362637362637362,0.4381833473507149,1194.0
295.0,1.7109265807392271e+18,0.48433420365535246,0.4178082191780822,0.33675675675675676,0.4996331621423331,0.6307692307692307,0.43986543313709,1195.0
296.0,1.710926580749236e+18,0.47780678851174935,0.4075342465753425,0.30594594594594593,0.5035460992907801,0.6230769230769231,0.4415475189234651,1196.0
297.0,1.710926580759227e+18,0.46866840731070497,0.4063926940639269,0.3227027027027027,0.4986549278552213,0.6208791208791209,0.432296047098402,1192.0
298.0,1.710926580769224e+18,0.47389033942558745,0.410958904109589,0.3356756756756757,0.49474199070677427,0.6142857142857143,0.4381833473507149,1196.0
299.0,1.7109265807792302e+18,0.4725848563968668,0.4280821917808219,0.36864864864864866,0.5055025678650037,0.6318681318681318,0.44070647603027757,1197.0
300.0,1.7109265807892247e+18,0.46344647519582244,0.4063926940639269,0.33675675675675676,0.5067253607238934,0.6065934065934065,0.42304457527333894,1194.0
301.0,1.7109265807992271e+18,0.48433420365535246,0.4257990867579909,0.34486486486486484,0.5015896307165566,0.6450549450549451,0.4432296047098402,1195.0
302.0,1.7109265808092237e+18,0.4699738903394256,0.4223744292237443,0.34162162162162163,0.5047688921496698,0.634065934065934,0.43902439024390244,1195.0
303.0,1.710926580819263e+18,0.46736292428198434,0.4075342465753425,0.3254054054054054,0.5008559550012228,0.6307692307692307,0.4415475189234651,1195.0
304.0,1.7109265808292244e+18,0.47780678851174935,0.408675799086758,0.3335135135135135,0.5011005135730008,0.6021978021978022,0.44070647603027757,1196.0
305.0,1.7109265808392266e+18,0.46736292428198434,0.4063926940639269,0.32972972972972975,0.4996331621423331,0.6186813186813187,0.43313708999158956,1192.0
306.0,1.7109265808492275e+18,0.47780678851174935,0.4223744292237443,0.35405405405405405,0.5035460992907801,0.6285714285714286,0.43902439024390244,1194.0
307.0,1.7109265808592266e+18,0.4660574412532637,0.4029680365296804,0.3254054054054054,0.5028124235754463,0.6142857142857143,0.43313708999158956,1192.0
308.0,1.710926580869222e+18,0.4699738903394256,0.4075342465753425,0.3237837837837838,0.5023233064318905,0.6142857142857143,0.43566021867115223,1196.0
309.0,1.7109265808792138e+18,0.4765013054830287,0.4212328767123288,0.35027027027027025,0.5003668378576669,0.6208791208791209,0.4415475189234651,1195.0
310.0,1.7109265808892257e+18,0.47911227154047,0.4292237442922374,0.36648648648648646,0.49400831499144043,0.6274725274725275,0.44070647603027757,1192.0
311.0,1.7109265808992218e+18,0.4804177545691906,0.4132420091324201,0.32594594594594595,0.5067253607238934,0.6384615384615384,0.4482758620689655,1194.0
312.0,1.7109265809092234e+18,0.4765013054830287,0.4189497716894977,0.33837837837837836,0.5008559550012228,0.6241758241758242,0.44070647603027757,1194.0
313.0,1.7109265809192233e+18,0.4765013054830287,0.4212328767123288,0.34054054054054056,0.5008559550012228,0.6230769230769231,0.4373423044575273,1195.0
314.0,1.710926580929226e+18,0.48172323759791125,0.4223744292237443,0.37405405405405406,0.5028124235754463,0.6329670329670329,0.43313708999158956,1192.0
315.0,1.7109265809392364e+18,0.47127937336814624,0.3949771689497717,0.3081081081081081,0.49767669356810956,0.6307692307692307,0.4381833473507149,1193.0
316.0,1.7109265809492262e+18,0.46866840731070497,0.4075342465753425,0.32756756756756755,0.5113719735876743,0.6241758241758242,0.43986543313709,1197.0
317.0,1.710926580959226e+18,0.46866840731070497,0.4029680365296804,0.3286486486486486,0.5006113964294449,0.6241758241758242,0.4339781328847771,1192.0
318.0,1.7109265809692206e+18,0.4699738903394256,0.4143835616438356,0.33513513513513515,0.5015896307165566,0.6142857142857143,0.43650126156433977,1197.0
319.0,1.710926580979248e+18,0.47389033942558745,0.4132420091324201,0.3389189189189189,0.5028124235754463,0.6230769230769231,0.43650126156433977,1195.0
320.0,1.7109265809892268e+18,0.4699738903394256,0.408675799086758,0.3410810810810811,0.499877720714111,0.6208791208791209,0.43650126156433977,1195.0
321.0,1.7109265809992236e+18,0.4804177545691906,0.4155251141552511,0.3281081081081081,0.5015896307165566,0.6175824175824176,0.44575273338940286,1196.0
322.0,1.7109265810092257e+18,0.4830287206266319,0.4394977168949772,0.38216216216216214,0.5018341892883346,0.6362637362637362,0.4415475189234651,1197.0
323.0,1.710926581019224e+18,0.4725848563968668,0.4200913242009132,0.34324324324324323,0.504035216434336,0.6318681318681318,0.4381833473507149,1195.0
324.0,1.7109265810292288e+18,0.4621409921671018,0.408675799086758,0.33135135135135135,0.5015896307165566,0.621978021978022,0.43902439024390244,1194.0
325.0,1.7109265810392315e+18,0.4699738903394256,0.4098173515981735,0.33297297297297296,0.49767669356810956,0.6296703296703297,0.4415475189234651,1196.0
326.0,1.7109265810492224e+18,0.4556135770234987,0.4006849315068493,0.3216216216216216,0.504524333577892,0.6131868131868132,0.432296047098402,1193.0
327.0,1.7109265810592228e+18,0.46866840731070497,0.4018264840182648,0.31891891891891894,0.4925409635607728,0.6241758241758242,0.4373423044575273,1196.0
328.0,1.710926581069226e+18,0.46736292428198434,0.4018264840182648,0.31567567567567567,0.5020787478601125,0.6197802197802198,0.4373423044575273,1196.0
329.0,1.710926581079229e+18,0.46866840731070497,0.4029680365296804,0.3210810810810811,0.5015896307165566,0.6263736263736264,0.44238856181665265,1196.0
330.0,1.7109265810892293e+18,0.47911227154047,0.4178082191780822,0.33513513513513515,0.5028124235754463,0.6252747252747253,0.4415475189234651,1193.0
331.0,1.7109265810992259e+18,0.4765013054830287,0.4132420091324201,0.31945945945945947,0.5006113964294449,0.6373626373626373,0.4348191757779647,1196.0
332.0,1.7109265811092265e+18,0.4725848563968668,0.4052511415525114,0.32594594594594595,0.4986549278552213,0.6285714285714286,0.44070647603027757,1195.0
333.0,1.7109265811192325e+18,0.4765013054830287,0.4132420091324201,0.3286486486486486,0.5013450721447786,0.6274725274725275,0.4381833473507149,1196.0
334.0,1.7109265811292252e+18,0.4621409921671018,0.3995433789954338,0.31189189189189187,0.49938860357055515,0.589010989010989,0.4314550042052145,1193.0
335.0,1.7109265811392287e+18,0.47127937336814624,0.4052511415525114,0.32216216216216215,0.5018341892883346,0.6230769230769231,0.4381833473507149,1194.0
336.0,1.7109265811492262e+18,0.4830287206266319,0.4200913242009132,0.33837837837837836,0.5055025678650037,0.6208791208791209,0.43986543313709,1197.0
337.0,1.7109265811592228e+18,0.47780678851174935,0.4143835616438356,0.33675675675675676,0.5030569821472243,0.6230769230769231,0.43566021867115223,1197.0
338.0,1.7109265811692434e+18,0.4869451697127937,0.4132420091324201,0.33135135135135135,0.5020787478601125,0.6252747252747253,0.4432296047098402,1195.0
339.0,1.7109265811792228e+18,0.47389033942558745,0.3915525114155251,0.28540540540540543,0.5008559550012228,0.6274725274725275,0.4381833473507149,1196.0
340.0,1.7109265811892234e+18,0.4660574412532637,0.3995433789954338,0.33405405405405403,0.5008559550012228,0.6120879120879121,0.4348191757779647,1195.0
341.0,1.7109265811992246e+18,0.48172323759791125,0.4223744292237443,0.3345945945945946,0.5050134507214478,0.6208791208791209,0.4348191757779647,1196.0
342.0,1.7109265812092244e+18,0.48433420365535246,0.4417808219178082,0.37945945945945947,0.5059916850085595,0.6307692307692307,0.44911690496215306,1197.0
343.0,1.710926581219228e+18,0.47389033942558745,0.4143835616438356,0.3286486486486486,0.4986549278552213,0.6186813186813187,0.43313708999158956,1194.0
344.0,1.7109265812292221e+18,0.4725848563968668,0.4189497716894977,0.3362162162162162,0.49938860357055515,0.6252747252747253,0.43902439024390244,1194.0
345.0,1.7109265812392218e+18,0.4725848563968668,0.4018264840182648,0.29567567567567565,0.4988994864269993,0.6296703296703297,0.43902439024390244,1194.0
346.0,1.7109265812492242e+18,0.49738903394255873,0.4691780821917808,0.39675675675675676,0.49767669356810956,0.6252747252747253,0.43650126156433977,1193.0
347.0,1.7109265812592248e+18,0.46866840731070497,0.4075342465753425,0.34162162162162163,0.5030569821472243,0.634065934065934,0.43902439024390244,1193.0
348.0,1.710926581269245e+18,0.4751958224543081,0.4189497716894977,0.3389189189189189,0.49816581071166544,0.6230769230769231,0.4415475189234651,1196.0
349.0,1.710926581279226e+18,0.4908616187989556,0.4406392694063927,0.3675675675675676,0.5037906578625581,0.621978021978022,0.44070647603027757,1194.0
350.0,1.7109265812892221e+18,0.4765013054830287,0.4178082191780822,0.34054054054054056,0.5015896307165566,0.6285714285714286,0.4373423044575273,1194.0
351.0,1.710926581299222e+18,0.4765013054830287,0.4052511415525114,0.3183783783783784,0.5055025678650037,0.6252747252747253,0.4339781328847771,1194.0
352.0,1.7109265813092193e+18,0.4830287206266319,0.4554794520547945,0.3891891891891892,0.4991440449987772,0.6307692307692307,0.4415475189234651,1194.0
353.0,1.7109265813192343e+18,0.4725848563968668,0.4052511415525114,0.3302702702702703,0.5011005135730008,0.6318681318681318,0.43566021867115223,1194.0
354.0,1.7109265813292314e+18,0.4660574412532637,0.410958904109589,0.3254054054054054,0.5006113964294449,0.6274725274725275,0.44070647603027757,1194.0
355.0,1.7109265813392456e+18,0.4830287206266319,0.4132420091324201,0.3210810810810811,0.5028124235754463,0.6241758241758242,0.4449116904962153,1196.0
356.0,1.7109265813492127e+18,0.48172323759791125,0.4178082191780822,0.34324324324324323,0.4937637564196625,0.6307692307692307,0.4432296047098402,1197.0
357.0,1.710926581359226e+18,0.46736292428198434,0.4006849315068493,0.30864864864864866,0.49351919784788456,0.6384615384615384,0.42977291841883936,1194.0
358.0,1.7109265813692265e+18,0.47127937336814624,0.4098173515981735,0.3124324324324324,0.5015896307165566,0.6384615384615384,0.4381833473507149,1196.0
359.0,1.710926581379227e+18,0.4765013054830287,0.4132420091324201,0.32756756756756755,0.4988994864269993,0.634065934065934,0.44070647603027757,1196.0
360.0,1.710926581389232e+18,0.47127937336814624,0.4178082191780822,0.34702702702702704,0.5025678650036683,0.6197802197802198,0.43902439024390244,1195.0
361.0,1.7109265813992302e+18,0.4725848563968668,0.4029680365296804,0.3232432432432432,0.5006113964294449,0.6208791208791209,0.43650126156433977,1194.0
362.0,1.710926581409227e+18,0.4856396866840731,0.4452054794520548,0.3978378378378378,0.5069699192956714,0.6318681318681318,0.43650126156433977,1194.0
363.0,1.710926581419231e+18,0.48172323759791125,0.4143835616438356,0.3324324324324324,0.5001222792858889,0.6362637362637362,0.43902439024390244,1196.0
364.0,1.7109265814292275e+18,0.47127937336814624,0.410958904109589,0.3372972972972973,0.4988994864269993,0.6131868131868132,0.4381833473507149,1195.0
365.0,1.710926581439228e+18,0.4765013054830287,0.4200913242009132,0.32756756756756755,0.495720224993886,0.5945054945054945,0.4381833473507149,1195.0
366.0,1.710926581449226e+18,0.4869451697127937,0.4337899543378995,0.3567567567567568,0.5103937393005625,0.6450549450549451,0.44911690496215306,1197.0
367.0,1.7109265814592292e+18,0.48172323759791125,0.4098173515981735,0.307027027027027,0.4986549278552213,0.6208791208791209,0.44238856181665265,1197.0
368.0,1.710926581469226e+18,0.47389033942558745,0.4132420091324201,0.312972972972973,0.5037906578625581,0.6285714285714286,0.43902439024390244,1196.0
369.0,1.7109265814792312e+18,0.48172323759791125,0.4372146118721461,0.36864864864864866,0.49620934213744194,0.6329670329670329,0.4415475189234651,1197.0
370.0,1.7109265814892375e+18,0.48172323759791125,0.4292237442922374,0.3783783783783784,0.5089263878698949,0.634065934065934,0.4381833473507149,1195.0
371.0,1.7109265814992305e+18,0.47127937336814624,0.4041095890410959,0.3178378378378378,0.504035216434336,0.6197802197802198,0.4415475189234651,1197.0
372.0,1.7109265815092285e+18,0.4699738903394256,0.4132420091324201,0.3372972972972973,0.5001222792858889,0.6252747252747253,0.43650126156433977,1195.0
373.0,1.7109265815192307e+18,0.4765013054830287,0.3949771689497717,0.3081081081081081,0.495720224993886,0.6175824175824176,0.432296047098402,1192.0
374.0,1.7109265815292308e+18,0.48172323759791125,0.4280821917808219,0.37513513513513513,0.5003668378576669,0.6208791208791209,0.43650126156433977,1197.0
375.0,1.7109265815392317e+18,0.4608355091383812,0.4223744292237443,0.3583783783783784,0.5064808021521154,0.6175824175824176,0.432296047098402,1193.0
376.0,1.7109265815492326e+18,0.4869451697127937,0.4417808219178082,0.3994594594594595,0.5006113964294449,0.6241758241758242,0.4432296047098402,1196.0
377.0,1.7109265815592302e+18,0.4765013054830287,0.4132420091324201,0.3308108108108108,0.49816581071166544,0.6274725274725275,0.44238856181665265,1194.0
378.0,1.7109265815692293e+18,0.47911227154047,0.4223744292237443,0.33405405405405403,0.5047688921496698,0.6285714285714286,0.4432296047098402,1196.0
379.0,1.710926581579239e+18,0.49738903394255873,0.4269406392694064,0.32,0.504035216434336,0.6142857142857143,0.44238856181665265,1194.0
380.0,1.7109265815892447e+18,0.4765013054830287,0.4132420091324201,0.32594594594594595,0.5035460992907801,0.5747252747252747,0.43566021867115223,1198.0
381.0,1.7109265815992543e+18,0.4751958224543081,0.4143835616438356,0.327027027027027,0.5047688921496698,0.6296703296703297,0.43650126156433977,1195.0
382.0,1.7109265816092316e+18,0.49216710182767626,0.4200913242009132,0.33297297297297296,0.504524333577892,0.6285714285714286,0.4415475189234651,1197.0
383.0,1.7109265816192333e+18,0.47780678851174935,0.4132420091324201,0.31891891891891894,0.5003668378576669,0.6307692307692307,0.43902439024390244,1197.0
384.0,1.7109265816292342e+18,0.4725848563968668,0.4063926940639269,0.32216216216216215,0.5015896307165566,0.6164835164835165,0.4348191757779647,1196.0
385.0,1.7109265816392415e+18,0.46344647519582244,0.4052511415525114,0.3335135135135135,0.5015896307165566,0.6197802197802198,0.4280908326324643,1190.0
386.0,1.7109265816492352e+18,0.47780678851174935,0.4052511415525114,0.31513513513513514,0.49082905355832723,0.6,0.4415475189234651,1194.0
387.0,1.7109265816592218e+18,0.4699738903394256,0.4132420091324201,0.33135135135135135,0.5030569821472243,0.6241758241758242,0.43902439024390244,1195.0
388.0,1.7109265816692344e+18,0.47780678851174935,0.4155251141552511,0.3345945945945946,0.5033015407190022,0.6450549450549451,0.43902439024390244,1195.0
389.0,1.7109265816792415e+18,0.46344647519582244,0.4189497716894977,0.3659459459459459,0.49816581071166544,0.6406593406593407,0.4415475189234651,1196.0
390.0,1.7109265816892403e+18,0.4699738903394256,0.4155251141552511,0.3318918918918919,0.4988994864269993,0.6241758241758242,0.4381833473507149,1194.0
391.0,1.710926581699235e+18,0.4765013054830287,0.4063926940639269,0.31405405405405407,0.5008559550012228,0.6274725274725275,0.43986543313709,1195.0
392.0,1.7109265817092227e+18,0.4765013054830287,0.4246575342465753,0.3654054054054054,0.5035460992907801,0.6241758241758242,0.44238856181665265,1195.0
393.0,1.710926581719228e+18,0.46736292428198434,0.4098173515981735,0.32756756756756755,0.4974321349963316,0.6230769230769231,0.43650126156433977,1194.0
394.0,1.7109265817292434e+18,0.4699738903394256,0.4075342465753425,0.3302702702702703,0.49767669356810956,0.6175824175824176,0.4381833473507149,1197.0
395.0,1.7109265817392348e+18,0.4751958224543081,0.4257990867579909,0.34756756756756757,0.5037906578625581,0.6274725274725275,0.4415475189234651,1195.0
396.0,1.710926581749227e+18,0.44778067885117495,0.3972602739726027,0.3324324324324324,0.5020787478601125,0.6186813186813187,0.4381833473507149,1197.0
397.0,1.710926581759246e+18,0.48172323759791125,0.4223744292237443,0.3481081081081081,0.4991440449987772,0.6230769230769231,0.43650126156433977,1194.0
398.0,1.7109265817692265e+18,0.46736292428198434,0.4132420091324201,0.30864864864864866,0.5001222792858889,0.6186813186813187,0.4415475189234651,1195.0
399.0,1.7109265817792282e+18,0.4765013054830287,0.4212328767123288,0.31513513513513514,0.5035460992907801,0.6318681318681318,0.4381833473507149,1195.0
400.0,1.710926581789256e+18,0.47389033942558745,0.4166666666666667,0.34054054054054056,0.5018341892883346,0.6329670329670329,0.43902439024390244,1196.0
401.0,1.7109265817992205e+18,0.47389033942558745,0.4166666666666667,0.32432432432432434,0.4913181707018831,0.6351648351648351,0.43650126156433977,1193.0
402.0,1.7109265818092232e+18,0.46344647519582244,0.410958904109589,0.37567567567567567,0.5037906578625581,0.6329670329670329,0.43566021867115223,1197.0
403.0,1.7109265818192264e+18,0.4765013054830287,0.4143835616438356,0.34540540540540543,0.495720224993886,0.6241758241758242,0.4381833473507149,1196.0
404.0,1.7109265818292252e+18,0.47911227154047,0.4269406392694064,0.34540540540540543,0.5023233064318905,0.6329670329670329,0.43650126156433977,1195.0
405.0,1.710926581839231e+18,0.46866840731070497,0.4063926940639269,0.31675675675675674,0.5033015407190022,0.6164835164835165,0.4381833473507149,1196.0
406.0,1.7109265818492163e+18,0.4765013054830287,0.4098173515981735,0.3362162162162162,0.5006113964294449,0.6241758241758242,0.4373423044575273,1196.0
407.0,1.7109265818592146e+18,0.47911227154047,0.4143835616438356,0.3237837837837838,0.5015896307165566,0.6230769230769231,0.4381833473507149,1193.0
408.0,1.7109265818692303e+18,0.4804177545691906,0.408675799086758,0.31405405405405407,0.5037906578625581,0.6274725274725275,0.4415475189234651,1196.0
409.0,1.7109265818792307e+18,0.4765013054830287,0.3984018264840183,0.29567567567567565,0.5015896307165566,0.6516483516483517,0.43902439024390244,1196.0
410.0,1.7109265818892516e+18,0.4765013054830287,0.4132420091324201,0.32594594594594595,0.5055025678650037,0.6230769230769231,0.43986543313709,1194.0
411.0,1.7109265818992294e+18,0.47780678851174935,0.4200913242009132,0.3286486486486486,0.5037906578625581,0.6263736263736264,0.4381833473507149,1195.0
412.0,1.710926581909228e+18,0.46866840731070497,0.410958904109589,0.30864864864864866,0.5028124235754463,0.6252747252747253,0.4373423044575273,1194.0
413.0,1.710926581919226e+18,0.46866840731070497,0.4006849315068493,0.32756756756756755,0.5003668378576669,0.6285714285714286,0.4432296047098402,1194.0
414.0,1.7109265819292646e+18,0.46866840731070497,0.4235159817351598,0.35567567567567565,0.5059916850085595,0.6362637362637362,0.4381833473507149,1194.0
415.0,1.7109265819392292e+18,0.4765013054830287,0.4098173515981735,0.31675675675675674,0.49816581071166544,0.6285714285714286,0.43902439024390244,1195.0
416.0,1.7109265819492273e+18,0.4725848563968668,0.4189497716894977,0.34702702702702704,0.5006113964294449,0.6186813186813187,0.4373423044575273,1196.0
417.0,1.7109265819592248e+18,0.4765013054830287,0.4098173515981735,0.30972972972972973,0.5015896307165566,0.6252747252747253,0.4415475189234651,1194.0
418.0,1.7109265819692278e+18,0.4804177545691906,0.4041095890410959,0.32216216216216215,0.49767669356810956,0.6131868131868132,0.4381833473507149,1193.0
419.0,1.710926581979224e+18,0.4725848563968668,0.4223744292237443,0.34756756756756757,0.5106382978723404,0.6593406593406593,0.43566021867115223,1195.0
420.0,1.7109265819892214e+18,0.48172323759791125,0.4337899543378995,0.3772972972972973,0.504279775006114,0.6252747252747253,0.4432296047098402,1196.0
421.0,1.7109265819991813e+18,0.48433420365535246,0.4143835616438356,0.31351351351351353,0.5055025678650037,0.6329670329670329,0.43986543313709,1196.0
422.0,1.7109265820092234e+18,0.46736292428198434,0.4052511415525114,0.3172972972972973,0.5018341892883346,0.6208791208791209,0.4381833473507149,1195.0
423.0,1.7109265820192243e+18,0.46736292428198434,0.4121004566210046,0.3237837837837838,0.5015896307165566,0.6230769230769231,0.432296047098402,1193.0
424.0,1.7109265820292244e+18,0.4765013054830287,0.4200913242009132,0.34216216216216216,0.5047688921496698,0.6285714285714286,0.4415475189234651,1193.0
425.0,1.7109265820392294e+18,0.47780678851174935,0.4178082191780822,0.3172972972972973,0.5028124235754463,0.6274725274725275,0.4415475189234651,1194.0
426.0,1.7109265820492234e+18,0.47389033942558745,0.4178082191780822,0.3427027027027027,0.49938860357055515,0.6153846153846154,0.4415475189234651,1195.0
427.0,1.7109265820592243e+18,0.48172323759791125,0.4280821917808219,0.34324324324324323,0.5059916850085595,0.6307692307692307,0.4415475189234651,1193.0
428.0,1.7109265820692198e+18,0.4725848563968668,0.4178082191780822,0.33135135135135135,0.5018341892883346,0.6208791208791209,0.4381833473507149,1194.0
429.0,1.710926582079229e+18,0.47389033942558745,0.4143835616438356,0.3410810810810811,0.5015896307165566,0.6241758241758242,0.43986543313709,1194.0
430.0,1.7109265820892045e+18,0.47127937336814624,0.4006849315068493,0.31027027027027027,0.5006113964294449,0.6153846153846154,0.4373423044575273,1192.0
431.0,1.7109265820992236e+18,0.47780678851174935,0.4178082191780822,0.3172972972972973,0.495720224993886,0.6186813186813187,0.4415475189234651,1193.0
432.0,1.7109265821092224e+18,0.4765013054830287,0.4178082191780822,0.3324324324324324,0.5064808021521154,0.6274725274725275,0.4415475189234651,1196.0
433.0,1.710926582119258e+18,0.4804177545691906,0.4178082191780822,0.31675675675675674,0.49938860357055515,0.6208791208791209,0.44575273338940286,1193.0
434.0,1.7109265821292252e+18,0.4725848563968668,0.4235159817351598,0.3464864864864865,0.5001222792858889,0.6208791208791209,0.43902439024390244,1195.0
435.0,1.7109265821392215e+18,0.4725848563968668,0.3995433789954338,0.31189189189189187,0.5006113964294449,0.6186813186813187,0.43650126156433977,1195.0
436.0,1.7109265821491873e+18,0.47127937336814624,0.4029680365296804,0.3286486486486486,0.4979212521398875,0.5978021978021978,0.43566021867115223,1196.0
437.0,1.7109265821592264e+18,0.4765013054830287,0.4246575342465753,0.35567567567567565,0.4927855221325507,0.6230769230769231,0.44238856181665265,1194.0
438.0,1.710926582169224e+18,0.47127937336814624,0.4063926940639269,0.33135135135135135,0.499877720714111,0.6175824175824176,0.4314550042052145,1192.0
439.0,1.710926582179228e+18,0.46344647519582244,0.4075342465753425,0.32216216216216215,0.4991440449987772,0.6296703296703297,0.4415475189234651,1194.0
440.0,1.7109265821892562e+18,0.48433420365535246,0.4292237442922374,0.36864864864864866,0.5003668378576669,0.6274725274725275,0.4415475189234651,1194.0
441.0,1.7109265821992376e+18,0.4765013054830287,0.4200913242009132,0.31675675675675674,0.5011005135730008,0.6164835164835165,0.43313708999158956,1190.0
442.0,1.7109265822092242e+18,0.4751958224543081,0.4178082191780822,0.3345945945945946,0.4937637564196625,0.6274725274725275,0.4415475189234651,1193.0
443.0,1.7109265822192218e+18,0.47389033942558745,0.4132420091324201,0.33837837837837836,0.4991440449987772,0.6307692307692307,0.4415475189234651,1195.0
444.0,1.7109265822292262e+18,0.4621409921671018,0.4041095890410959,0.32432432432432434,0.5055025678650037,0.6175824175824176,0.43566021867115223,1194.0
445.0,1.710926582239227e+18,0.4804177545691906,0.4315068493150685,0.3659459459459459,0.49938860357055515,0.6285714285714286,0.4381833473507149,1197.0
446.0,1.7109265822492296e+18,0.4765013054830287,0.4143835616438356,0.3362162162162162,0.5015896307165566,0.6197802197802198,0.43313708999158956,1192.0
447.0,1.710926582259222e+18,0.47780678851174935,0.4098173515981735,0.3227027027027027,0.48936170212765956,0.6285714285714286,0.43986543313709,1195.0
448.0,1.710926582269225e+18,0.46475195822454307,0.3972602739726027,0.3216216216216216,0.5055025678650037,0.6241758241758242,0.43650126156433977,1193.0
449.0,1.710926582279227e+18,0.48433420365535246,0.4223744292237443,0.32594594594594595,0.5011005135730008,0.6175824175824176,0.4432296047098402,1195.0
450.0,1.710926582289216e+18,0.4765013054830287,0.4132420091324201,0.33297297297297296,0.49938860357055515,0.6252747252747253,0.44238856181665265,1193.0
451.0,1.7109265822992172e+18,0.4660574412532637,0.4052511415525114,0.31405405405405407,0.5015896307165566,0.6241758241758242,0.43650126156433977,1194.0
452.0,1.7109265823092278e+18,0.4765013054830287,0.4143835616438356,0.32594594594594595,0.5037906578625581,0.6241758241758242,0.43650126156433977,1197.0
453.0,1.7109265823192212e+18,0.47127937336814624,0.3926940639269406,0.29783783783783785,0.5015896307165566,0.6263736263736264,0.4381833473507149,1196.0
454.0,1.7109265823292262e+18,0.46475195822454307,0.4029680365296804,0.3232432432432432,0.5028124235754463,0.6153846153846154,0.4339781328847771,1192.0
455.0,1.7109265823392315e+18,0.4804177545691906,0.410958904109589,0.3005405405405405,0.5006113964294449,0.6296703296703297,0.432296047098402,1191.0
456.0,1.710926582349215e+18,0.47127937336814624,0.4121004566210046,0.34486486486486484,0.504524333577892,0.6241758241758242,0.4381833473507149,1197.0
457.0,1.7109265823592238e+18,0.4830287206266319,0.4383561643835616,0.36864864864864866,0.504035216434336,0.634065934065934,0.4440706476030278,1194.0
458.0,1.7109265823692252e+18,0.47127937336814624,0.410958904109589,0.3362162162162162,0.5003668378576669,0.5923076923076923,0.42977291841883936,1191.0
459.0,1.7109265823792317e+18,0.46866840731070497,0.408675799086758,0.3232432432432432,0.5011005135730008,0.6230769230769231,0.4348191757779647,1194.0
460.0,1.7109265823892247e+18,0.4765013054830287,0.4235159817351598,0.37513513513513513,0.5050134507214478,0.6241758241758242,0.4381833473507149,1196.0
461.0,1.7109265823992456e+18,0.4725848563968668,0.4052511415525114,0.31405405405405407,0.49938860357055515,0.6241758241758242,0.4415475189234651,1194.0
462.0,1.7109265824092237e+18,0.4830287206266319,0.4360730593607306,0.3681081081081081,0.4930300807043287,0.6274725274725275,0.4432296047098402,1196.0
463.0,1.710926582419222e+18,0.4725848563968668,0.410958904109589,0.32756756756756755,0.5018341892883346,0.6241758241758242,0.43986543313709,1195.0
464.0,1.7109265824292216e+18,0.4751958224543081,0.4178082191780822,0.34216216216216216,0.5030569821472243,0.6230769230769231,0.43650126156433977,1195.0
465.0,1.710926582439222e+18,0.4908616187989556,0.4280821917808219,0.35081081081081084,0.5025678650036683,0.6252747252747253,0.43566021867115223,1195.0
466.0,1.7109265824492221e+18,0.47127937336814624,0.4018264840182648,0.3172972972972973,0.4988994864269993,0.6285714285714286,0.44238856181665265,1195.0
467.0,1.710926582459228e+18,0.48172323759791125,0.4155251141552511,0.3162162162162162,0.5008559550012228,0.6362637362637362,0.4381833473507149,1196.0
468.0,1.7109265824692257e+18,0.46866840731070497,0.4041095890410959,0.31891891891891894,0.5008559550012228,0.6197802197802198,0.4381833473507149,1196.0
469.0,1.7109265824792271e+18,0.4765013054830287,0.4041095890410959,0.30864864864864866,0.5020787478601125,0.6230769230769231,0.43566021867115223,1195.0
470.0,1.7109265824892306e+18,0.46475195822454307,0.3949771689497717,0.3227027027027027,0.4979212521398875,0.6131868131868132,0.4381833473507149,1192.0
471.0,1.710926582499228e+18,0.4725848563968668,0.410958904109589,0.33135135135135135,0.49816581071166544,0.6274725274725275,0.4381833473507149,1197.0
472.0,1.7109265825092224e+18,0.4765013054830287,0.4212328767123288,0.3427027027027027,0.5074590364392272,0.621978021978022,0.43902439024390244,1195.0
473.0,1.7109265825192305e+18,0.47127937336814624,0.4052511415525114,0.3254054054054054,0.491562729273661,0.6241758241758242,0.43650126156433977,1197.0
474.0,1.7109265825292227e+18,0.4765013054830287,0.4235159817351598,0.3491891891891892,0.5030569821472243,0.6274725274725275,0.4415475189234651,1197.0
475.0,1.7109265825392297e+18,0.46475195822454307,0.4075342465753425,0.3091891891891892,0.5020787478601125,0.6230769230769231,0.4381833473507149,1194.0
476.0,1.7109265825492772e+18,0.47389033942558745,0.4143835616438356,0.3427027027027027,0.4986549278552213,0.6186813186813187,0.43902439024390244,1197.0
477.0,1.7109265825592243e+18,0.4699738903394256,0.4246575342465753,0.36648648648648646,0.5020787478601125,0.6307692307692307,0.4449116904962153,1195.0
478.0,1.7109265825692332e+18,0.49216710182767626,0.4223744292237443,0.3362162162162162,0.5067253607238934,0.6208791208791209,0.4449116904962153,1195.0
479.0,1.710926582579228e+18,0.4830287206266319,0.432648401826484,0.3691891891891892,0.5067253607238934,0.6186813186813187,0.4432296047098402,1194.0
480.0,1.7109265825892774e+18,0.4725848563968668,0.410958904109589,0.33675675675675676,0.5006113964294449,0.6186813186813187,0.4381833473507149,1197.0
481.0,1.7109265825991974e+18,0.4699738903394256,0.4189497716894977,0.33297297297297296,0.5018341892883346,0.6252747252747253,0.4381833473507149,1192.0
482.0,1.7109265826092198e+18,0.46866840731070497,0.4360730593607306,0.3675675675675676,0.5059916850085595,0.6274725274725275,0.4432296047098402,1197.0
483.0,1.710926582619223e+18,0.46736292428198434,0.4029680365296804,0.3286486486486486,0.4888725849841037,0.610989010989011,0.43650126156433977,1196.0
484.0,1.7109265826292257e+18,0.47127937336814624,0.4041095890410959,0.3362162162162162,0.49816581071166544,0.6142857142857143,0.432296047098402,1195.0
485.0,1.7109265826392215e+18,0.47127937336814624,0.410958904109589,0.3237837837837838,0.49620934213744194,0.6175824175824176,0.4373423044575273,1194.0
486.0,1.7109265826492308e+18,0.47911227154047,0.4315068493150685,0.36,0.5003668378576669,0.6164835164835165,0.43902439024390244,1195.0
487.0,1.7109265826592248e+18,0.4660574412532637,0.4029680365296804,0.3043243243243243,0.4937637564196625,0.6252747252747253,0.4339781328847771,1192.0
488.0,1.7109265826692255e+18,0.47911227154047,0.4235159817351598,0.3345945945945946,0.5094155050134507,0.6450549450549451,0.4415475189234651,1195.0
489.0,1.7109265826792264e+18,0.47389033942558745,0.4132420091324201,0.3291891891891892,0.5059916850085595,0.6318681318681318,0.4415475189234651,1196.0
490.0,1.7109265826892708e+18,0.4765013054830287,0.4178082191780822,0.34540540540540543,0.4979212521398875,0.6285714285714286,0.4415475189234651,1193.0
491.0,1.710926582699233e+18,0.47127937336814624,0.4041095890410959,0.3145945945945946,0.5047688921496698,0.6318681318681318,0.43902439024390244,1196.0
492.0,1.7109265827092273e+18,0.4699738903394256,0.4075342465753425,0.32972972972972975,0.499877720714111,0.6065934065934065,0.4348191757779647,1194.0
493.0,1.7109265827192187e+18,0.47780678851174935,0.4223744292237443,0.32594594594594595,0.5030569821472243,0.6296703296703297,0.4415475189234651,1196.0
494.0,1.7109265827292252e+18,0.46866840731070497,0.4143835616438356,0.33675675675675676,0.5037906578625581,0.6274725274725275,0.4415475189234651,1195.0
495.0,1.7109265827392195e+18,0.4869451697127937,0.4440639269406393,0.37243243243243246,0.504524333577892,0.6241758241758242,0.43902439024390244,1195.0
496.0,1.7109265827492268e+18,0.4699738903394256,0.4223744292237443,0.34702702702702704,0.5035460992907801,0.6252747252747253,0.43650126156433977,1193.0
497.0,1.7109265827592806e+18,0.4725848563968668,0.410958904109589,0.32972972972972975,0.5003668378576669,0.6318681318681318,0.4415475189234651,1192.0
498.0,1.710926582769225e+18,0.4804177545691906,0.4189497716894977,0.3291891891891892,0.4971875764245537,0.6252747252747253,0.4415475189234651,1197.0
499.0,1.7109265827792154e+18,0.46736292428198434,0.408675799086758,0.32216216216216215,0.4925409635607728,0.6175824175824176,0.43566021867115223,1196.0
500.0,1.7109265827892652e+18,0.4699738903394256,0.4041095890410959,0.31891891891891894,0.5008559550012228,0.6175824175824176,0.4415475189234651,1195.0
501.0,1.7109265827992238e+18,0.46866840731070497,0.4052511415525114,0.32972972972972975,0.4991440449987772,0.621978021978022,0.43902439024390244,1194.0
502.0,1.7109265828092186e+18,0.4869451697127937,0.4337899543378995,0.34486486486486484,0.5001222792858889,0.6230769230769231,0.43986543313709,1193.0
503.0,1.710926582819219e+18,0.46866840731070497,0.410958904109589,0.34324324324324323,0.4966984592809978,0.6274725274725275,0.4348191757779647,1192.0
504.0,1.710926582829224e+18,0.47780678851174935,0.410958904109589,0.3162162162162162,0.5018341892883346,0.6296703296703297,0.4381833473507149,1195.0
505.0,1.7109265828392694e+18,0.46866840731070497,0.408675799086758,0.3281081081081081,0.4974321349963316,0.6186813186813187,0.43566021867115223,1195.0
506.0,1.710926582849261e+18,0.4765013054830287,0.3995433789954338,0.2918918918918919,0.4991440449987772,0.6208791208791209,0.4381833473507149,1195.0
507.0,1.7109265828592576e+18,0.46736292428198434,0.410958904109589,0.33405405405405403,0.5020787478601125,0.6329670329670329,0.43986543313709,1196.0
508.0,1.7109265828692595e+18,0.47389033942558745,0.4052511415525114,0.33513513513513515,0.48642699926632427,0.6153846153846154,0.4314550042052145,1192.0
509.0,1.7109265828792612e+18,0.4765013054830287,0.4189497716894977,0.33783783783783783,0.5030569821472243,0.6318681318681318,0.44238856181665265,1194.0
510.0,1.7109265828892585e+18,0.46736292428198434,0.4280821917808219,0.3675675675675676,0.5033015407190022,0.6296703296703297,0.4415475189234651,1193.0
511.0,1.7109265828992596e+18,0.4725848563968668,0.4155251141552511,0.3308108108108108,0.5047688921496698,0.6274725274725275,0.43902439024390244,1195.0
512.0,1.7109265829092613e+18,0.47127937336814624,0.4132420091324201,0.3302702702702703,0.5011005135730008,0.6098901098901099,0.43650126156433977,1195.0
513.0,1.71092658291926e+18,0.47389033942558745,0.4200913242009132,0.3535135135135135,0.5006113964294449,0.6318681318681318,0.447434819175778,1194.0
514.0,1.7109265829292572e+18,0.47127937336814624,0.4132420091324201,0.33405405405405403,0.5030569821472243,0.6318681318681318,0.44238856181665265,1194.0
515.0,1.7109265829392558e+18,0.4908616187989556,0.4315068493150685,0.34756756756756757,0.5018341892883346,0.6274725274725275,0.43902439024390244,1195.0
516.0,1.7109265829492557e+18,0.46866840731070497,0.4052511415525114,0.3302702702702703,0.49816581071166544,0.6197802197802198,0.4381833473507149,1193.0
517.0,1.7109265829592625e+18,0.4765013054830287,0.432648401826484,0.38216216216216214,0.5033015407190022,0.6296703296703297,0.4339781328847771,1193.0
518.0,1.710926582969251e+18,0.47780678851174935,0.4269406392694064,0.37243243243243246,0.4986549278552213,0.634065934065934,0.4381833473507149,1194.0
519.0,1.7109265829792545e+18,0.47911227154047,0.430365296803653,0.3589189189189189,0.5055025678650037,0.6252747252747253,0.43902439024390244,1193.0
520.0,1.710926582989254e+18,0.4725848563968668,0.4132420091324201,0.3335135135135135,0.5067253607238934,0.6362637362637362,0.4465937762825904,1196.0
521.0,1.710926582999253e+18,0.4725848563968668,0.4132420091324201,0.33945945945945943,0.5001222792858889,0.6175824175824176,0.43902439024390244,1195.0
522.0,1.710926583009255e+18,0.48433420365535246,0.4372146118721461,0.37135135135135133,0.5055025678650037,0.6285714285714286,0.44238856181665265,1198.0
523.0,1.7109265830192563e+18,0.4595300261096606,0.4178082191780822,0.3345945945945946,0.49474199070677427,0.6153846153846154,0.4348191757779647,1196.0
524.0,1.7109265830292506e+18,0.4765013054830287,0.4315068493150685,0.3881081081081081,0.5033015407190022,0.6241758241758242,0.43902439024390244,1195.0
525.0,1.7109265830392515e+18,0.4765013054830287,0.4178082191780822,0.33675675675675676,0.5035460992907801,0.5978021978021978,0.43650126156433977,1196.0
526.0,1.7109265830492493e+18,0.46736292428198434,0.4132420091324201,0.3318918918918919,0.504035216434336,0.6230769230769231,0.4381833473507149,1194.0
527.0,1.7109265830592517e+18,0.47389033942558745,0.4121004566210046,0.3216216216216216,0.5094155050134507,0.6318681318681318,0.43902439024390244,1193.0
528.0,1.710926583069249e+18,0.46866840731070497,0.4052511415525114,0.3216216216216216,0.5035460992907801,0.6230769230769231,0.43986543313709,1193.0
529.0,1.7109265830792494e+18,0.4765013054830287,0.4143835616438356,0.3318918918918919,0.5050134507214478,0.6230769230769231,0.44070647603027757,1195.0
530.0,1.7109265830892508e+18,0.47911227154047,0.4315068493150685,0.3881081081081081,0.4827586206896552,0.6120879120879121,0.4381833473507149,1193.0
531.0,1.7109265830992525e+18,0.4725848563968668,0.4098173515981735,0.3091891891891892,0.5035460992907801,0.6241758241758242,0.43902439024390244,1195.0
532.0,1.7109265831091896e+18,0.48172323759791125,0.4417808219178082,0.37351351351351353,0.5055025678650037,0.6274725274725275,0.4381833473507149,1194.0
533.0,1.710926583119251e+18,0.48433420365535246,0.4098173515981735,0.32216216216216215,0.5018341892883346,0.6296703296703297,0.4432296047098402,1196.0
534.0,1.7109265831292483e+18,0.4725848563968668,0.408675799086758,0.3264864864864865,0.5015896307165566,0.6175824175824176,0.43566021867115223,1194.0
535.0,1.7109265831392502e+18,0.4869451697127937,0.4360730593607306,0.3589189189189189,0.49938860357055515,0.6373626373626373,0.43902439024390244,1197.0
536.0,1.7109265831492513e+18,0.4699738903394256,0.4075342465753425,0.33297297297297296,0.5003668378576669,0.6197802197802198,0.44575273338940286,1195.0
537.0,1.710926583159324e+18,0.46736292428198434,0.408675799086758,0.33837837837837836,0.4991440449987772,0.6252747252747253,0.4339781328847771,1193.0
538.0,1.7109265831692526e+18,0.4765013054830287,0.4132420091324201,0.33297297297297296,0.4974321349963316,0.621978021978022,0.43902439024390244,1196.0
539.0,1.7109265831792538e+18,0.4699738903394256,0.4063926940639269,0.3172972972972973,0.5028124235754463,0.6241758241758242,0.43902439024390244,1195.0
540.0,1.7109265831892544e+18,0.47780678851174935,0.4178082191780822,0.32756756756756755,0.49816581071166544,0.6285714285714286,0.4415475189234651,1197.0
541.0,1.7109265831992538e+18,0.4830287206266319,0.4155251141552511,0.3389189189189189,0.5028124235754463,0.6241758241758242,0.43986543313709,1196.0
542.0,1.7109265832092567e+18,0.4765013054830287,0.410958904109589,0.3237837837837838,0.5013450721447786,0.6175824175824176,0.43650126156433977,1195.0
543.0,1.7109265832192566e+18,0.4660574412532637,0.4063926940639269,0.32432432432432434,0.5015896307165566,0.6285714285714286,0.4381833473507149,1196.0
544.0,1.7109265832292582e+18,0.4608355091383812,0.3915525114155251,0.3037837837837838,0.5057471264367817,0.621978021978022,0.4381833473507149,1194.0
545.0,1.71092658323924e+18,0.4830287206266319,0.4280821917808219,0.36702702702702705,0.5084372707263389,0.6274725274725275,0.44238856181665265,1195.0
546.0,1.710926583249241e+18,0.46866840731070497,0.4178082191780822,0.34162162162162163,0.5037906578625581,0.6274725274725275,0.43650126156433977,1196.0
547.0,1.710926583259248e+18,0.46866840731070497,0.4006849315068493,0.3264864864864865,0.5020787478601125,0.6285714285714286,0.43986543313709,1196.0
548.0,1.7109265832692436e+18,0.4765013054830287,0.4143835616438356,0.33297297297297296,0.495720224993886,0.6230769230769231,0.43986543313709,1193.0
549.0,1.7109265832792315e+18,0.4765013054830287,0.4189497716894977,0.34162162162162163,0.495720224993886,0.621978021978022,0.43986543313709,1194.0
550.0,1.7109265832892372e+18,0.4608355091383812,0.4098173515981735,0.3481081081081081,0.49767669356810956,0.6153846153846154,0.4339781328847771,1190.0
551.0,1.710926583299237e+18,0.4765013054830287,0.4178082191780822,0.3318918918918919,0.5030569821472243,0.6351648351648351,0.4415475189234651,1196.0
552.0,1.7109265833092372e+18,0.4751958224543081,0.4132420091324201,0.3362162162162162,0.5035460992907801,0.6241758241758242,0.4381833473507149,1198.0
553.0,1.710926583319237e+18,0.47780678851174935,0.4098173515981735,0.3324324324324324,0.5001222792858889,0.6241758241758242,0.4373423044575273,1194.0
554.0,1.7109265833291835e+18,0.4660574412532637,0.4063926940639269,0.30594594594594593,0.5062362435803375,0.6142857142857143,0.4339781328847771,1192.0
555.0,1.7109265833392364e+18,0.4725848563968668,0.4052511415525114,0.3172972972972973,0.5037906578625581,0.6175824175824176,0.43566021867115223,1195.0
556.0,1.710926583349235e+18,0.4725848563968668,0.4246575342465753,0.3627027027027027,0.5037906578625581,0.6252747252747253,0.43566021867115223,1196.0
557.0,1.7109265833592343e+18,0.4751958224543081,0.4212328767123288,0.3518918918918919,0.5030569821472243,0.6307692307692307,0.4415475189234651,1197.0
558.0,1.7109265833692352e+18,0.4804177545691906,0.4200913242009132,0.3286486486486486,0.5023233064318905,0.6252747252747253,0.4373423044575273,1196.0
559.0,1.710926583379234e+18,0.46866840731070497,0.4269406392694064,0.3637837837837838,0.5055025678650037,0.6274725274725275,0.4348191757779647,1194.0
560.0,1.7109265833892465e+18,0.4699738903394256,0.410958904109589,0.32756756756756755,0.5035460992907801,0.6362637362637362,0.4415475189234651,1196.0
561.0,1.7109265833992276e+18,0.4765013054830287,0.4075342465753425,0.327027027027027,0.5025678650036683,0.6274725274725275,0.4381833473507149,1197.0
562.0,1.7109265834092314e+18,0.4830287206266319,0.410958904109589,0.3362162162162162,0.5047688921496698,0.6197802197802198,0.4381833473507149,1197.0
563.0,1.71092658341923e+18,0.4725848563968668,0.4143835616438356,0.31891891891891894,0.5006113964294449,0.6274725274725275,0.4415475189234651,1196.0
564.0,1.7109265834292296e+18,0.48433420365535246,0.4292237442922374,0.3643243243243243,0.5033015407190022,0.6153846153846154,0.4314550042052145,1192.0
565.0,1.710926583439232e+18,0.4765013054830287,0.4063926940639269,0.32594594594594595,0.5030569821472243,0.6329670329670329,0.4415475189234651,1196.0
566.0,1.7109265834491825e+18,0.45691906005221933,0.3881278538812785,0.31135135135135134,0.49938860357055515,0.6098901098901099,0.432296047098402,1192.0
567.0,1.710926583459227e+18,0.47127937336814624,0.4018264840182648,0.3232432432432432,0.5028124235754463,0.6538461538461539,0.44238856181665265,1195.0
568.0,1.7109265834692285e+18,0.47911227154047,0.4098173515981735,0.3172972972972973,0.5008559550012228,0.6186813186813187,0.4373423044575273,1196.0
569.0,1.710926583479231e+18,0.4699738903394256,0.4063926940639269,0.3081081081081081,0.5003668378576669,0.621978021978022,0.43986543313709,1193.0
570.0,1.7109265834892326e+18,0.4765013054830287,0.4132420091324201,0.31945945945945947,0.5015896307165566,0.6362637362637362,0.44238856181665265,1191.0
571.0,1.7109265834992287e+18,0.47127937336814624,0.4075342465753425,0.31891891891891894,0.4966984592809978,0.6252747252747253,0.4373423044575273,1197.0
572.0,1.7109265835092296e+18,0.47911227154047,0.4257990867579909,0.34756756756756757,0.5035460992907801,0.6230769230769231,0.4373423044575273,1196.0
573.0,1.7109265835192297e+18,0.47780678851174935,0.4121004566210046,0.3335135135135135,0.5028124235754463,0.6296703296703297,0.4415475189234651,1196.0
574.0,1.7109265835292283e+18,0.4751958224543081,0.4292237442922374,0.38594594594594595,0.49645390070921985,0.6175824175824176,0.43313708999158956,1192.0
575.0,1.710926583539231e+18,0.4751958224543081,0.4155251141552511,0.33783783783783783,0.5033015407190022,0.6285714285714286,0.44238856181665265,1196.0
576.0,1.71092658354924e+18,0.4765013054830287,0.4166666666666667,0.3362162162162162,0.5015896307165566,0.6175824175824176,0.43902439024390244,1195.0
577.0,1.7109265835592284e+18,0.4765013054830287,0.4052511415525114,0.3232432432432432,0.5015896307165566,0.6274725274725275,0.4449116904962153,1197.0
578.0,1.7109265835692293e+18,0.4765013054830287,0.4223744292237443,0.3481081081081081,0.49033993641477136,0.6208791208791209,0.43902439024390244,1195.0
579.0,1.710926583579229e+18,0.48172323759791125,0.4200913242009132,0.35027027027027025,0.5050134507214478,0.6384615384615384,0.4415475189234651,1194.0
580.0,1.7109265835892408e+18,0.46866840731070497,0.4098173515981735,0.33945945945945943,0.5008559550012228,0.6186813186813187,0.4381833473507149,1196.0
581.0,1.7109265835992315e+18,0.4765013054830287,0.4098173515981735,0.3108108108108108,0.5015896307165566,0.6274725274725275,0.43650126156433977,1196.0
582.0,1.7109265836092332e+18,0.4869451697127937,0.4406392694063927,0.39675675675675676,0.5096600635852286,0.6318681318681318,0.4415475189234651,1195.0
583.0,1.7109265836192307e+18,0.45691906005221933,0.3915525114155251,0.3210810810810811,0.5015896307165566,0.6164835164835165,0.4339781328847771,1193.0
584.0,1.710926583629231e+18,0.48172323759791125,0.4246575342465753,0.34162162162162163,0.5028124235754463,0.6274725274725275,0.4432296047098402,1194.0
585.0,1.7109265836392366e+18,0.47127937336814624,0.4098173515981735,0.3172972972972973,0.5015896307165566,0.6164835164835165,0.4381833473507149,1197.0
586.0,1.7109265836492388e+18,0.47127937336814624,0.4006849315068493,0.3037837837837838,0.5018341892883346,0.6274725274725275,0.43902439024390244,1196.0
587.0,1.7109265836592323e+18,0.4699738903394256,0.4018264840182648,0.31891891891891894,0.5015896307165566,0.6241758241758242,0.43566021867115223,1196.0
588.0,1.7109265836692324e+18,0.48172323759791125,0.4223744292237443,0.3372972972972973,0.4937637564196625,0.6131868131868132,0.44070647603027757,1193.0
589.0,1.7109265836792323e+18,0.47911227154047,0.4166666666666667,0.33405405405405403,0.5033015407190022,0.6230769230769231,0.43902439024390244,1196.0
590.0,1.710926583689233e+18,0.4765013054830287,0.4143835616438356,0.34486486486486484,0.4986549278552213,0.6153846153846154,0.43566021867115223,1192.0
591.0,1.7109265836992422e+18,0.46736292428198434,0.3915525114155251,0.31675675675675674,0.49645390070921985,0.6230769230769231,0.4348191757779647,1195.0
592.0,1.7109265837092132e+18,0.46344647519582244,0.3926940639269406,0.312972972972973,0.4969430178527757,0.6230769230769231,0.4339781328847771,1192.0
593.0,1.7109265837192343e+18,0.47389033942558745,0.410958904109589,0.3183783783783784,0.504035216434336,0.6208791208791209,0.4482758620689655,1197.0
594.0,1.7109265837292355e+18,0.47127937336814624,0.4041095890410959,0.3237837837837838,0.499877720714111,0.6153846153846154,0.43566021867115223,1196.0
595.0,1.710926583739236e+18,0.47780678851174935,0.4292237442922374,0.3264864864864865,0.4984103692834434,0.6208791208791209,0.432296047098402,1194.0
596.0,1.710926583749237e+18,0.4725848563968668,0.410958904109589,0.327027027027027,0.508192712154561,0.6296703296703297,0.4415475189234651,1197.0
597.0,1.710926583759246e+18,0.4765013054830287,0.4178082191780822,0.3264864864864865,0.508192712154561,0.6329670329670329,0.4415475189234651,1196.0
598.0,1.7109265837692337e+18,0.4765013054830287,0.4269406392694064,0.34702702702702704,0.5055025678650037,0.634065934065934,0.44238856181665265,1194.0
599.0,1.7109265837792374e+18,0.4765013054830287,0.4121004566210046,0.3302702702702703,0.5011005135730008,0.6230769230769231,0.4381833473507149,1195.0
600.0,1.710926583789238e+18,0.4804177545691906,0.4178082191780822,0.33945945945945943,0.5015896307165566,0.6241758241758242,0.4432296047098402,1196.0
601.0,1.710926583799237e+18,0.46344647519582244,0.4189497716894977,0.3627027027027027,0.5001222792858889,0.6010989010989011,0.43313708999158956,1193.0
602.0,1.7109265838092372e+18,0.4751958224543081,0.4178082191780822,0.3362162162162162,0.5069699192956714,0.6307692307692307,0.43902439024390244,1199.0
603.0,1.71092658381922e+18,0.47911227154047,0.4235159817351598,0.34756756756756757,0.5113719735876743,0.6175824175824176,0.432296047098402,1193.0
604.0,1.7109265838292393e+18,0.4725848563968668,0.4098173515981735,0.3286486486486486,0.5023233064318905,0.6010989010989011,0.43902439024390244,1195.0
605.0,1.7109265838392256e+18,0.4621409921671018,0.4075342465753425,0.34540540540540543,0.5015896307165566,0.6296703296703297,0.43650126156433977,1197.0
606.0,1.7109265838492406e+18,0.48172323759791125,0.4200913242009132,0.35027027027027025,0.504035216434336,0.6318681318681318,0.44238856181665265,1197.0
607.0,1.7109265838592573e+18,0.47911227154047,0.4235159817351598,0.3491891891891892,0.5069699192956714,0.6274725274725275,0.4415475189234651,1193.0
608.0,1.7109265838692396e+18,0.4765013054830287,0.4178082191780822,0.3264864864864865,0.4988994864269993,0.6175824175824176,0.4381833473507149,1195.0
609.0,1.7109265838792266e+18,0.4765013054830287,0.4280821917808219,0.34324324324324323,0.499877720714111,0.6230769230769231,0.43902439024390244,1194.0
610.0,1.710926583889225e+18,0.489556135770235,0.430365296803653,0.34702702702702704,0.5050134507214478,0.6318681318681318,0.4482758620689655,1195.0
611.0,1.7109265838992468e+18,0.46344647519582244,0.4041095890410959,0.3172972972972973,0.5033015407190022,0.6230769230769231,0.43313708999158956,1193.0
612.0,1.7109265839092508e+18,0.4765013054830287,0.4269406392694064,0.3691891891891892,0.5018341892883346,0.6186813186813187,0.43650126156433977,1196.0
613.0,1.7109265839192259e+18,0.4765013054830287,0.4075342465753425,0.3178378378378378,0.508192712154561,0.6450549450549451,0.4381833473507149,1196.0
614.0,1.7109265839292316e+18,0.4765013054830287,0.4075342465753425,0.3356756756756757,0.5015896307165566,0.6318681318681318,0.4449116904962153,1197.0
615.0,1.710926583939243e+18,0.47127937336814624,0.4041095890410959,0.33135135135135135,0.5035460992907801,0.6395604395604395,0.44238856181665265,1195.0
616.0,1.7109265839492268e+18,0.46866840731070497,0.410958904109589,0.34216216216216216,0.5003668378576669,0.6329670329670329,0.44070647603027757,1194.0
617.0,1.7109265839592276e+18,0.4934725848563969,0.4383561643835616,0.33945945945945943,0.5055025678650037,0.6450549450549451,0.44911690496215306,1195.0
618.0,1.7109265839692447e+18,0.4725848563968668,0.4280821917808219,0.3643243243243243,0.5047688921496698,0.6384615384615384,0.43566021867115223,1194.0
619.0,1.710926583979225e+18,0.4699738903394256,0.4132420091324201,0.31567567567567567,0.5055025678650037,0.6208791208791209,0.4381833473507149,1194.0
620.0,1.710926583989232e+18,0.4725848563968668,0.410958904109589,0.34378378378378377,0.5062362435803375,0.6285714285714286,0.4415475189234651,1194.0
621.0,1.7109265839992486e+18,0.46866840731070497,0.4098173515981735,0.3145945945945946,0.5008559550012228,0.6285714285714286,0.4381833473507149,1195.0
622.0,1.7109265840092293e+18,0.4621409921671018,0.3881278538812785,0.3091891891891892,0.5006113964294449,0.6120879120879121,0.4306139613120269,1194.0
623.0,1.7109265840192745e+18,0.46344647519582244,0.4143835616438356,0.3345945945945946,0.4969430178527757,0.6208791208791209,0.43650126156433977,1196.0
624.0,1.7109265840292308e+18,0.4765013054830287,0.4075342465753425,0.31567567567567567,0.5018341892883346,0.589010989010989,0.4381833473507149,1194.0
625.0,1.7109265840392292e+18,0.4765013054830287,0.4280821917808219,0.3837837837837838,0.495964783565664,0.6065934065934065,0.43650126156433977,1196.0
626.0,1.7109265840492278e+18,0.4856396866840731,0.4155251141552511,0.34378378378378377,0.5001222792858889,0.6175824175824176,0.43902439024390244,1195.0
627.0,1.7109265840592292e+18,0.4869451697127937,0.432648401826484,0.36,0.5028124235754463,0.634065934065934,0.44575273338940286,1195.0
628.0,1.710926584069229e+18,0.4725848563968668,0.4166666666666667,0.33297297297297296,0.5035460992907801,0.6252747252747253,0.43902439024390244,1197.0
629.0,1.710926584079229e+18,0.4830287206266319,0.4394977168949772,0.35621621621621624,0.5074590364392272,0.643956043956044,0.4415475189234651,1194.0
630.0,1.7109265840892047e+18,0.4869451697127937,0.4360730593607306,0.3497297297297297,0.48667155783810223,0.6241758241758242,0.44238856181665265,1194.0
631.0,1.7109265840992689e+18,0.4765013054830287,0.4143835616438356,0.3345945945945946,0.499877720714111,0.6241758241758242,0.4415475189234651,1196.0
632.0,1.7109265841092308e+18,0.4660574412532637,0.4052511415525114,0.32756756756756755,0.5003668378576669,0.6164835164835165,0.4348191757779647,1193.0
633.0,1.710926584119255e+18,0.48172323759791125,0.4292237442922374,0.35081081081081084,0.5035460992907801,0.6274725274725275,0.4432296047098402,1194.0
634.0,1.7109265841292605e+18,0.47780678851174935,0.4178082191780822,0.32594594594594595,0.5011005135730008,0.6230769230769231,0.4381833473507149,1195.0
635.0,1.7109265841392256e+18,0.46866840731070497,0.4018264840182648,0.31027027027027027,0.5011005135730008,0.6285714285714286,0.43902439024390244,1196.0
636.0,1.7109265841492262e+18,0.4660574412532637,0.4075342465753425,0.33297297297297296,0.5057471264367817,0.6065934065934065,0.43566021867115223,1195.0
637.0,1.7109265841592274e+18,0.48433420365535246,0.4235159817351598,0.3372972972972973,0.5055025678650037,0.6285714285714286,0.43986543313709,1196.0
638.0,1.7109265841692293e+18,0.4699738903394256,0.4052511415525114,0.3145945945945946,0.5025678650036683,0.6252747252747253,0.44070647603027757,1196.0
639.0,1.7109265841792684e+18,0.4830287206266319,0.4189497716894977,0.3345945945945946,0.5015896307165566,0.6362637362637362,0.4432296047098402,1194.0
640.0,1.710926584189227e+18,0.4830287206266319,0.4200913242009132,0.3264864864864865,0.5037906578625581,0.6241758241758242,0.43902439024390244,1197.0
641.0,1.710926584199266e+18,0.47780678851174935,0.4394977168949772,0.3654054054054054,0.5037906578625581,0.6285714285714286,0.4415475189234651,1196.0
642.0,1.7109265842092628e+18,0.47911227154047,0.4155251141552511,0.3254054054054054,0.5108828564441183,0.6285714285714286,0.4432296047098402,1193.0
643.0,1.7109265842192758e+18,0.46475195822454307,0.4098173515981735,0.32432432432432434,0.5033015407190022,0.6362637362637362,0.43902439024390244,1194.0
644.0,1.7109265842292562e+18,0.4765013054830287,0.4280821917808219,0.3567567567567568,0.5084372707263389,0.6406593406593407,0.43986543313709,1196.0
645.0,1.71092658423926e+18,0.47780678851174935,0.4383561643835616,0.37945945945945947,0.5047688921496698,0.6285714285714286,0.43902439024390244,1192.0
646.0,1.7109265842492562e+18,0.4765013054830287,0.4098173515981735,0.3427027027027027,0.5035460992907801,0.621978021978022,0.43986543313709,1194.0
647.0,1.7109265842592563e+18,0.4751958224543081,0.4394977168949772,0.447027027027027,0.5015896307165566,0.6274725274725275,0.4381833473507149,1194.0
648.0,1.7109265842692564e+18,0.47911227154047,0.4143835616438356,0.32594594594594595,0.499877720714111,0.6208791208791209,0.4381833473507149,1195.0
649.0,1.7109265842792558e+18,0.47911227154047,0.4143835616438356,0.3410810810810811,0.5037906578625581,0.6197802197802198,0.43986543313709,1197.0
650.0,1.7109265842892582e+18,0.47911227154047,0.4098173515981735,0.34594594594594597,0.5064808021521154,0.6362637362637362,0.43650126156433977,1195.0
651.0,1.7109265842992553e+18,0.46736292428198434,0.4041095890410959,0.30486486486486486,0.5008559550012228,0.6285714285714286,0.4348191757779647,1195.0
652.0,1.710926584309257e+18,0.46736292428198434,0.4132420091324201,0.3410810810810811,0.5035460992907801,0.6252747252747253,0.43566021867115223,1195.0
653.0,1.7109265843192686e+18,0.4765013054830287,0.4098173515981735,0.3264864864864865,0.5008559550012228,0.6230769230769231,0.4339781328847771,1193.0
654.0,1.710926584329256e+18,0.4765013054830287,0.4155251141552511,0.3308108108108108,0.4988994864269993,0.621978021978022,0.432296047098402,1193.0
655.0,1.7109265843392566e+18,0.48433420365535246,0.4189497716894977,0.3362162162162162,0.491807287845439,0.6230769230769231,0.4432296047098402,1195.0
656.0,1.710926584349258e+18,0.46866840731070497,0.4098173515981735,0.3108108108108108,0.5030569821472243,0.6230769230769231,0.4381833473507149,1195.0
657.0,1.7109265843592579e+18,0.4595300261096606,0.3995433789954338,0.3037837837837838,0.5020787478601125,0.6274725274725275,0.4381833473507149,1195.0
658.0,1.7109265843692626e+18,0.46866840731070497,0.4029680365296804,0.32,0.5018341892883346,0.6241758241758242,0.4373423044575273,1194.0
659.0,1.7109265843792617e+18,0.46344647519582244,0.3926940639269406,0.31567567567567567,0.499877720714111,0.6065934065934065,0.4306139613120269,1192.0
660.0,1.710926584389258e+18,0.4856396866840731,0.4121004566210046,0.32432432432432434,0.5025678650036683,0.6098901098901099,0.4339781328847771,1193.0
661.0,1.7109265843992594e+18,0.47911227154047,0.4200913242009132,0.3362162162162162,0.5037906578625581,0.6197802197802198,0.43902439024390244,1197.0
662.0,1.710926584409259e+18,0.4765013054830287,0.4075342465753425,0.3281081081081081,0.4996331621423331,0.6153846153846154,0.43566021867115223,1196.0
663.0,1.7109265844192602e+18,0.4830287206266319,0.4269406392694064,0.3518918918918919,0.5057471264367817,0.6318681318681318,0.44238856181665265,1195.0
664.0,1.7109265844292608e+18,0.4725848563968668,0.4121004566210046,0.3318918918918919,0.504035216434336,0.6208791208791209,0.4381833473507149,1195.0
665.0,1.710926584439257e+18,0.47389033942558745,0.4143835616438356,0.33405405405405403,0.5006113964294449,0.6274725274725275,0.4348191757779647,1193.0
666.0,1.7109265844492588e+18,0.46736292428198434,0.410958904109589,0.3302702702702703,0.4966984592809978,0.6153846153846154,0.432296047098402,1193.0
667.0,1.7109265844592591e+18,0.4830287206266319,0.4143835616438356,0.35027027027027025,0.5035460992907801,0.6285714285714286,0.4449116904962153,1195.0
668.0,1.7109265844692588e+18,0.46736292428198434,0.3984018264840183,0.3162162162162162,0.5033015407190022,0.6307692307692307,0.43566021867115223,1196.0
669.0,1.710926584479263e+18,0.4699738903394256,0.4052511415525114,0.32756756756756755,0.5037906578625581,0.6186813186813187,0.4381833473507149,1194.0
670.0,1.710926584489265e+18,0.48433420365535246,0.4497716894977169,0.3837837837837838,0.5094155050134507,0.6230769230769231,0.43902439024390244,1193.0
671.0,1.7109265844992645e+18,0.48825065274151436,0.4269406392694064,0.3637837837837838,0.5064808021521154,0.6285714285714286,0.44238856181665265,1196.0
672.0,1.7109265845091825e+18,0.47127937336814624,0.4132420091324201,0.3302702702702703,0.5074590364392272,0.6230769230769231,0.43566021867115223,1192.0
673.0,1.7109265845192476e+18,0.47780678851174935,0.410958904109589,0.31891891891891894,0.504279775006114,0.6241758241758242,0.43902439024390244,1195.0
674.0,1.7109265845292716e+18,0.4725848563968668,0.4143835616438356,0.3410810810810811,0.504279775006114,0.6241758241758242,0.43650126156433977,1196.0
675.0,1.7109265845392653e+18,0.46736292428198434,0.4018264840182648,0.3183783783783784,0.4986549278552213,0.6153846153846154,0.4339781328847771,1194.0
676.0,1.7109265845492662e+18,0.4621409921671018,0.4041095890410959,0.3210810810810811,0.5001222792858889,0.6065934065934065,0.4314550042052145,1190.0
677.0,1.7109265845592663e+18,0.47127937336814624,0.4029680365296804,0.32432432432432434,0.4979212521398875,0.634065934065934,0.4339781328847771,1193.0
678.0,1.7109265845692426e+18,0.48172323759791125,0.4212328767123288,0.3518918918918919,0.49205184641721694,0.6263736263736264,0.4381833473507149,1196.0
679.0,1.7109265845792422e+18,0.48172323759791125,0.4292237442922374,0.35567567567567565,0.5023233064318905,0.6318681318681318,0.4449116904962153,1195.0
680.0,1.7109265845892426e+18,0.47127937336814624,0.4075342465753425,0.3286486486486486,0.5020787478601125,0.6186813186813187,0.4381833473507149,1194.0
681.0,1.7109265845992404e+18,0.48433420365535246,0.4178082191780822,0.3302702702702703,0.504524333577892,0.6241758241758242,0.4415475189234651,1196.0
682.0,1.7109265846092442e+18,0.47127937336814624,0.4041095890410959,0.33135135135135135,0.5084372707263389,0.6274725274725275,0.4415475189234651,1197.0
683.0,1.71092658461925e+18,0.46475195822454307,0.4041095890410959,0.32432432432432434,0.5015896307165566,0.6263736263736264,0.4415475189234651,1193.0
684.0,1.7109265846292393e+18,0.47389033942558745,0.3984018264840183,0.28378378378378377,0.5011005135730008,0.6274725274725275,0.43566021867115223,1195.0
685.0,1.710926584639237e+18,0.46475195822454307,0.4155251141552511,0.3621621621621622,0.5028124235754463,0.6296703296703297,0.4381833473507149,1194.0
686.0,1.710926584649234e+18,0.4856396866840731,0.4280821917808219,0.35027027027027025,0.49082905355832723,0.6230769230769231,0.4415475189234651,1193.0
687.0,1.710926584659237e+18,0.4830287206266319,0.4360730593607306,0.38432432432432434,0.4991440449987772,0.6274725274725275,0.43902439024390244,1193.0
688.0,1.7109265846692362e+18,0.46736292428198434,0.4178082191780822,0.3318918918918919,0.5013450721447786,0.6263736263736264,0.43650126156433977,1195.0
689.0,1.7109265846792353e+18,0.46866840731070497,0.4041095890410959,0.3286486486486486,0.5015896307165566,0.6186813186813187,0.4339781328847771,1192.0
690.0,1.710926584689231e+18,0.4608355091383812,0.408675799086758,0.33135135135135135,0.5025678650036683,0.6153846153846154,0.432296047098402,1192.0
691.0,1.710926584699237e+18,0.47127937336814624,0.4029680365296804,0.3162162162162162,0.4986549278552213,0.6329670329670329,0.4415475189234651,1194.0
692.0,1.7109265847092111e+18,0.4765013054830287,0.4121004566210046,0.3324324324324324,0.49645390070921985,0.6252747252747253,0.4381833473507149,1195.0
693.0,1.7109265847192346e+18,0.48172323759791125,0.4235159817351598,0.34486486486486484,0.5001222792858889,0.6285714285714286,0.4415475189234651,1194.0
694.0,1.7109265847292434e+18,0.47127937336814624,0.4189497716894977,0.33837837837837836,0.49767669356810956,0.6252747252747253,0.4381833473507149,1196.0
695.0,1.7109265847392443e+18,0.4830287206266319,0.410958904109589,0.3264864864864865,0.5037906578625581,0.6263736263736264,0.44070647603027757,1197.0
696.0,1.710926584749234e+18,0.47911227154047,0.432648401826484,0.37351351351351353,0.504524333577892,0.6395604395604395,0.44238856181665265,1194.0
697.0,1.7109265847592312e+18,0.46736292428198434,0.4063926940639269,0.32594594594594595,0.5006113964294449,0.6241758241758242,0.44070647603027757,1196.0
698.0,1.710926584769233e+18,0.4765013054830287,0.432648401826484,0.3854054054054054,0.5077035950110051,0.6186813186813187,0.43986543313709,1196.0
699.0,1.7109265847792287e+18,0.46866840731070497,0.4052511415525114,0.3254054054054054,0.4930300807043287,0.6186813186813187,0.43566021867115223,1195.0
700.0,1.7109265847892357e+18,0.47911227154047,0.4280821917808219,0.3535135135135135,0.5055025678650037,0.6208791208791209,0.4381833473507149,1194.0
701.0,1.7109265847992223e+18,0.4765013054830287,0.4143835616438356,0.3021621621621622,0.5001222792858889,0.6208791208791209,0.4373423044575273,1194.0
702.0,1.7109265848092308e+18,0.47389033942558745,0.4280821917808219,0.3427027027027027,0.5079481535827831,0.6307692307692307,0.4381833473507149,1192.0
703.0,1.7109265848192264e+18,0.4490861618798956,0.3904109589041096,0.32594594594594595,0.49767669356810956,0.6076923076923076,0.4255677039529016,1194.0
704.0,1.710926584829224e+18,0.4765013054830287,0.4075342465753425,0.3232432432432432,0.5023233064318905,0.6230769230769231,0.4381833473507149,1193.0
705.0,1.7109265848392512e+18,0.4765013054830287,0.410958904109589,0.31351351351351353,0.5025678650036683,0.6197802197802198,0.43313708999158956,1193.0
706.0,1.710926584849228e+18,0.4765013054830287,0.4132420091324201,0.3227027027027027,0.5013450721447786,0.6230769230769231,0.43566021867115223,1196.0
707.0,1.7109265848592292e+18,0.48433420365535246,0.432648401826484,0.36648648648648646,0.5062362435803375,0.6285714285714286,0.44070647603027757,1197.0
708.0,1.7109265848692283e+18,0.47780678851174935,0.4360730593607306,0.3654054054054054,0.5030569821472243,0.6285714285714286,0.4373423044575273,1195.0
709.0,1.7109265848792765e+18,0.4856396866840731,0.4383561643835616,0.35567567567567565,0.504524333577892,0.6318681318681318,0.4432296047098402,1197.0
710.0,1.710926584889238e+18,0.4765013054830287,0.4223744292237443,0.34594594594594597,0.5006113964294449,0.621978021978022,0.4381833473507149,1193.0
711.0,1.7109265848992305e+18,0.48825065274151436,0.4235159817351598,0.3535135135135135,0.5006113964294449,0.6241758241758242,0.4339781328847771,1192.0
712.0,1.710926584909233e+18,0.4751958224543081,0.4132420091324201,0.30864864864864866,0.5059916850085595,0.6329670329670329,0.43902439024390244,1194.0
713.0,1.710926584919228e+18,0.47780678851174935,0.4121004566210046,0.3410810810810811,0.49816581071166544,0.6186813186813187,0.4381833473507149,1194.0
714.0,1.7109265849292595e+18,0.47127937336814624,0.4143835616438356,0.3362162162162162,0.5025678650036683,0.6230769230769231,0.4381833473507149,1193.0
715.0,1.710926584939258e+18,0.47780678851174935,0.4143835616438356,0.3345945945945946,0.5011005135730008,0.6175824175824176,0.43902439024390244,1195.0
716.0,1.710926584949258e+18,0.4765013054830287,0.4189497716894977,0.3427027027027027,0.5050134507214478,0.6208791208791209,0.4373423044575273,1195.0
717.0,1.710926584959259e+18,0.4725848563968668,0.410958904109589,0.34,0.5015896307165566,0.6175824175824176,0.43902439024390244,1194.0
718.0,1.710926584969239e+18,0.47911227154047,0.4452054794520548,0.4243243243243243,0.5011005135730008,0.6329670329670329,0.4449116904962153,1194.0
719.0,1.7109265849792325e+18,0.4830287206266319,0.4223744292237443,0.33837837837837836,0.5008559550012228,0.6153846153846154,0.4449116904962153,1196.0
720.0,1.7109265849892324e+18,0.4699738903394256,0.408675799086758,0.33405405405405403,0.5020787478601125,0.6153846153846154,0.43650126156433977,1196.0
721.0,1.7109265849992315e+18,0.48172323759791125,0.4257990867579909,0.36486486486486486,0.5030569821472243,0.6230769230769231,0.4482758620689655,1196.0
722.0,1.7109265850092334e+18,0.48172323759791125,0.4257990867579909,0.3324324324324324,0.49816581071166544,0.5967032967032967,0.4348191757779647,1196.0
723.0,1.7109265850192584e+18,0.46736292428198434,0.4006849315068493,0.3145945945945946,0.5101491807287846,0.6186813186813187,0.4373423044575273,1196.0
724.0,1.7109265850292572e+18,0.46736292428198434,0.4063926940639269,0.31675675675675674,0.4988994864269993,0.6362637362637362,0.43902439024390244,1194.0
725.0,1.710926585039235e+18,0.47127937336814624,0.4029680365296804,0.3227027027027027,0.5025678650036683,0.6362637362637362,0.43986543313709,1196.0
726.0,1.7109265850492552e+18,0.47780678851174935,0.4063926940639269,0.3027027027027027,0.5023233064318905,0.6252747252747253,0.43902439024390244,1196.0
727.0,1.710926585059237e+18,0.46866840731070497,0.4178082191780822,0.32756756756756755,0.5025678650036683,0.6054945054945055,0.4289318755256518,1192.0
728.0,1.7109265850692372e+18,0.46344647519582244,0.4041095890410959,0.32,0.4927855221325507,0.6230769230769231,0.4373423044575273,1197.0
729.0,1.7109265850792369e+18,0.47127937336814624,0.410958904109589,0.3254054054054054,0.5008559550012228,0.621978021978022,0.4381833473507149,1194.0
730.0,1.7109265850892393e+18,0.46344647519582244,0.4006849315068493,0.3108108108108108,0.4996331621423331,0.6142857142857143,0.43566021867115223,1194.0
731.0,1.7109265850992576e+18,0.4830287206266319,0.4178082191780822,0.33135135135135135,0.504524333577892,0.6274725274725275,0.4432296047098402,1194.0
732.0,1.7109265851092454e+18,0.4869451697127937,0.4452054794520548,0.3908108108108108,0.5018341892883346,0.6274725274725275,0.4415475189234651,1196.0
733.0,1.7109265851192443e+18,0.48172323759791125,0.4269406392694064,0.37027027027027026,0.5035460992907801,0.6318681318681318,0.4482758620689655,1195.0
734.0,1.7109265851292483e+18,0.48172323759791125,0.4189497716894977,0.3254054054054054,0.49938860357055515,0.6351648351648351,0.4432296047098402,1195.0
735.0,1.7109265851392207e+18,0.4869451697127937,0.4246575342465753,0.33945945945945943,0.5015896307165566,0.6032967032967033,0.4373423044575273,1195.0
736.0,1.7109265851492526e+18,0.47127937336814624,0.408675799086758,0.3162162162162162,0.499877720714111,0.6230769230769231,0.43650126156433977,1194.0
737.0,1.710926585159251e+18,0.4725848563968668,0.3995433789954338,0.3043243243243243,0.5018341892883346,0.6230769230769231,0.43650126156433977,1196.0
738.0,1.7109265851692477e+18,0.46866840731070497,0.4018264840182648,0.32756756756756755,0.499877720714111,0.6208791208791209,0.4373423044575273,1195.0
739.0,1.7109265851792376e+18,0.4699738903394256,0.4052511415525114,0.3286486486486486,0.4988994864269993,0.6186813186813187,0.4314550042052145,1192.0
740.0,1.710926585189249e+18,0.4830287206266319,0.4429223744292237,0.3621621621621622,0.5025678650036683,0.6274725274725275,0.44070647603027757,1194.0
741.0,1.7109265851992563e+18,0.4908616187989556,0.4646118721461187,0.4205405405405405,0.5094155050134507,0.6538461538461539,0.44575273338940286,1196.0
742.0,1.7109265852092498e+18,0.4765013054830287,0.4223744292237443,0.3291891891891892,0.5035460992907801,0.610989010989011,0.4339781328847771,1194.0
743.0,1.7109265852192407e+18,0.48825065274151436,0.4554794520547945,0.43729729729729727,0.5072144778674492,0.6428571428571429,0.4432296047098402,1196.0
744.0,1.710926585229242e+18,0.46866840731070497,0.4098173515981735,0.3335135135135135,0.4986549278552213,0.6175824175824176,0.4415475189234651,1197.0
745.0,1.7109265852392202e+18,0.4765013054830287,0.410958904109589,0.3178378378378378,0.5062362435803375,0.6274725274725275,0.4381833473507149,1195.0
746.0,1.7109265852492393e+18,0.4804177545691906,0.4383561643835616,0.37351351351351353,0.49767669356810956,0.6230769230769231,0.43902439024390244,1196.0
747.0,1.710926585259231e+18,0.4725848563968668,0.4132420091324201,0.3248648648648649,0.4988994864269993,0.6164835164835165,0.4339781328847771,1192.0
748.0,1.7109265852692042e+18,0.4765013054830287,0.4178082191780822,0.3389189189189189,0.49767669356810956,0.6230769230769231,0.4432296047098402,1197.0
749.0,1.7109265852792364e+18,0.4830287206266319,0.432648401826484,0.3654054054054054,0.5030569821472243,0.6241758241758242,0.43986543313709,1193.0
750.0,1.7109265852892434e+18,0.46866840731070497,0.4189497716894977,0.3345945945945946,0.504279775006114,0.6241758241758242,0.4381833473507149,1194.0
751.0,1.7109265852992394e+18,0.47127937336814624,0.4155251141552511,0.34162162162162163,0.5055025678650037,0.6296703296703297,0.44070647603027757,1194.0
752.0,1.710926585309223e+18,0.46866840731070497,0.4052511415525114,0.33135135135135135,0.5018341892883346,0.6208791208791209,0.43986543313709,1194.0
753.0,1.710926585319231e+18,0.4869451697127937,0.4440639269406393,0.3783783783783784,0.4974321349963316,0.6296703296703297,0.4415475189234651,1196.0
754.0,1.7109265853292383e+18,0.4804177545691906,0.4041095890410959,0.32216216216216215,0.5035460992907801,0.6230769230769231,0.4415475189234651,1194.0
755.0,1.710926585339237e+18,0.47780678851174935,0.4063926940639269,0.3227027027027027,0.5062362435803375,0.6153846153846154,0.4381833473507149,1194.0
756.0,1.7109265853492365e+18,0.47389033942558745,0.4178082191780822,0.3281081081081081,0.495720224993886,0.6230769230769231,0.4381833473507149,1196.0
757.0,1.710926585359236e+18,0.4765013054830287,0.410958904109589,0.33297297297297296,0.5015896307165566,0.6241758241758242,0.43566021867115223,1192.0
758.0,1.7109265853692367e+18,0.47780678851174935,0.4121004566210046,0.30648648648648646,0.5030569821472243,0.6208791208791209,0.43566021867115223,1194.0
759.0,1.7109265853792172e+18,0.49216710182767626,0.4406392694063927,0.372972972972973,0.5001222792858889,0.6274725274725275,0.44238856181665265,1196.0
760.0,1.7109265853892344e+18,0.4765013054830287,0.4166666666666667,0.34378378378378377,0.5023233064318905,0.6274725274725275,0.44575273338940286,1195.0
761.0,1.7109265853992369e+18,0.47127937336814624,0.4075342465753425,0.32972972972972975,0.5006113964294449,0.6054945054945055,0.43650126156433977,1196.0
762.0,1.71092658540919e+18,0.4830287206266319,0.408675799086758,0.3016216216216216,0.5037906578625581,0.6285714285714286,0.4415475189234651,1197.0
763.0,1.7109265854192248e+18,0.46736292428198434,0.4041095890410959,0.3248648648648649,0.5015896307165566,0.6274725274725275,0.43902439024390244,1197.0
764.0,1.7109265854292255e+18,0.4660574412532637,0.3972602739726027,0.30972972972972973,0.499877720714111,0.6362637362637362,0.4348191757779647,1196.0
765.0,1.7109265854392294e+18,0.4765013054830287,0.408675799086758,0.32,0.49474199070677427,0.6197802197802198,0.4381833473507149,1195.0
766.0,1.7109265854492242e+18,0.4765013054830287,0.410958904109589,0.30864864864864866,0.504524333577892,0.6230769230769231,0.43313708999158956,1195.0
767.0,1.7109265854592348e+18,0.48172323759791125,0.4292237442922374,0.3583783783783784,0.5015896307165566,0.6230769230769231,0.4415475189234651,1196.0
768.0,1.710926585469226e+18,0.4660574412532637,0.3984018264840183,0.3281081081081081,0.5023233064318905,0.6186813186813187,0.4339781328847771,1194.0
769.0,1.710926585479235e+18,0.4699738903394256,0.4041095890410959,0.31567567567567567,0.5037906578625581,0.6230769230769231,0.4381833473507149,1194.0
770.0,1.710926585489228e+18,0.48172323759791125,0.4018264840182648,0.30648648648648646,0.4991440449987772,0.6197802197802198,0.4381833473507149,1192.0
771.0,1.7109265854992238e+18,0.47911227154047,0.4132420091324201,0.3237837837837838,0.5025678650036683,0.6208791208791209,0.43566021867115223,1195.0
772.0,1.7109265855092278e+18,0.47911227154047,0.4155251141552511,0.3178378378378378,0.5008559550012228,0.621978021978022,0.4348191757779647,1195.0
773.0,1.7109265855192282e+18,0.4751958224543081,0.4075342465753425,0.31675675675675674,0.4991440449987772,0.6241758241758242,0.4373423044575273,1197.0
774.0,1.7109265855292244e+18,0.4830287206266319,0.4223744292237443,0.3237837837837838,0.5025678650036683,0.6252747252747253,0.4415475189234651,1195.0
775.0,1.7109265855392228e+18,0.4765013054830287,0.4132420091324201,0.3345945945945946,0.49400831499144043,0.6197802197802198,0.4381833473507149,1195.0
776.0,1.710926585549224e+18,0.4765013054830287,0.4200913242009132,0.36,0.5035460992907801,0.6252747252747253,0.4381833473507149,1195.0
777.0,1.7109265855592246e+18,0.4804177545691906,0.4246575342465753,0.35405405405405405,0.5064808021521154,0.6241758241758242,0.4381833473507149,1194.0
778.0,1.7109265855692252e+18,0.46344647519582244,0.4223744292237443,0.3335135135135135,0.499877720714111,0.6142857142857143,0.4339781328847771,1191.0
779.0,1.71092658557922e+18,0.47127937336814624,0.4052511415525114,0.3227027027027027,0.5008559550012228,0.6274725274725275,0.4381833473507149,1195.0
780.0,1.7109265855892173e+18,0.4765013054830287,0.4132420091324201,0.3362162162162162,0.5003668378576669,0.6285714285714286,0.43986543313709,1195.0
781.0,1.7109265855992238e+18,0.4725848563968668,0.410958904109589,0.3389189189189189,0.5025678650036683,0.6296703296703297,0.44238856181665265,1194.0
782.0,1.7109265856092252e+18,0.48433420365535246,0.408675799086758,0.32054054054054054,0.5025678650036683,0.6175824175824176,0.432296047098402,1195.0
783.0,1.7109265856192369e+18,0.4765013054830287,0.4098173515981735,0.33513513513513515,0.5013450721447786,0.6285714285714286,0.44238856181665265,1196.0
784.0,1.7109265856292372e+18,0.4869451697127937,0.4372146118721461,0.39297297297297296,0.504524333577892,0.6274725274725275,0.4381833473507149,1196.0
785.0,1.7109265856392205e+18,0.4660574412532637,0.408675799086758,0.3372972972972973,0.49938860357055515,0.6241758241758242,0.43650126156433977,1194.0
786.0,1.7109265856492255e+18,0.4765013054830287,0.4132420091324201,0.3281081081081081,0.5025678650036683,0.6329670329670329,0.4373423044575273,1194.0
787.0,1.710926585659225e+18,0.4830287206266319,0.4337899543378995,0.3681081081081081,0.5084372707263389,0.6373626373626373,0.4449116904962153,1196.0
788.0,1.7109265856692224e+18,0.46866840731070497,0.4143835616438356,0.3497297297297297,0.49938860357055515,0.6043956043956044,0.43566021867115223,1193.0
789.0,1.7109265856792259e+18,0.4934725848563969,0.4292237442922374,0.3427027027027027,0.5025678650036683,0.6318681318681318,0.4449116904962153,1195.0
790.0,1.710926585689225e+18,0.47389033942558745,0.4166666666666667,0.32594594594594595,0.49058449498654927,0.6274725274725275,0.4381833473507149,1193.0
791.0,1.710926585699225e+18,0.4765013054830287,0.4132420091324201,0.3237837837837838,0.5069699192956714,0.6274725274725275,0.4415475189234651,1195.0
792.0,1.7109265857092278e+18,0.47780678851174935,0.4098173515981735,0.34702702702702704,0.4988994864269993,0.621978021978022,0.43986543313709,1196.0
793.0,1.7109265857192271e+18,0.4699738903394256,0.3938356164383562,0.29783783783783785,0.4925409635607728,0.6175824175824176,0.4381833473507149,1195.0
794.0,1.7109265857292288e+18,0.4699738903394256,0.3949771689497717,0.3037837837837838,0.5028124235754463,0.6274725274725275,0.43902439024390244,1194.0
795.0,1.7109265857392225e+18,0.48433420365535246,0.4463470319634703,0.3935135135135135,0.504524333577892,0.6274725274725275,0.4381833473507149,1196.0
796.0,1.7109265857492257e+18,0.47127937336814624,0.4143835616438356,0.3324324324324324,0.5050134507214478,0.6175824175824176,0.43313708999158956,1193.0
797.0,1.7109265857592256e+18,0.4660574412532637,0.3949771689497717,0.32756756756756755,0.495964783565664,0.6197802197802198,0.4348191757779647,1196.0
798.0,1.710926585769226e+18,0.4660574412532637,0.4121004566210046,0.31675675675675674,0.5077035950110051,0.6274725274725275,0.43650126156433977,1194.0
799.0,1.7109265857792422e+18,0.4621409921671018,0.4075342465753425,0.35405405405405405,0.5047688921496698,0.6274725274725275,0.4381833473507149,1197.0
800.0,1.7109265857892227e+18,0.47780678851174935,0.4212328767123288,0.3237837837837838,0.5037906578625581,0.6373626373626373,0.4415475189234651,1196.0
801.0,1.7109265857992256e+18,0.48172323759791125,0.4235159817351598,0.34702702702702704,0.5023233064318905,0.6131868131868132,0.43566021867115223,1195.0
802.0,1.710926585809225e+18,0.47911227154047,0.4315068493150685,0.37891891891891893,0.5055025678650037,0.6329670329670329,0.43650126156433977,1194.0
803.0,1.710926585819226e+18,0.47780678851174935,0.4155251141552511,0.31513513513513514,0.5018341892883346,0.6241758241758242,0.4415475189234651,1193.0
804.0,1.7109265858292337e+18,0.4869451697127937,0.4269406392694064,0.3264864864864865,0.5047688921496698,0.6351648351648351,0.4415475189234651,1195.0
805.0,1.7109265858392205e+18,0.4725848563968668,0.4143835616438356,0.33945945945945943,0.5050134507214478,0.6274725274725275,0.43902439024390244,1197.0
806.0,1.7109265858492344e+18,0.46344647519582244,0.4041095890410959,0.31891891891891894,0.49767669356810956,0.6263736263736264,0.43650126156433977,1196.0
807.0,1.7109265858592177e+18,0.48172323759791125,0.4121004566210046,0.3254054054054054,0.49229640498899485,0.6296703296703297,0.4415475189234651,1196.0
808.0,1.710926585869239e+18,0.4765013054830287,0.4132420091324201,0.3216216216216216,0.5023233064318905,0.634065934065934,0.4432296047098402,1195.0
809.0,1.710926585879225e+18,0.48433420365535246,0.4337899543378995,0.36864864864864866,0.5077035950110051,0.6274725274725275,0.43902439024390244,1197.0
810.0,1.7109265858892244e+18,0.4765013054830287,0.4178082191780822,0.31945945945945947,0.5055025678650037,0.6274725274725275,0.4415475189234651,1195.0
811.0,1.7109265858992356e+18,0.4765013054830287,0.4155251141552511,0.3362162162162162,0.5020787478601125,0.6241758241758242,0.43902439024390244,1194.0
812.0,1.7109265859092398e+18,0.47389033942558745,0.4098173515981735,0.32,0.49816581071166544,0.6230769230769231,0.4373423044575273,1194.0
813.0,1.7109265859192381e+18,0.4765013054830287,0.4200913242009132,0.3210810810810811,0.504035216434336,0.6241758241758242,0.44238856181665265,1193.0
814.0,1.710926585929221e+18,0.47127937336814624,0.408675799086758,0.3248648648648649,0.5059916850085595,0.6285714285714286,0.43650126156433977,1193.0
815.0,1.7109265859392146e+18,0.4765013054830287,0.4075342465753425,0.3232432432432432,0.5059916850085595,0.6164835164835165,0.4381833473507149,1196.0
816.0,1.7109265859492403e+18,0.46475195822454307,0.4235159817351598,0.37027027027027026,0.5030569821472243,0.6241758241758242,0.43986543313709,1196.0
817.0,1.7109265859592146e+18,0.4765013054830287,0.4280821917808219,0.3745945945945946,0.5084372707263389,0.6274725274725275,0.43902439024390244,1195.0
818.0,1.7109265859692196e+18,0.46866840731070497,0.4052511415525114,0.31513513513513514,0.5035460992907801,0.6197802197802198,0.4381833473507149,1195.0
819.0,1.7109265859792177e+18,0.47911227154047,0.4132420091324201,0.3183783783783784,0.49033993641477136,0.6197802197802198,0.4381833473507149,1196.0
820.0,1.710926585989216e+18,0.46866840731070497,0.408675799086758,0.3302702702702703,0.4991440449987772,0.6208791208791209,0.43566021867115223,1196.0
821.0,1.710926585999218e+18,0.4751958224543081,0.4143835616438356,0.3302702702702703,0.5018341892883346,0.6208791208791209,0.4440706476030278,1195.0
822.0,1.7109265860092232e+18,0.4621409921671018,0.4406392694063927,0.37513513513513513,0.5057471264367817,0.6263736263736264,0.4339781328847771,1192.0
823.0,1.710926586019211e+18,0.4830287206266319,0.4360730593607306,0.38756756756756755,0.5047688921496698,0.6296703296703297,0.4415475189234651,1195.0
824.0,1.7109265860292127e+18,0.4725848563968668,0.4155251141552511,0.34594594594594597,0.491562729273661,0.6241758241758242,0.43650126156433977,1197.0
825.0,1.7109265860392305e+18,0.4699738903394256,0.4155251141552511,0.3372972972972973,0.5055025678650037,0.6318681318681318,0.4381833473507149,1193.0
826.0,1.7109265860492221e+18,0.47911227154047,0.4178082191780822,0.3216216216216216,0.49767669356810956,0.6241758241758242,0.43313708999158956,1195.0
827.0,1.710926586059224e+18,0.48172323759791125,0.4155251141552511,0.3216216216216216,0.5015896307165566,0.621978021978022,0.4373423044575273,1197.0
828.0,1.710926586069217e+18,0.4725848563968668,0.3995433789954338,0.3254054054054054,0.49938860357055515,0.6241758241758242,0.4373423044575273,1195.0
829.0,1.7109265860792192e+18,0.48172323759791125,0.4337899543378995,0.37243243243243246,0.5057471264367817,0.6285714285714286,0.4465937762825904,1196.0
830.0,1.710926586089215e+18,0.4660574412532637,0.4143835616438356,0.3264864864864865,0.4984103692834434,0.6241758241758242,0.43566021867115223,1193.0
831.0,1.7109265860992233e+18,0.48172323759791125,0.4292237442922374,0.3643243243243243,0.5059916850085595,0.6230769230769231,0.4381833473507149,1195.0
832.0,1.7109265861092147e+18,0.47127937336814624,0.4132420091324201,0.31567567567567567,0.49327463927610665,0.6175824175824176,0.43566021867115223,1196.0
833.0,1.7109265861192164e+18,0.4804177545691906,0.432648401826484,0.3362162162162162,0.5113719735876743,0.621978021978022,0.44238856181665265,1193.0
834.0,1.7109265861292168e+18,0.4830287206266319,0.4041095890410959,0.3210810810810811,0.5015896307165566,0.634065934065934,0.4339781328847771,1192.0
835.0,1.7109265861392146e+18,0.4751958224543081,0.3972602739726027,0.30594594594594593,0.5003668378576669,0.6131868131868132,0.43650126156433977,1195.0
836.0,1.7109265861492178e+18,0.47780678851174935,0.4098173515981735,0.3286486486486486,0.504524333577892,0.6252747252747253,0.4415475189234651,1196.0
837.0,1.710926586159215e+18,0.4856396866840731,0.4269406392694064,0.34594594594594597,0.504524333577892,0.610989010989011,0.43902439024390244,1196.0
838.0,1.7109265861692055e+18,0.47780678851174935,0.3961187214611872,0.31567567567567567,0.5020787478601125,0.6241758241758242,0.4415475189234651,1196.0
839.0,1.710926586179206e+18,0.4830287206266319,0.4497716894977169,0.40540540540540543,0.5057471264367817,0.6241758241758242,0.4432296047098402,1197.0
840.0,1.7109265861892122e+18,0.46736292428198434,0.4052511415525114,0.31945945945945947,0.5050134507214478,0.6274725274725275,0.43986543313709,1198.0
841.0,1.7109265861992323e+18,0.4621409921671018,0.4075342465753425,0.3372972972972973,0.5008559550012228,0.6043956043956044,0.4339781328847771,1194.0
842.0,1.710926586209217e+18,0.4725848563968668,0.4029680365296804,0.31351351351351353,0.5074590364392272,0.6329670329670329,0.44238856181665265,1197.0
843.0,1.7109265862192187e+18,0.46866840731070497,0.4063926940639269,0.31513513513513514,0.4986549278552213,0.6186813186813187,0.4415475189234651,1196.0
844.0,1.7109265862291894e+18,0.4660574412532637,0.410958904109589,0.3345945945945946,0.5003668378576669,0.6230769230769231,0.43902439024390244,1196.0
845.0,1.7109265862392184e+18,0.4765013054830287,0.4200913242009132,0.34324324324324323,0.5035460992907801,0.6263736263736264,0.4381833473507149,1195.0
846.0,1.7109265862492244e+18,0.4725848563968668,0.3949771689497717,0.2772972972972973,0.5028124235754463,0.6252747252747253,0.44238856181665265,1194.0
847.0,1.7109265862592223e+18,0.4751958224543081,0.4041095890410959,0.3091891891891892,0.49400831499144043,0.6142857142857143,0.43902439024390244,1194.0
848.0,1.7109265862692227e+18,0.47127937336814624,0.3858447488584475,0.31513513513513514,0.4996331621423331,0.6164835164835165,0.4348191757779647,1195.0
849.0,1.710926586279217e+18,0.4765013054830287,0.4189497716894977,0.3178378378378378,0.4954756664221081,0.6274725274725275,0.43902439024390244,1195.0
850.0,1.710926586289228e+18,0.47780678851174935,0.4121004566210046,0.3237837837837838,0.5018341892883346,0.6252747252747253,0.4373423044575273,1193.0
851.0,1.710926586299218e+18,0.45822454308093996,0.3949771689497717,0.3091891891891892,0.495964783565664,0.6131868131868132,0.4314550042052145,1194.0
852.0,1.7109265863092088e+18,0.46866840731070497,0.4052511415525114,0.3362162162162162,0.49498654927855223,0.6197802197802198,0.4348191757779647,1197.0
853.0,1.7109265863192108e+18,0.4621409921671018,0.4075342465753425,0.3308108108108108,0.49767669356810956,0.6252747252747253,0.43986543313709,1193.0
854.0,1.7109265863292134e+18,0.47780678851174935,0.4132420091324201,0.3178378378378378,0.5020787478601125,0.6197802197802198,0.4339781328847771,1192.0
855.0,1.7109265863392136e+18,0.4804177545691906,0.4383561643835616,0.3908108108108108,0.5030569821472243,0.6318681318681318,0.44575273338940286,1194.0
856.0,1.710926586349216e+18,0.4765013054830287,0.4178082191780822,0.33837837837837836,0.4942528735632184,0.6318681318681318,0.43986543313709,1195.0
857.0,1.7109265863592125e+18,0.4765013054830287,0.4155251141552511,0.33945945945945943,0.5006113964294449,0.6076923076923076,0.43986543313709,1195.0
858.0,1.7109265863692155e+18,0.47911227154047,0.4360730593607306,0.3605405405405405,0.5047688921496698,0.6318681318681318,0.4415475189234651,1196.0
859.0,1.7109265863792146e+18,0.4804177545691906,0.4132420091324201,0.3318918918918919,0.5006113964294449,0.6263736263736264,0.4415475189234651,1197.0
860.0,1.7109265863892147e+18,0.48172323759791125,0.3995433789954338,0.30486486486486486,0.49645390070921985,0.6120879120879121,0.4373423044575273,1195.0
861.0,1.7109265863992215e+18,0.47780678851174935,0.4052511415525114,0.3210810810810811,0.5020787478601125,0.6241758241758242,0.4381833473507149,1194.0
862.0,1.710926586409218e+18,0.4751958224543081,0.4052511415525114,0.31675675675675674,0.4913181707018831,0.6208791208791209,0.43986543313709,1194.0
863.0,1.710926586419212e+18,0.47911227154047,0.4143835616438356,0.3335135135135135,0.5015896307165566,0.6186813186813187,0.43566021867115223,1193.0
864.0,1.710926586429215e+18,0.4660574412532637,0.4041095890410959,0.32594594594594595,0.5028124235754463,0.6175824175824176,0.4381833473507149,1194.0
865.0,1.7109265864392123e+18,0.47389033942558745,0.4052511415525114,0.3362162162162162,0.5028124235754463,0.6230769230769231,0.4348191757779647,1196.0
866.0,1.7109265864492124e+18,0.4765013054830287,0.4052511415525114,0.3075675675675676,0.5030569821472243,0.6263736263736264,0.43986543313709,1196.0
867.0,1.7109265864592128e+18,0.4725848563968668,0.4166666666666667,0.3308108108108108,0.504524333577892,0.6329670329670329,0.43986543313709,1194.0
868.0,1.7109265864692265e+18,0.4556135770234987,0.3995433789954338,0.3254054054054054,0.5006113964294449,0.6164835164835165,0.4339781328847771,1194.0
869.0,1.7109265864792392e+18,0.4804177545691906,0.4178082191780822,0.3308108108108108,0.4996331621423331,0.6197802197802198,0.4381833473507149,1196.0
870.0,1.710926586489211e+18,0.4660574412532637,0.410958904109589,0.33135135135135135,0.4944974321349963,0.6241758241758242,0.43566021867115223,1194.0
871.0,1.7109265864992297e+18,0.4908616187989556,0.4315068493150685,0.3583783783783784,0.4974321349963316,0.6208791208791209,0.4415475189234651,1196.0
872.0,1.7109265865092083e+18,0.46475195822454307,0.4155251141552511,0.3248648648648649,0.5064808021521154,0.6274725274725275,0.4373423044575273,1195.0
873.0,1.710926586519215e+18,0.4765013054830287,0.4075342465753425,0.31945945945945947,0.5006113964294449,0.6142857142857143,0.4381833473507149,1197.0
874.0,1.7109265865292142e+18,0.4660574412532637,0.4155251141552511,0.34054054054054056,0.5052580092932257,0.6274725274725275,0.43313708999158956,1192.0
875.0,1.7109265865392115e+18,0.46866840731070497,0.4098173515981735,0.3324324324324324,0.49938860357055515,0.6186813186813187,0.43566021867115223,1196.0
876.0,1.7109265865492342e+18,0.4765013054830287,0.4235159817351598,0.3589189189189189,0.4986549278552213,0.6164835164835165,0.4373423044575273,1195.0
877.0,1.7109265865592207e+18,0.4699738903394256,0.4143835616438356,0.34324324324324323,0.5006113964294449,0.6230769230769231,0.43902439024390244,1194.0
878.0,1.7109265865692137e+18,0.47780678851174935,0.4132420091324201,0.31891891891891894,0.504035216434336,0.6274725274725275,0.4415475189234651,1196.0
879.0,1.7109265865792187e+18,0.46736292428198434,0.4063926940639269,0.3324324324324324,0.4954756664221081,0.6164835164835165,0.4381833473507149,1197.0
880.0,1.7109265865892193e+18,0.4699738903394256,0.410958904109589,0.3362162162162162,0.5067253607238934,0.6230769230769231,0.432296047098402,1194.0
881.0,1.7109265865992253e+18,0.46344647519582244,0.4041095890410959,0.3302702702702703,0.4986549278552213,0.610989010989011,0.4373423044575273,1195.0
882.0,1.7109265866092132e+18,0.48172323759791125,0.4200913242009132,0.3708108108108108,0.5015896307165566,0.6230769230769231,0.43566021867115223,1195.0
883.0,1.7109265866192172e+18,0.4660574412532637,0.3995433789954338,0.31135135135135134,0.5015896307165566,0.6241758241758242,0.4381833473507149,1196.0
884.0,1.7109265866292165e+18,0.47127937336814624,0.3995433789954338,0.3075675675675676,0.5020787478601125,0.6230769230769231,0.43986543313709,1196.0
885.0,1.710926586639235e+18,0.4516971279373368,0.3881278538812785,0.31567567567567567,0.5037906578625581,0.6230769230769231,0.43650126156433977,1196.0
886.0,1.710926586649224e+18,0.47127937336814624,0.3984018264840183,0.28594594594594597,0.5057471264367817,0.6395604395604395,0.4415475189234651,1197.0
887.0,1.7109265866592115e+18,0.47127937336814624,0.4121004566210046,0.3318918918918919,0.5037906578625581,0.6274725274725275,0.44238856181665265,1197.0
888.0,1.710926586669214e+18,0.47911227154047,0.4269406392694064,0.3518918918918919,0.4971875764245537,0.6241758241758242,0.43650126156433977,1195.0
889.0,1.7109265866792202e+18,0.47127937336814624,0.4178082191780822,0.34864864864864864,0.49400831499144043,0.6230769230769231,0.43986543313709,1195.0
890.0,1.710926586689227e+18,0.47389033942558745,0.4189497716894977,0.3567567567567568,0.504035216434336,0.621978021978022,0.4415475189234651,1193.0
891.0,1.7109265866992212e+18,0.46475195822454307,0.4075342465753425,0.32972972972972975,0.49767669356810956,0.6164835164835165,0.43313708999158956,1192.0
892.0,1.710926586709217e+18,0.4869451697127937,0.4189497716894977,0.34054054054054056,0.5015896307165566,0.6252747252747253,0.4415475189234651,1198.0
893.0,1.7109265867192148e+18,0.46475195822454307,0.4041095890410959,0.33405405405405403,0.5008559550012228,0.6175824175824176,0.4348191757779647,1196.0
894.0,1.7109265867292183e+18,0.4725848563968668,0.4098173515981735,0.32972972972972975,0.5003668378576669,0.6318681318681318,0.4381833473507149,1196.0
895.0,1.71092658673923e+18,0.47911227154047,0.4178082191780822,0.3491891891891892,0.4969430178527757,0.6241758241758242,0.4348191757779647,1195.0
896.0,1.71092658674923e+18,0.47389033942558745,0.4132420091324201,0.3232432432432432,0.5003668378576669,0.6274725274725275,0.4381833473507149,1195.0
897.0,1.7109265867592136e+18,0.4765013054830287,0.410958904109589,0.3308108108108108,0.504035216434336,0.6296703296703297,0.4415475189234651,1195.0
898.0,1.710926586769199e+18,0.47911227154047,0.4006849315068493,0.312972972972973,0.504524333577892,0.6065934065934065,0.43650126156433977,1196.0
899.0,1.7109265867792207e+18,0.47911227154047,0.4235159817351598,0.34378378378378377,0.5001222792858889,0.6241758241758242,0.4449116904962153,1196.0
900.0,1.7109265867892214e+18,0.4725848563968668,0.4063926940639269,0.32972972972972975,0.504035216434336,0.6186813186813187,0.43650126156433977,1196.0
901.0,1.7109265867992271e+18,0.46475195822454307,0.4052511415525114,0.33135135135135135,0.5001222792858889,0.6175824175824176,0.4348191757779647,1197.0
902.0,1.7109265868092214e+18,0.47911227154047,0.4212328767123288,0.3621621621621622,0.5028124235754463,0.6274725274725275,0.4381833473507149,1196.0
903.0,1.7109265868192184e+18,0.4765013054830287,0.4166666666666667,0.33945945945945943,0.5025678650036683,0.6197802197802198,0.4348191757779647,1197.0
904.0,1.7109265868292193e+18,0.47127937336814624,0.4063926940639269,0.32216216216216215,0.5015896307165566,0.6318681318681318,0.43986543313709,1197.0
905.0,1.7109265868392187e+18,0.47911227154047,0.4143835616438356,0.33405405405405403,0.5035460992907801,0.6098901098901099,0.43902439024390244,1195.0
906.0,1.7109265868492188e+18,0.48825065274151436,0.4235159817351598,0.3324324324324324,0.5057471264367817,0.6329670329670329,0.4415475189234651,1196.0
907.0,1.7109265868592207e+18,0.47911227154047,0.4269406392694064,0.35405405405405405,0.5079481535827831,0.6274725274725275,0.44238856181665265,1197.0
908.0,1.710926586869221e+18,0.47127937336814624,0.410958904109589,0.3286486486486486,0.5015896307165566,0.6241758241758242,0.4381833473507149,1196.0
909.0,1.7109265868792212e+18,0.46475195822454307,0.3995433789954338,0.3345945945945946,0.4991440449987772,0.6142857142857143,0.43313708999158956,1194.0
910.0,1.710926586889222e+18,0.46736292428198434,0.3995433789954338,0.3227027027027027,0.5001222792858889,0.6230769230769231,0.4381833473507149,1193.0
911.0,1.7109265868991905e+18,0.48172323759791125,0.410958904109589,0.3302702702702703,0.48740523355343607,0.6131868131868132,0.4415475189234651,1195.0
912.0,1.7109265869092224e+18,0.47127937336814624,0.4223744292237443,0.3410810810810811,0.4966984592809978,0.6054945054945055,0.4289318755256518,1193.0
913.0,1.7109265869192023e+18,0.47911227154047,0.4178082191780822,0.3518918918918919,0.5023233064318905,0.6274725274725275,0.43902439024390244,1193.0
914.0,1.7109265869292268e+18,0.47389033942558745,0.4257990867579909,0.3362162162162162,0.5033015407190022,0.6230769230769231,0.4415475189234651,1195.0
915.0,1.7109265869392233e+18,0.4869451697127937,0.4315068493150685,0.3356756756756757,0.5064808021521154,0.6296703296703297,0.4432296047098402,1194.0
916.0,1.7109265869492247e+18,0.47911227154047,0.4235159817351598,0.35135135135135137,0.504279775006114,0.6296703296703297,0.4449116904962153,1197.0
917.0,1.710926586959223e+18,0.4751958224543081,0.410958904109589,0.3318918918918919,0.5025678650036683,0.6307692307692307,0.44238856181665265,1194.0
918.0,1.7109265869692234e+18,0.4699738903394256,0.4132420091324201,0.3264864864864865,0.5057471264367817,0.6186813186813187,0.43566021867115223,1194.0
919.0,1.7109265869792243e+18,0.48172323759791125,0.4235159817351598,0.3535135135135135,0.504035216434336,0.634065934065934,0.4482758620689655,1194.0
920.0,1.7109265869892275e+18,0.4765013054830287,0.4143835616438356,0.3308108108108108,0.5015896307165566,0.6208791208791209,0.43566021867115223,1196.0
921.0,1.7109265869992259e+18,0.47780678851174935,0.4041095890410959,0.3091891891891892,0.495720224993886,0.6274725274725275,0.44238856181665265,1196.0
922.0,1.710926587009226e+18,0.47911227154047,0.408675799086758,0.32,0.5025678650036683,0.6120879120879121,0.42977291841883936,1194.0
923.0,1.710926587019245e+18,0.48172323759791125,0.4235159817351598,0.35081081081081084,0.5023233064318905,0.6285714285714286,0.43902439024390244,1196.0
924.0,1.7109265870292285e+18,0.4765013054830287,0.4223744292237443,0.3362162162162162,0.4996331621423331,0.6285714285714286,0.4415475189234651,1194.0
925.0,1.7109265870392266e+18,0.47780678851174935,0.4132420091324201,0.3145945945945946,0.5020787478601125,0.6274725274725275,0.4432296047098402,1192.0
926.0,1.7109265870492273e+18,0.47127937336814624,0.4041095890410959,0.312972972972973,0.5028124235754463,0.6230769230769231,0.43650126156433977,1195.0
927.0,1.7109265870592397e+18,0.46736292428198434,0.4006849315068493,0.3210810810810811,0.5028124235754463,0.6241758241758242,0.43650126156433977,1195.0
928.0,1.7109265870692283e+18,0.48433420365535246,0.4075342465753425,0.29567567567567565,0.5001222792858889,0.6186813186813187,0.4314550042052145,1192.0
929.0,1.7109265870792282e+18,0.47780678851174935,0.4178082191780822,0.32972972972972975,0.4979212521398875,0.6274725274725275,0.4440706476030278,1194.0
930.0,1.7109265870892288e+18,0.4660574412532637,0.408675799086758,0.32972972972972975,0.49816581071166544,0.6230769230769231,0.43902439024390244,1192.0
931.0,1.7109265870992118e+18,0.48172323759791125,0.4178082191780822,0.327027027027027,0.5020787478601125,0.6329670329670329,0.4381833473507149,1195.0
932.0,1.71092658710923e+18,0.4830287206266319,0.4132420091324201,0.3162162162162162,0.5064808021521154,0.6351648351648351,0.4381833473507149,1195.0
933.0,1.710926587119235e+18,0.47780678851174935,0.4132420091324201,0.3302702702702703,0.5011005135730008,0.6197802197802198,0.43902439024390244,1193.0
934.0,1.710926587129205e+18,0.46736292428198434,0.4052511415525114,0.3232432432432432,0.5030569821472243,0.621978021978022,0.4314550042052145,1192.0
935.0,1.7109265871392072e+18,0.4765013054830287,0.4041095890410959,0.32054054054054054,0.5047688921496698,0.6252747252747253,0.4381833473507149,1194.0
936.0,1.7109265871492137e+18,0.4765013054830287,0.410958904109589,0.3281081081081081,0.5047688921496698,0.6274725274725275,0.43986543313709,1196.0
937.0,1.7109265871592138e+18,0.4660574412532637,0.4098173515981735,0.33945945945945943,0.4888725849841037,0.6230769230769231,0.43650126156433977,1194.0
938.0,1.7109265871692147e+18,0.47780678851174935,0.410958904109589,0.32432432432432434,0.5015896307165566,0.6230769230769231,0.4381833473507149,1195.0
939.0,1.7109265871792143e+18,0.47780678851174935,0.4178082191780822,0.32216216216216215,0.5028124235754463,0.6230769230769231,0.43650126156433977,1195.0
940.0,1.710926587189381e+18,0.4725848563968668,0.410958904109589,0.3291891891891892,0.5020787478601125,0.6318681318681318,0.43902439024390244,1196.0
941.0,1.7109265871992164e+18,0.4830287206266319,0.4360730593607306,0.3891891891891892,0.5069699192956714,0.6285714285714286,0.44238856181665265,1196.0
942.0,1.7109265872092388e+18,0.47127937336814624,0.4075342465753425,0.33675675675675676,0.5025678650036683,0.6252747252747253,0.43650126156433977,1194.0
943.0,1.710926587219195e+18,0.4869451697127937,0.4155251141552511,0.3291891891891892,0.5015896307165566,0.6153846153846154,0.4381833473507149,1194.0
944.0,1.7109265872291889e+18,0.47127937336814624,0.3995433789954338,0.31945945945945947,0.5006113964294449,0.6241758241758242,0.4381833473507149,1196.0
945.0,1.7109265872392212e+18,0.47780678851174935,0.4132420091324201,0.3227027027027027,0.5047688921496698,0.6252747252747253,0.43902439024390244,1194.0
946.0,1.710926587249221e+18,0.47911227154047,0.4269406392694064,0.3567567567567568,0.49816581071166544,0.6164835164835165,0.4381833473507149,1196.0
947.0,1.7109265872592202e+18,0.4765013054830287,0.4292237442922374,0.34702702702702704,0.5028124235754463,0.6329670329670329,0.4449116904962153,1196.0
948.0,1.7109265872692396e+18,0.4804177545691906,0.4292237442922374,0.36486486486486486,0.5037906578625581,0.6153846153846154,0.43902439024390244,1195.0
949.0,1.7109265872792366e+18,0.47389033942558745,0.4223744292237443,0.36108108108108106,0.5052580092932257,0.6230769230769231,0.4449116904962153,1196.0
950.0,1.7109265872892178e+18,0.4765013054830287,0.4143835616438356,0.3037837837837838,0.5035460992907801,0.6241758241758242,0.4381833473507149,1192.0
951.0,1.7109265872992182e+18,0.46866840731070497,0.4052511415525114,0.3232432432432432,0.5037906578625581,0.6186813186813187,0.4373423044575273,1196.0
952.0,1.7109265873092152e+18,0.47127937336814624,0.410958904109589,0.32594594594594595,0.5050134507214478,0.6241758241758242,0.432296047098402,1193.0
953.0,1.7109265873192187e+18,0.46866840731070497,0.4052511415525114,0.33405405405405403,0.5018341892883346,0.6263736263736264,0.4415475189234651,1196.0
954.0,1.7109265873292193e+18,0.47780678851174935,0.4178082191780822,0.3302702702702703,0.504524333577892,0.6329670329670329,0.4432296047098402,1197.0
955.0,1.7109265873392166e+18,0.47389033942558745,0.4098173515981735,0.3427027027027027,0.49498654927855223,0.6197802197802198,0.44238856181665265,1196.0
956.0,1.7109265873491917e+18,0.4699738903394256,0.4029680365296804,0.3264864864864865,0.5015896307165566,0.6274725274725275,0.4381833473507149,1196.0
957.0,1.7109265873592133e+18,0.4699738903394256,0.4235159817351598,0.35027027027027025,0.5018341892883346,0.6120879120879121,0.43902439024390244,1196.0
958.0,1.7109265873692193e+18,0.4765013054830287,0.4132420091324201,0.32594594594594595,0.5064808021521154,0.6351648351648351,0.43902439024390244,1196.0
959.0,1.7109265873792154e+18,0.4765013054830287,0.4132420091324201,0.33405405405405403,0.5008559550012228,0.6241758241758242,0.4381833473507149,1197.0
960.0,1.7109265873892157e+18,0.47780678851174935,0.4235159817351598,0.35567567567567565,0.5006113964294449,0.6351648351648351,0.4373423044575273,1196.0
961.0,1.7109265873992128e+18,0.4660574412532637,0.4041095890410959,0.3302702702702703,0.5001222792858889,0.621978021978022,0.432296047098402,1191.0
962.0,1.7109265874092152e+18,0.46344647519582244,0.4029680365296804,0.31891891891891894,0.4925409635607728,0.6208791208791209,0.4314550042052145,1194.0
963.0,1.7109265874192177e+18,0.4765013054830287,0.4063926940639269,0.3308108108108108,0.4991440449987772,0.6373626373626373,0.43902439024390244,1193.0
964.0,1.7109265874292165e+18,0.46866840731070497,0.4075342465753425,0.3183783783783784,0.504279775006114,0.6252747252747253,0.43902439024390244,1195.0
965.0,1.7109265874392164e+18,0.4725848563968668,0.4132420091324201,0.32972972972972975,0.5011005135730008,0.6208791208791209,0.4373423044575273,1194.0
966.0,1.710926587449216e+18,0.48172323759791125,0.410958904109589,0.3237837837837838,0.5006113964294449,0.6208791208791209,0.43986543313709,1195.0
967.0,1.710926587459212e+18,0.4725848563968668,0.4075342465753425,0.3281081081081081,0.5023233064318905,0.6230769230769231,0.4415475189234651,1193.0
968.0,1.7109265874692116e+18,0.4608355091383812,0.3984018264840183,0.31567567567567567,0.49351919784788456,0.6131868131868132,0.4306139613120269,1194.0
969.0,1.7109265874792143e+18,0.4725848563968668,0.4132420091324201,0.3362162162162162,0.4996331621423331,0.6329670329670329,0.4381833473507149,1196.0
970.0,1.7109265874892206e+18,0.47780678851174935,0.4075342465753425,0.33297297297297296,0.5035460992907801,0.6274725274725275,0.43986543313709,1194.0
971.0,1.7109265874992177e+18,0.46866840731070497,0.4246575342465753,0.3583783783783784,0.49767669356810956,0.6186813186813187,0.4381833473507149,1194.0
972.0,1.7109265875092155e+18,0.4804177545691906,0.4292237442922374,0.37351351351351353,0.4988994864269993,0.6241758241758242,0.44238856181665265,1194.0
973.0,1.7109265875192156e+18,0.46475195822454307,0.3995433789954338,0.30324324324324325,0.495964783565664,0.6175824175824176,0.43313708999158956,1193.0
974.0,1.710926587529215e+18,0.47127937336814624,0.4052511415525114,0.32,0.4937637564196625,0.6186813186813187,0.43566021867115223,1196.0
975.0,1.710926587539217e+18,0.4765013054830287,0.4006849315068493,0.3216216216216216,0.5006113964294449,0.6263736263736264,0.4415475189234651,1195.0
976.0,1.7109265875492273e+18,0.4765013054830287,0.4075342465753425,0.33405405405405403,0.499877720714111,0.610989010989011,0.4415475189234651,1195.0
977.0,1.7109265875592246e+18,0.46866840731070497,0.4155251141552511,0.34486486486486484,0.499877720714111,0.6153846153846154,0.4348191757779647,1194.0
978.0,1.7109265875692244e+18,0.47911227154047,0.4269406392694064,0.39675675675675676,0.5008559550012228,0.6296703296703297,0.4373423044575273,1193.0
979.0,1.7109265875792312e+18,0.46736292428198434,0.4018264840182648,0.31189189189189187,0.5103937393005625,0.6208791208791209,0.43313708999158956,1192.0
980.0,1.7109265875892196e+18,0.4830287206266319,0.4235159817351598,0.33297297297297296,0.5018341892883346,0.6252747252747253,0.4381833473507149,1195.0
981.0,1.7109265875992182e+18,0.48172323759791125,0.4143835616438356,0.32594594594594595,0.5023233064318905,0.621978021978022,0.44238856181665265,1195.0
982.0,1.7109265876092152e+18,0.46866840731070497,0.4041095890410959,0.3302702702702703,0.49816581071166544,0.6175824175824176,0.43650126156433977,1195.0
983.0,1.7109265876192346e+18,0.47780678851174935,0.4200913242009132,0.3302702702702703,0.495964783565664,0.6197802197802198,0.4415475189234651,1195.0
984.0,1.7109265876292193e+18,0.48433420365535246,0.4143835616438356,0.3362162162162162,0.5079481535827831,0.6252747252747253,0.4373423044575273,1196.0
985.0,1.7109265876392284e+18,0.47780678851174935,0.4189497716894977,0.34,0.504524333577892,0.6142857142857143,0.4432296047098402,1196.0
986.0,1.7109265876492216e+18,0.48172323759791125,0.4223744292237443,0.34594594594594597,0.5037906578625581,0.6285714285714286,0.4415475189234651,1196.0
987.0,1.7109265876592218e+18,0.47127937336814624,0.4098173515981735,0.3227027027027027,0.5018341892883346,0.621978021978022,0.4381833473507149,1194.0
988.0,1.710926587669226e+18,0.47127937336814624,0.4189497716894977,0.3497297297297297,0.4991440449987772,0.6274725274725275,0.4432296047098402,1193.0
989.0,1.7109265876792113e+18,0.46866840731070497,0.4292237442922374,0.3654054054054054,0.5020787478601125,0.621978021978022,0.4415475189234651,1195.0
990.0,1.7109265876892444e+18,0.4751958224543081,0.4166666666666667,0.3324324324324324,0.4942528735632184,0.6175824175824176,0.44238856181665265,1193.0
991.0,1.710926587699232e+18,0.48172323759791125,0.4246575342465753,0.2972972972972973,0.5025678650036683,0.6208791208791209,0.4415475189234651,1197.0
992.0,1.710926587709226e+18,0.48172323759791125,0.4189497716894977,0.29405405405405405,0.4996331621423331,0.6318681318681318,0.44238856181665265,1196.0
993.0,1.7109265877192433e+18,0.47389033942558745,0.4155251141552511,0.3345945945945946,0.5013450721447786,0.6241758241758242,0.4432296047098402,1193.0
994.0,1.710926587729239e+18,0.4765013054830287,0.4132420091324201,0.34162162162162163,0.4986549278552213,0.6274725274725275,0.4373423044575273,1195.0
995.0,1.7109265877392212e+18,0.4765013054830287,0.4178082191780822,0.3464864864864865,0.5008559550012228,0.610989010989011,0.43986543313709,1196.0
996.0,1.7109265877492188e+18,0.4595300261096606,0.4143835616438356,0.34162162162162163,0.49474199070677427,0.6131868131868132,0.4306139613120269,1192.0
997.0,1.7109265877592164e+18,0.4725848563968668,0.4178082191780822,0.33945945945945943,0.49400831499144043,0.6307692307692307,0.43986543313709,1196.0
998.0,1.7109265877692234e+18,0.47127937336814624,0.4052511415525114,0.3075675675675676,0.5018341892883346,0.6241758241758242,0.4415475189234651,1195.0
999.0,1.7109265877792223e+18,0.47911227154047,0.4246575342465753,0.3481081081081081,0.5030569821472243,0.6329670329670329,0.4432296047098402,1194.0
