202.0,1.7109267160532032e+18,0.4765013054830287,0.4155251141552511,0.3324324324324324,0.5052580092932257,0.6241758241758242,0.4381833473507149,1196.0
203.0,1.710926716063205e+18,0.4725848563968668,0.4178082191780822,0.3345945945945946,0.5020787478601125,0.6186813186813187,0.43902439024390244,1194.0
204.0,1.710926716073201e+18,0.4725848563968668,0.4132420091324201,0.33675675675675676,0.5047688921496698,0.621978021978022,0.4373423044575273,1193.0
205.0,1.710926716083215e+18,0.46736292428198434,0.4041095890410959,0.3291891891891892,0.4991440449987772,0.6197802197802198,0.4381833473507149,1194.0
206.0,1.7109267160932032e+18,0.47127937336814624,0.4143835616438356,0.33513513513513515,0.5020787478601125,0.6241758241758242,0.43650126156433977,1196.0
207.0,1.7109267161031995e+18,0.47127937336814624,0.4029680365296804,0.32432432432432434,0.5011005135730008,0.6175824175824176,0.4373423044575273,1192.0
208.0,1.7109267161132012e+18,0.4765013054830287,0.4006849315068493,0.31027027027027027,0.5055025678650037,0.6230769230769231,0.4348191757779647,1195.0
209.0,1.7109267161232026e+18,0.4699738903394256,0.4132420091324201,0.3362162162162162,0.5055025678650037,0.6197802197802198,0.43986543313709,1194.0
210.0,1.7109267161332006e+18,0.4660574412532637,0.408675799086758,0.3291891891891892,0.5028124235754463,0.6208791208791209,0.43650126156433977,1194.0
211.0,1.7109267161432015e+18,0.48172323759791125,0.4178082191780822,0.33783783783783783,0.5035460992907801,0.6252747252747253,0.43902439024390244,1195.0
212.0,1.7109267161531996e+18,0.47127937336814624,0.3995433789954338,0.3145945945945946,0.5008559550012228,0.6230769230769231,0.43902439024390244,1194.0
213.0,1.7109267161632056e+18,0.4660574412532637,0.3961187214611872,0.3362162162162162,0.5015896307165566,0.6175824175824176,0.43566021867115223,1194.0
214.0,1.7109267161732001e+18,0.4765013054830287,0.4132420091324201,0.3162162162162162,0.5006113964294449,0.6252747252747253,0.43902439024390244,1196.0
215.0,1.710926716183203e+18,0.4725848563968668,0.4143835616438356,0.33513513513513515,0.4937637564196625,0.6153846153846154,0.4381833473507149,1196.0
216.0,1.7109267161932024e+18,0.4830287206266319,0.4200913242009132,0.31945945945945947,0.49645390070921985,0.6230769230769231,0.43650126156433977,1193.0
217.0,1.710926716203201e+18,0.4725848563968668,0.4029680365296804,0.3232432432432432,0.5062362435803375,0.6230769230769231,0.4432296047098402,1196.0
218.0,1.7109267162132014e+18,0.4765013054830287,0.4029680365296804,0.32972972972972975,0.5025678650036683,0.6241758241758242,0.4381833473507149,1194.0
219.0,1.710926716223202e+18,0.46736292428198434,0.3972602739726027,0.307027027027027,0.49816581071166544,0.6197802197802198,0.44238856181665265,1196.0
220.0,1.7109267162332017e+18,0.4725848563968668,0.4155251141552511,0.33837837837837836,0.49938860357055515,0.6230769230769231,0.43650126156433977,1194.0
221.0,1.7109267162432023e+18,0.4765013054830287,0.4155251141552511,0.3362162162162162,0.5006113964294449,0.6230769230769231,0.43650126156433977,1195.0
222.0,1.7109267162532022e+18,0.47389033942558745,0.4063926940639269,0.3210810810810811,0.5015896307165566,0.6230769230769231,0.43650126156433977,1194.0
223.0,1.7109267162632028e+18,0.46866840731070497,0.4063926940639269,0.33945945945945943,0.49082905355832723,0.621978021978022,0.43902439024390244,1194.0
224.0,1.7109267162732037e+18,0.48433420365535246,0.4429223744292237,0.37189189189189187,0.4971875764245537,0.6263736263736264,0.43986543313709,1196.0
225.0,1.7109267162832036e+18,0.4830287206266319,0.4714611872146119,0.3881081081081081,0.5052580092932257,0.6274725274725275,0.4415475189234651,1195.0
226.0,1.7109267162932063e+18,0.48172323759791125,0.4063926940639269,0.3264864864864865,0.49816581071166544,0.6230769230769231,0.4373423044575273,1194.0
227.0,1.7109267163032061e+18,0.4608355091383812,0.408675799086758,0.32972972972972975,0.4979212521398875,0.6153846153846154,0.43566021867115223,1194.0
228.0,1.710926716313203e+18,0.47780678851174935,0.4132420091324201,0.33297297297297296,0.49498654927855223,0.6208791208791209,0.4339781328847771,1192.0
229.0,1.710926716323203e+18,0.4725848563968668,0.408675799086758,0.32972972972972975,0.5055025678650037,0.6241758241758242,0.43986543313709,1197.0
230.0,1.7109267163332078e+18,0.47911227154047,0.4269406392694064,0.33783783783783783,0.5003668378576669,0.6274725274725275,0.43650126156433977,1197.0
231.0,1.7109267163432223e+18,0.4699738903394256,0.4155251141552511,0.3481081081081081,0.5028124235754463,0.6252747252747253,0.4415475189234651,1193.0
232.0,1.7109267163532037e+18,0.47911227154047,0.4143835616438356,0.35405405405405405,0.5030569821472243,0.6285714285714286,0.44070647603027757,1196.0
233.0,1.710926716363205e+18,0.47389033942558745,0.408675799086758,0.3264864864864865,0.49400831499144043,0.6197802197802198,0.4381833473507149,1194.0
234.0,1.710926716373215e+18,0.47127937336814624,0.4155251141552511,0.3362162162162162,0.5030569821472243,0.6285714285714286,0.43902439024390244,1197.0
235.0,1.7109267163832384e+18,0.4765013054830287,0.4212328767123288,0.34054054054054056,0.49938860357055515,0.6230769230769231,0.4415475189234651,1194.0
236.0,1.7109267163932058e+18,0.46736292428198434,0.3984018264840183,0.312972972972973,0.4954756664221081,0.6230769230769231,0.43566021867115223,1195.0
237.0,1.7109267164032049e+18,0.47127937336814624,0.4063926940639269,0.3264864864864865,0.5006113964294449,0.6230769230769231,0.43902439024390244,1197.0
238.0,1.7109267164132055e+18,0.4765013054830287,0.408675799086758,0.31891891891891894,0.4979212521398875,0.6241758241758242,0.4373423044575273,1196.0
239.0,1.710926716423207e+18,0.4660574412532637,0.4006849315068493,0.3318918918918919,0.5025678650036683,0.6230769230769231,0.43902439024390244,1197.0
240.0,1.710926716433207e+18,0.47127937336814624,0.3961187214611872,0.327027027027027,0.49938860357055515,0.6241758241758242,0.43566021867115223,1196.0
241.0,1.7109267164432596e+18,0.47780678851174935,0.432648401826484,0.35027027027027025,0.5030569821472243,0.6241758241758242,0.44238856181665265,1197.0
242.0,1.7109267164532114e+18,0.4765013054830287,0.4155251141552511,0.32972972972972975,0.495720224993886,0.621978021978022,0.44070647603027757,1195.0
243.0,1.7109267164632082e+18,0.4804177545691906,0.4269406392694064,0.36,0.5028124235754463,0.6208791208791209,0.43902439024390244,1195.0
244.0,1.710926716473209e+18,0.4595300261096606,0.4246575342465753,0.3302702702702703,0.5033015407190022,0.6208791208791209,0.43313708999158956,1193.0
245.0,1.710926716483209e+18,0.48825065274151436,0.4041095890410959,0.3248648648648649,0.5059916850085595,0.6230769230769231,0.4415475189234651,1196.0
246.0,1.710926716493225e+18,0.47127937336814624,0.4006849315068493,0.32972972972972975,0.5035460992907801,0.6263736263736264,0.43566021867115223,1197.0
247.0,1.7109267165032113e+18,0.47911227154047,0.4189497716894977,0.33297297297297296,0.5023233064318905,0.6274725274725275,0.4415475189234651,1192.0
248.0,1.7109267165132083e+18,0.4725848563968668,0.4029680365296804,0.32,0.4991440449987772,0.6208791208791209,0.43650126156433977,1194.0
249.0,1.710926716523211e+18,0.4765013054830287,0.4155251141552511,0.32432432432432434,0.5055025678650037,0.6241758241758242,0.4415475189234651,1193.0
250.0,1.7109267165332116e+18,0.4765013054830287,0.3995433789954338,0.34054054054054056,0.5001222792858889,0.6285714285714286,0.43902439024390244,1195.0
251.0,1.7109267165432113e+18,0.4699738903394256,0.3892694063926941,0.33135135135135135,0.5030569821472243,0.6241758241758242,0.4381833473507149,1196.0
252.0,1.7109267165532114e+18,0.48172323759791125,0.4223744292237443,0.34054054054054056,0.504524333577892,0.6241758241758242,0.43902439024390244,1193.0
253.0,1.7109267165632105e+18,0.4725848563968668,0.4235159817351598,0.3318918918918919,0.49523110785033014,0.6175824175824176,0.43650126156433977,1195.0
254.0,1.710926716573194e+18,0.47911227154047,0.4075342465753425,0.31675675675675674,0.5006113964294449,0.6241758241758242,0.4415475189234651,1195.0
255.0,1.7109267165832115e+18,0.4621409921671018,0.3995433789954338,0.31891891891891894,0.5015896307165566,0.6175824175824176,0.4381833473507149,1196.0
256.0,1.710926716593215e+18,0.4765013054830287,0.4041095890410959,0.31945945945945947,0.5030569821472243,0.6285714285714286,0.44070647603027757,1196.0
257.0,1.710926716603193e+18,0.4765013054830287,0.4132420091324201,0.3324324324324324,0.5067253607238934,0.6274725274725275,0.44238856181665265,1196.0
258.0,1.710926716613194e+18,0.47911227154047,0.4178082191780822,0.33675675675675676,0.5059916850085595,0.6252747252747253,0.4339781328847771,1194.0
259.0,1.7109267166231951e+18,0.4765013054830287,0.410958904109589,0.3362162162162162,0.5037906578625581,0.6230769230769231,0.4415475189234651,1197.0
260.0,1.7109267166331945e+18,0.4765013054830287,0.410958904109589,0.312972972972973,0.4991440449987772,0.621978021978022,0.4373423044575273,1194.0
261.0,1.7109267166431985e+18,0.48172323759791125,0.4098173515981735,0.33297297297297296,0.5020787478601125,0.6252747252747253,0.44238856181665265,1194.0
262.0,1.7109267166532342e+18,0.47780678851174935,0.4132420091324201,0.3232432432432432,0.4986549278552213,0.6197802197802198,0.4381833473507149,1194.0
263.0,1.7109267166631939e+18,0.4699738903394256,0.4166666666666667,0.3372972972972973,0.49058449498654927,0.6208791208791209,0.4415475189234651,1197.0
264.0,1.7109267166731965e+18,0.47389033942558745,0.3995433789954338,0.3254054054054054,0.504035216434336,0.6197802197802198,0.43650126156433977,1196.0
265.0,1.7109267166831995e+18,0.4830287206266319,0.4178082191780822,0.34486486486486484,0.49205184641721694,0.6164835164835165,0.43902439024390244,1195.0
266.0,1.7109267166932004e+18,0.4765013054830287,0.4200913242009132,0.3324324324324324,0.5023233064318905,0.6252747252747253,0.4415475189234651,1194.0
267.0,1.7109267167031995e+18,0.47127937336814624,0.4121004566210046,0.33945945945945943,0.49645390070921985,0.6186813186813187,0.43566021867115223,1192.0
268.0,1.7109267167131976e+18,0.4765013054830287,0.3904109589041096,0.3318918918918919,0.5015896307165566,0.6241758241758242,0.4381833473507149,1197.0
269.0,1.7109267167231951e+18,0.4765013054830287,0.4052511415525114,0.3497297297297297,0.5013450721447786,0.6274725274725275,0.44238856181665265,1196.0
270.0,1.7109267167331973e+18,0.4751958224543081,0.410958904109589,0.3356756756756757,0.495964783565664,0.6208791208791209,0.43902439024390244,1198.0
271.0,1.7109267167431985e+18,0.4725848563968668,0.4143835616438356,0.3605405405405405,0.5035460992907801,0.6285714285714286,0.44238856181665265,1195.0
272.0,1.710926716753202e+18,0.4856396866840731,0.4600456621004566,0.38432432432432434,0.5028124235754463,0.6307692307692307,0.4449116904962153,1195.0
273.0,1.7109267167631987e+18,0.4725848563968668,0.3995433789954338,0.32756756756756755,0.504035216434336,0.6274725274725275,0.43986543313709,1195.0
274.0,1.7109267167731963e+18,0.4725848563968668,0.4029680365296804,0.3286486486486486,0.5008559550012228,0.6252747252747253,0.43986543313709,1196.0
275.0,1.7109267167832046e+18,0.47127937336814624,0.4121004566210046,0.34702702702702704,0.5018341892883346,0.6230769230769231,0.4381833473507149,1194.0
276.0,1.7109267167932347e+18,0.4725848563968668,0.3995433789954338,0.3124324324324324,0.4996331621423331,0.6274725274725275,0.4381833473507149,1194.0
277.0,1.710926716803206e+18,0.47389033942558745,0.4018264840182648,0.307027027027027,0.5064808021521154,0.6252747252747253,0.4432296047098402,1196.0
278.0,1.7109267168131935e+18,0.47127937336814624,0.3961187214611872,0.3075675675675676,0.5055025678650037,0.6252747252747253,0.4348191757779647,1196.0
279.0,1.7109267168231933e+18,0.46736292428198434,0.4223744292237443,0.34054054054054056,0.504035216434336,0.6230769230769231,0.43902439024390244,1195.0
280.0,1.710926716833193e+18,0.46866840731070497,0.4257990867579909,0.36648648648648646,0.5057471264367817,0.6274725274725275,0.4381833473507149,1195.0
281.0,1.7109267168432049e+18,0.4608355091383812,0.4098173515981735,0.3362162162162162,0.5084372707263389,0.6252747252747253,0.4381833473507149,1194.0
282.0,1.7109267168532024e+18,0.4830287206266319,0.4452054794520548,0.3427027027027027,0.5003668378576669,0.6274725274725275,0.44238856181665265,1196.0
283.0,1.7109267168631995e+18,0.47127937336814624,0.4075342465753425,0.3286486486486486,0.5020787478601125,0.6241758241758242,0.4381833473507149,1193.0
284.0,1.7109267168731983e+18,0.4765013054830287,0.4235159817351598,0.34216216216216216,0.5008559550012228,0.6208791208791209,0.43566021867115223,1196.0
285.0,1.7109267168832307e+18,0.47780678851174935,0.4143835616438356,0.3324324324324324,0.4996331621423331,0.6197802197802198,0.4381833473507149,1194.0
286.0,1.710926716893225e+18,0.4765013054830287,0.4155251141552511,0.3318918918918919,0.4988994864269993,0.6241758241758242,0.4348191757779647,1194.0
287.0,1.7109267169032044e+18,0.4830287206266319,0.4178082191780822,0.3372972972972973,0.5028124235754463,0.6208791208791209,0.43902439024390244,1193.0
288.0,1.710926716913202e+18,0.4830287206266319,0.4269406392694064,0.34486486486486484,0.5020787478601125,0.6274725274725275,0.4381833473507149,1194.0
289.0,1.7109267169232049e+18,0.4699738903394256,0.4029680365296804,0.3324324324324324,0.499877720714111,0.6197802197802198,0.43650126156433977,1196.0
290.0,1.7109267169332001e+18,0.47780678851174935,0.4280821917808219,0.3675675675675676,0.5020787478601125,0.6274725274725275,0.4381833473507149,1195.0
291.0,1.7109267169432067e+18,0.47780678851174935,0.408675799086758,0.3216216216216216,0.5035460992907801,0.6241758241758242,0.43986543313709,1195.0
292.0,1.7109267169532068e+18,0.47780678851174935,0.4246575342465753,0.3362162162162162,0.49082905355832723,0.6197802197802198,0.43902439024390244,1195.0
293.0,1.7109267169631995e+18,0.46866840731070497,0.4520547945205479,0.3302702702702703,0.5035460992907801,0.6230769230769231,0.43650126156433977,1195.0
294.0,1.7109267169731983e+18,0.4765013054830287,0.4052511415525114,0.3216216216216216,0.5077035950110051,0.6252747252747253,0.4373423044575273,1194.0
295.0,1.710926716983204e+18,0.47127937336814624,0.4121004566210046,0.3362162162162162,0.4986549278552213,0.6208791208791209,0.4381833473507149,1194.0
296.0,1.7109267169932324e+18,0.47127937336814624,0.4246575342465753,0.32216216216216215,0.491562729273661,0.6153846153846154,0.43313708999158956,1193.0
297.0,1.710926717003202e+18,0.47780678851174935,0.4132420091324201,0.3427027027027027,0.5069699192956714,0.6252747252747253,0.43902439024390244,1196.0
298.0,1.7109267170131988e+18,0.47127937336814624,0.4006849315068493,0.31675675675675674,0.495964783565664,0.6274725274725275,0.43566021867115223,1197.0
299.0,1.7109267170232013e+18,0.4765013054830287,0.4178082191780822,0.3389189189189189,0.5008559550012228,0.6274725274725275,0.44238856181665265,1195.0
300.0,1.7109267170331983e+18,0.46736292428198434,0.4383561643835616,0.3302702702702703,0.4971875764245537,0.6241758241758242,0.43650126156433977,1196.0
301.0,1.71092671704321e+18,0.47911227154047,0.4132420091324201,0.33135135135135135,0.4974321349963316,0.6208791208791209,0.4373423044575273,1197.0
302.0,1.7109267170532163e+18,0.46475195822454307,0.3995433789954338,0.32216216216216215,0.4988994864269993,0.6208791208791209,0.43902439024390244,1196.0
303.0,1.7109267170632005e+18,0.4725848563968668,0.4143835616438356,0.34702702702702704,0.5013450721447786,0.6230769230769231,0.4415475189234651,1195.0
304.0,1.7109267170731983e+18,0.47911227154047,0.4212328767123288,0.3286486486486486,0.5008559550012228,0.6296703296703297,0.4381833473507149,1194.0
305.0,1.7109267170832136e+18,0.4804177545691906,0.4006849315068493,0.3172972972972973,0.4996331621423331,0.6241758241758242,0.44070647603027757,1194.0
306.0,1.7109267170932099e+18,0.47911227154047,0.4006849315068493,0.30864864864864866,0.5011005135730008,0.6274725274725275,0.4381833473507149,1197.0
307.0,1.7109267171032013e+18,0.45822454308093996,0.4189497716894977,0.34216216216216216,0.499877720714111,0.6142857142857143,0.4289318755256518,1192.0
308.0,1.7109267171132022e+18,0.4725848563968668,0.408675799086758,0.34162162162162163,0.4991440449987772,0.6263736263736264,0.43650126156433977,1194.0
309.0,1.7109267171232e+18,0.48172323759791125,0.4223744292237443,0.34054054054054056,0.504035216434336,0.6252747252747253,0.4415475189234651,1196.0
310.0,1.7109267171332006e+18,0.4660574412532637,0.4223744292237443,0.3410810810810811,0.5030569821472243,0.6186813186813187,0.4314550042052145,1192.0
311.0,1.7109267171432115e+18,0.4725848563968668,0.4269406392694064,0.32,0.5064808021521154,0.6230769230769231,0.4415475189234651,1194.0
312.0,1.7109267171532073e+18,0.48433420365535246,0.4223744292237443,0.3389189189189189,0.5047688921496698,0.6285714285714286,0.43986543313709,1195.0
313.0,1.7109267171632038e+18,0.4765013054830287,0.4075342465753425,0.33945945945945943,0.491807287845439,0.6197802197802198,0.4381833473507149,1195.0
314.0,1.7109267171732073e+18,0.47389033942558745,0.4121004566210046,0.3264864864864865,0.49620934213744194,0.6142857142857143,0.4348191757779647,1196.0
315.0,1.7109267171832458e+18,0.4830287206266319,0.4223744292237443,0.35783783783783785,0.5055025678650037,0.6241758241758242,0.44070647603027757,1195.0
316.0,1.7109267171932173e+18,0.4765013054830287,0.4178082191780822,0.33837837837837836,0.5030569821472243,0.6252747252747253,0.43902439024390244,1194.0
317.0,1.710926717203204e+18,0.4869451697127937,0.4611872146118721,0.3864864864864865,0.5011005135730008,0.6318681318681318,0.4465937762825904,1197.0
318.0,1.7109267172132042e+18,0.4660574412532637,0.3995433789954338,0.3232432432432432,0.4988994864269993,0.6208791208791209,0.4381833473507149,1196.0
319.0,1.710926717223202e+18,0.4725848563968668,0.4155251141552511,0.34162162162162163,0.5059916850085595,0.6318681318681318,0.4381833473507149,1196.0
320.0,1.7109267172332104e+18,0.47127937336814624,0.410958904109589,0.3281081081081081,0.495720224993886,0.6186813186813187,0.43902439024390244,1195.0
321.0,1.7109267172432036e+18,0.47780678851174935,0.4223744292237443,0.36648648648648646,0.5055025678650037,0.6274725274725275,0.4415475189234651,1196.0
322.0,1.7109267172532068e+18,0.46475195822454307,0.4178082191780822,0.3545945945945946,0.5025678650036683,0.6230769230769231,0.4339781328847771,1193.0
323.0,1.7109267172632008e+18,0.46475195822454307,0.3995433789954338,0.32594594594594595,0.5020787478601125,0.6175824175824176,0.4348191757779647,1195.0
324.0,1.7109267172732035e+18,0.46736292428198434,0.4052511415525114,0.32216216216216215,0.5028124235754463,0.6230769230769231,0.43650126156433977,1196.0
325.0,1.7109267172832287e+18,0.46866840731070497,0.4360730593607306,0.3302702702702703,0.5020787478601125,0.6208791208791209,0.4373423044575273,1193.0
326.0,1.710926717293204e+18,0.46736292428198434,0.4041095890410959,0.3237837837837838,0.5055025678650037,0.6186813186813187,0.43650126156433977,1195.0
327.0,1.7109267173032072e+18,0.46736292428198434,0.4041095890410959,0.3210810810810811,0.504524333577892,0.6230769230769231,0.4381833473507149,1193.0
328.0,1.7109267173132022e+18,0.4856396866840731,0.4497716894977169,0.3654054054054054,0.495720224993886,0.6274725274725275,0.43986543313709,1194.0
329.0,1.7109267173232028e+18,0.48433420365535246,0.4417808219178082,0.35621621621621624,0.5025678650036683,0.6285714285714286,0.4432296047098402,1196.0
330.0,1.7109267173332124e+18,0.47780678851174935,0.4337899543378995,0.3605405405405405,0.4937637564196625,0.6252747252747253,0.43650126156433977,1195.0
331.0,1.7109267173432015e+18,0.47127937336814624,0.410958904109589,0.3324324324324324,0.4966984592809978,0.6241758241758242,0.4381833473507149,1197.0
332.0,1.7109267173532014e+18,0.47911227154047,0.4235159817351598,0.34324324324324323,0.4986549278552213,0.6241758241758242,0.43566021867115223,1192.0
333.0,1.7109267173632018e+18,0.4804177545691906,0.4212328767123288,0.33405405405405403,0.5069699192956714,0.6230769230769231,0.44238856181665265,1195.0
334.0,1.7109267173732042e+18,0.46475195822454307,0.3995433789954338,0.3427027027027027,0.49767669356810956,0.621978021978022,0.4348191757779647,1196.0
335.0,1.7109267173832113e+18,0.46866840731070497,0.3881278538812785,0.3345945945945946,0.5020787478601125,0.6241758241758242,0.44070647603027757,1194.0
336.0,1.7109267173932188e+18,0.48172323759791125,0.410958904109589,0.3183783783783784,0.5011005135730008,0.6274725274725275,0.43902439024390244,1193.0
337.0,1.7109267174032008e+18,0.4725848563968668,0.410958904109589,0.3302702702702703,0.5015896307165566,0.6274725274725275,0.4432296047098402,1195.0
338.0,1.7109267174132017e+18,0.48433420365535246,0.4315068493150685,0.3567567567567568,0.4971875764245537,0.6296703296703297,0.4432296047098402,1195.0
339.0,1.710926717423222e+18,0.46736292428198434,0.4052511415525114,0.3216216216216216,0.5006113964294449,0.6241758241758242,0.4415475189234651,1197.0
340.0,1.7109267174331978e+18,0.4725848563968668,0.3961187214611872,0.31351351351351353,0.5003668378576669,0.6230769230769231,0.4381833473507149,1194.0
341.0,1.710926717443204e+18,0.4804177545691906,0.4554794520547945,0.3362162162162162,0.49523110785033014,0.6175824175824176,0.4381833473507149,1193.0
342.0,1.7109267174532022e+18,0.47911227154047,0.4143835616438356,0.3356756756756757,0.49205184641721694,0.6208791208791209,0.43986543313709,1195.0
343.0,1.7109267174632026e+18,0.4725848563968668,0.410958904109589,0.33513513513513515,0.4971875764245537,0.6175824175824176,0.43902439024390244,1194.0
344.0,1.7109267174732024e+18,0.47780678851174935,0.432648401826484,0.36486486486486486,0.5015896307165566,0.6208791208791209,0.4415475189234651,1198.0
345.0,1.710926717483204e+18,0.47911227154047,0.4143835616438356,0.33135135135135135,0.5035460992907801,0.6285714285714286,0.4449116904962153,1195.0
346.0,1.7109267174931896e+18,0.47127937336814624,0.4497716894977169,0.40216216216216216,0.5037906578625581,0.6186813186813187,0.4348191757779647,1195.0
347.0,1.7109267175032015e+18,0.4869451697127937,0.4429223744292237,0.35135135135135137,0.4984103692834434,0.6241758241758242,0.4415475189234651,1193.0
348.0,1.710926717513203e+18,0.4725848563968668,0.4189497716894977,0.3481081081081081,0.5028124235754463,0.6296703296703297,0.43902439024390244,1193.0
349.0,1.7109267175232061e+18,0.47127937336814624,0.3858447488584475,0.3248648648648649,0.5006113964294449,0.6197802197802198,0.4381833473507149,1194.0
350.0,1.7109267175332224e+18,0.4699738903394256,0.3995433789954338,0.3481081081081081,0.5020787478601125,0.6208791208791209,0.4381833473507149,1196.0
351.0,1.7109267175432087e+18,0.4765013054830287,0.410958904109589,0.3232432432432432,0.5094155050134507,0.6241758241758242,0.4415475189234651,1194.0
352.0,1.710926717553204e+18,0.4699738903394256,0.4075342465753425,0.3372972972972973,0.49474199070677427,0.6252747252747253,0.4381833473507149,1195.0
353.0,1.710926717563202e+18,0.4765013054830287,0.4098173515981735,0.3389189189189189,0.5023233064318905,0.6318681318681318,0.44238856181665265,1195.0
354.0,1.7109267175732014e+18,0.47780678851174935,0.4212328767123288,0.3497297297297297,0.4839814135485449,0.6153846153846154,0.4381833473507149,1195.0
355.0,1.710926717583211e+18,0.4765013054830287,0.3961187214611872,0.3302702702702703,0.5037906578625581,0.6230769230769231,0.4432296047098402,1195.0
356.0,1.7109267175932068e+18,0.4765013054830287,0.410958904109589,0.32972972972972975,0.5028124235754463,0.6241758241758242,0.43650126156433977,1194.0
357.0,1.7109267176031613e+18,0.4751958224543081,0.4029680365296804,0.3264864864864865,0.504524333577892,0.6252747252747253,0.4381833473507149,1194.0
358.0,1.7109267176132027e+18,0.46475195822454307,0.4098173515981735,0.3324324324324324,0.5069699192956714,0.6285714285714286,0.4381833473507149,1194.0
359.0,1.7109267176232033e+18,0.4765013054830287,0.4155251141552511,0.32972972972972975,0.4937637564196625,0.6241758241758242,0.4415475189234651,1195.0
360.0,1.7109267176332065e+18,0.47911227154047,0.4200913242009132,0.3605405405405405,0.5035460992907801,0.6296703296703297,0.44070647603027757,1196.0
361.0,1.7109267176432325e+18,0.46866840731070497,0.3972602739726027,0.34162162162162163,0.4966984592809978,0.6142857142857143,0.4381833473507149,1195.0
362.0,1.7109267176532012e+18,0.47127937336814624,0.3995433789954338,0.29405405405405405,0.5025678650036683,0.6186813186813187,0.4339781328847771,1194.0
363.0,1.710926717663204e+18,0.48172323759791125,0.4372146118721461,0.3362162162162162,0.5055025678650037,0.6241758241758242,0.44238856181665265,1195.0
364.0,1.7109267176732047e+18,0.4699738903394256,0.4041095890410959,0.3232432432432432,0.5030569821472243,0.6252747252747253,0.44070647603027757,1195.0
365.0,1.710926717683212e+18,0.47911227154047,0.4269406392694064,0.3535135135135135,0.5011005135730008,0.6208791208791209,0.4381833473507149,1194.0
366.0,1.7109267176931924e+18,0.4699738903394256,0.4178082191780822,0.33513513513513515,0.4988994864269993,0.6230769230769231,0.43566021867115223,1196.0
367.0,1.7109267177032033e+18,0.4725848563968668,0.4063926940639269,0.34540540540540543,0.495964783565664,0.6164835164835165,0.43566021867115223,1193.0
368.0,1.7109267177132086e+18,0.47127937336814624,0.4063926940639269,0.33135135135135135,0.5052580092932257,0.6307692307692307,0.4415475189234651,1197.0
369.0,1.710926717723208e+18,0.4621409921671018,0.4063926940639269,0.33837837837837836,0.5018341892883346,0.6131868131868132,0.4289318755256518,1193.0
370.0,1.7109267177332232e+18,0.4725848563968668,0.432648401826484,0.3691891891891892,0.4930300807043287,0.6230769230769231,0.43902439024390244,1197.0
371.0,1.7109267177432092e+18,0.4804177545691906,0.430365296803653,0.34162162162162163,0.4937637564196625,0.6186813186813187,0.4415475189234651,1195.0
372.0,1.7109267177532099e+18,0.4765013054830287,0.432648401826484,0.3237837837837838,0.5006113964294449,0.6241758241758242,0.43902439024390244,1193.0
373.0,1.710926717763209e+18,0.48172323759791125,0.4657534246575342,0.3535135135135135,0.5162631450232331,0.634065934065934,0.44238856181665265,1193.0
374.0,1.7109267177732114e+18,0.4856396866840731,0.4132420091324201,0.3345945945945946,0.5011005135730008,0.6274725274725275,0.4373423044575273,1195.0
375.0,1.7109267177832243e+18,0.47127937336814624,0.4063926940639269,0.3362162162162162,0.5025678650036683,0.6230769230769231,0.44238856181665265,1194.0
376.0,1.710926717793209e+18,0.4830287206266319,0.4189497716894977,0.34540540540540543,0.5003668378576669,0.6230769230769231,0.43313708999158956,1193.0
377.0,1.7109267178032077e+18,0.4869451697127937,0.4292237442922374,0.37351351351351353,0.4979212521398875,0.6230769230769231,0.4381833473507149,1194.0
378.0,1.7109267178132106e+18,0.47780678851174935,0.4155251141552511,0.3227027027027027,0.4927855221325507,0.621978021978022,0.43902439024390244,1194.0
379.0,1.7109267178232108e+18,0.45822454308093996,0.4052511415525114,0.3362162162162162,0.4979212521398875,0.6131868131868132,0.432296047098402,1193.0
380.0,1.710926717833212e+18,0.48433420365535246,0.4497716894977169,0.35945945945945945,0.5050134507214478,0.6296703296703297,0.44238856181665265,1195.0
381.0,1.7109267178432125e+18,0.4765013054830287,0.4075342465753425,0.34162162162162163,0.5147957935925654,0.634065934065934,0.44238856181665265,1193.0
382.0,1.7109267178532122e+18,0.4660574412532637,0.4098173515981735,0.32972972972972975,0.5033015407190022,0.6197802197802198,0.43313708999158956,1194.0
383.0,1.710926717863212e+18,0.4804177545691906,0.4554794520547945,0.3324324324324324,0.5001222792858889,0.6230769230769231,0.4415475189234651,1196.0
384.0,1.710926717873213e+18,0.4725848563968668,0.4075342465753425,0.32054054054054054,0.49767669356810956,0.6230769230769231,0.4381833473507149,1196.0
385.0,1.7109267178832353e+18,0.47127937336814624,0.4132420091324201,0.3286486486486486,0.5013450721447786,0.6241758241758242,0.43902439024390244,1194.0
386.0,1.7109267178932746e+18,0.47127937336814624,0.4006849315068493,0.3227027027027027,0.4991440449987772,0.6197802197802198,0.4373423044575273,1195.0
387.0,1.710926717903218e+18,0.4869451697127937,0.4246575342465753,0.34378378378378377,0.504524333577892,0.6318681318681318,0.4415475189234651,1192.0
388.0,1.710926717913198e+18,0.48172323759791125,0.4406392694063927,0.3589189189189189,0.5057471264367817,0.6285714285714286,0.43902439024390244,1195.0
389.0,1.7109267179232133e+18,0.47389033942558745,0.4200913242009132,0.3324324324324324,0.5086818292981169,0.621978021978022,0.4415475189234651,1197.0
390.0,1.7109267179332242e+18,0.4751958224543081,0.4189497716894977,0.34594594594594597,0.5035460992907801,0.6296703296703297,0.4381833473507149,1195.0
391.0,1.710926717943215e+18,0.47780678851174935,0.4189497716894977,0.33945945945945943,0.5037906578625581,0.6285714285714286,0.4449116904962153,1194.0
392.0,1.7109267179532145e+18,0.489556135770235,0.4646118721461187,0.37783783783783786,0.5079481535827831,0.6274725274725275,0.4415475189234651,1193.0
393.0,1.7109267179632e+18,0.4765013054830287,0.410958904109589,0.3324324324324324,0.5008559550012228,0.6241758241758242,0.43986543313709,1194.0
394.0,1.7109267179732173e+18,0.4804177545691906,0.430365296803653,0.35405405405405405,0.4991440449987772,0.6241758241758242,0.43902439024390244,1194.0
395.0,1.7109267179832e+18,0.47780678851174935,0.45662100456621,0.34162162162162163,0.4927855221325507,0.6318681318681318,0.43902439024390244,1198.0
396.0,1.7109267179932124e+18,0.4765013054830287,0.4041095890410959,0.3145945945945946,0.49816581071166544,0.6285714285714286,0.4381833473507149,1195.0
397.0,1.7109267180031946e+18,0.4699738903394256,0.3972602739726027,0.31945945945945947,0.499877720714111,0.6230769230769231,0.4432296047098402,1195.0
398.0,1.7109267180131978e+18,0.47911227154047,0.408675799086758,0.32594594594594595,0.5003668378576669,0.6263736263736264,0.43902439024390244,1196.0
399.0,1.7109267180231985e+18,0.47911227154047,0.4132420091324201,0.3410810810810811,0.5050134507214478,0.6230769230769231,0.4415475189234651,1195.0
400.0,1.7109267180332337e+18,0.4765013054830287,0.4041095890410959,0.312972972972973,0.4996331621423331,0.6175824175824176,0.43313708999158956,1191.0
401.0,1.710926718043234e+18,0.48172323759791125,0.4178082191780822,0.3427027027027027,0.49645390070921985,0.6274725274725275,0.44238856181665265,1195.0
402.0,1.710926718053206e+18,0.46866840731070497,0.4178082191780822,0.3362162162162162,0.49327463927610665,0.6186813186813187,0.43650126156433977,1197.0
403.0,1.7109267180632067e+18,0.47780678851174935,0.4041095890410959,0.32,0.4996331621423331,0.6208791208791209,0.4381833473507149,1196.0
404.0,1.7109267180732052e+18,0.47911227154047,0.4235159817351598,0.31513513513513514,0.5020787478601125,0.6296703296703297,0.43986543313709,1195.0
405.0,1.7109267180832044e+18,0.4830287206266319,0.410958904109589,0.31351351351351353,0.5006113964294449,0.621978021978022,0.4415475189234651,1193.0
406.0,1.7109267180931994e+18,0.48172323759791125,0.4315068493150685,0.33675675675675676,0.5050134507214478,0.6351648351648351,0.4440706476030278,1195.0
407.0,1.7109267181031565e+18,0.47389033942558745,0.410958904109589,0.33405405405405403,0.49816581071166544,0.6197802197802198,0.4381833473507149,1194.0
408.0,1.7109267181131999e+18,0.4725848563968668,0.4143835616438356,0.3345945945945946,0.4969430178527757,0.6208791208791209,0.4381833473507149,1193.0
409.0,1.7109267181231992e+18,0.48172323759791125,0.4178082191780822,0.33513513513513515,0.5015896307165566,0.6241758241758242,0.4415475189234651,1193.0
410.0,1.7109267181332024e+18,0.4765013054830287,0.4143835616438356,0.3324324324324324,0.5030569821472243,0.6274725274725275,0.43566021867115223,1193.0
411.0,1.7109267181432092e+18,0.47127937336814624,0.4178082191780822,0.33675675675675676,0.5055025678650037,0.621978021978022,0.4381833473507149,1193.0
412.0,1.710926718153199e+18,0.47127937336814624,0.408675799086758,0.31945945945945947,0.504035216434336,0.6329670329670329,0.4381833473507149,1196.0
413.0,1.7109267181631982e+18,0.47780678851174935,0.4132420091324201,0.3264864864864865,0.49767669356810956,0.6263736263736264,0.4415475189234651,1193.0
414.0,1.7109267181732014e+18,0.4751958224543081,0.408675799086758,0.31027027027027027,0.5028124235754463,0.6274725274725275,0.4415475189234651,1194.0
415.0,1.7109267181832305e+18,0.4765013054830287,0.4052511415525114,0.312972972972973,0.5074590364392272,0.6362637362637362,0.4449116904962153,1193.0
416.0,1.710926718193193e+18,0.46736292428198434,0.4041095890410959,0.3232432432432432,0.4971875764245537,0.6076923076923076,0.4339781328847771,1193.0
417.0,1.7109267182032018e+18,0.4765013054830287,0.4178082191780822,0.33405405405405403,0.5055025678650037,0.6274725274725275,0.43986543313709,1194.0
418.0,1.7109267182132027e+18,0.4608355091383812,0.3904109589041096,0.31405405405405407,0.4986549278552213,0.6186813186813187,0.4348191757779647,1196.0
419.0,1.710926718223202e+18,0.47780678851174935,0.4292237442922374,0.3427027027027027,0.5003668378576669,0.6241758241758242,0.4415475189234651,1196.0
420.0,1.710926718233203e+18,0.46866840731070497,0.4029680365296804,0.3254054054054054,0.49400831499144043,0.6241758241758242,0.4381833473507149,1197.0
421.0,1.7109267182432133e+18,0.46736292428198434,0.4098173515981735,0.34540540540540543,0.5015896307165566,0.6208791208791209,0.4381833473507149,1198.0
422.0,1.7109267182532086e+18,0.4765013054830287,0.4337899543378995,0.34702702702702704,0.4937637564196625,0.6230769230769231,0.4373423044575273,1196.0
423.0,1.7109267182632049e+18,0.4725848563968668,0.4018264840182648,0.3183783783783784,0.5037906578625581,0.6307692307692307,0.4440706476030278,1196.0
424.0,1.7109267182732052e+18,0.46736292428198434,0.3892694063926941,0.292972972972973,0.4966984592809978,0.6142857142857143,0.4381833473507149,1194.0
425.0,1.7109267182832028e+18,0.4765013054830287,0.408675799086758,0.34594594594594597,0.5006113964294449,0.6274725274725275,0.4415475189234651,1195.0
426.0,1.7109267182932055e+18,0.4765013054830287,0.4189497716894977,0.3443243243243243,0.4942528735632184,0.6230769230769231,0.43986543313709,1196.0
427.0,1.7109267183031997e+18,0.47780678851174935,0.432648401826484,0.35027027027027025,0.5006113964294449,0.6241758241758242,0.4432296047098402,1193.0
428.0,1.7109267183132047e+18,0.4621409921671018,0.4063926940639269,0.3308108108108108,0.5008559550012228,0.6142857142857143,0.4339781328847771,1195.0
429.0,1.7109267183231977e+18,0.47127937336814624,0.4246575342465753,0.36702702702702705,0.5062362435803375,0.6241758241758242,0.4381833473507149,1195.0
430.0,1.710926718333223e+18,0.4765013054830287,0.4075342465753425,0.3232432432432432,0.49107361213010514,0.6318681318681318,0.44070647603027757,1195.0
431.0,1.710926718343202e+18,0.47780678851174935,0.4406392694063927,0.31567567567567567,0.5086818292981169,0.6274725274725275,0.44070647603027757,1195.0
432.0,1.7109267183531638e+18,0.46866840731070497,0.3938356164383562,0.34756756756756757,0.5028124235754463,0.6241758241758242,0.4415475189234651,1192.0
433.0,1.7109267183631933e+18,0.4765013054830287,0.3995433789954338,0.3335135135135135,0.504524333577892,0.6274725274725275,0.4415475189234651,1196.0
434.0,1.7109267183731894e+18,0.47127937336814624,0.4132420091324201,0.3481081081081081,0.504035216434336,0.6274725274725275,0.4415475189234651,1196.0
435.0,1.7109267183831946e+18,0.4765013054830287,0.4178082191780822,0.32594594594594595,0.5028124235754463,0.6241758241758242,0.43650126156433977,1192.0
436.0,1.710926718393193e+18,0.46344647519582244,0.3984018264840183,0.3178378378378378,0.5030569821472243,0.6252747252747253,0.4381833473507149,1195.0
437.0,1.7109267184031923e+18,0.4830287206266319,0.4246575342465753,0.3254054054054054,0.5055025678650037,0.6329670329670329,0.4449116904962153,1197.0
438.0,1.7109267184131382e+18,0.4660574412532637,0.4132420091324201,0.31945945945945947,0.5003668378576669,0.6285714285714286,0.4373423044575273,1195.0
439.0,1.710926718423165e+18,0.4725848563968668,0.4132420091324201,0.35405405405405405,0.5018341892883346,0.6208791208791209,0.44070647603027757,1195.0
440.0,1.7109267184331896e+18,0.4765013054830287,0.4098173515981735,0.3308108108108108,0.5020787478601125,0.6285714285714286,0.44070647603027757,1195.0
441.0,1.7109267184432138e+18,0.47127937336814624,0.4098173515981735,0.327027027027027,0.5020787478601125,0.6197802197802198,0.4373423044575273,1194.0
442.0,1.7109267184531937e+18,0.4765013054830287,0.4075342465753425,0.3145945945945946,0.5055025678650037,0.6285714285714286,0.4381833473507149,1196.0
443.0,1.7109267184631916e+18,0.47127937336814624,0.4063926940639269,0.31513513513513514,0.5028124235754463,0.621978021978022,0.4348191757779647,1192.0
444.0,1.7109267184731953e+18,0.47911227154047,0.4394977168949772,0.3389189189189189,0.5006113964294449,0.6252747252747253,0.43650126156433977,1194.0
445.0,1.7109267184831956e+18,0.4869451697127937,0.4337899543378995,0.36108108108108106,0.508192712154561,0.6296703296703297,0.4415475189234651,1193.0
446.0,1.7109267184932232e+18,0.4804177545691906,0.4269406392694064,0.33135135135135135,0.5015896307165566,0.6230769230769231,0.4381833473507149,1196.0
447.0,1.7109267185032044e+18,0.47389033942558745,0.4155251141552511,0.3389189189189189,0.5001222792858889,0.6241758241758242,0.43902439024390244,1194.0
448.0,1.7109267185131978e+18,0.47780678851174935,0.4132420091324201,0.3210810810810811,0.504035216434336,0.6318681318681318,0.4415475189234651,1195.0
449.0,1.710926718523193e+18,0.49869451697127937,0.454337899543379,0.3848648648648649,0.504524333577892,0.6252747252747253,0.44575273338940286,1195.0
450.0,1.7109267185331935e+18,0.4725848563968668,0.4052511415525114,0.3281081081081081,0.5030569821472243,0.6285714285714286,0.43986543313709,1193.0
451.0,1.7109267185431992e+18,0.4765013054830287,0.4178082191780822,0.33783783783783783,0.4969430178527757,0.6318681318681318,0.44238856181665265,1194.0
452.0,1.710926718553195e+18,0.4765013054830287,0.4337899543378995,0.34162162162162163,0.4812912692589875,0.6186813186813187,0.4373423044575273,1195.0
453.0,1.710926718563191e+18,0.48825065274151436,0.4463470319634703,0.3410810810810811,0.504035216434336,0.6285714285714286,0.4432296047098402,1196.0
454.0,1.7109267185731904e+18,0.4830287206266319,0.4178082191780822,0.33675675675675676,0.4969430178527757,0.621978021978022,0.43986543313709,1195.0
455.0,1.710926718583201e+18,0.47127937336814624,0.3915525114155251,0.3081081081081081,0.5035460992907801,0.6208791208791209,0.4432296047098402,1195.0
456.0,1.710926718593196e+18,0.4621409921671018,0.3961187214611872,0.3091891891891892,0.5074590364392272,0.6230769230769231,0.43566021867115223,1195.0
457.0,1.7109267186031954e+18,0.4804177545691906,0.4178082191780822,0.31027027027027027,0.5028124235754463,0.6296703296703297,0.4440706476030278,1194.0
458.0,1.7109267186131945e+18,0.47389033942558745,0.4063926940639269,0.33405405405405403,0.5011005135730008,0.6230769230769231,0.4381833473507149,1194.0
459.0,1.7109267186231964e+18,0.4804177545691906,0.4257990867579909,0.3518918918918919,0.5035460992907801,0.6406593406593407,0.4432296047098402,1194.0
460.0,1.7109267186331935e+18,0.4725848563968668,0.4052511415525114,0.32216216216216215,0.5077035950110051,0.6362637362637362,0.4415475189234651,1193.0
461.0,1.7109267186431951e+18,0.46344647519582244,0.3949771689497717,0.3372972972972973,0.49229640498899485,0.6098901098901099,0.4339781328847771,1192.0
462.0,1.7109267186531855e+18,0.48172323759791125,0.4143835616438356,0.3362162162162162,0.5020787478601125,0.6373626373626373,0.4440706476030278,1195.0
463.0,1.7109267186631954e+18,0.4765013054830287,0.4155251141552511,0.3335135135135135,0.5030569821472243,0.6153846153846154,0.43650126156433977,1196.0
464.0,1.7109267186732083e+18,0.47911227154047,0.4223744292237443,0.34756756756756757,0.5028124235754463,0.6285714285714286,0.4415475189234651,1197.0
465.0,1.7109267186831964e+18,0.4765013054830287,0.4235159817351598,0.3335135135135135,0.5064808021521154,0.6208791208791209,0.4373423044575273,1194.0
466.0,1.7109267186931996e+18,0.47389033942558745,0.4269406392694064,0.33405405405405403,0.5008559550012228,0.6274725274725275,0.4381833473507149,1195.0
467.0,1.710926718703182e+18,0.46344647519582244,0.4041095890410959,0.32972972972972975,0.5050134507214478,0.6208791208791209,0.4381833473507149,1194.0
468.0,1.7109267187131901e+18,0.47127937336814624,0.3767123287671233,0.33135135135135135,0.5011005135730008,0.6241758241758242,0.4415475189234651,1196.0
469.0,1.7109267187231908e+18,0.4725848563968668,0.3961187214611872,0.3324324324324324,0.499877720714111,0.6263736263736264,0.4415475189234651,1194.0
470.0,1.7109267187331894e+18,0.4934725848563969,0.478310502283105,0.4097297297297297,0.5028124235754463,0.6351648351648351,0.4432296047098402,1193.0
471.0,1.7109267187431926e+18,0.47780678851174935,0.4075342465753425,0.3286486486486486,0.4966984592809978,0.6241758241758242,0.44238856181665265,1195.0
472.0,1.7109267187531955e+18,0.47127937336814624,0.410958904109589,0.3302702702702703,0.5025678650036683,0.610989010989011,0.43566021867115223,1195.0
473.0,1.7109267187631923e+18,0.4869451697127937,0.4417808219178082,0.35405405405405405,0.499877720714111,0.6186813186813187,0.44070647603027757,1196.0
474.0,1.710926718773191e+18,0.4765013054830287,0.4132420091324201,0.3345945945945946,0.5006113964294449,0.6263736263736264,0.43902439024390244,1195.0
475.0,1.7109267187832271e+18,0.47127937336814624,0.4075342465753425,0.31675675675675674,0.5037906578625581,0.6153846153846154,0.432296047098402,1192.0
476.0,1.7109267187931945e+18,0.46866840731070497,0.4269406392694064,0.32,0.5035460992907801,0.6230769230769231,0.43650126156433977,1195.0
477.0,1.7109267188032115e+18,0.4908616187989556,0.4292237442922374,0.3627027027027027,0.5015896307165566,0.6318681318681318,0.4415475189234651,1196.0
478.0,1.7109267188131948e+18,0.45430809399477806,0.4063926940639269,0.3356756756756757,0.4974321349963316,0.610989010989011,0.42977291841883936,1192.0
479.0,1.710926718823191e+18,0.4725848563968668,0.4132420091324201,0.3254054054054054,0.49620934213744194,0.621978021978022,0.4381833473507149,1197.0
480.0,1.7109267188331965e+18,0.4908616187989556,0.4417808219178082,0.39675675675675676,0.49327463927610665,0.6230769230769231,0.44238856181665265,1193.0
481.0,1.7109267188432013e+18,0.46866840731070497,0.3892694063926941,0.31513513513513514,0.4979212521398875,0.6329670329670329,0.4415475189234651,1196.0
482.0,1.7109267188531963e+18,0.48172323759791125,0.4075342465753425,0.32054054054054054,0.5018341892883346,0.6175824175824176,0.4381833473507149,1195.0
483.0,1.7109267188631972e+18,0.4725848563968668,0.4132420091324201,0.32594594594594595,0.499877720714111,0.621978021978022,0.43902439024390244,1194.0
484.0,1.7109267188731917e+18,0.4765013054830287,0.4223744292237443,0.3372972972972973,0.4988994864269993,0.6296703296703297,0.43986543313709,1193.0
485.0,1.7109267188832233e+18,0.4830287206266319,0.4315068493150685,0.3410810810810811,0.5099046221570066,0.6362637362637362,0.4432296047098402,1196.0
486.0,1.710926718893189e+18,0.4830287206266319,0.408675799086758,0.3427027027027027,0.5084372707263389,0.6186813186813187,0.4432296047098402,1195.0
487.0,1.7109267189031977e+18,0.47911227154047,0.4200913242009132,0.3254054054054054,0.5025678650036683,0.6274725274725275,0.4432296047098402,1194.0
488.0,1.710926718913198e+18,0.47911227154047,0.410958904109589,0.3264864864864865,0.5020787478601125,0.6230769230769231,0.43902439024390244,1194.0
489.0,1.7109267189231857e+18,0.46866840731070497,0.410958904109589,0.33675675675675676,0.504035216434336,0.6252747252747253,0.43650126156433977,1193.0
490.0,1.7109267189331837e+18,0.4765013054830287,0.4246575342465753,0.3605405405405405,0.5011005135730008,0.621978021978022,0.43902439024390244,1194.0
491.0,1.710926718943177e+18,0.4804177545691906,0.4132420091324201,0.327027027027027,0.5101491807287846,0.6285714285714286,0.43902439024390244,1196.0
492.0,1.7109267189531924e+18,0.4725848563968668,0.4178082191780822,0.3497297297297297,0.4969430178527757,0.6208791208791209,0.43902439024390244,1194.0
493.0,1.7109267189631964e+18,0.47389033942558745,0.4132420091324201,0.34162162162162163,0.5015896307165566,0.6230769230769231,0.4381833473507149,1193.0
494.0,1.7109267189731965e+18,0.47127937336814624,0.410958904109589,0.3210810810810811,0.5037906578625581,0.6230769230769231,0.43902439024390244,1193.0
495.0,1.7109267189831974e+18,0.48825065274151436,0.4623287671232877,0.3908108108108108,0.495964783565664,0.6230769230769231,0.44238856181665265,1194.0
496.0,1.7109267189932e+18,0.4699738903394256,0.3984018264840183,0.3232432432432432,0.5013450721447786,0.6274725274725275,0.4381833473507149,1195.0
497.0,1.7109267190032054e+18,0.4725848563968668,0.410958904109589,0.31513513513513514,0.5055025678650037,0.6230769230769231,0.4381833473507149,1196.0
498.0,1.7109267190131543e+18,0.4765013054830287,0.4246575342465753,0.3324324324324324,0.5011005135730008,0.6241758241758242,0.4373423044575273,1195.0
499.0,1.7109267190231962e+18,0.47389033942558745,0.4018264840182648,0.33837837837837836,0.5037906578625581,0.6241758241758242,0.4415475189234651,1197.0
500.0,1.710926719033192e+18,0.47389033942558745,0.3881278538812785,0.30864864864864866,0.5008559550012228,0.6230769230769231,0.43566021867115223,1197.0
501.0,1.7109267190431946e+18,0.47780678851174935,0.4098173515981735,0.3356756756756757,0.4996331621423331,0.6230769230769231,0.43902439024390244,1197.0
502.0,1.7109267190531953e+18,0.45691906005221933,0.3915525114155251,0.3162162162162162,0.5113719735876743,0.6241758241758242,0.43650126156433977,1194.0
503.0,1.7109267190631974e+18,0.4699738903394256,0.4052511415525114,0.3227027027027027,0.5050134507214478,0.6329670329670329,0.4381833473507149,1195.0
504.0,1.710926719073193e+18,0.47389033942558745,0.4143835616438356,0.3345945945945946,0.5028124235754463,0.6175824175824176,0.43566021867115223,1196.0
505.0,1.7109267190831933e+18,0.47780678851174935,0.4178082191780822,0.3362162162162162,0.504035216434336,0.6274725274725275,0.4415475189234651,1195.0
506.0,1.7109267190932086e+18,0.47389033942558745,0.4075342465753425,0.33135135135135135,0.5015896307165566,0.6241758241758242,0.4415475189234651,1196.0
507.0,1.710926719103195e+18,0.46866840731070497,0.4029680365296804,0.3318918918918919,0.5062362435803375,0.6274725274725275,0.4415475189234651,1194.0
508.0,1.7109267191131955e+18,0.4765013054830287,0.4166666666666667,0.33513513513513515,0.48495964783565665,0.621978021978022,0.4381833473507149,1193.0
509.0,1.7109267191231954e+18,0.4765013054830287,0.4292237442922374,0.3254054054054054,0.5072144778674492,0.6296703296703297,0.4415475189234651,1194.0
510.0,1.7109267191331937e+18,0.4908616187989556,0.4269406392694064,0.35243243243243244,0.49645390070921985,0.6318681318681318,0.4415475189234651,1196.0
511.0,1.7109267191431972e+18,0.4765013054830287,0.4178082191780822,0.3362162162162162,0.4986549278552213,0.6208791208791209,0.43986543313709,1195.0
512.0,1.7109267191531907e+18,0.4830287206266319,0.4178082191780822,0.3389189189189189,0.5020787478601125,0.6241758241758242,0.43986543313709,1196.0
513.0,1.7109267191631892e+18,0.4830287206266319,0.4178082191780822,0.3362162162162162,0.4996331621423331,0.6263736263736264,0.44238856181665265,1193.0
514.0,1.71092671917319e+18,0.47911227154047,0.4132420091324201,0.3302702702702703,0.5033015407190022,0.6318681318681318,0.4373423044575273,1195.0
515.0,1.7109267191831926e+18,0.4660574412532637,0.3926940639269406,0.31675675675675674,0.5028124235754463,0.6208791208791209,0.4373423044575273,1194.0
516.0,1.7109267191932104e+18,0.4830287206266319,0.4394977168949772,0.3816216216216216,0.5057471264367817,0.6186813186813187,0.43902439024390244,1196.0
517.0,1.710926719203157e+18,0.4725848563968668,0.4121004566210046,0.3286486486486486,0.508192712154561,0.6274725274725275,0.43986543313709,1196.0
518.0,1.7109267192131948e+18,0.4725848563968668,0.4235159817351598,0.3362162162162162,0.5020787478601125,0.6230769230769231,0.43313708999158956,1193.0
519.0,1.7109267192231895e+18,0.4725848563968668,0.410958904109589,0.33297297297297296,0.5011005135730008,0.6164835164835165,0.4381833473507149,1196.0
520.0,1.7109267192331924e+18,0.4765013054830287,0.410958904109589,0.3324324324324324,0.5003668378576669,0.6274725274725275,0.43986543313709,1194.0
521.0,1.7109267192431967e+18,0.48433420365535246,0.4269406392694064,0.34756756756756757,0.5030569821472243,0.6241758241758242,0.4381833473507149,1197.0
522.0,1.7109267192531953e+18,0.4621409921671018,0.4052511415525114,0.3264864864864865,0.504035216434336,0.6153846153846154,0.43566021867115223,1196.0
523.0,1.7109267192631882e+18,0.4725848563968668,0.4075342465753425,0.3237837837837838,0.5018341892883346,0.6274725274725275,0.44070647603027757,1194.0
524.0,1.710926719273192e+18,0.47780678851174935,0.4178082191780822,0.30972972972972973,0.5067253607238934,0.6230769230769231,0.43902439024390244,1196.0
525.0,1.7109267192831913e+18,0.47127937336814624,0.4212328767123288,0.34540540540540543,0.499877720714111,0.6197802197802198,0.43650126156433977,1195.0
526.0,1.7109267192931958e+18,0.47389033942558745,0.4143835616438356,0.33405405405405403,0.5015896307165566,0.6274725274725275,0.4381833473507149,1197.0
527.0,1.710926719303199e+18,0.47389033942558745,0.4372146118721461,0.3183783783783784,0.5047688921496698,0.6252747252747253,0.43902439024390244,1194.0
528.0,1.7109267193131896e+18,0.47911227154047,0.408675799086758,0.32594594594594595,0.5108828564441183,0.6241758241758242,0.43650126156433977,1195.0
529.0,1.710926719323188e+18,0.4765013054830287,0.410958904109589,0.33405405405405403,0.5018341892883346,0.6274725274725275,0.43986543313709,1195.0
530.0,1.7109267193331912e+18,0.4751958224543081,0.408675799086758,0.3302702702702703,0.5030569821472243,0.6274725274725275,0.43902439024390244,1194.0
531.0,1.7109267193432056e+18,0.48825065274151436,0.4200913242009132,0.3427027027027027,0.5008559550012228,0.6274725274725275,0.43902439024390244,1197.0
532.0,1.7109267193532012e+18,0.48172323759791125,0.4257990867579909,0.34054054054054056,0.5052580092932257,0.6274725274725275,0.4432296047098402,1194.0
533.0,1.7109267193631974e+18,0.4830287206266319,0.4554794520547945,0.3389189189189189,0.4979212521398875,0.6208791208791209,0.4415475189234651,1194.0
534.0,1.7109267193731914e+18,0.48172323759791125,0.4360730593607306,0.3372972972972973,0.5028124235754463,0.6252747252747253,0.43902439024390244,1193.0
535.0,1.7109267193831944e+18,0.4621409921671018,0.3961187214611872,0.31135135135135134,0.495720224993886,0.6208791208791209,0.43650126156433977,1194.0
536.0,1.7109267193931988e+18,0.4765013054830287,0.4063926940639269,0.307027027027027,0.5035460992907801,0.6285714285714286,0.43986543313709,1194.0
537.0,1.7109267194032136e+18,0.4765013054830287,0.4189497716894977,0.34054054054054056,0.504035216434336,0.6252747252747253,0.43902439024390244,1197.0
538.0,1.710926719413201e+18,0.47127937336814624,0.4383561643835616,0.3324324324324324,0.5059916850085595,0.621978021978022,0.43650126156433977,1195.0
539.0,1.7109267194231918e+18,0.47389033942558745,0.4155251141552511,0.33513513513513515,0.5047688921496698,0.6230769230769231,0.4415475189234651,1196.0
540.0,1.7109267194331917e+18,0.48172323759791125,0.4406392694063927,0.34162162162162163,0.5033015407190022,0.6263736263736264,0.4381833473507149,1197.0
541.0,1.7109267194431895e+18,0.4608355091383812,0.4063926940639269,0.3318918918918919,0.5003668378576669,0.6285714285714286,0.43902439024390244,1196.0
542.0,1.7109267194531953e+18,0.4725848563968668,0.4132420091324201,0.34054054054054056,0.5074590364392272,0.6318681318681318,0.4373423044575273,1195.0
543.0,1.7109267194632143e+18,0.47127937336814624,0.4041095890410959,0.31351351351351353,0.495964783565664,0.6274725274725275,0.43902439024390244,1195.0
544.0,1.710926719473131e+18,0.46475195822454307,0.3938356164383562,0.3145945945945946,0.5015896307165566,0.6175824175824176,0.43650126156433977,1196.0
545.0,1.7109267194831562e+18,0.4725848563968668,0.4041095890410959,0.3210810810810811,0.4937637564196625,0.6175824175824176,0.4373423044575273,1194.0
546.0,1.7109267194931942e+18,0.47127937336814624,0.4189497716894977,0.34324324324324323,0.495720224993886,0.6142857142857143,0.4339781328847771,1193.0
547.0,1.710926719503209e+18,0.4765013054830287,0.4280821917808219,0.3654054054054054,0.4944974321349963,0.6197802197802198,0.43566021867115223,1192.0
548.0,1.71092671951319e+18,0.45822454308093996,0.3995433789954338,0.3216216216216216,0.5008559550012228,0.6230769230769231,0.4348191757779647,1196.0
549.0,1.710926719523193e+18,0.4804177545691906,0.4189497716894977,0.3372972972972973,0.5008559550012228,0.6197802197802198,0.4415475189234651,1196.0
550.0,1.7109267195331924e+18,0.46866840731070497,0.410958904109589,0.33405405405405403,0.49058449498654927,0.6197802197802198,0.4381833473507149,1196.0
551.0,1.7109267195432018e+18,0.47911227154047,0.4041095890410959,0.3254054054054054,0.5064808021521154,0.6263736263736264,0.4381833473507149,1194.0
552.0,1.7109267195531576e+18,0.48172323759791125,0.4189497716894977,0.3248648648648649,0.5035460992907801,0.6274725274725275,0.4415475189234651,1195.0
553.0,1.710926719563198e+18,0.47780678851174935,0.4041095890410959,0.32756756756756755,0.5006113964294449,0.6241758241758242,0.4381833473507149,1196.0
554.0,1.7109267195731942e+18,0.4725848563968668,0.4235159817351598,0.36648648648648646,0.5035460992907801,0.6296703296703297,0.4415475189234651,1195.0
555.0,1.7109267195832184e+18,0.47127937336814624,0.4337899543378995,0.32432432432432434,0.49229640498899485,0.6153846153846154,0.4381833473507149,1194.0
556.0,1.7109267195932326e+18,0.47780678851174935,0.408675799086758,0.32216216216216215,0.5008559550012228,0.6252747252747253,0.4381833473507149,1193.0
557.0,1.7109267196032105e+18,0.4765013054830287,0.4098173515981735,0.34486486486486484,0.5033015407190022,0.6120879120879121,0.43566021867115223,1195.0
558.0,1.7109267196132035e+18,0.4725848563968668,0.4006849315068493,0.3210810810810811,0.5025678650036683,0.6274725274725275,0.4381833473507149,1196.0
559.0,1.7109267196231967e+18,0.46344647519582244,0.3778538812785388,0.32972972972972975,0.5055025678650037,0.6230769230769231,0.43902439024390244,1196.0
560.0,1.710926719633198e+18,0.4765013054830287,0.3984018264840183,0.3254054054054054,0.4966984592809978,0.6230769230769231,0.4373423044575273,1196.0
561.0,1.7109267196431982e+18,0.47127937336814624,0.4121004566210046,0.32972972972972975,0.5037906578625581,0.6241758241758242,0.43902439024390244,1197.0
562.0,1.7109267196532006e+18,0.4765013054830287,0.4075342465753425,0.3264864864864865,0.4986549278552213,0.6208791208791209,0.4381833473507149,1195.0
563.0,1.7109267196631967e+18,0.48433420365535246,0.4406392694063927,0.34864864864864864,0.5018341892883346,0.6230769230769231,0.43902439024390244,1194.0
564.0,1.7109267196731945e+18,0.48172323759791125,0.4132420091324201,0.34054054054054056,0.49523110785033014,0.6230769230769231,0.4415475189234651,1195.0
565.0,1.7109267196831967e+18,0.47780678851174935,0.4257990867579909,0.3318918918918919,0.5050134507214478,0.6296703296703297,0.44238856181665265,1198.0
566.0,1.7109267196932014e+18,0.4660574412532637,0.4018264840182648,0.3232432432432432,0.4984103692834434,0.6142857142857143,0.43566021867115223,1194.0
567.0,1.7109267197031926e+18,0.4765013054830287,0.4052511415525114,0.3264864864864865,0.5079481535827831,0.6241758241758242,0.44238856181665265,1195.0
568.0,1.7109267197131937e+18,0.4751958224543081,0.4063926940639269,0.32054054054054054,0.5025678650036683,0.621978021978022,0.4373423044575273,1195.0
569.0,1.7109267197231964e+18,0.4725848563968668,0.410958904109589,0.3286486486486486,0.499877720714111,0.6186813186813187,0.43902439024390244,1195.0
570.0,1.7109267197331976e+18,0.4765013054830287,0.4155251141552511,0.3324324324324324,0.5001222792858889,0.6252747252747253,0.43902439024390244,1195.0
571.0,1.710926719743198e+18,0.4660574412532637,0.4132420091324201,0.3372972972972973,0.5023233064318905,0.6197802197802198,0.4348191757779647,1196.0
572.0,1.7109267197532e+18,0.46866840731070497,0.4155251141552511,0.33837837837837836,0.49523110785033014,0.6175824175824176,0.43650126156433977,1194.0
573.0,1.7109267197632443e+18,0.46866840731070497,0.4029680365296804,0.3308108108108108,0.5033015407190022,0.621978021978022,0.4381833473507149,1195.0
574.0,1.7109267197731988e+18,0.4451697127937337,0.3915525114155251,0.3183783783783784,0.4944974321349963,0.6252747252747253,0.4280908326324643,1192.0
575.0,1.7109267197832036e+18,0.47911227154047,0.4143835616438356,0.32972972972972975,0.5028124235754463,0.6274725274725275,0.43902439024390244,1195.0
576.0,1.7109267197932017e+18,0.47780678851174935,0.4143835616438356,0.3281081081081081,0.5035460992907801,0.6296703296703297,0.4381833473507149,1193.0
577.0,1.7109267198031741e+18,0.47389033942558745,0.410958904109589,0.3324324324324324,0.495964783565664,0.6186813186813187,0.4415475189234651,1196.0
578.0,1.710926719813199e+18,0.4765013054830287,0.4063926940639269,0.32594594594594595,0.4944974321349963,0.6175824175824176,0.43650126156433977,1196.0
579.0,1.7109267198232013e+18,0.47389033942558745,0.4155251141552511,0.3335135135135135,0.5013450721447786,0.6241758241758242,0.43902439024390244,1195.0
580.0,1.7109267198332012e+18,0.4765013054830287,0.4132420091324201,0.3286486486486486,0.5006113964294449,0.6230769230769231,0.4381833473507149,1197.0
581.0,1.710926719843202e+18,0.48172323759791125,0.4212328767123288,0.32756756756756755,0.5028124235754463,0.621978021978022,0.43902439024390244,1196.0
582.0,1.7109267198532022e+18,0.4765013054830287,0.4178082191780822,0.34486486486486484,0.5067253607238934,0.6285714285714286,0.43566021867115223,1197.0
583.0,1.7109267198632015e+18,0.4765013054830287,0.4155251141552511,0.33513513513513515,0.5035460992907801,0.6263736263736264,0.43902439024390244,1196.0
584.0,1.7109267198732004e+18,0.4804177545691906,0.4223744292237443,0.34162162162162163,0.5030569821472243,0.6263736263736264,0.43902439024390244,1195.0
585.0,1.7109267198832146e+18,0.47127937336814624,0.4132420091324201,0.33405405405405403,0.49938860357055515,0.6230769230769231,0.43902439024390244,1196.0
586.0,1.7109267198932227e+18,0.4699738903394256,0.4132420091324201,0.3308108108108108,0.5050134507214478,0.6285714285714286,0.43986543313709,1195.0
587.0,1.7109267199032233e+18,0.47127937336814624,0.4098173515981735,0.3356756756756757,0.5025678650036683,0.6153846153846154,0.43986543313709,1193.0
588.0,1.7109267199132068e+18,0.48172323759791125,0.4132420091324201,0.33405405405405403,0.504524333577892,0.6252747252747253,0.4373423044575273,1196.0
589.0,1.710926719923206e+18,0.4765013054830287,0.4189497716894977,0.33783783783783783,0.4974321349963316,0.6274725274725275,0.4381833473507149,1196.0
590.0,1.7109267199331901e+18,0.47780678851174935,0.4166666666666667,0.32756756756756755,0.5050134507214478,0.621978021978022,0.43650126156433977,1195.0
591.0,1.7109267199431882e+18,0.46475195822454307,0.4006849315068493,0.3302702702702703,0.5059916850085595,0.6230769230769231,0.4381833473507149,1193.0
592.0,1.7109267199532065e+18,0.47127937336814624,0.408675799086758,0.34324324324324323,0.5003668378576669,0.6241758241758242,0.43902439024390244,1193.0
593.0,1.7109267199632067e+18,0.47389033942558745,0.4143835616438356,0.3308108108108108,0.5006113964294449,0.6241758241758242,0.43902439024390244,1193.0
594.0,1.7109267199732076e+18,0.4660574412532637,0.4052511415525114,0.3318918918918919,0.49620934213744194,0.6208791208791209,0.43566021867115223,1194.0
595.0,1.7109267199832108e+18,0.48172323759791125,0.408675799086758,0.3237837837837838,0.5047688921496698,0.6285714285714286,0.4415475189234651,1194.0
596.0,1.7109267199932096e+18,0.47389033942558745,0.410958904109589,0.3345945945945946,0.5025678650036683,0.6208791208791209,0.43650126156433977,1197.0
597.0,1.7109267200032084e+18,0.4765013054830287,0.4235159817351598,0.34486486486486484,0.4944974321349963,0.6252747252747253,0.43902439024390244,1193.0
598.0,1.710926720013183e+18,0.4869451697127937,0.4178082191780822,0.31675675675675674,0.504035216434336,0.6274725274725275,0.43902439024390244,1194.0
599.0,1.7109267200231913e+18,0.48433420365535246,0.4280821917808219,0.35945945945945945,0.5057471264367817,0.6296703296703297,0.4415475189234651,1195.0
600.0,1.710926720033189e+18,0.4725848563968668,0.4212328767123288,0.34162162162162163,0.504035216434336,0.6285714285714286,0.4415475189234651,1195.0
601.0,1.710926720043189e+18,0.47911227154047,0.4132420091324201,0.3308108108108108,0.49767669356810956,0.6252747252747253,0.4415475189234651,1196.0
602.0,1.7109267200531917e+18,0.4765013054830287,0.4132420091324201,0.3427027027027027,0.5003668378576669,0.6241758241758242,0.44070647603027757,1194.0
603.0,1.7109267200632253e+18,0.46866840731070497,0.4041095890410959,0.31351351351351353,0.5030569821472243,0.6230769230769231,0.44070647603027757,1196.0
604.0,1.7109267200731924e+18,0.4660574412532637,0.410958904109589,0.3308108108108108,0.5008559550012228,0.6230769230769231,0.4381833473507149,1195.0
605.0,1.710926720083211e+18,0.47780678851174935,0.4041095890410959,0.3318918918918919,0.49938860357055515,0.6252747252747253,0.4415475189234651,1195.0
606.0,1.7109267200931942e+18,0.48172323759791125,0.4246575342465753,0.3372972972972973,0.5030569821472243,0.6252747252747253,0.4432296047098402,1195.0
607.0,1.7109267201031974e+18,0.4699738903394256,0.4006849315068493,0.31891891891891894,0.5028124235754463,0.6274725274725275,0.4381833473507149,1194.0
608.0,1.710926720113188e+18,0.47911227154047,0.4178082191780822,0.31675675675675674,0.4984103692834434,0.6252747252747253,0.4381833473507149,1195.0
609.0,1.7109267201231954e+18,0.47389033942558745,0.410958904109589,0.3281081081081081,0.5035460992907801,0.6263736263736264,0.4381833473507149,1194.0
610.0,1.7109267201331922e+18,0.48172323759791125,0.4235159817351598,0.3372972972972973,0.4966984592809978,0.6252747252747253,0.43986543313709,1196.0
611.0,1.710926720143191e+18,0.46736292428198434,0.4132420091324201,0.32972972972972975,0.49938860357055515,0.6230769230769231,0.43986543313709,1196.0
612.0,1.7109267201531904e+18,0.4765013054830287,0.4292237442922374,0.352972972972973,0.4979212521398875,0.6241758241758242,0.43902439024390244,1192.0
613.0,1.7109267201631987e+18,0.47911227154047,0.4132420091324201,0.3345945945945946,0.5028124235754463,0.6274725274725275,0.43986543313709,1196.0
614.0,1.710926720173198e+18,0.47127937336814624,0.4200913242009132,0.3356756756756757,0.5015896307165566,0.6186813186813187,0.4348191757779647,1197.0
615.0,1.7109267201831985e+18,0.47911227154047,0.4269406392694064,0.3627027027027027,0.4979212521398875,0.6241758241758242,0.4415475189234651,1194.0
616.0,1.710926720193197e+18,0.4725848563968668,0.4292237442922374,0.36702702702702705,0.5015896307165566,0.6230769230769231,0.43902439024390244,1194.0
617.0,1.710926720203226e+18,0.4869451697127937,0.4315068493150685,0.34486486486486484,0.5006113964294449,0.6274725274725275,0.4415475189234651,1196.0
618.0,1.7109267202132257e+18,0.4699738903394256,0.4052511415525114,0.32594594594594595,0.5025678650036683,0.6263736263736264,0.4381833473507149,1196.0
619.0,1.7109267202232e+18,0.4725848563968668,0.4075342465753425,0.33135135135135135,0.49620934213744194,0.6274725274725275,0.43986543313709,1196.0
620.0,1.7109267202331958e+18,0.46866840731070497,0.4018264840182648,0.3286486486486486,0.5020787478601125,0.6197802197802198,0.4339781328847771,1193.0
621.0,1.7109267202431887e+18,0.4765013054830287,0.410958904109589,0.3345945945945946,0.5052580092932257,0.6274725274725275,0.4415475189234651,1195.0
622.0,1.7109267202531886e+18,0.47127937336814624,0.4052511415525114,0.32,0.5015896307165566,0.6208791208791209,0.43650126156433977,1195.0
623.0,1.7109267202631908e+18,0.4595300261096606,0.4029680365296804,0.3291891891891892,0.504035216434336,0.6208791208791209,0.43313708999158956,1192.0
624.0,1.7109267202731942e+18,0.4765013054830287,0.410958904109589,0.3281081081081081,0.4988994864269993,0.6230769230769231,0.4381833473507149,1195.0
625.0,1.7109267202832026e+18,0.4804177545691906,0.4098173515981735,0.3464864864864865,0.5055025678650037,0.6318681318681318,0.4415475189234651,1193.0
626.0,1.7109267202932032e+18,0.4765013054830287,0.4178082191780822,0.34054054054054056,0.5008559550012228,0.621978021978022,0.4314550042052145,1193.0
627.0,1.7109267203032307e+18,0.48172323759791125,0.4052511415525114,0.32216216216216215,0.4927855221325507,0.6230769230769231,0.4432296047098402,1195.0
628.0,1.7109267203132017e+18,0.47127937336814624,0.4143835616438356,0.3232432432432432,0.5074590364392272,0.6252747252747253,0.43986543313709,1194.0
629.0,1.7109267203232315e+18,0.47780678851174935,0.4041095890410959,0.31027027027027027,0.5033015407190022,0.621978021978022,0.43566021867115223,1195.0
630.0,1.7109267203331914e+18,0.4660574412532637,0.4075342465753425,0.32216216216216215,0.4954756664221081,0.6197802197802198,0.4339781328847771,1193.0
631.0,1.710926720343191e+18,0.4765013054830287,0.4189497716894977,0.34594594594594597,0.5023233064318905,0.6230769230769231,0.43902439024390244,1196.0
632.0,1.710926720353191e+18,0.4751958224543081,0.410958904109589,0.32972972972972975,0.5162631450232331,0.6307692307692307,0.4415475189234651,1195.0
633.0,1.710926720363205e+18,0.4660574412532637,0.408675799086758,0.3362162162162162,0.5074590364392272,0.6197802197802198,0.4348191757779647,1195.0
634.0,1.7109267203731896e+18,0.4765013054830287,0.432648401826484,0.3324324324324324,0.5018341892883346,0.621978021978022,0.43566021867115223,1198.0
635.0,1.7109267203831946e+18,0.47127937336814624,0.4041095890410959,0.3248648648648649,0.5025678650036683,0.6241758241758242,0.43986543313709,1195.0
636.0,1.7109267203931968e+18,0.47127937336814624,0.410958904109589,0.3324324324324324,0.504035216434336,0.6241758241758242,0.4373423044575273,1196.0
637.0,1.7109267204031967e+18,0.4765013054830287,0.4143835616438356,0.32972972972972975,0.5055025678650037,0.6285714285714286,0.43986543313709,1194.0
638.0,1.7109267204131976e+18,0.4804177545691906,0.4200913242009132,0.33837837837837836,0.5047688921496698,0.6197802197802198,0.43650126156433977,1195.0
639.0,1.710926720423197e+18,0.47911227154047,0.4189497716894977,0.3389189189189189,0.49058449498654927,0.6208791208791209,0.4373423044575273,1196.0
640.0,1.710926720433195e+18,0.4699738903394256,0.4041095890410959,0.3216216216216216,0.5001222792858889,0.6153846153846154,0.4381833473507149,1195.0
641.0,1.7109267204431916e+18,0.4621409921671018,0.4280821917808219,0.33837837837837836,0.49816581071166544,0.6197802197802198,0.4339781328847771,1192.0
642.0,1.710926720453199e+18,0.46736292428198434,0.4121004566210046,0.32972972972972975,0.5055025678650037,0.6241758241758242,0.43986543313709,1194.0
643.0,1.7109267204631908e+18,0.47127937336814624,0.4098173515981735,0.3286486486486486,0.5023233064318905,0.6296703296703297,0.44070647603027757,1194.0
644.0,1.7109267204732137e+18,0.4608355091383812,0.4075342465753425,0.32972972972972975,0.4988994864269993,0.6263736263736264,0.43902439024390244,1195.0
645.0,1.710926720483238e+18,0.48172323759791125,0.4406392694063927,0.3691891891891892,0.5055025678650037,0.6296703296703297,0.4440706476030278,1194.0
646.0,1.7109267204931896e+18,0.4660574412532637,0.3995433789954338,0.3318918918918919,0.5037906578625581,0.6230769230769231,0.43566021867115223,1194.0
647.0,1.7109267205031905e+18,0.47389033942558745,0.4235159817351598,0.36864864864864866,0.5035460992907801,0.6230769230769231,0.4348191757779647,1192.0
648.0,1.710926720513194e+18,0.47127937336814624,0.4098173515981735,0.3291891891891892,0.49474199070677427,0.6164835164835165,0.43650126156433977,1194.0
649.0,1.710926720523195e+18,0.4765013054830287,0.4178082191780822,0.34702702702702704,0.5059916850085595,0.6296703296703297,0.4415475189234651,1196.0
650.0,1.7109267205331886e+18,0.48433420365535246,0.4452054794520548,0.38972972972972975,0.5055025678650037,0.6296703296703297,0.44238856181665265,1196.0
651.0,1.710926720543195e+18,0.4725848563968668,0.4052511415525114,0.3264864864864865,0.5020787478601125,0.6318681318681318,0.4415475189234651,1195.0
652.0,1.7109267205531907e+18,0.47127937336814624,0.3949771689497717,0.32756756756756755,0.504035216434336,0.6208791208791209,0.43902439024390244,1196.0
653.0,1.7109267205631887e+18,0.48172323759791125,0.4166666666666667,0.3254054054054054,0.504524333577892,0.6252747252747253,0.43902439024390244,1194.0
654.0,1.710926720573202e+18,0.4804177545691906,0.4063926940639269,0.31027027027027027,0.4969430178527757,0.6230769230769231,0.4381833473507149,1194.0
655.0,1.7109267205831987e+18,0.47389033942558745,0.4063926940639269,0.3216216216216216,0.49938860357055515,0.6087912087912087,0.4373423044575273,1196.0
656.0,1.7109267205931976e+18,0.4765013054830287,0.4315068493150685,0.36486486486486486,0.5067253607238934,0.6285714285714286,0.4381833473507149,1194.0
657.0,1.7109267206032049e+18,0.47389033942558745,0.4121004566210046,0.33135135135135135,0.504035216434336,0.6252747252747253,0.43902439024390244,1196.0
658.0,1.7109267206132037e+18,0.47389033942558745,0.408675799086758,0.3286486486486486,0.49938860357055515,0.6186813186813187,0.4339781328847771,1193.0
659.0,1.710926720623493e+18,0.4804177545691906,0.4200913242009132,0.32972972972972975,0.5011005135730008,0.6274725274725275,0.43986543313709,1196.0
660.0,1.7109267206332209e+18,0.46866840731070497,0.4143835616438356,0.3254054054054054,0.49767669356810956,0.6230769230769231,0.4381833473507149,1195.0
661.0,1.710926720643203e+18,0.46736292428198434,0.3995433789954338,0.34594594594594597,0.5025678650036683,0.6230769230769231,0.4381833473507149,1196.0
662.0,1.7109267206532086e+18,0.4725848563968668,0.4132420091324201,0.33405405405405403,0.5033015407190022,0.6263736263736264,0.4381833473507149,1195.0
663.0,1.7109267206632054e+18,0.4765013054830287,0.4178082191780822,0.35621621621621624,0.5001222792858889,0.6208791208791209,0.43650126156433977,1194.0
664.0,1.710926720673207e+18,0.47389033942558745,0.4132420091324201,0.3362162162162162,0.4969430178527757,0.6197802197802198,0.4381833473507149,1194.0
665.0,1.710926720683214e+18,0.48172323759791125,0.4178082191780822,0.34,0.5030569821472243,0.6274725274725275,0.44238856181665265,1194.0
666.0,1.7109267206931901e+18,0.47780678851174935,0.410958904109589,0.33405405405405403,0.49474199070677427,0.6175824175824176,0.43902439024390244,1195.0
667.0,1.710926720703196e+18,0.4765013054830287,0.4223744292237443,0.3362162162162162,0.5055025678650037,0.6296703296703297,0.4415475189234651,1192.0
668.0,1.7109267207131937e+18,0.47780678851174935,0.4132420091324201,0.3389189189189189,0.5079481535827831,0.6241758241758242,0.4381833473507149,1193.0
669.0,1.710926720723218e+18,0.48825065274151436,0.4452054794520548,0.3335135135135135,0.5015896307165566,0.6274725274725275,0.44238856181665265,1193.0
670.0,1.7109267207332122e+18,0.46736292428198434,0.4075342465753425,0.31135135135135134,0.5015896307165566,0.621978021978022,0.43650126156433977,1193.0
671.0,1.7109267207432003e+18,0.4751958224543081,0.4121004566210046,0.3281081081081081,0.5018341892883346,0.6252747252747253,0.4381833473507149,1193.0
672.0,1.710926720753193e+18,0.4804177545691906,0.4063926940639269,0.3362162162162162,0.5086818292981169,0.6274725274725275,0.4381833473507149,1195.0
673.0,1.7109267207632005e+18,0.4765013054830287,0.4098173515981735,0.33297297297297296,0.504524333577892,0.6274725274725275,0.43986543313709,1195.0
674.0,1.7109267207731978e+18,0.4765013054830287,0.4212328767123288,0.3372972972972973,0.5025678650036683,0.6274725274725275,0.43902439024390244,1194.0
675.0,1.7109267207832095e+18,0.47911227154047,0.410958904109589,0.31351351351351353,0.491562729273661,0.6208791208791209,0.4415475189234651,1194.0
676.0,1.7109267207931999e+18,0.46475195822454307,0.4075342465753425,0.3302702702702703,0.5037906578625581,0.6197802197802198,0.43650126156433977,1194.0
677.0,1.710926720803202e+18,0.4869451697127937,0.4406392694063927,0.3372972972972973,0.4988994864269993,0.6307692307692307,0.4415475189234651,1195.0
678.0,1.7109267208131958e+18,0.4660574412532637,0.4041095890410959,0.3324324324324324,0.5018341892883346,0.6186813186813187,0.43650126156433977,1193.0
679.0,1.7109267208231946e+18,0.48172323759791125,0.4121004566210046,0.3308108108108108,0.499877720714111,0.6208791208791209,0.4415475189234651,1195.0
680.0,1.7109267208332204e+18,0.46866840731070497,0.3995433789954338,0.3108108108108108,0.5003668378576669,0.6208791208791209,0.43902439024390244,1194.0
681.0,1.7109267208432036e+18,0.48172323759791125,0.4315068493150685,0.33297297297297296,0.4986549278552213,0.6208791208791209,0.44070647603027757,1194.0
682.0,1.710926720853188e+18,0.4869451697127937,0.4075342465753425,0.3232432432432432,0.5003668378576669,0.6241758241758242,0.43902439024390244,1194.0
683.0,1.7109267208631916e+18,0.4869451697127937,0.432648401826484,0.34486486486486484,0.5035460992907801,0.6153846153846154,0.4415475189234651,1194.0
684.0,1.7109267208731822e+18,0.46736292428198434,0.4063926940639269,0.3302702702702703,0.5015896307165566,0.6208791208791209,0.4381833473507149,1196.0
685.0,1.710926720883186e+18,0.47127937336814624,0.4075342465753425,0.3302702702702703,0.5015896307165566,0.6175824175824176,0.4348191757779647,1194.0
686.0,1.710926720893233e+18,0.47780678851174935,0.4212328767123288,0.36324324324324325,0.5008559550012228,0.6153846153846154,0.43902439024390244,1194.0
687.0,1.710926720903199e+18,0.46866840731070497,0.408675799086758,0.3281081081081081,0.504279775006114,0.6296703296703297,0.43986543313709,1194.0
688.0,1.7109267209143944e+18,0.47127937336814624,0.4178082191780822,0.34216216216216216,0.5050134507214478,0.6197802197802198,0.4381833473507149,1196.0
689.0,1.7109267209232038e+18,0.48172323759791125,0.4349315068493151,0.34054054054054056,0.5013450721447786,0.6208791208791209,0.43902439024390244,1196.0
690.0,1.7109267209331963e+18,0.47780678851174935,0.4189497716894977,0.3427027027027027,0.4988994864269993,0.6197802197802198,0.4373423044575273,1195.0
691.0,1.7109267209432353e+18,0.48172323759791125,0.4132420091324201,0.31675675675675674,0.49938860357055515,0.6263736263736264,0.43902439024390244,1194.0
692.0,1.7109267209531866e+18,0.47911227154047,0.4121004566210046,0.31675675675675674,0.49327463927610665,0.6230769230769231,0.43986543313709,1195.0
693.0,1.7109267209631898e+18,0.4765013054830287,0.4189497716894977,0.34486486486486484,0.5006113964294449,0.6274725274725275,0.43902439024390244,1196.0
694.0,1.710926720973195e+18,0.4699738903394256,0.4029680365296804,0.3254054054054054,0.504035216434336,0.6230769230769231,0.4381833473507149,1193.0
695.0,1.7109267209832038e+18,0.47911227154047,0.4178082191780822,0.34594594594594597,0.5059916850085595,0.6208791208791209,0.4373423044575273,1194.0
696.0,1.7109267209932114e+18,0.46736292428198434,0.3949771689497717,0.31675675675675674,0.4971875764245537,0.6241758241758242,0.43650126156433977,1195.0
697.0,1.7109267210031944e+18,0.47911227154047,0.4349315068493151,0.32972972972972975,0.4986549278552213,0.6241758241758242,0.4373423044575273,1195.0
698.0,1.7109267210132052e+18,0.46736292428198434,0.4052511415525114,0.3264864864864865,0.49400831499144043,0.6208791208791209,0.43902439024390244,1195.0
699.0,1.7109267210231972e+18,0.4765013054830287,0.4155251141552511,0.3324324324324324,0.504524333577892,0.6230769230769231,0.43566021867115223,1198.0
700.0,1.710926721033195e+18,0.4765013054830287,0.4143835616438356,0.3286486486486486,0.504524333577892,0.6241758241758242,0.4415475189234651,1197.0
701.0,1.7109267210432056e+18,0.4725848563968668,0.4143835616438356,0.33945945945945943,0.49474199070677427,0.6208791208791209,0.4373423044575273,1197.0
702.0,1.7109267210532004e+18,0.4608355091383812,0.4029680365296804,0.3216216216216216,0.504524333577892,0.6230769230769231,0.4314550042052145,1193.0
703.0,1.7109267210632061e+18,0.48172323759791125,0.4132420091324201,0.3145945945945946,0.4991440449987772,0.6274725274725275,0.4381833473507149,1195.0
704.0,1.7109267210731955e+18,0.46866840731070497,0.3961187214611872,0.33297297297297296,0.5079481535827831,0.6230769230769231,0.4415475189234651,1196.0
705.0,1.710926721083204e+18,0.48172323759791125,0.4075342465753425,0.3427027027027027,0.5059916850085595,0.6329670329670329,0.4381833473507149,1194.0
706.0,1.7109267210932047e+18,0.46475195822454307,0.4372146118721461,0.3772972972972973,0.49523110785033014,0.6153846153846154,0.4348191757779647,1195.0
707.0,1.7109267211032005e+18,0.47780678851174935,0.4132420091324201,0.3318918918918919,0.49645390070921985,0.6208791208791209,0.4373423044575273,1194.0
708.0,1.710926721113196e+18,0.4765013054830287,0.4200913242009132,0.33675675675675676,0.5028124235754463,0.6285714285714286,0.4381833473507149,1195.0
709.0,1.7109267211231982e+18,0.4556135770234987,0.4075342465753425,0.33405405405405403,0.5008559550012228,0.6131868131868132,0.4306139613120269,1193.0
710.0,1.7109267211331978e+18,0.46736292428198434,0.4052511415525114,0.3227027027027027,0.5096600635852286,0.6142857142857143,0.43566021867115223,1195.0
711.0,1.7109267211431995e+18,0.4725848563968668,0.410958904109589,0.33135135135135135,0.5006113964294449,0.6263736263736264,0.44070647603027757,1196.0
712.0,1.710926721153198e+18,0.47127937336814624,0.4155251141552511,0.33837837837837836,0.5035460992907801,0.6274725274725275,0.43986543313709,1197.0
713.0,1.710926721163202e+18,0.47127937336814624,0.4098173515981735,0.32594594594594595,0.5013450721447786,0.6241758241758242,0.4381833473507149,1196.0
714.0,1.7109267211731965e+18,0.47780678851174935,0.4155251141552511,0.3264864864864865,0.5077035950110051,0.6329670329670329,0.44070647603027757,1195.0
715.0,1.7109267211832018e+18,0.46736292428198434,0.4132420091324201,0.32756756756756755,0.5033015407190022,0.6197802197802198,0.43650126156433977,1197.0
716.0,1.7109267211932165e+18,0.46736292428198434,0.4052511415525114,0.3302702702702703,0.5035460992907801,0.6285714285714286,0.43650126156433977,1194.0
717.0,1.7109267212032161e+18,0.48172323759791125,0.4155251141552511,0.34702702702702704,0.5006113964294449,0.6285714285714286,0.4440706476030278,1196.0
718.0,1.7109267212132012e+18,0.47389033942558745,0.4189497716894977,0.34702702702702704,0.49229640498899485,0.6208791208791209,0.4381833473507149,1196.0
719.0,1.7109267212232044e+18,0.48172323759791125,0.4178082191780822,0.34054054054054056,0.5015896307165566,0.6263736263736264,0.44238856181665265,1194.0
720.0,1.7109267212331988e+18,0.4765013054830287,0.4246575342465753,0.35621621621621624,0.49620934213744194,0.6230769230769231,0.43902439024390244,1196.0
721.0,1.710926721243197e+18,0.4765013054830287,0.4075342465753425,0.3308108108108108,0.4988994864269993,0.6252747252747253,0.43986543313709,1196.0
722.0,1.710926721253206e+18,0.46736292428198434,0.4075342465753425,0.3372972972972973,0.4996331621423331,0.6373626373626373,0.43902439024390244,1194.0
723.0,1.7109267212631972e+18,0.48172323759791125,0.4212328767123288,0.3389189189189189,0.5064808021521154,0.6373626373626373,0.44238856181665265,1195.0
724.0,1.7109267212731994e+18,0.4765013054830287,0.4075342465753425,0.3324324324324324,0.4996331621423331,0.6164835164835165,0.4381833473507149,1195.0
725.0,1.710926721283207e+18,0.4765013054830287,0.4121004566210046,0.33405405405405403,0.5028124235754463,0.6241758241758242,0.43902439024390244,1194.0
726.0,1.710926721293207e+18,0.4595300261096606,0.4132420091324201,0.34,0.49645390070921985,0.6175824175824176,0.43566021867115223,1196.0
727.0,1.7109267213032084e+18,0.47780678851174935,0.4189497716894977,0.3362162162162162,0.504524333577892,0.6285714285714286,0.4440706476030278,1193.0
728.0,1.7109267213131827e+18,0.4699738903394256,0.4166666666666667,0.33297297297297296,0.5003668378576669,0.6153846153846154,0.4339781328847771,1193.0
729.0,1.7109267213232036e+18,0.47127937336814624,0.3972602739726027,0.3335135135135135,0.49327463927610665,0.6241758241758242,0.4381833473507149,1195.0
730.0,1.7109267213332012e+18,0.4699738903394256,0.4041095890410959,0.3345945945945946,0.5008559550012228,0.6164835164835165,0.4449116904962153,1196.0
731.0,1.7109267213432038e+18,0.4725848563968668,0.4132420091324201,0.33297297297297296,0.5015896307165566,0.6197802197802198,0.4381833473507149,1195.0
732.0,1.710926721353204e+18,0.47389033942558745,0.4143835616438356,0.33783783783783783,0.49767669356810956,0.6230769230769231,0.43902439024390244,1195.0
733.0,1.710926721363218e+18,0.4869451697127937,0.4200913242009132,0.3372972972972973,0.5028124235754463,0.6263736263736264,0.4415475189234651,1198.0
734.0,1.710926721373209e+18,0.4765013054830287,0.4132420091324201,0.34,0.499877720714111,0.6230769230769231,0.4381833473507149,1197.0
735.0,1.7109267213832097e+18,0.4725848563968668,0.4121004566210046,0.33405405405405403,0.5057471264367817,0.6241758241758242,0.4381833473507149,1195.0
736.0,1.7109267213932173e+18,0.47780678851174935,0.4200913242009132,0.3362162162162162,0.5047688921496698,0.6230769230769231,0.43650126156433977,1195.0
737.0,1.710926721403213e+18,0.4699738903394256,0.4052511415525114,0.3216216216216216,0.5086818292981169,0.6208791208791209,0.43313708999158956,1196.0
738.0,1.7109267214131953e+18,0.46736292428198434,0.3915525114155251,0.3124324324324324,0.5006113964294449,0.6208791208791209,0.4415475189234651,1197.0
739.0,1.7109267214231951e+18,0.45822454308093996,0.3972602739726027,0.3108108108108108,0.5055025678650037,0.6197802197802198,0.43313708999158956,1194.0
740.0,1.7109267214331945e+18,0.4765013054830287,0.4075342465753425,0.33297297297297296,0.5006113964294449,0.6307692307692307,0.43902439024390244,1195.0
741.0,1.7109267214431908e+18,0.4765013054830287,0.410958904109589,0.3308108108108108,0.5037906578625581,0.6241758241758242,0.43902439024390244,1195.0
742.0,1.7109267214532106e+18,0.4621409921671018,0.3995433789954338,0.32756756756756755,0.5018341892883346,0.6186813186813187,0.43650126156433977,1194.0
743.0,1.7109267214632077e+18,0.47911227154047,0.4029680365296804,0.3254054054054054,0.48911714355588165,0.6186813186813187,0.43902439024390244,1196.0
744.0,1.7109267214731866e+18,0.47780678851174935,0.4178082191780822,0.3302702702702703,0.4971875764245537,0.6208791208791209,0.43650126156433977,1194.0
745.0,1.710926721483227e+18,0.47911227154047,0.4269406392694064,0.3491891891891892,0.5037906578625581,0.6263736263736264,0.4440706476030278,1194.0
746.0,1.7109267214931917e+18,0.4725848563968668,0.4052511415525114,0.3216216216216216,0.49938860357055515,0.6197802197802198,0.43650126156433977,1197.0
747.0,1.7109267215032136e+18,0.46736292428198434,0.4178082191780822,0.3335135135135135,0.5018341892883346,0.6241758241758242,0.43650126156433977,1193.0
748.0,1.7109267215132014e+18,0.47127937336814624,0.4063926940639269,0.3232432432432432,0.5089263878698949,0.6241758241758242,0.43986543313709,1195.0
749.0,1.7109267215231974e+18,0.4765013054830287,0.4223744292237443,0.32972972972972975,0.4991440449987772,0.6164835164835165,0.43902439024390244,1196.0
750.0,1.7109267215331937e+18,0.4765013054830287,0.4143835616438356,0.3335135135135135,0.5023233064318905,0.6175824175824176,0.43986543313709,1196.0
751.0,1.7109267215431944e+18,0.48172323759791125,0.4200913242009132,0.35135135135135137,0.5023233064318905,0.6252747252747253,0.4415475189234651,1193.0
752.0,1.7109267215532188e+18,0.4725848563968668,0.4075342465753425,0.3291891891891892,0.5035460992907801,0.6208791208791209,0.4348191757779647,1194.0
753.0,1.7109267215631985e+18,0.4725848563968668,0.4155251141552511,0.3318918918918919,0.4986549278552213,0.6230769230769231,0.43650126156433977,1195.0
754.0,1.7109267215731932e+18,0.4621409921671018,0.3972602739726027,0.3254054054054054,0.4937637564196625,0.6120879120879121,0.432296047098402,1192.0
755.0,1.710926721583198e+18,0.48433420365535246,0.4372146118721461,0.35567567567567565,0.4984103692834434,0.6230769230769231,0.4415475189234651,1197.0
756.0,1.7109267215931817e+18,0.4660574412532637,0.408675799086758,0.3308108108108108,0.504524333577892,0.6230769230769231,0.4373423044575273,1195.0
757.0,1.710926721603207e+18,0.47127937336814624,0.4178082191780822,0.3335135135135135,0.504279775006114,0.6230769230769231,0.43902439024390244,1196.0
758.0,1.710926721613192e+18,0.4751958224543081,0.432648401826484,0.34216216216216216,0.5069699192956714,0.6252747252747253,0.43566021867115223,1196.0
759.0,1.710926721623196e+18,0.4725848563968668,0.4098173515981735,0.33405405405405403,0.495964783565664,0.6208791208791209,0.4415475189234651,1196.0
760.0,1.71092672163319e+18,0.4804177545691906,0.4200913242009132,0.33837837837837836,0.49523110785033014,0.6230769230769231,0.43986543313709,1196.0
761.0,1.710926721643191e+18,0.47911227154047,0.4235159817351598,0.3621621621621622,0.5030569821472243,0.6318681318681318,0.4415475189234651,1194.0
762.0,1.7109267216531889e+18,0.4725848563968668,0.3995433789954338,0.32594594594594595,0.4913181707018831,0.6087912087912087,0.43650126156433977,1196.0
763.0,1.7109267216632005e+18,0.4908616187989556,0.4349315068493151,0.3324324324324324,0.5094155050134507,0.6384615384615384,0.4449116904962153,1194.0
764.0,1.7109267216731907e+18,0.46866840731070497,0.3995433789954338,0.3183783783783784,0.4979212521398875,0.6197802197802198,0.43650126156433977,1195.0
765.0,1.710926721683194e+18,0.47780678851174935,0.4098173515981735,0.3345945945945946,0.5035460992907801,0.6285714285714286,0.4432296047098402,1196.0
766.0,1.7109267216931996e+18,0.4725848563968668,0.4235159817351598,0.34864864864864864,0.5020787478601125,0.6274725274725275,0.43902439024390244,1193.0
767.0,1.7109267217031923e+18,0.4765013054830287,0.4292237442922374,0.33837837837837836,0.5025678650036683,0.6285714285714286,0.4432296047098402,1192.0
768.0,1.710926721713199e+18,0.47780678851174935,0.4121004566210046,0.33405405405405403,0.4944974321349963,0.6175824175824176,0.4373423044575273,1194.0
769.0,1.710926721723199e+18,0.46866840731070497,0.4063926940639269,0.31891891891891894,0.49938860357055515,0.6208791208791209,0.4415475189234651,1195.0
770.0,1.710926721733188e+18,0.46475195822454307,0.4006849315068493,0.31513513513513514,0.5020787478601125,0.6230769230769231,0.44070647603027757,1195.0
771.0,1.7109267217431885e+18,0.4660574412532637,0.4132420091324201,0.33405405405405403,0.5028124235754463,0.6120879120879121,0.4348191757779647,1195.0
772.0,1.710926721753187e+18,0.47389033942558745,0.4189497716894977,0.33783783783783783,0.5030569821472243,0.6274725274725275,0.4415475189234651,1194.0
773.0,1.7109267217631864e+18,0.4869451697127937,0.410958904109589,0.3302702702702703,0.4971875764245537,0.6197802197802198,0.4381833473507149,1196.0
774.0,1.710926721773205e+18,0.47389033942558745,0.4132420091324201,0.33297297297297296,0.5052580092932257,0.6274725274725275,0.4432296047098402,1196.0
775.0,1.71092672178319e+18,0.47127937336814624,0.4075342465753425,0.3302702702702703,0.5015896307165566,0.6230769230769231,0.43902439024390244,1195.0
776.0,1.7109267217932014e+18,0.4765013054830287,0.4360730593607306,0.34702702702702704,0.5020787478601125,0.6208791208791209,0.43902439024390244,1195.0
777.0,1.710926721803205e+18,0.4608355091383812,0.4029680365296804,0.32594594594594595,0.504035216434336,0.6230769230769231,0.43566021867115223,1195.0
778.0,1.7109267218132004e+18,0.4725848563968668,0.4052511415525114,0.3254054054054054,0.5015896307165566,0.6186813186813187,0.4381833473507149,1196.0
779.0,1.7109267218231944e+18,0.4765013054830287,0.4132420091324201,0.3286486486486486,0.5067253607238934,0.6285714285714286,0.4415475189234651,1196.0
780.0,1.7109267218332035e+18,0.47389033942558745,0.4155251141552511,0.33513513513513515,0.5055025678650037,0.6296703296703297,0.4432296047098402,1196.0
781.0,1.7109267218431944e+18,0.47127937336814624,0.408675799086758,0.3286486486486486,0.5020787478601125,0.6241758241758242,0.4373423044575273,1193.0
782.0,1.7109267218531937e+18,0.4725848563968668,0.4075342465753425,0.32054054054054054,0.5015896307165566,0.6230769230769231,0.43650126156433977,1195.0
783.0,1.7109267218631946e+18,0.47780678851174935,0.4143835616438356,0.33405405405405403,0.5015896307165566,0.6241758241758242,0.4432296047098402,1193.0
784.0,1.7109267218732111e+18,0.46344647519582244,0.4063926940639269,0.3335135135135135,0.49498654927855223,0.6120879120879121,0.4348191757779647,1194.0
785.0,1.7109267218832143e+18,0.4908616187989556,0.4383561643835616,0.3324324324324324,0.5055025678650037,0.6307692307692307,0.4415475189234651,1194.0
786.0,1.7109267218931942e+18,0.47127937336814624,0.4132420091324201,0.33135135135135135,0.5013450721447786,0.6208791208791209,0.43566021867115223,1194.0
787.0,1.7109267219031898e+18,0.47127937336814624,0.4063926940639269,0.3318918918918919,0.504279775006114,0.6252747252747253,0.4381833473507149,1194.0
788.0,1.7109267219132206e+18,0.4751958224543081,0.4189497716894977,0.34162162162162163,0.504524333577892,0.6274725274725275,0.43986543313709,1194.0
789.0,1.710926721923195e+18,0.4765013054830287,0.4121004566210046,0.33297297297297296,0.5025678650036683,0.6230769230769231,0.4373423044575273,1194.0
790.0,1.7109267219332224e+18,0.47127937336814624,0.4178082191780822,0.3491891891891892,0.504035216434336,0.6241758241758242,0.4381833473507149,1194.0
791.0,1.7109267219432036e+18,0.47780678851174935,0.4269406392694064,0.3410810810810811,0.5018341892883346,0.6241758241758242,0.4373423044575273,1194.0
792.0,1.710926721953191e+18,0.4869451697127937,0.4611872146118721,0.34378378378378377,0.504035216434336,0.6285714285714286,0.44238856181665265,1196.0
793.0,1.7109267219631916e+18,0.47911227154047,0.408675799086758,0.33135135135135135,0.5006113964294449,0.634065934065934,0.4449116904962153,1195.0
794.0,1.7109267219731884e+18,0.4765013054830287,0.4052511415525114,0.32432432432432434,0.4913181707018831,0.6175824175824176,0.43902439024390244,1193.0
795.0,1.7109267219831913e+18,0.4765013054830287,0.4029680365296804,0.3108108108108108,0.5047688921496698,0.6274725274725275,0.4415475189234651,1194.0
796.0,1.710926721993199e+18,0.47127937336814624,0.4063926940639269,0.3254054054054054,0.5084372707263389,0.6241758241758242,0.43902439024390244,1196.0
797.0,1.7109267220031885e+18,0.47127937336814624,0.4075342465753425,0.32216216216216215,0.4954756664221081,0.6142857142857143,0.43566021867115223,1195.0
798.0,1.7109267220131855e+18,0.46475195822454307,0.408675799086758,0.3302702702702703,0.5015896307165566,0.6197802197802198,0.43566021867115223,1197.0
799.0,1.7109267220231918e+18,0.47911227154047,0.4257990867579909,0.33135135135135135,0.5025678650036683,0.6296703296703297,0.43986543313709,1196.0
800.0,1.7109267220332014e+18,0.4765013054830287,0.3995433789954338,0.3335135135135135,0.499877720714111,0.6197802197802198,0.4373423044575273,1194.0
801.0,1.7109267220437074e+18,0.46866840731070497,0.365296803652968,0.3232432432432432,0.5011005135730008,0.6296703296703297,0.4373423044575273,1193.0
802.0,1.710926722053201e+18,0.47127937336814624,0.4052511415525114,0.3362162162162162,0.5015896307165566,0.6186813186813187,0.43986543313709,1192.0
803.0,1.710926722063193e+18,0.46866840731070497,0.4189497716894977,0.3308108108108108,0.49400831499144043,0.6230769230769231,0.43986543313709,1194.0
804.0,1.7109267220731894e+18,0.4621409921671018,0.4041095890410959,0.3308108108108108,0.49938860357055515,0.6120879120879121,0.43313708999158956,1194.0
805.0,1.71092672208316e+18,0.48433420365535246,0.4497716894977169,0.40540540540540543,0.49474199070677427,0.6274725274725275,0.4432296047098402,1197.0
806.0,1.7109267220932035e+18,0.4699738903394256,0.4063926940639269,0.3254054054054054,0.5013450721447786,0.6241758241758242,0.4381833473507149,1193.0
807.0,1.7109267221031619e+18,0.4699738903394256,0.4178082191780822,0.3362162162162162,0.5015896307165566,0.6230769230769231,0.43566021867115223,1191.0
808.0,1.710926722113193e+18,0.4725848563968668,0.4075342465753425,0.33405405405405403,0.504524333577892,0.6241758241758242,0.4339781328847771,1192.0
809.0,1.7109267221231913e+18,0.48172323759791125,0.4052511415525114,0.3302702702702703,0.4937637564196625,0.6241758241758242,0.4415475189234651,1193.0
810.0,1.7109267221331986e+18,0.46736292428198434,0.4075342465753425,0.3308108108108108,0.5023233064318905,0.6208791208791209,0.43566021867115223,1196.0
811.0,1.7109267221432015e+18,0.4699738903394256,0.4235159817351598,0.32756756756756755,0.5015896307165566,0.6274725274725275,0.43902439024390244,1195.0
812.0,1.7109267221531917e+18,0.47911227154047,0.4315068493150685,0.33783783783783783,0.5028124235754463,0.6296703296703297,0.4415475189234651,1195.0
813.0,1.7109267221632003e+18,0.4725848563968668,0.3972602739726027,0.3335135135135135,0.5023233064318905,0.6186813186813187,0.4415475189234651,1195.0
814.0,1.7109267221731932e+18,0.4765013054830287,0.4075342465753425,0.33405405405405403,0.49767669356810956,0.6197802197802198,0.43986543313709,1194.0
815.0,1.710926722183224e+18,0.4660574412532637,0.4052511415525114,0.32594594594594595,0.5003668378576669,0.6098901098901099,0.43313708999158956,1193.0
816.0,1.7109267221932014e+18,0.46736292428198434,0.410958904109589,0.33135135135135135,0.4996331621423331,0.6175824175824176,0.4348191757779647,1196.0
817.0,1.7109267222032e+18,0.47127937336814624,0.3995433789954338,0.31567567567567567,0.4979212521398875,0.6230769230769231,0.43986543313709,1196.0
818.0,1.710926722213204e+18,0.4765013054830287,0.4018264840182648,0.3372972972972973,0.5015896307165566,0.6241758241758242,0.43902439024390244,1196.0
819.0,1.7109267222232023e+18,0.47780678851174935,0.4429223744292237,0.3627027027027027,0.5028124235754463,0.6252747252747253,0.4381833473507149,1197.0
820.0,1.7109267222332088e+18,0.46866840731070497,0.4178082191780822,0.33513513513513515,0.4942528735632184,0.6208791208791209,0.43650126156433977,1196.0
821.0,1.7109267222432038e+18,0.46866840731070497,0.4006849315068493,0.3232432432432432,0.5077035950110051,0.6230769230769231,0.4381833473507149,1194.0
822.0,1.710926722253205e+18,0.4725848563968668,0.3949771689497717,0.29945945945945945,0.5008559550012228,0.6164835164835165,0.43902439024390244,1195.0
823.0,1.710926722263201e+18,0.47911227154047,0.4200913242009132,0.35081081081081084,0.5006113964294449,0.6263736263736264,0.4381833473507149,1196.0
824.0,1.7109267222732012e+18,0.46866840731070497,0.4098173515981735,0.3410810810810811,0.5037906578625581,0.610989010989011,0.4348191757779647,1194.0
825.0,1.7109267222832187e+18,0.4699738903394256,0.4235159817351598,0.3183783783783784,0.5057471264367817,0.6296703296703297,0.44238856181665265,1195.0
826.0,1.7109267222932124e+18,0.4765013054830287,0.3961187214611872,0.31027027027027027,0.5003668378576669,0.6197802197802198,0.43986543313709,1196.0
827.0,1.7109267223031992e+18,0.47127937336814624,0.410958904109589,0.3324324324324324,0.5086818292981169,0.6307692307692307,0.4415475189234651,1194.0
828.0,1.7109267223132047e+18,0.4804177545691906,0.4098173515981735,0.3362162162162162,0.5050134507214478,0.6230769230769231,0.44238856181665265,1196.0
829.0,1.710926722323198e+18,0.46736292428198434,0.408675799086758,0.3227027027027027,0.5067253607238934,0.6131868131868132,0.4339781328847771,1195.0
830.0,1.7109267223332017e+18,0.46866840731070497,0.4132420091324201,0.3362162162162162,0.5030569821472243,0.6274725274725275,0.4381833473507149,1194.0
831.0,1.7109267223432123e+18,0.4765013054830287,0.4178082191780822,0.3372972972972973,0.4991440449987772,0.6362637362637362,0.44238856181665265,1194.0
832.0,1.7109267223531948e+18,0.4765013054830287,0.4280821917808219,0.37945945945945947,0.5055025678650037,0.6241758241758242,0.4415475189234651,1194.0
833.0,1.7109267223632087e+18,0.47780678851174935,0.4063926940639269,0.3264864864864865,0.5028124235754463,0.6263736263736264,0.43986543313709,1193.0
834.0,1.7109267223732076e+18,0.47911227154047,0.4269406392694064,0.35027027027027025,0.5047688921496698,0.6252747252747253,0.4415475189234651,1193.0
835.0,1.7109267223832061e+18,0.4804177545691906,0.4463470319634703,0.3291891891891892,0.4927855221325507,0.6274725274725275,0.44238856181665265,1194.0
836.0,1.7109267223932157e+18,0.4869451697127937,0.4189497716894977,0.33297297297297296,0.504524333577892,0.6241758241758242,0.4415475189234651,1194.0
837.0,1.7109267224031985e+18,0.4725848563968668,0.4018264840182648,0.31513513513513514,0.5025678650036683,0.6296703296703297,0.4440706476030278,1194.0
838.0,1.7109267224131994e+18,0.47127937336814624,0.4006849315068493,0.3254054054054054,0.5011005135730008,0.6230769230769231,0.4381833473507149,1195.0
839.0,1.7109267224232115e+18,0.46866840731070497,0.4018264840182648,0.3264864864864865,0.504035216434336,0.6274725274725275,0.43566021867115223,1196.0
840.0,1.7109267224332083e+18,0.46736292428198434,0.4075342465753425,0.327027027027027,0.491562729273661,0.6142857142857143,0.4381833473507149,1195.0
841.0,1.7109267224432138e+18,0.4856396866840731,0.4554794520547945,0.3254054054054054,0.504524333577892,0.6285714285714286,0.4415475189234651,1193.0
842.0,1.710926722453205e+18,0.4869451697127937,0.4155251141552511,0.34324324324324323,0.504279775006114,0.6274725274725275,0.44238856181665265,1196.0
843.0,1.7109267224631506e+18,0.46866840731070497,0.4189497716894977,0.3518918918918919,0.5055025678650037,0.6296703296703297,0.43902439024390244,1195.0
844.0,1.7109267224731935e+18,0.4725848563968668,0.4075342465753425,0.3232432432432432,0.5020787478601125,0.6285714285714286,0.43902439024390244,1194.0
845.0,1.7109267224832e+18,0.47127937336814624,0.410958904109589,0.31945945945945947,0.49474199070677427,0.6153846153846154,0.43650126156433977,1194.0
846.0,1.7109267224932065e+18,0.4725848563968668,0.4075342465753425,0.33135135135135135,0.5015896307165566,0.6318681318681318,0.43902439024390244,1196.0
847.0,1.710926722503207e+18,0.47389033942558745,0.4052511415525114,0.33135135135135135,0.499877720714111,0.6142857142857143,0.43902439024390244,1192.0
848.0,1.7109267225131917e+18,0.46866840731070497,0.3995433789954338,0.33135135135135135,0.49498654927855223,0.6230769230769231,0.43902439024390244,1194.0
849.0,1.7109267225231826e+18,0.4830287206266319,0.4520547945205479,0.34162162162162163,0.5008559550012228,0.6307692307692307,0.43986543313709,1196.0
850.0,1.7109267225331863e+18,0.489556135770235,0.4360730593607306,0.3762162162162162,0.5074590364392272,0.6285714285714286,0.44070647603027757,1194.0
851.0,1.7109267225431805e+18,0.4699738903394256,0.4052511415525114,0.3172972972972973,0.5037906578625581,0.6197802197802198,0.4348191757779647,1193.0
852.0,1.7109267225531948e+18,0.4804177545691906,0.4509132420091324,0.40378378378378377,0.504279775006114,0.6285714285714286,0.4432296047098402,1196.0
853.0,1.7109267225632036e+18,0.4765013054830287,0.4075342465753425,0.3281081081081081,0.5001222792858889,0.6252747252747253,0.43902439024390244,1196.0
854.0,1.7109267225731336e+18,0.4699738903394256,0.4006849315068493,0.3335135135135135,0.4954756664221081,0.6186813186813187,0.4339781328847771,1192.0
855.0,1.7109267225832233e+18,0.4765013054830287,0.408675799086758,0.33135135135135135,0.4937637564196625,0.6241758241758242,0.4381833473507149,1196.0
856.0,1.7109267225931487e+18,0.4830287206266319,0.4429223744292237,0.33675675675675676,0.5020787478601125,0.6230769230769231,0.43650126156433977,1194.0
857.0,1.710926722603203e+18,0.4699738903394256,0.4075342465753425,0.32756756756756755,0.5008559550012228,0.6186813186813187,0.4339781328847771,1193.0
858.0,1.7109267226131904e+18,0.48172323759791125,0.432648401826484,0.3854054054054054,0.5055025678650037,0.6274725274725275,0.43986543313709,1195.0
859.0,1.7109267226231926e+18,0.4751958224543081,0.408675799086758,0.32594594594594595,0.5052580092932257,0.6318681318681318,0.43902439024390244,1197.0
860.0,1.7109267226331927e+18,0.46866840731070497,0.4063926940639269,0.3216216216216216,0.495964783565664,0.6208791208791209,0.43902439024390244,1194.0
861.0,1.7109267226431913e+18,0.4725848563968668,0.4178082191780822,0.34162162162162163,0.504279775006114,0.6252747252747253,0.43986543313709,1194.0
862.0,1.7109267226531965e+18,0.4725848563968668,0.4143835616438356,0.34054054054054056,0.5059916850085595,0.6274725274725275,0.43986543313709,1194.0
863.0,1.710926722663192e+18,0.47911227154047,0.4315068493150685,0.3324324324324324,0.5008559550012228,0.621978021978022,0.4381833473507149,1195.0
864.0,1.7109267226731912e+18,0.4765013054830287,0.4509132420091324,0.33675675675675676,0.5064808021521154,0.6241758241758242,0.4415475189234651,1193.0
865.0,1.7109267226831964e+18,0.4856396866840731,0.410958904109589,0.3172972972972973,0.5006113964294449,0.6274725274725275,0.44070647603027757,1194.0
866.0,1.7109267226932204e+18,0.4725848563968668,0.410958904109589,0.3254054054054054,0.495964783565664,0.6241758241758242,0.4415475189234651,1194.0
867.0,1.7109267227031995e+18,0.46866840731070497,0.4075342465753425,0.3237837837837838,0.49938860357055515,0.6120879120879121,0.42977291841883936,1191.0
868.0,1.7109267227131917e+18,0.4765013054830287,0.4212328767123288,0.3572972972972973,0.5020787478601125,0.6274725274725275,0.43986543313709,1194.0
869.0,1.7109267227231936e+18,0.47127937336814624,0.4052511415525114,0.3232432432432432,0.5008559550012228,0.6241758241758242,0.43650126156433977,1195.0
870.0,1.7109267227331958e+18,0.4804177545691906,0.432648401826484,0.3362162162162162,0.5011005135730008,0.6186813186813187,0.43986543313709,1194.0
871.0,1.710926722743192e+18,0.4725848563968668,0.4098173515981735,0.34054054054054056,0.4996331621423331,0.6274725274725275,0.43566021867115223,1194.0
872.0,1.7109267227531415e+18,0.48825065274151436,0.4726027397260274,0.40378378378378377,0.5008559550012228,0.6307692307692307,0.4415475189234651,1192.0
873.0,1.7109267227632077e+18,0.47127937336814624,0.3961187214611872,0.3237837837837838,0.504524333577892,0.634065934065934,0.4415475189234651,1193.0
874.0,1.7109267227731948e+18,0.47127937336814624,0.4063926940639269,0.33297297297297296,0.4971875764245537,0.6076923076923076,0.43902439024390244,1196.0
875.0,1.7109267227831982e+18,0.47127937336814624,0.4041095890410959,0.3216216216216216,0.4988994864269993,0.6274725274725275,0.4381833473507149,1193.0
876.0,1.710926722793196e+18,0.47780678851174935,0.4189497716894977,0.3497297297297297,0.5030569821472243,0.6252747252747253,0.43986543313709,1193.0
877.0,1.7109267228032097e+18,0.4765013054830287,0.4143835616438356,0.3427027027027027,0.4988994864269993,0.621978021978022,0.4348191757779647,1196.0
878.0,1.7109267228132012e+18,0.4765013054830287,0.4075342465753425,0.3427027027027027,0.5023233064318905,0.6274725274725275,0.4415475189234651,1193.0
879.0,1.710926722823183e+18,0.4725848563968668,0.4029680365296804,0.3227027027027027,0.5047688921496698,0.6263736263736264,0.4373423044575273,1194.0
880.0,1.710926722833194e+18,0.4765013054830287,0.4452054794520548,0.34702702702702704,0.5030569821472243,0.621978021978022,0.4373423044575273,1194.0
881.0,1.710926722843184e+18,0.4869451697127937,0.4143835616438356,0.3254054054054054,0.5079481535827831,0.6296703296703297,0.4415475189234651,1195.0
882.0,1.7109267228532193e+18,0.4621409921671018,0.408675799086758,0.33675675675675676,0.5028124235754463,0.6186813186813187,0.4348191757779647,1195.0
883.0,1.7109267228631962e+18,0.4830287206266319,0.4178082191780822,0.34,0.4979212521398875,0.6307692307692307,0.44238856181665265,1194.0
884.0,1.7109267228731958e+18,0.4856396866840731,0.4041095890410959,0.3335135135135135,0.4974321349963316,0.6263736263736264,0.42052144659377627,1191.0
885.0,1.7109267228832072e+18,0.4765013054830287,0.4041095890410959,0.31189189189189187,0.49938860357055515,0.6241758241758242,0.4255677039529016,1193.0
886.0,1.7109267228932047e+18,0.4725848563968668,0.3995433789954338,0.32216216216216215,0.49229640498899485,0.621978021978022,0.4415475189234651,1194.0
887.0,1.7109267229032215e+18,0.4765013054830287,0.4417808219178082,0.3335135135135135,0.5015896307165566,0.6252747252747253,0.42640874684608915,1193.0
888.0,1.710926722913196e+18,0.46344647519582244,0.4052511415525114,0.34540540540540543,0.499877720714111,0.6153846153846154,0.432296047098402,1192.0
889.0,1.710926722923196e+18,0.47127937336814624,0.4098173515981735,0.31513513513513514,0.5030569821472243,0.6274725274725275,0.4415475189234651,1194.0
890.0,1.710926722933199e+18,0.47127937336814624,0.4063926940639269,0.3302702702702703,0.499877720714111,0.6230769230769231,0.4415475189234651,1193.0
891.0,1.7109267229431903e+18,0.4765013054830287,0.4223744292237443,0.3491891891891892,0.5001222792858889,0.6274725274725275,0.43902439024390244,1195.0
892.0,1.7109267229531896e+18,0.4751958224543081,0.4143835616438356,0.3410810810810811,0.5086818292981169,0.6274725274725275,0.4415475189234651,1193.0
893.0,1.7109267229632166e+18,0.4856396866840731,0.4474885844748858,0.34594594594594597,0.5001222792858889,0.6274725274725275,0.4381833473507149,1193.0
894.0,1.7109267229731884e+18,0.47389033942558745,0.4132420091324201,0.33675675675675676,0.5006113964294449,0.6241758241758242,0.4381833473507149,1195.0
895.0,1.7109267229832008e+18,0.47389033942558745,0.4063926940639269,0.32756756756756755,0.5028124235754463,0.6197802197802198,0.4373423044575273,1192.0
896.0,1.710926722993195e+18,0.4830287206266319,0.4315068493150685,0.36108108108108106,0.4859378821227684,0.6186813186813187,0.4415475189234651,1195.0
897.0,1.710926723003196e+18,0.4608355091383812,0.3972602739726027,0.3178378378378378,0.49938860357055515,0.610989010989011,0.4314550042052145,1192.0
898.0,1.710926723013192e+18,0.47389033942558745,0.4360730593607306,0.3362162162162162,0.5018341892883346,0.6175824175824176,0.4339781328847771,1192.0
899.0,1.7109267230231905e+18,0.4725848563968668,0.4143835616438356,0.3589189189189189,0.4996331621423331,0.6274725274725275,0.4381833473507149,1195.0
900.0,1.7109267230332045e+18,0.47127937336814624,0.4178082191780822,0.3324324324324324,0.5003668378576669,0.6230769230769231,0.4415475189234651,1194.0
901.0,1.7109267230431939e+18,0.48172323759791125,0.432648401826484,0.3362162162162162,0.49938860357055515,0.6285714285714286,0.44238856181665265,1194.0
902.0,1.710926723053195e+18,0.48433420365535246,0.4178082191780822,0.3308108108108108,0.4927855221325507,0.6208791208791209,0.4373423044575273,1196.0
903.0,1.7109267230632156e+18,0.4765013054830287,0.4178082191780822,0.34756756756756757,0.5003668378576669,0.6296703296703297,0.43902439024390244,1196.0
904.0,1.7109267230732042e+18,0.47911227154047,0.4360730593607306,0.3551351351351351,0.5018341892883346,0.6274725274725275,0.43986543313709,1194.0
905.0,1.7109267230832015e+18,0.4765013054830287,0.4098173515981735,0.3302702702702703,0.5003668378576669,0.621978021978022,0.43902439024390244,1196.0
906.0,1.710926723093246e+18,0.46344647519582244,0.3995433789954338,0.32432432432432434,0.5018341892883346,0.6197802197802198,0.43566021867115223,1193.0
907.0,1.7109267231031987e+18,0.4725848563968668,0.4063926940639269,0.3237837837837838,0.4991440449987772,0.6175824175824176,0.43566021867115223,1193.0
908.0,1.7109267231131336e+18,0.4699738903394256,0.3995433789954338,0.33945945945945943,0.5028124235754463,0.6241758241758242,0.4381833473507149,1195.0
909.0,1.7109267231231672e+18,0.47389033942558745,0.4006849315068493,0.31351351351351353,0.4996331621423331,0.6230769230769231,0.4381833473507149,1192.0
910.0,1.7109267231331945e+18,0.49869451697127937,0.45662100456621,0.3772972972972973,0.5067253607238934,0.6318681318681318,0.4465937762825904,1195.0
911.0,1.7109267231431987e+18,0.47911227154047,0.4189497716894977,0.33837837837837836,0.5015896307165566,0.6285714285714286,0.43902439024390244,1194.0
912.0,1.7109267231531999e+18,0.47127937336814624,0.4143835616438356,0.3362162162162162,0.5035460992907801,0.6252747252747253,0.44070647603027757,1196.0
913.0,1.7109267231632535e+18,0.4765013054830287,0.4132420091324201,0.3281081081081081,0.5035460992907801,0.6164835164835165,0.4381833473507149,1195.0
914.0,1.7109267231731945e+18,0.4699738903394256,0.4132420091324201,0.3286486486486486,0.5020787478601125,0.6296703296703297,0.4381833473507149,1193.0
915.0,1.7109267231831654e+18,0.47389033942558745,0.4269406392694064,0.3335135135135135,0.499877720714111,0.6230769230769231,0.43902439024390244,1194.0
916.0,1.710926723193211e+18,0.4751958224543081,0.3892694063926941,0.31405405405405407,0.5013450721447786,0.6230769230769231,0.4381833473507149,1194.0
917.0,1.7109267232032026e+18,0.48172323759791125,0.4269406392694064,0.35243243243243244,0.5028124235754463,0.6307692307692307,0.44070647603027757,1196.0
918.0,1.710926723213266e+18,0.46866840731070497,0.4143835616438356,0.33837837837837836,0.5025678650036683,0.6274725274725275,0.4432296047098402,1194.0
919.0,1.7109267232231647e+18,0.4621409921671018,0.4075342465753425,0.31027027027027027,0.5067253607238934,0.6274725274725275,0.4339781328847771,1196.0
920.0,1.7109267232332035e+18,0.47911227154047,0.4132420091324201,0.3232432432432432,0.5006113964294449,0.6175824175824176,0.4373423044575273,1196.0
921.0,1.7109267232432038e+18,0.47127937336814624,0.4075342465753425,0.3232432432432432,0.5011005135730008,0.6230769230769231,0.43986543313709,1195.0
922.0,1.7109267232532035e+18,0.47127937336814624,0.4098173515981735,0.32756756756756755,0.5028124235754463,0.6241758241758242,0.4415475189234651,1193.0
923.0,1.7109267232632476e+18,0.4725848563968668,0.4029680365296804,0.3291891891891892,0.5055025678650037,0.6230769230769231,0.4381833473507149,1196.0
924.0,1.710926723273258e+18,0.4765013054830287,0.3972602739726027,0.32756756756756755,0.5084372707263389,0.6274725274725275,0.43902439024390244,1195.0
925.0,1.7109267232832497e+18,0.47911227154047,0.4383561643835616,0.34702702702702704,0.5015896307165566,0.6274725274725275,0.43986543313709,1194.0
926.0,1.7109267232932508e+18,0.4765013054830287,0.4098173515981735,0.3335135135135135,0.4954756664221081,0.6230769230769231,0.4381833473507149,1194.0
927.0,1.710926723303247e+18,0.4765013054830287,0.4075342465753425,0.3302702702702703,0.5025678650036683,0.6274725274725275,0.43902439024390244,1194.0
928.0,1.7109267233132454e+18,0.47127937336814624,0.4052511415525114,0.3281081081081081,0.5015896307165566,0.6175824175824176,0.4348191757779647,1194.0
929.0,1.710926723323242e+18,0.4621409921671018,0.3801369863013699,0.34378378378378377,0.5006113964294449,0.621978021978022,0.4373423044575273,1193.0
930.0,1.710926723333263e+18,0.47911227154047,0.3995433789954338,0.32216216216216215,0.5023233064318905,0.6241758241758242,0.4381833473507149,1195.0
931.0,1.7109267233432476e+18,0.46866840731070497,0.4052511415525114,0.31675675675675674,0.4930300807043287,0.6263736263736264,0.4415475189234651,1192.0
932.0,1.7109267233531935e+18,0.4804177545691906,0.4383561643835616,0.34378378378378377,0.5023233064318905,0.6186813186813187,0.4381833473507149,1196.0
933.0,1.7109267233632512e+18,0.48172323759791125,0.432648401826484,0.33945945945945943,0.5028124235754463,0.6274725274725275,0.4381833473507149,1196.0
934.0,1.7109267233732454e+18,0.46736292428198434,0.4200913242009132,0.31405405405405407,0.5015896307165566,0.621978021978022,0.43986543313709,1194.0
935.0,1.7109267233832038e+18,0.4869451697127937,0.4269406392694064,0.33513513513513515,0.4986549278552213,0.6164835164835165,0.43902439024390244,1194.0
936.0,1.7109267233932447e+18,0.4725848563968668,0.4041095890410959,0.35027027027027025,0.4988994864269993,0.6164835164835165,0.4381833473507149,1196.0
937.0,1.7109267234031877e+18,0.4765013054830287,0.4132420091324201,0.3286486486486486,0.495720224993886,0.6241758241758242,0.44238856181665265,1196.0
938.0,1.710926723413189e+18,0.47127937336814624,0.4178082191780822,0.3410810810810811,0.4991440449987772,0.621978021978022,0.43566021867115223,1194.0
939.0,1.7109267234232453e+18,0.46344647519582244,0.4178082191780822,0.3302702702702703,0.504035216434336,0.6241758241758242,0.43650126156433977,1195.0
940.0,1.710926723433183e+18,0.4725848563968668,0.4098173515981735,0.34162162162162163,0.5101491807287846,0.6274725274725275,0.4440706476030278,1196.0
941.0,1.710926723443192e+18,0.4725848563968668,0.4098173515981735,0.3264864864864865,0.4966984592809978,0.610989010989011,0.4087468460891506,1191.0
942.0,1.7109267234532475e+18,0.47127937336814624,0.4041095890410959,0.3286486486486486,0.5018341892883346,0.6153846153846154,0.4465937762825904,1195.0
943.0,1.710926723463232e+18,0.46475195822454307,0.3995433789954338,0.32,0.5015896307165566,0.6241758241758242,0.44911690496215306,1196.0
944.0,1.710926723473113e+18,0.47127937336814624,0.4052511415525114,0.3345945945945946,0.4986549278552213,0.621978021978022,0.43986543313709,1196.0
945.0,1.7109267234832317e+18,0.46866840731070497,0.4006849315068493,0.31405405405405407,0.499877720714111,0.6208791208791209,0.44238856181665265,1197.0
946.0,1.710926723493196e+18,0.49738903394255873,0.5114155251141552,0.3886486486486487,0.5011005135730008,0.6318681318681318,0.4449116904962153,1197.0
947.0,1.7109267235032353e+18,0.4869451697127937,0.4132420091324201,0.31567567567567567,0.4944974321349963,0.6186813186813187,0.4373423044575273,1193.0
948.0,1.7109267235132306e+18,0.47127937336814624,0.4006849315068493,0.32432432432432434,0.5025678650036683,0.6274725274725275,0.4507989907485282,1196.0
949.0,1.710926723523236e+18,0.47127937336814624,0.3972602739726027,0.30972972972972973,0.5047688921496698,0.621978021978022,0.4306139613120269,1192.0
950.0,1.7109267235332268e+18,0.47780678851174935,0.410958904109589,0.33837837837837836,0.5037906578625581,0.6153846153846154,0.43650126156433977,1196.0
951.0,1.7109267235432297e+18,0.48172323759791125,0.4337899543378995,0.3535135135135135,0.5015896307165566,0.6274725274725275,0.4415475189234651,1197.0
952.0,1.710926723553229e+18,0.48172323759791125,0.4406392694063927,0.34162162162162163,0.4942528735632184,0.610989010989011,0.43313708999158956,1194.0
953.0,1.7109267235632274e+18,0.489556135770235,0.4269406392694064,0.3389189189189189,0.5084372707263389,0.6318681318681318,0.44238856181665265,1198.0
954.0,1.7109267235732268e+18,0.48433420365535246,0.4235159817351598,0.3497297297297297,0.504524333577892,0.621978021978022,0.4373423044575273,1196.0
955.0,1.710926723583224e+18,0.46866840731070497,0.4018264840182648,0.3264864864864865,0.49816581071166544,0.6241758241758242,0.4381833473507149,1196.0
956.0,1.7109267235932244e+18,0.46866840731070497,0.4132420091324201,0.3281081081081081,0.5050134507214478,0.6153846153846154,0.4381833473507149,1195.0
957.0,1.7109267236032253e+18,0.4725848563968668,0.4360730593607306,0.3232432432432432,0.5035460992907801,0.621978021978022,0.43566021867115223,1197.0
958.0,1.7109267236132247e+18,0.49216710182767626,0.4383561643835616,0.3572972972972973,0.5059916850085595,0.6274725274725275,0.4432296047098402,1195.0
959.0,1.7109267236232394e+18,0.46866840731070497,0.4132420091324201,0.3172972972972973,0.499877720714111,0.6208791208791209,0.4381833473507149,1194.0
960.0,1.7109267236332221e+18,0.4765013054830287,0.4280821917808219,0.3551351351351351,0.5018341892883346,0.6197802197802198,0.4440706476030278,1193.0
961.0,1.7109267236432161e+18,0.4725848563968668,0.4132420091324201,0.3318918918918919,0.4991440449987772,0.6230769230769231,0.43902439024390244,1196.0
962.0,1.710926723653151e+18,0.47389033942558745,0.4143835616438356,0.33783783783783783,0.5013450721447786,0.621978021978022,0.44070647603027757,1194.0
963.0,1.7109267236632184e+18,0.46475195822454307,0.408675799086758,0.32972972972972975,0.5023233064318905,0.6274725274725275,0.43902439024390244,1193.0
964.0,1.7109267236732168e+18,0.4765013054830287,0.4223744292237443,0.33837837837837836,0.504035216434336,0.6175824175824176,0.43566021867115223,1194.0
965.0,1.7109267236832271e+18,0.47911227154047,0.4292237442922374,0.33405405405405403,0.5055025678650037,0.6274725274725275,0.4415475189234651,1197.0
966.0,1.710926723693215e+18,0.46344647519582244,0.3972602739726027,0.3324324324324324,0.5001222792858889,0.6230769230769231,0.4381833473507149,1195.0
967.0,1.710926723703217e+18,0.47389033942558745,0.4075342465753425,0.32972972972972975,0.4974321349963316,0.6197802197802198,0.43650126156433977,1195.0
968.0,1.710926723713232e+18,0.47911227154047,0.4189497716894977,0.34756756756756757,0.5011005135730008,0.6285714285714286,0.44070647603027757,1194.0
969.0,1.7109267237232343e+18,0.48172323759791125,0.4235159817351598,0.33405405405405403,0.5015896307165566,0.6274725274725275,0.43902439024390244,1196.0
970.0,1.7109267237332157e+18,0.48172323759791125,0.4200913242009132,0.3281081081081081,0.5028124235754463,0.6252747252747253,0.43986543313709,1197.0
971.0,1.7109267237432156e+18,0.48172323759791125,0.4189497716894977,0.34324324324324323,0.5062362435803375,0.6461538461538462,0.4592094196804037,1194.0
972.0,1.7109267237532147e+18,0.4608355091383812,0.3984018264840183,0.33297297297297296,0.5013450721447786,0.6274725274725275,0.4449116904962153,1194.0
973.0,1.7109267237632184e+18,0.47127937336814624,0.4132420091324201,0.3443243243243243,0.49523110785033014,0.6230769230769231,0.4415475189234651,1196.0
974.0,1.710926723773214e+18,0.4765013054830287,0.4178082191780822,0.3318918918918919,0.49938860357055515,0.6142857142857143,0.4449116904962153,1195.0
975.0,1.7109267237832694e+18,0.4765013054830287,0.4132420091324201,0.3324324324324324,0.5020787478601125,0.6483516483516484,0.43566021867115223,1196.0
976.0,1.7109267237932088e+18,0.47127937336814624,0.4246575342465753,0.3443243243243243,0.5011005135730008,0.6153846153846154,0.43566021867115223,1195.0
977.0,1.710926723803218e+18,0.4660574412532637,0.3698630136986301,0.31135135135135134,0.5037906578625581,0.6241758241758242,0.4373423044575273,1196.0
978.0,1.710926723813213e+18,0.46475195822454307,0.3835616438356164,0.3302702702702703,0.5006113964294449,0.6230769230769231,0.4348191757779647,1193.0
979.0,1.7109267238232118e+18,0.4869451697127937,0.4269406392694064,0.3324324324324324,0.5030569821472243,0.6208791208791209,0.4087468460891506,1194.0
980.0,1.7109267238332137e+18,0.4830287206266319,0.4121004566210046,0.32972972972972975,0.504524333577892,0.6274725274725275,0.44911690496215306,1198.0
981.0,1.7109267238432146e+18,0.47911227154047,0.4269406392694064,0.3659459459459459,0.504035216434336,0.6186813186813187,0.4415475189234651,1198.0
982.0,1.710926723853209e+18,0.47389033942558745,0.4063926940639269,0.3308108108108108,0.49645390070921985,0.6197802197802198,0.43986543313709,1195.0
983.0,1.710926723863211e+18,0.47780678851174935,0.4200913242009132,0.3362162162162162,0.5055025678650037,0.6230769230769231,0.4373423044575273,1197.0
984.0,1.710926723873211e+18,0.4804177545691906,0.4292237442922374,0.36864864864864866,0.5015896307165566,0.6164835164835165,0.4381833473507149,1195.0
985.0,1.7109267238832653e+18,0.4856396866840731,0.4223744292237443,0.33513513513513515,0.5025678650036683,0.6296703296703297,0.4415475189234651,1196.0
986.0,1.710926723893236e+18,0.48433420365535246,0.4646118721461187,0.37945945945945947,0.5023233064318905,0.6285714285714286,0.44238856181665265,1194.0
987.0,1.7109267239032105e+18,0.48433420365535246,0.4235159817351598,0.34054054054054056,0.4986549278552213,0.6230769230769231,0.4440706476030278,1193.0
988.0,1.7109267239137329e+18,0.46866840731070497,0.3904109589041096,0.31027027027027027,0.4988994864269993,0.6098901098901099,0.43313708999158956,1193.0
989.0,1.7109267239232095e+18,0.47780678851174935,0.4235159817351598,0.3248648648648649,0.5033015407190022,0.6285714285714286,0.4415475189234651,1196.0
990.0,1.710926723933239e+18,0.4765013054830287,0.4269406392694064,0.36,0.4971875764245537,0.6197802197802198,0.4415475189234651,1195.0
991.0,1.7109267239432097e+18,0.47389033942558745,0.4132420091324201,0.3254054054054054,0.5059916850085595,0.6263736263736264,0.43902439024390244,1194.0
992.0,1.7109267239532099e+18,0.46866840731070497,0.3995433789954338,0.31891891891891894,0.4969430178527757,0.610989010989011,0.4348191757779647,1194.0
993.0,1.7109267239632123e+18,0.48172323759791125,0.4360730593607306,0.36324324324324325,0.4984103692834434,0.6285714285714286,0.4415475189234651,1193.0
994.0,1.7109267239732104e+18,0.4765013054830287,0.4611872146118721,0.35567567567567565,0.5023233064318905,0.6285714285714286,0.4381833473507149,1196.0
995.0,1.7109267239832082e+18,0.4830287206266319,0.4178082191780822,0.32594594594594595,0.4979212521398875,0.6153846153846154,0.4348191757779647,1195.0
996.0,1.7109267239932086e+18,0.4621409921671018,0.4098173515981735,0.33405405405405403,0.5015896307165566,0.6208791208791209,0.4373423044575273,1194.0
997.0,1.710926724003241e+18,0.4699738903394256,0.3984018264840183,0.33297297297297296,0.491807287845439,0.6230769230769231,0.43902439024390244,1196.0
998.0,1.710926724013207e+18,0.46866840731070497,0.4143835616438356,0.33945945945945943,0.49816581071166544,0.6054945054945055,0.4339781328847771,1193.0
999.0,1.7109267240232064e+18,0.47127937336814624,0.3926940639269406,0.3464864864864865,0.5035460992907801,0.6318681318681318,0.4415475189234651,1196.0
