202.0,1.7109944647893857e+18,0.7754569190600522,0.12557077625570776,0.20054054054054055,0.4810467106872096,0.015384615384615385,0.36248948696383515,1191.0
203.0,1.7109944647993467e+18,0.1906005221932115,0.6621004566210046,0.46594594594594596,0.5177304964539007,1.2021978021978021,0.503784693019344,1195.0
204.0,1.7109944648093773e+18,0.7532637075718016,0.13470319634703196,0.20864864864864865,0.4842259721203228,0.014285714285714285,0.3666947014297729,1191.0
205.0,1.7109944648193482e+18,0.18798955613577023,0.6872146118721462,0.45297297297297295,0.5182196135974566,1.1813186813186813,0.5105130361648444,1196.0
206.0,1.7109944648293632e+18,0.7597911227154047,0.1723744292237443,0.22918918918918918,0.48789435069699194,0.05714285714285714,0.3742640874684609,1192.0
207.0,1.7109944648393452e+18,0.1919060052219321,0.680365296803653,0.43945945945945947,0.5211543164587918,1.1945054945054945,0.49957947855340623,1194.0
208.0,1.7109944648493652e+18,0.7219321148825065,0.16210045662100456,0.23297297297297298,0.48789435069699194,0.06813186813186813,0.3708999158957107,1192.0
209.0,1.7109944648593434e+18,0.21148825065274152,0.6712328767123288,0.46702702702702703,0.5162631450232331,1.1571428571428573,0.5029436501261564,1192.0
210.0,1.7109944648693693e+18,0.7271540469973891,0.1860730593607306,0.22432432432432434,0.4871606749816581,0.07582417582417582,0.37846930193439865,1192.0
211.0,1.710994464879345e+18,0.2010443864229765,0.6746575342465754,0.4751351351351351,0.5172413793103449,1.1516483516483516,0.488645920941968,1194.0
212.0,1.7109944648893645e+18,0.706266318537859,0.18036529680365296,0.23621621621621622,0.48520420640743456,0.09230769230769231,0.3767872161480236,1191.0
213.0,1.7109944648993626e+18,0.23890339425587467,0.6712328767123288,0.4427027027027027,0.5196869650281243,1.1571428571428573,0.5004205214465938,1195.0
214.0,1.710994464909367e+18,0.716710182767624,0.15296803652968036,0.23405405405405405,0.4871606749816581,0.12857142857142856,0.37510513036164844,1191.0
215.0,1.7109944649193467e+18,0.24151436031331594,0.6735159817351598,0.4183783783783784,0.5199315235999021,1.1428571428571428,0.5021026072329688,1194.0
216.0,1.7109944649293663e+18,0.706266318537859,0.17922374429223745,0.2464864864864865,0.48789435069699194,0.10989010989010989,0.3767872161480236,1192.0
217.0,1.710994464939347e+18,0.2297650130548303,0.6997716894977168,0.4335135135135135,0.5140621178772316,1.09010989010989,0.4827586206896552,1193.0
218.0,1.7109944649493647e+18,0.674934725848564,0.1643835616438356,0.2372972972972973,0.4859378821227684,0.11318681318681319,0.3776282590412111,1191.0
219.0,1.7109944649593482e+18,0.23368146214099217,0.6735159817351598,0.46324324324324323,0.5167522621667889,1.1065934065934067,0.47434819175777965,1194.0
220.0,1.710994464969366e+18,0.6657963446475196,0.15296803652968036,0.22378378378378377,0.48813890926876985,0.14395604395604394,0.3809924306139613,1192.0
221.0,1.710994464979348e+18,0.2741514360313316,0.6643835616438356,0.4772972972972973,0.5133284421618978,1.1032967032967034,0.48444070647603027,1195.0
222.0,1.7109944649893637e+18,0.6775456919060052,0.1815068493150685,0.2372972972972973,0.4896062606994375,0.11098901098901098,0.39781328847771236,1192.0
223.0,1.7109944649993464e+18,0.25718015665796345,0.6598173515981736,0.42324324324324325,0.5145512350207875,1.1241758241758242,0.4751892346509672,1194.0
224.0,1.710994465009364e+18,0.6631853785900783,0.15639269406392695,0.24,0.4900953778429934,0.16043956043956045,0.4146341463414634,1190.0
225.0,1.7109944650193457e+18,0.293733681462141,0.6552511415525114,0.3945945945945946,0.5157740278796772,1.089010989010989,0.4802354920100925,1193.0
226.0,1.710994465029366e+18,0.6201044386422977,0.1872146118721461,0.23459459459459459,0.4859378821227684,0.19230769230769232,0.40117746005046256,1192.0
227.0,1.7109944650393454e+18,0.27284595300261094,0.656392694063927,0.4189189189189189,0.5130838835901198,1.0758241758241758,0.4701429772918419,1194.0
228.0,1.7109944650493622e+18,0.6553524804177546,0.21118721461187215,0.28,0.4930300807043287,0.17032967032967034,0.40706476030277544,1192.0
229.0,1.7109944650593462e+18,0.2741514360313316,0.6426940639269406,0.45513513513513515,0.5113719735876743,1.0725274725274725,0.4768713204373423,1193.0
230.0,1.7109944650693658e+18,0.639686684073107,0.1689497716894977,0.23945945945945946,0.49058449498654927,0.16153846153846155,0.407905803195963,1192.0
231.0,1.710994465079345e+18,0.28067885117493474,0.6541095890410958,0.4335135135135135,0.5116165321594522,1.0681318681318681,0.46173254835996635,1192.0
232.0,1.7109944650893645e+18,0.6710182767624021,0.2271689497716895,0.2702702702702703,0.49229640498899485,0.1934065934065934,0.40454163162321277,1190.0
233.0,1.7109944650993462e+18,0.3328981723237598,0.656392694063927,0.37783783783783786,0.5113719735876743,1.067032967032967,0.456686291000841,1193.0
234.0,1.7109944651093668e+18,0.6422976501305483,0.1689497716894977,0.267027027027027,0.48911714355588165,0.24285714285714285,0.4053826745164003,1189.0
235.0,1.7109944651193452e+18,0.3342036553524804,0.634703196347032,0.46702702702702703,0.5103937393005625,1.0274725274725274,0.45500420521446594,1193.0
236.0,1.7109944651293655e+18,0.608355091383812,0.1735159817351598,0.25135135135135134,0.4900953778429934,0.21428571428571427,0.4213624894869638,1189.0
237.0,1.710994465139347e+18,0.31462140992167104,0.6289954337899544,0.4259459459459459,0.5108828564441183,1.0197802197802197,0.46509671993271656,1193.0
238.0,1.7109944651493647e+18,0.5992167101827677,0.19863013698630136,0.25891891891891894,0.49229640498899485,0.24945054945054945,0.4179983179142136,1189.0
239.0,1.7109944651593457e+18,0.32506527415143605,0.5821917808219178,0.36702702702702705,0.5096600635852286,1.0076923076923077,0.46846089150546677,1195.0
240.0,1.7109944651693663e+18,0.6044386422976501,0.18378995433789955,0.26,0.491562729273661,0.23516483516483516,0.4415475189234651,1193.0
241.0,1.7109944651793472e+18,0.34203655352480417,0.6312785388127854,0.4572972972972973,0.5111274150158963,0.9967032967032967,0.4659377628259041,1195.0
242.0,1.7109944651893642e+18,0.5900783289817232,0.1872146118721461,0.2648648648648649,0.49400831499144043,0.3087912087912088,0.4373423044575273,1194.0
243.0,1.7109944651993462e+18,0.35117493472584854,0.6381278538812786,0.4448648648648649,0.5118610907312301,0.9626373626373627,0.45248107653490327,1195.0
244.0,1.710994465209365e+18,0.5783289817232375,0.1917808219178082,0.2702702702702703,0.4954756664221081,0.2956043956043956,0.4289318755256518,1193.0
245.0,1.7109944652193482e+18,0.3524804177545692,0.6232876712328768,0.3708108108108108,0.5101491807287846,0.989010989010989,0.46846089150546677,1193.0
246.0,1.7109944652293724e+18,0.5900783289817232,0.1963470319634703,0.26594594594594595,0.49474199070677427,0.2714285714285714,0.4465937762825904,1195.0
247.0,1.710994465239348e+18,0.3577023498694517,0.6141552511415526,0.42702702702702705,0.508192712154561,0.9747252747252747,0.4541631623212784,1194.0
248.0,1.7109944652493678e+18,0.5926892950391645,0.2134703196347032,0.26216216216216215,0.49229640498899485,0.2967032967032967,0.43986543313709,1197.0
249.0,1.7109944652593472e+18,0.3681462140992167,0.6301369863013698,0.432972972972973,0.504524333577892,0.9428571428571428,0.4533221194280908,1192.0
250.0,1.7109944652693673e+18,0.5626631853785901,0.20319634703196346,0.27135135135135136,0.4925409635607728,0.2978021978021978,0.4289318755256518,1192.0
251.0,1.7109944652793485e+18,0.3577023498694517,0.6221461187214612,0.4502702702702703,0.5096600635852286,0.9857142857142858,0.456686291000841,1195.0
252.0,1.7109944652893967e+18,0.5600522193211488,0.19292237442922375,0.2724324324324324,0.4954756664221081,0.2945054945054945,0.4449116904962153,1194.0
253.0,1.7109944652993585e+18,0.3981723237597911,0.636986301369863,0.44,0.5086818292981169,0.9923076923076923,0.4634146341463415,1195.0
254.0,1.71099446530937e+18,0.5456919060052219,0.204337899543379,0.2632432432432432,0.49498654927855223,0.31978021978021975,0.45164003364171573,1195.0
255.0,1.7109944653193454e+18,0.38903394255874674,0.6073059360730594,0.4464864864864865,0.5079481535827831,0.967032967032967,0.4381833473507149,1193.0
256.0,1.7109944653293714e+18,0.5,0.1997716894977169,0.26054054054054054,0.49645390070921985,0.33516483516483514,0.46173254835996635,1196.0
257.0,1.71099446533935e+18,0.39295039164490864,0.6472602739726028,0.3940540540540541,0.5067253607238934,0.9395604395604396,0.4415475189234651,1196.0
258.0,1.71099446534937e+18,0.5496083550913838,0.25,0.32594594594594595,0.4971875764245537,0.34395604395604396,0.4592094196804037,1196.0
259.0,1.7109944653593485e+18,0.40600522193211486,0.6312785388127854,0.38972972972972975,0.5074590364392272,0.9714285714285714,0.44911690496215306,1196.0
260.0,1.7109944653693696e+18,0.5352480417754569,0.2226027397260274,0.28594594594594597,0.49620934213744194,0.3516483516483517,0.4760302775441548,1193.0
261.0,1.7109944653793498e+18,0.39295039164490864,0.6289954337899544,0.3518918918918919,0.5074590364392272,0.9395604395604396,0.43650126156433977,1194.0
262.0,1.7109944653893683e+18,0.5234986945169713,0.2100456621004566,0.2827027027027027,0.5006113964294449,0.34615384615384615,0.47434819175777965,1195.0
263.0,1.7109944653993516e+18,0.38511749347258484,0.6061643835616438,0.3924324324324324,0.5089263878698949,0.9428571428571428,0.44575273338940286,1196.0
264.0,1.710994465409368e+18,0.5339425587467362,0.19406392694063926,0.28540540540540543,0.4979212521398875,0.36043956043956044,0.4852817493692178,1195.0
265.0,1.7109944654193567e+18,0.39295039164490864,0.6061643835616438,0.4237837837837838,0.5067253607238934,0.9307692307692308,0.43650126156433977,1194.0
266.0,1.710994465429369e+18,0.5156657963446475,0.23059360730593606,0.2945945945945946,0.4974321349963316,0.3637362637362637,0.4760302775441548,1196.0
267.0,1.710994465439354e+18,0.4086161879895561,0.6038812785388128,0.36486486486486486,0.504524333577892,0.9351648351648352,0.4314550042052145,1192.0
268.0,1.7109944654493678e+18,0.5391644908616188,0.2762557077625571,0.2983783783783784,0.4984103692834434,0.4010989010989011,0.4701429772918419,1195.0
269.0,1.7109944654593554e+18,0.4164490861618799,0.6027397260273972,0.42162162162162165,0.5074590364392272,0.8868131868131868,0.4306139613120269,1189.0
270.0,1.710994465469369e+18,0.49869451697127937,0.2271689497716895,0.2827027027027027,0.4954756664221081,0.37252747252747254,0.4735071488645921,1195.0
271.0,1.7109944654793572e+18,0.42297650130548303,0.6095890410958904,0.36108108108108106,0.5023233064318905,0.8692307692307693,0.4314550042052145,1192.0
272.0,1.7109944654893663e+18,0.5117493472584856,0.2522831050228311,0.3016216216216216,0.499877720714111,0.4340659340659341,0.4819175777964676,1194.0
273.0,1.7109944654993585e+18,0.41383812010443866,0.6050228310502284,0.3918918918918919,0.504524333577892,0.9087912087912088,0.4121110176619008,1189.0
274.0,1.7109944655093668e+18,0.47780678851174935,0.2191780821917808,0.2897297297297297,0.5018341892883346,0.4021978021978022,0.4751892346509672,1196.0
275.0,1.7109944655193434e+18,0.44778067885117495,0.6872146118721462,0.4464864864864865,0.5064808021521154,0.8967032967032967,0.4289318755256518,1189.0
276.0,1.710994465529366e+18,0.47780678851174935,0.2271689497716895,0.3016216216216216,0.4991440449987772,0.4010989010989011,0.4920100925147183,1194.0
277.0,1.7109944655393605e+18,0.40992167101827676,0.6061643835616438,0.41621621621621624,0.5057471264367817,0.8824175824175824,0.4163162321278385,1190.0
278.0,1.7109944655493673e+18,0.45822454308093996,0.2363013698630137,0.2827027027027027,0.4991440449987772,0.46153846153846156,0.488645920941968,1195.0
279.0,1.7109944655593454e+18,0.45430809399477806,0.6073059360730594,0.42864864864864866,0.5037906578625581,0.856043956043956,0.4146341463414634,1192.0
280.0,1.7109944655693663e+18,0.47127937336814624,0.2545662100456621,0.2864864864864865,0.4984103692834434,0.4340659340659341,0.5012615643397813,1195.0
281.0,1.7109944655793656e+18,0.43733681462140994,0.5844748858447488,0.3972972972972973,0.5059916850085595,0.8494505494505494,0.4247266610597141,1192.0
282.0,1.710994465589372e+18,0.46736292428198434,0.22602739726027396,0.2935135135135135,0.4991440449987772,0.4604395604395604,0.5004205214465938,1194.0
283.0,1.710994465599349e+18,0.43994778067885115,0.6015981735159818,0.38054054054054054,0.5050134507214478,0.8428571428571429,0.4222035323801514,1189.0
284.0,1.710994465609368e+18,0.4464751958224543,0.2420091324200913,0.29243243243243244,0.5011005135730008,0.4879120879120879,0.49705634987384356,1196.0
285.0,1.7109944656193487e+18,0.44778067885117495,0.5753424657534246,0.3891891891891892,0.5023233064318905,0.8318681318681319,0.415475189234651,1191.0
286.0,1.7109944656293688e+18,0.4425587467362924,0.23972602739726026,0.3037837837837838,0.5018341892883346,0.45494505494505494,0.511354079058032,1193.0
287.0,1.710994465639349e+18,0.43342036553524804,0.58675799086758,0.39675675675675676,0.504524333577892,0.823076923076923,0.4087468460891506,1190.0
288.0,1.71099446564937e+18,0.45039164490861616,0.23515981735159816,0.29783783783783785,0.5028124235754463,0.4956043956043956,0.5105130361648444,1196.0
289.0,1.7109944656593467e+18,0.4608355091383812,0.5764840182648402,0.3848648648648649,0.504035216434336,0.8296703296703297,0.3986543313708999,1189.0
290.0,1.7109944656693732e+18,0.43733681462140994,0.2534246575342466,0.3081081081081081,0.5018341892883346,0.4967032967032967,0.5105130361648444,1194.0
291.0,1.7109944656793495e+18,0.44386422976501305,0.58675799086758,0.4118918918918919,0.5059916850085595,0.8010989010989011,0.4095878889823381,1189.0
292.0,1.7109944656893737e+18,0.41383812010443866,0.25,0.30972972972972973,0.5020787478601125,0.5131868131868131,0.5264928511354079,1194.0
293.0,1.7109944656993487e+18,0.4660574412532637,0.6015981735159818,0.4172972972972973,0.5035460992907801,0.8076923076923077,0.3809924306139613,1191.0
294.0,1.7109944657093745e+18,0.41906005221932113,0.2625570776255708,0.3021621621621622,0.5047688921496698,0.5307692307692308,0.5222876366694701,1194.0
295.0,1.7109944657193475e+18,0.4595300261096606,0.6050228310502284,0.3654054054054054,0.5030569821472243,0.8054945054945055,0.3885618166526493,1187.0
296.0,1.710994465729376e+18,0.40600522193211486,0.2534246575342466,0.32432432432432434,0.5028124235754463,0.4956043956043956,0.5290159798149706,1193.0
297.0,1.7109944657393492e+18,0.47127937336814624,0.5799086757990868,0.34540540540540543,0.5008559550012228,0.7681318681318682,0.38772077375946173,1190.0
298.0,1.7109944657493775e+18,0.40992167101827676,0.2591324200913242,0.31135135135135134,0.5047688921496698,0.5318681318681319,0.5105130361648444,1194.0
299.0,1.710994465759351e+18,0.46866840731070497,0.5799086757990868,0.36864864864864866,0.5028124235754463,0.7758241758241758,0.3793103448275862,1191.0
300.0,1.7109944657693786e+18,0.42428198433420367,0.2454337899543379,0.3037837837837838,0.504035216434336,0.5362637362637362,0.5298570227081582,1196.0
301.0,1.7109944657793498e+18,0.48433420365535246,0.5684931506849316,0.3783783783783784,0.5025678650036683,0.7549450549450549,0.3894028595458368,1192.0
302.0,1.7109944657893809e+18,0.38903394255874674,0.2522831050228311,0.29405405405405405,0.504524333577892,0.5692307692307692,0.5323801513877208,1197.0
303.0,1.7109944657993487e+18,0.4934725848563969,0.5970319634703196,0.3810810810810811,0.5035460992907801,0.7802197802197802,0.3725820016820858,1191.0
304.0,1.7109944658093816e+18,0.39033942558746737,0.25,0.32432432432432434,0.5064808021521154,0.5186813186813187,0.5458368376787216,1197.0
305.0,1.7109944658193498e+18,0.49216710182767626,0.6073059360730594,0.3583783783783784,0.5011005135730008,0.7505494505494505,0.3675357443229605,1193.0
306.0,1.710994465829366e+18,0.3772845953002611,0.2636986301369863,0.32756756756756755,0.5067253607238934,0.5439560439560439,0.535744322960471,1197.0
307.0,1.710994465839348e+18,0.5039164490861618,0.5878995433789954,0.3535135135135135,0.5018341892883346,0.7725274725274726,0.3616484440706476,1189.0
308.0,1.7109944658493668e+18,0.3838120104438642,0.2728310502283105,0.31135135135135134,0.5057471264367817,0.6065934065934065,0.5349032800672834,1194.0
309.0,1.7109944658593487e+18,0.5026109660574413,0.634703196347032,0.3627027027027027,0.5006113964294449,0.7604395604395604,0.3666947014297729,1189.0
310.0,1.7109944658693683e+18,0.38511749347258484,0.2636986301369863,0.3254054054054054,0.5055025678650037,0.5835164835164836,0.5399495374264087,1193.0
311.0,1.7109944658793528e+18,0.49477806788511747,0.5445205479452054,0.36324324324324325,0.4988994864269993,0.734065934065934,0.3633305298570227,1192.0
312.0,1.7109944658893706e+18,0.3577023498694517,0.2762557077625571,0.3308108108108108,0.5064808021521154,0.5945054945054945,0.5576114381833474,1195.0
313.0,1.7109944658993485e+18,0.5261096605744126,0.5639269406392694,0.3924324324324324,0.5001222792858889,0.7527472527472527,0.37846930193439865,1190.0
314.0,1.7109944659093686e+18,0.3642297650130548,0.2979452054794521,0.31945945945945947,0.5050134507214478,0.6054945054945055,0.552565180824222,1197.0
315.0,1.7109944659193475e+18,0.5078328981723238,0.521689497716895,0.372972972972973,0.49767669356810956,0.7164835164835165,0.3666947014297729,1190.0
316.0,1.710994465929366e+18,0.3681462140992167,0.273972602739726,0.33837837837837836,0.5059916850085595,0.6208791208791209,0.56013456686291,1195.0
317.0,1.7109944659393917e+18,0.54177545691906,0.5342465753424658,0.39675675675675676,0.499877720714111,0.7252747252747253,0.3549201009251472,1190.0
318.0,1.7109944659493724e+18,0.34464751958224543,0.2694063926940639,0.3216216216216216,0.5062362435803375,0.6230769230769231,0.552565180824222,1194.0
319.0,1.710994465959347e+18,0.5326370757180157,0.5742009132420092,0.33405405405405403,0.499877720714111,0.6978021978021978,0.35912531539108494,1191.0
320.0,1.7109944659693696e+18,0.35509138381201044,0.2899543378995434,0.3362162162162162,0.5064808021521154,0.5857142857142857,0.56013456686291,1197.0
321.0,1.7109944659793508e+18,0.5234986945169713,0.5502283105022832,0.3837837837837838,0.4984103692834434,0.7120879120879121,0.3540790580319596,1190.0
322.0,1.710994465989371e+18,0.3368146214099217,0.2728310502283105,0.33405405405405403,0.5067253607238934,0.6241758241758242,0.5500420521446594,1196.0
323.0,1.7109944659993498e+18,0.5600522193211488,0.545662100456621,0.3410810810810811,0.499877720714111,0.6648351648351648,0.3566021867115223,1189.0
324.0,1.7109944660093693e+18,0.3276762402088773,0.3002283105022831,0.35567567567567565,0.5084372707263389,0.6362637362637362,0.5559293523969723,1195.0
325.0,1.7109944660193505e+18,0.5548302872062664,0.5547945205479452,0.3567567567567568,0.499877720714111,0.6527472527472528,0.35323801513877207,1189.0
326.0,1.710994466029371e+18,0.3302872062663185,0.3059360730593607,0.327027027027027,0.5062362435803375,0.6681318681318681,0.5534062237174096,1196.0
327.0,1.7109944660393492e+18,0.5443864229765013,0.5547945205479452,0.3464864864864865,0.4969430178527757,0.6494505494505495,0.34314550042052144,1189.0
328.0,1.7109944660493704e+18,0.3093994778067885,0.3036529680365297,0.35243243243243244,0.5079481535827831,0.654945054945055,0.5693860386879731,1193.0
329.0,1.71099446605935e+18,0.5718015665796344,0.5547945205479452,0.37783783783783786,0.49816581071166544,0.6505494505494506,0.3246425567703953,1186.0
330.0,1.7109944660693693e+18,0.31462140992167104,0.3424657534246575,0.34054054054054056,0.5091709464416728,0.6978021978021978,0.5702270815811606,1195.0
331.0,1.7109944660793498e+18,0.5509138381201044,0.5365296803652968,0.3518918918918919,0.4984103692834434,0.6703296703296703,0.3406223717409588,1188.0
332.0,1.7109944660893696e+18,0.28720626631853785,0.29337899543379,0.33675675675675676,0.5096600635852286,0.6604395604395604,0.5803195962994113,1196.0
333.0,1.7109944660993503e+18,0.5809399477806788,0.569634703196347,0.327027027027027,0.4979212521398875,0.6494505494505495,0.3280067283431455,1190.0
334.0,1.7109944661093693e+18,0.31201044386422977,0.3013698630136986,0.3427027027027027,0.5089263878698949,0.7021978021978021,0.5946173254835997,1196.0
335.0,1.7109944661193518e+18,0.5744125326370757,0.5559360730593608,0.3091891891891892,0.49523110785033014,0.6230769230769231,0.33725820016820857,1192.0
336.0,1.7109944661293711e+18,0.3093994778067885,0.3481735159817352,0.36486486486486486,0.5086818292981169,0.7153846153846154,0.5710681244743482,1197.0
337.0,1.7109944661393546e+18,0.5809399477806788,0.5308219178082192,0.3389189189189189,0.4966984592809978,0.6131868131868132,0.32716568544995794,1190.0
338.0,1.7109944661493727e+18,0.2950391644908616,0.3105022831050228,0.34594594594594597,0.5106382978723404,0.7065934065934066,0.5803195962994113,1196.0
339.0,1.7109944661593554e+18,0.5900783289817232,0.5547945205479452,0.3848648648648649,0.4984103692834434,0.6230769230769231,0.32211942809083266,1189.0
340.0,1.7109944661693627e+18,0.2859007832898172,0.2968036529680365,0.3464864864864865,0.5111274150158963,0.7307692307692307,0.5719091673675357,1195.0
341.0,1.7109944661793554e+18,0.5809399477806788,0.5376712328767124,0.36702702702702705,0.4944974321349963,0.5967032967032967,0.3296888141295206,1189.0
342.0,1.710994466189369e+18,0.2859007832898172,0.3093607305936073,0.34216216216216216,0.5113719735876743,0.7241758241758242,0.584524810765349,1195.0
343.0,1.7109944661993554e+18,0.6240208877284595,0.5844748858447488,0.34594594594594597,0.49474199070677427,0.5901098901098901,0.3086627417998318,1191.0
344.0,1.7109944662093678e+18,0.26109660574412535,0.3127853881278539,0.3372972972972973,0.5101491807287846,0.7252747252747253,0.584524810765349,1196.0
345.0,1.7109944662193582e+18,0.6018276762402088,0.5251141552511416,0.34594594594594597,0.4942528735632184,0.610989010989011,0.32043734230445753,1190.0
346.0,1.7109944662293673e+18,0.24673629242819844,0.3219178082191781,0.34324324324324323,0.5118610907312301,0.7505494505494505,0.5870479394449117,1196.0
347.0,1.7109944662393597e+18,0.6148825065274152,0.5365296803652968,0.34540540540540543,0.49400831499144043,0.5637362637362637,0.3280067283431455,1192.0
348.0,1.7109944662493683e+18,0.2584856396866841,0.3116438356164384,0.3481081081081081,0.5152849107361213,0.7703296703296704,0.6131202691337259,1197.0
349.0,1.7109944662593454e+18,0.6096605744125326,0.5342465753424658,0.30864864864864866,0.49400831499144043,0.5769230769230769,0.3162321278385198,1188.0
350.0,1.7109944662693637e+18,0.26762402088772846,0.317351598173516,0.36972972972972973,0.5135730007336757,0.7747252747252747,0.616484440706476,1197.0
351.0,1.7109944662793608e+18,0.6109660574412533,0.541095890410959,0.34054054054054056,0.4930300807043287,0.5758241758241758,0.3137089991589571,1189.0
352.0,1.710994466289368e+18,0.2362924281984334,0.3093607305936073,0.35243243243243244,0.5138175593054537,0.7538461538461538,0.5929352396972245,1197.0
353.0,1.710994466299345e+18,0.6148825065274152,0.5273972602739726,0.3108108108108108,0.4925409635607728,0.5791208791208792,0.30529857022708157,1188.0
354.0,1.7109944663093394e+18,0.24804177545691905,0.3105022831050228,0.35135135135135137,0.5121056493030081,0.7956043956043956,0.6038687973086627,1196.0
355.0,1.7109944663193487e+18,0.618798955613577,0.5102739726027398,0.31891891891891894,0.48789435069699194,0.5164835164835165,0.2968881412952061,1189.0
356.0,1.710994466329368e+18,0.24934725848563968,0.341324200913242,0.34864864864864864,0.5116165321594522,0.7901098901098901,0.5962994112699748,1195.0
357.0,1.710994466339348e+18,0.6279373368146214,0.5582191780821918,0.29081081081081084,0.49033993641477136,0.5263736263736264,0.29184188393608074,1189.0
358.0,1.710994466349367e+18,0.24804177545691905,0.3105022831050228,0.35783783783783785,0.5106382978723404,0.7923076923076923,0.6030277544154752,1196.0
359.0,1.710994466359351e+18,0.6331592689295039,0.5228310502283106,0.33945945945945943,0.49327463927610665,0.5054945054945055,0.29520605550883094,1191.0
360.0,1.710994466369371e+18,0.23759791122715404,0.3139269406392694,0.35081081081081084,0.512594766446564,0.8087912087912088,0.6131202691337259,1199.0
361.0,1.7109944663793492e+18,0.6279373368146214,0.5045662100456622,0.3491891891891892,0.49816581071166544,0.5230769230769231,0.29352396972245587,1189.0
362.0,1.7109944663893722e+18,0.21801566579634465,0.3139269406392694,0.3762162162162162,0.5138175593054537,0.8186813186813187,0.6206896551724138,1196.0
363.0,1.710994466399349e+18,0.6553524804177546,0.5011415525114156,0.30594594594594593,0.49205184641721694,0.5307692307692308,0.27754415475189237,1189.0
364.0,1.710994466409372e+18,0.2454308093994778,0.3789954337899543,0.38216216216216214,0.5128393250183418,0.823076923076923,0.6341463414634146,1195.0
365.0,1.710994466419349e+18,0.6370757180156658,0.5068493150684932,0.3210810810810811,0.49229640498899485,0.5098901098901099,0.28595458368376786,1189.0
366.0,1.7109944664293734e+18,0.22323759791122716,0.3424657534246575,0.37243243243243246,0.5145512350207875,0.8296703296703297,0.6383515559293524,1196.0
367.0,1.7109944664393475e+18,0.6736292428198434,0.5091324200913242,0.31891891891891894,0.48985081927121543,0.4824175824175824,0.27417998317914216,1189.0
368.0,1.710994466449374e+18,0.21671018276762402,0.317351598173516,0.37891891891891893,0.5140621178772316,0.8736263736263736,0.6425567703952901,1195.0
369.0,1.7109944664593482e+18,0.6906005221932114,0.54337899543379,0.2918918918918919,0.4900953778429934,0.46593406593406594,0.2708158116063919,1187.0
370.0,1.7109944664693742e+18,0.21018276762402088,0.3493150684931507,0.3681081081081081,0.5133284421618978,0.8417582417582418,0.6366694701429773,1195.0
371.0,1.7109944664793498e+18,0.7010443864229765,0.502283105022831,0.3356756756756757,0.48936170212765956,0.45164835164835165,0.2750210260723297,1190.0
372.0,1.7109944664893778e+18,0.1919060052219321,0.3401826484018265,0.3745945945945946,0.5145512350207875,0.8406593406593407,0.6375105130361648,1196.0
373.0,1.710994466499348e+18,0.6892950391644909,0.5102739726027398,0.3302702702702703,0.49107361213010514,0.46923076923076923,0.25820016820857866,1188.0
374.0,1.710994466509379e+18,0.1801566579634465,0.3493150684931507,0.37567567567567567,0.5167522621667889,0.8351648351648352,0.63919259882254,1196.0
375.0,1.7109944665193452e+18,0.6997389033942559,0.5159817351598174,0.34486486486486484,0.4896062606994375,0.42417582417582417,0.2674516400336417,1191.0
376.0,1.7109944665293798e+18,0.17885117493472585,0.319634703196347,0.35567567567567565,0.5145512350207875,0.8769230769230769,0.6223717409587889,1197.0
377.0,1.7109944665393516e+18,0.706266318537859,0.5091324200913242,0.34864864864864864,0.4883834678405478,0.4340659340659341,0.2640874684608915,1190.0
378.0,1.71099446654938e+18,0.1462140992167102,0.2990867579908676,0.3708108108108108,0.516507703595011,0.9120879120879121,0.6408746846089151,1196.0
379.0,1.7109944665593518e+18,0.7075718015665796,0.4897260273972603,0.3005405405405405,0.4883834678405478,0.44505494505494503,0.25988225399495374,1192.0
380.0,1.7109944665693683e+18,0.15274151436031333,0.3573059360730594,0.39513513513513515,0.5169968207385669,0.8879120879120879,0.631623212783852,1195.0
381.0,1.7109944665793518e+18,0.6919060052219321,0.5045662100456622,0.29783783783783785,0.48740523355343607,0.43846153846153846,0.2624053826745164,1188.0
382.0,1.7109944665893699e+18,0.12532637075718014,0.3310502283105023,0.3827027027027027,0.516507703595011,0.9285714285714286,0.6433978132884777,1196.0
383.0,1.7109944665993505e+18,0.6984334203655352,0.5,0.327027027027027,0.4886280264123258,0.4087912087912088,0.2649285113540791,1192.0
384.0,1.7109944666093706e+18,0.13315926892950392,0.3493150684931507,0.3935135135135135,0.5162631450232331,0.9340659340659341,0.6476030277544155,1197.0
385.0,1.7109944666193495e+18,0.7310704960835509,0.5045662100456622,0.3145945945945946,0.49229640498899485,0.4,0.2514718250630782,1189.0
386.0,1.7109944666293678e+18,0.1475195822454308,0.363013698630137,0.3924324324324324,0.5172413793103449,0.9439560439560439,0.6509671993271657,1196.0
387.0,1.7109944666393495e+18,0.7271540469973891,0.519406392694064,0.31351351351351353,0.4886280264123258,0.37252747252747254,0.25651808242220353,1189.0
388.0,1.7109944666493688e+18,0.17493472584856398,0.3675799086757991,0.39837837837837836,0.5177304964539007,0.9175824175824175,0.6417157275021026,1196.0
389.0,1.710994466659351e+18,0.741514360313316,0.5136986301369864,0.292972972972973,0.4883834678405478,0.35604395604395606,0.2396972245584525,1187.0
390.0,1.710994466669371e+18,0.1370757180156658,0.3675799086757991,0.3881081081081081,0.516507703595011,0.9362637362637363,0.6568544995794785,1195.0
391.0,1.710994466679354e+18,0.7114882506527415,0.4771689497716895,0.32756756756756755,0.48642699926632427,0.389010989010989,0.2464255677039529,1192.0
392.0,1.7109944666893693e+18,0.13446475195822455,0.365296803652968,0.4027027027027027,0.5169968207385669,0.9472527472527472,0.6585365853658537,1196.0
393.0,1.7109944666993482e+18,0.7532637075718016,0.4828767123287671,0.29783783783783785,0.48667155783810223,0.3813186813186813,0.24390243902439024,1191.0
394.0,1.710994466709368e+18,0.12010443864229765,0.3595890410958904,0.4043243243243243,0.520665199315236,0.9472527472527472,0.6686291000841043,1198.0
395.0,1.710994466719347e+18,0.7597911227154047,0.478310502283105,0.27837837837837837,0.4871606749816581,0.3813186813186813,0.2447434819175778,1189.0
396.0,1.7109944667293673e+18,0.13838120104438642,0.3778538812785388,0.41243243243243244,0.5201760821716801,0.9747252747252747,0.6593776282590412,1196.0
397.0,1.7109944667393516e+18,0.7532637075718016,0.4942922374429224,0.3,0.4854487649792125,0.35494505494505496,0.24558452481076534,1190.0
398.0,1.7109944667493663e+18,0.11618798955613577,0.3824200913242009,0.3854054054054054,0.5179750550256786,0.9791208791208791,0.6619007569386038,1197.0
399.0,1.7109944667593492e+18,0.7558746736292428,0.4577625570776256,0.30108108108108106,0.4859378821227684,0.34285714285714286,0.23633305298570226,1189.0
400.0,1.7109944667693663e+18,0.12140992167101827,0.3744292237442922,0.4097297297297297,0.5177304964539007,0.9923076923076923,0.6585365853658537,1196.0
401.0,1.7109944667793492e+18,0.7532637075718016,0.478310502283105,0.31945945945945947,0.4871606749816581,0.3395604395604396,0.223717409587889,1189.0
402.0,1.7109944667893699e+18,0.10835509138381201,0.3961187214611872,0.40864864864864864,0.520665199315236,0.9747252747252747,0.6568544995794785,1197.0
403.0,1.7109944667993477e+18,0.7597911227154047,0.454337899543379,0.2843243243243243,0.4856933235509905,0.31648351648351647,0.22792262405382674,1189.0
404.0,1.710994466809368e+18,0.10443864229765012,0.384703196347032,0.40594594594594596,0.5211543164587918,0.9835164835164835,0.6669470142977292,1199.0
405.0,1.710994466819347e+18,0.7806788511749347,0.45662100456621,0.3016216216216216,0.48618244069454636,0.2934065934065934,0.23296888141295205,1190.0
406.0,1.7109944668293668e+18,0.09138381201044386,0.3789954337899543,0.3908108108108108,0.5201760821716801,1.001098901098901,0.6602186711522288,1196.0
407.0,1.7109944668393572e+18,0.7676240208877284,0.4657534246575342,0.2745945945945946,0.48618244069454636,0.34175824175824177,0.216148023549201,1190.0
408.0,1.710994466849366e+18,0.07702349869451697,0.3721461187214612,0.41405405405405404,0.5211543164587918,0.9967032967032967,0.6593776282590412,1197.0
409.0,1.7109944668593441e+18,0.8002610966057441,0.4703196347031963,0.2762162162162162,0.487649792125214,0.3230769230769231,0.2304457527333894,1188.0
410.0,1.7109944668693665e+18,0.08485639686684072,0.3744292237442922,0.43135135135135133,0.5216434336023478,0.9659340659340659,0.663582842724979,1198.0
411.0,1.710994466879345e+18,0.793733681462141,0.478310502283105,0.30864864864864866,0.48324773783321107,0.34175824175824177,0.216148023549201,1189.0
412.0,1.710994466889365e+18,0.04046997389033943,0.3915525114155251,0.40378378378378377,0.5240890193201272,1.0142857142857142,0.6585365853658537,1196.0
413.0,1.7109944668993464e+18,0.8054830287206266,0.4474885844748858,0.28540540540540543,0.4839814135485449,0.2956043956043956,0.21698906644238855,1189.0
414.0,1.7109944669093668e+18,0.07963446475195822,0.410958904109589,0.4118918918918919,0.520665199315236,1.0054945054945055,0.6677880571909167,1195.0
415.0,1.7109944669193457e+18,0.8120104438642297,0.4714611872146119,0.2967567567567568,0.4844705306921008,0.31758241758241756,0.223717409587889,1189.0
416.0,1.7109944669293658e+18,0.06135770234986945,0.4041095890410959,0.41621621621621624,0.5213988750305698,1.0450549450549451,0.6669470142977292,1195.0
417.0,1.7109944669393452e+18,0.8093994778067886,0.4509132420091324,0.24486486486486486,0.483492296404989,0.2571428571428571,0.2127838519764508,1189.0
418.0,1.7109944669493711e+18,0.0587467362924282,0.4075342465753425,0.41405405405405404,0.5179750550256786,1.0197802197802197,0.6753574432296047,1198.0
419.0,1.7109944669593477e+18,0.8002610966057441,0.4452054794520548,0.28378378378378377,0.4842259721203228,0.26043956043956046,0.2144659377628259,1190.0
420.0,1.7109944669693678e+18,0.0587467362924282,0.3881278538812785,0.41243243243243244,0.5231107850330154,1.0604395604395604,0.6686291000841043,1197.0
421.0,1.7109944669793513e+18,0.8224543080939948,0.4589041095890411,0.2756756756756757,0.4842259721203228,0.23626373626373626,0.2144659377628259,1189.0
422.0,1.7109944669893716e+18,0.06527415143603134,0.4052511415525114,0.42486486486486486,0.5216434336023478,1.056043956043956,0.6703111858704794,1196.0
423.0,1.7109944669993487e+18,0.8420365535248042,0.45662100456621,0.2762162162162162,0.4827586206896552,0.25824175824175827,0.2144659377628259,1187.0
424.0,1.7109944670093678e+18,0.08485639686684072,0.432648401826484,0.41081081081081083,0.5231107850330154,1.031868131868132,0.6719932716568545,1197.0
425.0,1.7109944670193495e+18,0.8342036553524804,0.4383561643835616,0.2756756756756757,0.48202494497432136,0.2802197802197802,0.20857863751051303,1189.0
426.0,1.7109944670293665e+18,0.09007832898172324,0.4223744292237443,0.4281081081081081,0.5218879921741257,1.0516483516483517,0.6602186711522288,1196.0
427.0,1.7109944670393464e+18,0.8368146214099217,0.4315068493150685,0.28,0.4815358278307655,0.2571428571428571,0.19596299411269974,1188.0
428.0,1.7109944670493663e+18,0.04569190600522193,0.4132420091324201,0.4227027027027027,0.5228662264612375,1.0692307692307692,0.6778805719091674,1196.0
429.0,1.710994467059347e+18,0.8368146214099217,0.432648401826484,0.26,0.48373685497676694,0.23516483516483516,0.20353238015138772,1188.0
430.0,1.710994467069368e+18,0.009138381201044387,0.4178082191780822,0.40540540540540543,0.5231107850330154,1.0857142857142856,0.6686291000841043,1196.0
431.0,1.7109944670793485e+18,0.835509138381201,0.4360730593607306,0.25513513513513514,0.48202494497432136,0.24175824175824176,0.20269133725820015,1187.0
432.0,1.710994467089348e+18,0.048302872062663184,0.4178082191780822,0.42162162162162165,0.5221325507459036,1.0824175824175823,0.6778805719091674,1195.0
433.0,1.7109944670993485e+18,0.8537859007832899,0.4463470319634703,0.28,0.4815358278307655,0.23626373626373626,0.19259882253994953,1189.0
434.0,1.7109944671093665e+18,0.02741514360313316,0.432648401826484,0.4335135135135135,0.5231107850330154,1.0747252747252747,0.6770395290159799,1196.0
435.0,1.71099446711935e+18,0.8590078328981723,0.4006849315068493,0.26216216216216215,0.4817803864025434,0.21208791208791208,0.19596299411269974,1191.0
436.0,1.7109944671293655e+18,0.014360313315926894,0.4269406392694064,0.4345945945945946,0.5231107850330154,1.097802197802198,0.68040370058873,1197.0
437.0,1.710994467139351e+18,0.8629242819843342,0.430365296803653,0.27135135135135136,0.4812912692589875,0.2175824175824176,0.1968040370058873,1189.0
438.0,1.7109944671493663e+18,0.02741514360313316,0.4280821917808219,0.43567567567567567,0.5211543164587918,1.1076923076923078,0.6837678721614803,1196.0
439.0,1.7109944671593526e+18,0.891644908616188,0.430365296803653,0.2686486486486486,0.4812912692589875,0.2010989010989011,0.1934398654331371,1189.0
440.0,1.7109944671693663e+18,0.013054830287206266,0.4063926940639269,0.40378378378378377,0.5226216678894595,1.0637362637362637,0.6913372582001682,1198.0
441.0,1.710994467179354e+18,0.856396866840731,0.4394977168949772,0.2654054054054054,0.4830031792614331,0.2076923076923077,0.19596299411269974,1189.0
442.0,1.7109944671893647e+18,0.016971279373368148,0.4280821917808219,0.4281081081081081,0.5231107850330154,1.0846153846153845,0.6963835155592936,1197.0
443.0,1.710994467199356e+18,0.881201044386423,0.4634703196347032,0.23675675675675675,0.4800684764000978,0.20549450549450549,0.191757779646762,1189.0
444.0,1.710994467209366e+18,-0.0013054830287206266,0.4246575342465753,0.41027027027027024,0.5216434336023478,1.1,0.6829268292682927,1197.0
445.0,1.710994467219358e+18,0.8890339425587467,0.432648401826484,0.26054054054054054,0.4812912692589875,0.17252747252747253,0.18671152228763668,1188.0
446.0,1.710994467229365e+18,-0.0039164490861618795,0.4178082191780822,0.4118918918918919,0.5243335778919052,1.1087912087912088,0.6904962153069807,1199.0
447.0,1.7109944672393595e+18,0.8746736292428199,0.4018264840182648,0.2594594594594595,0.4786011249694302,0.1967032967032967,0.18671152228763668,1188.0
448.0,1.7109944672493673e+18,-0.020887728459530026,0.4360730593607306,0.4183783783783784,0.5258009293225727,1.1428571428571428,0.6963835155592936,1196.0
449.0,1.7109944672593428e+18,0.8890339425587467,0.3984018264840183,0.25675675675675674,0.4798239178283199,0.1978021978021978,0.18502943650126155,1188.0
450.0,1.7109944672693665e+18,0.0195822454308094,0.4509132420091324,0.43891891891891893,0.5228662264612375,1.1439560439560439,0.6888141295206055,1196.0
451.0,1.7109944672793446e+18,0.9086161879895561,0.4132420091324201,0.23459459459459459,0.47933480068476403,0.16593406593406593,0.1951219512195122,1188.0
452.0,1.7109944672893678e+18,-0.04046997389033943,0.4212328767123288,0.4297297297297297,0.5204206407434581,1.0769230769230769,0.7132043734230445,1196.0
453.0,1.7109944672993457e+18,0.9046997389033943,0.4121004566210046,0.24324324324324326,0.4803130349718758,0.18461538461538463,0.19259882253994953,1190.0
454.0,1.7109944673093668e+18,-0.05352480417754569,0.4269406392694064,0.42486486486486486,0.524578136463683,1.1637362637362638,0.7039529015979815,1198.0
455.0,1.7109944673193472e+18,0.8942558746736292,0.4041095890410959,0.23567567567567568,0.4810467106872096,0.14835164835164835,0.18755256518082422,1189.0
456.0,1.7109944673293658e+18,-0.010443864229765013,0.4178082191780822,0.4291891891891892,0.5231107850330154,1.1164835164835165,0.7106812447434819,1197.0
457.0,1.7109944673393475e+18,0.902088772845953,0.3995433789954338,0.2410810810810811,0.47640009782342874,0.14395604395604394,0.18587047939444912,1190.0
458.0,1.7109944673493668e+18,-0.0013054830287206266,0.454337899543379,0.4410810810810811,0.5231107850330154,1.1197802197802198,0.6989066442388562,1195.0
459.0,1.7109944673593475e+18,0.9255874673629243,0.4018264840182648,0.24594594594594596,0.47957935925654194,0.15714285714285714,0.1757779646761985,1189.0
460.0,1.7109944673693693e+18,0.0,0.454337899543379,0.44,0.5233553436047933,1.1175824175824176,0.6854499579478553,1198.0
461.0,1.7109944673793528e+18,0.912532637075718,0.4155251141552511,0.25027027027027027,0.4812912692589875,0.14395604395604394,0.16904962153069805,1189.0
462.0,1.7109944673893734e+18,-0.04569190600522193,0.4280821917808219,0.44972972972972974,0.5231107850330154,1.1373626373626373,0.7089991589571069,1196.0
463.0,1.710994467399348e+18,0.9073107049608355,0.3835616438356164,0.2562162162162162,0.47909024211298606,0.15824175824175823,0.16989066442388562,1189.0
464.0,1.7109944674093724e+18,-0.016971279373368148,0.4452054794520548,0.4297297297297297,0.5240890193201272,1.1681318681318682,0.703111858704794,1197.0
465.0,1.710994467419348e+18,0.9308093994778068,0.4063926940639269,0.2454054054054054,0.47786744925409635,0.11758241758241758,0.184188393608074,1189.0
466.0,1.7109944674293737e+18,-0.03655352480417755,0.4497716894977169,0.45513513513513515,0.5250672536072389,1.1516483516483516,0.7115222876366695,1197.0
467.0,1.710994467439349e+18,0.9543080939947781,0.4121004566210046,0.23891891891891892,0.47957935925654194,0.14065934065934066,0.1791421362489487,1188.0
468.0,1.7109944674493765e+18,-0.07049608355091384,0.4874429223744292,0.4535135135135135,0.5250672536072389,1.1857142857142857,0.7039529015979815,1196.0
469.0,1.7109944674593508e+18,0.9386422976501305,0.3938356164383562,0.25891891891891894,0.4800684764000978,0.1076923076923077,0.1774600504625736,1189.0
470.0,1.7109944674693765e+18,-0.04699738903394256,0.4486301369863014,0.4167567567567568,0.5284910736121301,1.1967032967032967,0.7249789739276703,1196.0
471.0,1.71099446747935e+18,0.9151436031331592,0.3915525114155251,0.22648648648648648,0.4786011249694302,0.10659340659340659,0.1724137931034483,1186.0
472.0,1.710994467489378e+18,-0.03524804177545692,0.4623287671232877,0.45135135135135135,0.5267791636096845,1.2021978021978021,0.7073170731707317,1195.0
473.0,1.7109944674993505e+18,0.9373368146214099,0.386986301369863,0.21837837837837837,0.47542186353631694,0.1076923076923077,0.1665264928511354,1188.0
474.0,1.7109944675093809e+18,-0.028720626631853787,0.4874429223744292,0.4481081081081081,0.5250672536072389,1.1846153846153846,0.7014297729184188,1197.0
475.0,1.7109944675193482e+18,0.9308093994778068,0.3835616438356164,0.2437837837837838,0.47957935925654194,0.1087912087912088,0.1724137931034483,1191.0
476.0,1.7109944675293645e+18,-0.04960835509138381,0.4657534246575342,0.4502702702702703,0.5260454878943507,1.1857142857142857,0.7140454163162321,1199.0
477.0,1.7109944675393495e+18,0.9673629242819843,0.3892694063926941,0.23405405405405405,0.4761555392516508,0.07142857142857142,0.1648444070647603,1189.0
478.0,1.7109944675493827e+18,-0.044386422976501305,0.4360730593607306,0.43567567567567567,0.5282465150403521,1.1989010989010989,0.712363330529857,1197.0
479.0,1.7109944675593485e+18,0.9464751958224543,0.3812785388127854,0.24594594594594596,0.4786011249694302,0.054945054945054944,0.15222876366694701,1190.0
480.0,1.710994467569367e+18,-0.05613577023498695,0.4474885844748858,0.4454054054054054,0.5299584250427978,1.1813186813186813,0.7174095878889823,1200.0
481.0,1.7109944675793467e+18,0.9908616187989556,0.4246575342465753,0.22972972972972974,0.4771337735387625,0.07802197802197802,0.15475189234650968,1190.0
482.0,1.7109944675893678e+18,-0.07180156657963446,0.4509132420091324,0.43135135135135133,0.5255563707507949,1.1989010989010989,0.7216148023549201,1198.0
483.0,1.7109944675993475e+18,0.9686684073107049,0.3915525114155251,0.22162162162162163,0.4768892149669846,0.08241758241758242,0.16820857863751051,1190.0
484.0,1.7109944676093663e+18,-0.08093994778067885,0.454337899543379,0.44216216216216214,0.5262900464661286,1.1857142857142857,0.712363330529857,1197.0
485.0,1.7109944676193475e+18,0.9843342036553525,0.3858447488584475,0.25513513513513514,0.4781120078258743,0.08791208791208792,0.1631623212783852,1188.0
486.0,1.7109944676293688e+18,-0.07049608355091384,0.4509132420091324,0.4502702702702703,0.5280019564685742,1.1824175824175824,0.7207737594617325,1199.0
487.0,1.7109944676393452e+18,0.9765013054830287,0.386986301369863,0.22918918918918918,0.47664465639520665,0.08571428571428572,0.1564339781328848,1191.0
488.0,1.710994467649369e+18,-0.09007832898172324,0.4931506849315068,0.44972972972972974,0.5258009293225727,1.2362637362637363,0.7174095878889823,1196.0
489.0,1.7109944676593454e+18,0.9595300261096605,0.3767123287671233,0.22486486486486487,0.4788456835412081,0.056043956043956046,0.16400336417157274,1188.0
490.0,1.710994467669368e+18,-0.07963446475195822,0.4668949771689498,0.4562162162162162,0.5260454878943507,1.2032967032967032,0.7308662741799832,1197.0
491.0,1.7109944676793452e+18,0.9738903394255874,0.3732876712328767,0.22648648648648648,0.47664465639520665,0.05274725274725275,0.159798149705635,1190.0
492.0,1.7109944676893686e+18,-0.0783289817232376,0.4634703196347032,0.45297297297297295,0.5262900464661286,1.2021978021978021,0.7140454163162321,1197.0
493.0,1.7109944676993477e+18,0.9830287206266318,0.3310502283105023,0.20432432432432432,0.475177304964539,0.06923076923076923,0.15391084945332212,1191.0
494.0,1.710994467709368e+18,-0.07702349869451697,0.4634703196347032,0.4410810810810811,0.5255563707507949,1.2175824175824175,0.7317073170731707,1195.0
495.0,1.7109944677193482e+18,0.9856396866840731,0.3755707762557078,0.21243243243243243,0.4756664221080949,0.041758241758241756,0.15559293523969722,1190.0
496.0,1.7109944677293676e+18,-0.07571801566579635,0.478310502283105,0.4335135135135135,0.5270237221814624,1.221978021978022,0.7291841883936081,1199.0
497.0,1.7109944677393457e+18,0.9869451697127938,0.365296803652968,0.21135135135135136,0.4761555392516508,0.06153846153846154,0.1564339781328848,1189.0
498.0,1.7109944677493665e+18,-0.07049608355091384,0.4726027397260274,0.46756756756756757,0.528980190755686,1.2604395604395604,0.7325483599663583,1198.0
499.0,1.7109944677593472e+18,1.0026109660574412,0.3687214611872146,0.21567567567567567,0.4768892149669846,0.01978021978021978,0.14970563498738435,1190.0
500.0,1.7109944677693665e+18,-0.09530026109660575,0.4463470319634703,0.44594594594594594,0.5255563707507949,1.221978021978022,0.7241379310344828,1197.0
501.0,1.7109944677793454e+18,0.9986945169712794,0.3504566210045662,0.23135135135135135,0.4761555392516508,0.01978021978021978,0.15306980656013458,1187.0
502.0,1.710994467789368e+18,-0.0835509138381201,0.4726027397260274,0.4562162162162162,0.5270237221814624,1.2494505494505495,0.7468460891505467,1198.0
503.0,1.7109944677993498e+18,0.9830287206266318,0.3812785388127854,0.2064864864864865,0.4759109806798728,0.05054945054945055,0.14802354920100924,1189.0
504.0,1.710994467809368e+18,-0.09530026109660575,0.4680365296803653,0.46918918918918917,0.5304475421863536,1.2648351648351648,0.7384356602186711,1197.0
505.0,1.7109944678193482e+18,1.0208877284595301,0.3675799086757991,0.20702702702702702,0.4788456835412081,0.05054945054945055,0.13961312026913372,1187.0
506.0,1.7109944678293668e+18,-0.10704960835509138,0.4726027397260274,0.4545945945945946,0.5238444607483492,1.2461538461538462,0.7317073170731707,1197.0
507.0,1.7109944678393498e+18,1.0052219321148825,0.341324200913242,0.20432432432432432,0.4783565663976522,0.04285714285714286,0.15391084945332212,1188.0
508.0,1.7109944678493688e+18,-0.10052219321148825,0.4406392694063927,0.4589189189189189,0.5282465150403521,1.2714285714285714,0.7485281749369218,1197.0
509.0,1.7109944678593503e+18,0.9869451697127938,0.3607305936073059,0.1945945945945946,0.47640009782342874,0.024175824175824177,0.13540790580319595,1187.0
510.0,1.7109944678693645e+18,-0.10182767624020887,0.4748858447488584,0.45837837837837836,0.5275128393250184,1.2747252747252746,0.7325483599663583,1197.0
511.0,1.71099446787935e+18,1.016971279373368,0.3767123287671233,0.20864864864864865,0.47542186353631694,0.008791208791208791,0.13708999158957108,1189.0
512.0,1.7109944678893642e+18,-0.11357702349869452,0.476027397260274,0.45135135135135135,0.5272682807532404,1.2846153846153847,0.7317073170731707,1198.0
513.0,1.7109944678993505e+18,1.016971279373368,0.3595890410958904,0.21513513513513513,0.4744436292492052,-0.01868131868131868,0.13540790580319595,1189.0
514.0,1.7109944679093645e+18,-0.10574412532637076,0.4920091324200913,0.4518918918918919,0.5262900464661286,1.278021978021978,0.7409587888982339,1198.0
515.0,1.7109944679193528e+18,1.0052219321148825,0.3698630136986301,0.20054054054054055,0.475177304964539,-0.03296703296703297,0.1295206055508831,1191.0
516.0,1.7109944679293645e+18,-0.06657963446475196,0.4931506849315068,0.4616216216216216,0.5265346050379066,1.2527472527472527,0.7409587888982339,1197.0
517.0,1.7109944679393551e+18,1.014360313315927,0.3767123287671233,0.21297297297297296,0.475177304964539,-0.002197802197802198,0.13204373423044574,1190.0
518.0,1.7109944679493655e+18,-0.11488250652741515,0.4703196347031963,0.44972972972972974,0.5292247493274639,1.287912087912088,0.751892346509672,1197.0
519.0,1.7109944679593564e+18,1.0391644908616189,0.3447488584474886,0.20486486486486485,0.47370995353387135,-0.02857142857142857,0.11858704793944491,1189.0
520.0,1.710994467969364e+18,-0.0926892950391645,0.4817351598173516,0.4518918918918919,0.528980190755686,1.3087912087912088,0.7552565180824222,1198.0
521.0,1.710994467979357e+18,1.0156657963446476,0.3493150684931507,0.21567567567567567,0.47346539496209344,-0.008791208791208791,0.1295206055508831,1188.0
522.0,1.7109944679893665e+18,-0.1227154046997389,0.4863013698630137,0.4572972972972973,0.5280019564685742,1.334065934065934,0.7510513036164844,1196.0
523.0,1.7109944679993592e+18,1.0365535248041775,0.3378995433789954,0.2,0.4727317192467596,-0.045054945054945054,0.11858704793944491,1187.0
524.0,1.7109944680093647e+18,-0.1174934725848564,0.4840182648401826,0.4578378378378378,0.5294693078992418,1.3285714285714285,0.7636669470142977,1197.0
525.0,1.7109944680193477e+18,1.0404699738903394,0.3824200913242009,0.20486486486486485,0.4746881878209831,-0.014285714285714285,0.12026913372582002,1188.0
526.0,1.7109944680293704e+18,-0.10835509138381201,0.4977168949771689,0.45837837837837836,0.5284910736121301,1.2956043956043957,0.7552565180824222,1198.0
527.0,1.7109944680393467e+18,1.0404699738903394,0.3538812785388128,0.21945945945945947,0.47224260210320373,-0.02857142857142857,0.11942809083263246,1190.0
528.0,1.7109944680493652e+18,-0.10704960835509138,0.4726027397260274,0.45675675675675675,0.5294693078992418,1.2956043956043957,0.7560975609756098,1196.0
529.0,1.7109944680593444e+18,1.0404699738903394,0.3264840182648402,0.2145945945945946,0.4744436292492052,-0.056043956043956046,0.11017661900756939,1186.0
530.0,1.7109944680693645e+18,-0.11357702349869452,0.4840182648401826,0.45513513513513515,0.5223771093176816,1.343956043956044,0.7678721614802355,1197.0
531.0,1.7109944680793454e+18,1.0404699738903394,0.3584474885844749,0.1962162162162162,0.47175348495964786,-0.05274725274725275,0.1135407905803196,1190.0
532.0,1.7109944680893645e+18,-0.08746736292428199,0.4954337899543379,0.46918918918918917,0.5294693078992418,1.3373626373626373,0.7729184188393609,1196.0
533.0,1.7109944680993452e+18,1.04177545691906,0.3333333333333333,0.21891891891891893,0.47493274639276106,-0.05824175824175824,0.10176619007569386,1188.0
534.0,1.7109944681093665e+18,-0.12924281984334204,0.4965753424657534,0.46864864864864864,0.5314257764734654,1.3527472527472528,0.7796467619848613,1197.0
535.0,1.7109944681193467e+18,1.052219321148825,0.3276255707762557,0.1891891891891892,0.4788456835412081,-0.09340659340659341,0.095878889823381,1188.0
536.0,1.7109944681293699e+18,-0.13185378590078328,0.5057077625570776,0.48,0.5306921007581316,1.3736263736263736,0.7754415475189235,1197.0
537.0,1.7109944681393454e+18,1.0744125326370757,0.3401826484018265,0.18486486486486486,0.47224260210320373,-0.1,0.10513036164844407,1190.0
538.0,1.7109944681493696e+18,-0.1370757180156658,0.5,0.4875675675675676,0.5304475421863536,1.3318681318681318,0.7821698906644239,1199.0
539.0,1.7109944681593446e+18,1.0456919060052219,0.363013698630137,0.1783783783783784,0.4727317192467596,-0.11648351648351649,0.08494533221194281,1190.0
540.0,1.7109944681693704e+18,-0.13577023498694518,0.5182648401826484,0.4789189189189189,0.5309366593299095,1.3967032967032966,0.7779646761984861,1198.0
541.0,1.7109944681793454e+18,1.08355091383812,0.3424657534246575,0.17513513513513512,0.46930789924186844,-0.13186813186813187,0.09671993271656855,1189.0
542.0,1.710994468189375e+18,-0.13968668407310705,0.502283105022831,0.48324324324324325,0.5299584250427978,1.401098901098901,0.7981497056349874,1197.0
543.0,1.7109944681993428e+18,1.0718015665796345,0.339041095890411,0.1837837837837838,0.4741990706774272,-0.12967032967032968,0.08830950378469302,1189.0
544.0,1.7109944682093507e+18,-0.14882506527415143,0.523972602739726,0.47945945945945945,0.528980190755686,1.4065934065934067,0.783851976450799,1198.0
545.0,1.7109944682193329e+18,1.077023498694517,0.3207762557077626,0.2,0.46661775495231106,-0.15054945054945054,0.07653490328006729,1188.0
546.0,1.710994468229376e+18,-0.1462140992167102,0.5091324200913242,0.48324324324324325,0.5348495964783566,1.4043956043956043,0.80067283431455,1199.0
547.0,1.7109944682393454e+18,1.0757180156657964,0.3082191780821918,0.1962162162162162,0.4732208363903155,-0.15934065934065933,0.0782169890664424,1189.0
548.0,1.71099446824938e+18,-0.15013054830287206,0.565068493150685,0.4789189189189189,0.532893127904133,1.4054945054945054,0.8074011774600505,1196.0
549.0,1.7109944682593477e+18,1.0574412532637076,0.2910958904109589,0.18486486486486486,0.46955245781364635,-0.18461538461538463,0.06812447434819176,1187.0
550.0,1.7109944682693816e+18,-0.13315926892950392,0.5502283105022832,0.5054054054054054,0.5314257764734654,1.4252747252747253,0.8107653490328006,1195.0
551.0,1.7109944682793492e+18,1.0678851174934725,0.3002283105022831,0.16486486486486487,0.4727317192467596,-0.19230769230769232,0.05550883095037847,1188.0
552.0,1.7109944682893699e+18,-0.16971279373368145,0.5308219178082192,0.4875675675675676,0.5363169479090242,1.4648351648351647,0.8023549201009251,1197.0
553.0,1.7109944682993577e+18,1.1044386422976502,0.2945205479452055,0.1908108108108108,0.46832966495475664,-0.2032967032967033,0.06896551724137931,1188.0
554.0,1.7109944683093724e+18,-0.17493472584856398,0.5399543378995434,0.49675675675675673,0.5319148936170213,1.4406593406593406,0.8090832632464255,1196.0
555.0,1.7109944683193562e+18,1.0861618798955615,0.3025114155251142,0.16324324324324324,0.467106872095867,-0.1813186813186813,0.056349873843566024,1189.0
556.0,1.7109944683293716e+18,-0.16449086161879894,0.5445205479452054,0.4908108108108108,0.5333822450476889,1.4593406593406593,0.8132884777123633,1197.0
557.0,1.710994468339351e+18,1.1109660574412532,0.3013698630136986,0.16972972972972972,0.46661775495231106,-0.23846153846153847,0.05550883095037847,1187.0
558.0,1.7109944683493734e+18,-0.18407310704960836,0.5924657534246576,0.492972972972973,0.5343604793348007,1.4626373626373625,0.8216989066442388,1198.0
559.0,1.7109944683593495e+18,1.1044386422976502,0.2831050228310502,0.15405405405405406,0.46661775495231106,-0.22747252747252747,0.05382674516400336,1189.0
560.0,1.710994468369369e+18,-0.1906005221932115,0.541095890410959,0.5091891891891892,0.5343604793348007,1.4582417582417582,0.8242220353238016,1199.0
561.0,1.7109944683793503e+18,1.1357702349869452,0.2831050228310502,0.17243243243243242,0.4649058449498655,-0.22857142857142856,0.04625735912531539,1190.0
562.0,1.7109944683893706e+18,-0.17493472584856398,0.545662100456621,0.49513513513513513,0.5370506236243581,1.476923076923077,0.8259041211101766,1198.0
563.0,1.7109944683993587e+18,1.1370757180156659,0.29337899543379,0.18432432432432433,0.46466128637808757,-0.23406593406593407,0.044575273338940284,1188.0
564.0,1.7109944684093745e+18,-0.19712793733681463,0.5582191780821918,0.49405405405405406,0.5370506236243581,1.5076923076923077,0.8259041211101766,1197.0
565.0,1.710994468419353e+18,1.1409921671018277,0.2785388127853881,0.17297297297297298,0.4641721692345317,-0.26373626373626374,0.024390243902439025,1189.0
566.0,1.710994468429367e+18,-0.20234986945169714,0.5821917808219178,0.5216216216216216,0.5372951821961359,1.489010989010989,0.8284272497897393,1196.0
567.0,1.7109944684393454e+18,1.1657963446475197,0.2591324200913242,0.15567567567567567,0.46515040352164344,-0.27582417582417584,0.034482758620689655,1190.0
568.0,1.710994468449366e+18,-0.23368146214099217,0.5570776255707762,0.5216216216216216,0.5343604793348007,1.5142857142857142,0.8444070647603028,1198.0
569.0,1.7109944684593477e+18,1.1553524804177546,0.2625570776255708,0.1572972972972973,0.4607483492296405,-0.3120879120879121,0.017661900756938603,1186.0
570.0,1.7109944684693668e+18,-0.24151436031331594,0.5753424657534246,0.52,0.541208119344583,1.5505494505494506,0.840201850294365,1199.0
571.0,1.7109944684793513e+18,1.156657963446475,0.2762557077625571,0.13837837837837838,0.4631939349474199,-0.321978021978022,0.022708158116063918,1189.0
572.0,1.710994468489372e+18,-0.23759791122715404,0.5776255707762558,0.5291891891891892,0.5377842993396919,1.532967032967033,0.8334735071488646,1198.0
573.0,1.7109944684993477e+18,1.1762402088772845,0.2545662100456621,0.15513513513513513,0.46392761066275373,-0.3032967032967033,0.021867115222876366,1189.0
574.0,1.710994468509374e+18,-0.24804177545691905,0.593607305936073,0.5448648648648649,0.5421863536316948,1.59010989010989,0.8553406223717409,1197.0
575.0,1.7109944685193498e+18,1.1618798955613576,0.2454337899543379,0.12864864864864864,0.4649058449498655,-0.3076923076923077,0.02691337258200168,1188.0
576.0,1.710994468529367e+18,-0.2754569190600522,0.5547945205479452,0.5097297297297297,0.5397407679139153,1.567032967032967,0.8662741799831791,1198.0
577.0,1.7109944685393482e+18,1.1971279373368147,0.2511415525114155,0.1545945945945946,0.45683541208119344,-0.32967032967032966,0.008410428931875526,1187.0
578.0,1.7109944685493673e+18,-0.24281984334203655,0.5901826484018264,0.5237837837837838,0.5407190022010272,1.5769230769230769,0.8536585365853658,1199.0
579.0,1.710994468559346e+18,1.2219321148825066,0.2694063926940639,0.1372972972972973,0.46246025923208606,-0.3098901098901099,0.0336417157275021,1189.0
580.0,1.7109944685693663e+18,-0.3093994778067885,0.5547945205479452,0.514054054054054,0.541452677916361,1.5868131868131867,0.8427249789739276,1198.0
581.0,1.710994468579352e+18,1.2389033942558747,0.23972602739726026,0.14702702702702702,0.45928099779897286,-0.3516483516483517,0.012615643397813289,1190.0
582.0,1.7109944685893673e+18,-0.29112271540469975,0.589041095890411,0.532972972972973,0.5402298850574713,1.6021978021978023,0.8435660218671153,1201.0
583.0,1.7109944685993457e+18,1.2441253263707572,0.23858447488584475,0.14594594594594595,0.4602592320860846,-0.378021978021978,0.021026072329688814,1188.0
584.0,1.7109944686093663e+18,-0.304177545691906,0.591324200913242,0.5421621621621622,0.541697236488139,1.597802197802198,0.8469301934398654,1199.0
585.0,1.7109944686193472e+18,1.262402088772846,0.22945205479452055,0.12108108108108108,0.45928099779897286,-0.3516483516483517,0.017661900756938603,1188.0
586.0,1.7109944686293652e+18,-0.30548302872062666,0.5970319634703196,0.5291891891891892,0.5399853264856933,1.6076923076923078,0.8435660218671153,1197.0
587.0,1.710994468639346e+18,1.2506527415143602,0.21232876712328766,0.12594594594594594,0.4617265835167523,-0.37252747252747254,0.02691337258200168,1186.0
588.0,1.7109944686493663e+18,-0.2989556135770235,0.6073059360730594,0.5427027027027027,0.541697236488139,1.6351648351648351,0.8511354079058032,1198.0
589.0,1.7109944686593452e+18,1.2702349869451697,0.2374429223744292,0.12864864864864864,0.4602592320860846,-0.34395604395604396,0.02607232968881413,1184.0
590.0,1.7109944686693665e+18,-0.3133159268929504,0.6061643835616438,0.5351351351351351,0.541697236488139,1.623076923076923,0.8460891505466779,1199.0
591.0,1.71099446867935e+18,1.2702349869451697,0.228310502283105,0.12972972972972974,0.45977011494252873,-0.3747252747252747,0.024390243902439025,1189.0
592.0,1.7109944686893688e+18,-0.31201044386422977,0.613013698630137,0.5443243243243243,0.5421863536316948,1.6362637362637362,0.8368376787216149,1200.0
593.0,1.7109944686993482e+18,1.276762402088773,0.21232876712328766,0.1254054054054054,0.46343849351919786,-0.37142857142857144,0.031118587047939444,1189.0
594.0,1.710994468709366e+18,-0.34595300261096606,0.58675799086758,0.5459459459459459,0.5392516507703595,1.6186813186813187,0.8351555929352397,1200.0
595.0,1.710994468719344e+18,1.304177545691906,0.2363013698630137,0.12216216216216216,0.4595255563707508,-0.3747252747252747,0.021867115222876366,1188.0
596.0,1.7109944687293673e+18,-0.34464751958224543,0.639269406392694,0.552972972972973,0.5448764979212521,1.6043956043956045,0.8435660218671153,1199.0
597.0,1.710994468739347e+18,1.3080939947780679,0.2226027397260274,0.12864864864864864,0.46050379065786257,-0.378021978021978,0.027754415475189236,1188.0
598.0,1.7109944687493665e+18,-0.34203655352480417,0.6050228310502284,0.5675675675675675,0.5441428222059184,1.621978021978022,0.8259041211101766,1196.0
599.0,1.710994468759348e+18,1.3263707571801566,0.2226027397260274,0.13783783783783785,0.4570799706529714,-0.36153846153846153,0.034482758620689655,1186.0
600.0,1.7109944687693642e+18,-0.3733681462140992,0.6244292237442922,0.547027027027027,0.5399853264856933,1.589010989010989,0.8233809924306139,1198.0
601.0,1.7109944687793467e+18,1.314621409921671,0.1952054794520548,0.11459459459459459,0.4578136463683052,-0.37362637362637363,0.02943650126156434,1187.0
602.0,1.710994468789367e+18,-0.3629242819843342,0.6004566210045662,0.5621621621621622,0.541452677916361,1.59010989010989,0.8284272497897393,1199.0
603.0,1.7109944687993452e+18,1.304177545691906,0.21118721461187215,0.12,0.4575690877965273,-0.3945054945054945,0.031959629941127,1188.0
604.0,1.710994468809366e+18,-0.3968668407310705,0.6335616438356164,0.5410810810810811,0.5429200293470287,1.6054945054945056,0.8183347350714887,1199.0
605.0,1.7109944688193562e+18,1.325065274151436,0.19863013698630136,0.13405405405405404,0.46099290780141844,-0.35714285714285715,0.045416316232127836,1188.0
606.0,1.710994468829366e+18,-0.39295039164490864,0.6141552511415526,0.5578378378378378,0.5434091464905845,1.6076923076923078,0.832632464255677,1197.0
607.0,1.710994468839348e+18,1.2976501305483028,0.21232876712328766,0.1254054054054054,0.4556126192223037,-0.3802197802197802,0.03952901597981497,1187.0
608.0,1.7109944688493665e+18,-0.3720626631853786,0.636986301369863,0.5567567567567567,0.5385179750550256,1.5769230769230769,0.8124474348191758,1196.0
609.0,1.7109944688593492e+18,1.349869451697128,0.22031963470319635,0.11459459459459459,0.4583027635118611,-0.36043956043956044,0.0479394449116905,1186.0
610.0,1.7109944688693652e+18,-0.39295039164490864,0.6084474885844748,0.5627027027027027,0.5392516507703595,1.5725274725274725,0.8124474348191758,1197.0
611.0,1.7109944688793508e+18,1.343342036553525,0.21118721461187215,0.15297297297297296,0.4619711420885302,-0.3626373626373626,0.04373423044575273,1187.0
612.0,1.7109944688893647e+18,-0.36945169712793735,0.6198630136986302,0.5351351351351351,0.541452677916361,1.5714285714285714,0.8191757779646762,1199.0
613.0,1.710994468899352e+18,1.3224543080939948,0.1780821917808219,0.14486486486486486,0.46246025923208606,-0.3659340659340659,0.044575273338940284,1188.0
614.0,1.710994468909366e+18,-0.4046997389033943,0.615296803652968,0.5664864864864865,0.5392516507703595,1.543956043956044,0.8149705634987384,1194.0
615.0,1.7109944689193533e+18,1.3015665796344646,0.18835616438356165,0.14108108108108108,0.45683541208119344,-0.33186813186813185,0.04289318755256518,1188.0
616.0,1.7109944689293683e+18,-0.3642297650130548,0.615296803652968,0.5637837837837838,0.540963560772805,1.5483516483516484,0.8015138772077376,1197.0
617.0,1.710994468939355e+18,1.3120104438642297,0.2054794520547945,0.12108108108108108,0.4561017363658596,-0.3263736263736264,0.0479394449116905,1188.0
618.0,1.710994468949367e+18,-0.3772845953002611,0.6050228310502284,0.5491891891891892,0.5407190022010272,1.524175824175824,0.8149705634987384,1196.0
619.0,1.7109944689593567e+18,1.3328981723237598,0.20319634703196346,0.11891891891891893,0.46050379065786257,-0.3384615384615385,0.04289318755256518,1188.0
620.0,1.7109944689693676e+18,-0.39033942558746737,0.6278538812785388,0.5394594594594595,0.5419417950599168,1.5505494505494506,0.7964676198486123,1199.0
621.0,1.710994468979358e+18,1.328981723237598,0.2054794520547945,0.1308108108108108,0.4617265835167523,-0.38351648351648354,0.051303616484440706,1188.0
622.0,1.7109944689893652e+18,-0.3877284595300261,0.6426940639269406,0.5486486486486486,0.5399853264856933,1.598901098901099,0.7863751051303617,1199.0
623.0,1.7109944689993618e+18,1.318537859007833,0.1952054794520548,0.11351351351351352,0.46246025923208606,-0.34505494505494505,0.05971404541631623,1189.0
624.0,1.7109944690093665e+18,-0.3772845953002611,0.6095890410958904,0.5545945945945946,0.5397407679139153,1.5725274725274725,0.7973086627417998,1199.0
625.0,1.710994469019343e+18,1.3276762402088773,0.2180365296803653,0.14054054054054055,0.4614820249449743,-0.3208791208791209,0.05550883095037847,1188.0
626.0,1.710994469029369e+18,-0.3642297650130548,0.6118721461187214,0.5286486486486487,0.5380288579114698,1.5417582417582418,0.8015138772077376,1197.0
627.0,1.7109944690393623e+18,1.314621409921671,0.20776255707762556,0.12378378378378378,0.46246025923208606,-0.33186813186813185,0.051303616484440706,1186.0
628.0,1.710994469049367e+18,-0.37467362924281983,0.5981735159817352,0.5437837837837838,0.5402298850574713,1.5516483516483517,0.7981497056349874,1197.0
629.0,1.7109944690593434e+18,1.3080939947780679,0.2408675799086758,0.11783783783783784,0.46221570066030815,-0.3087912087912088,0.051303616484440706,1185.0
630.0,1.7109944690693658e+18,-0.36553524804177545,0.6141552511415526,0.5248648648648648,0.5387625336268036,1.5340659340659342,0.7922624053826746,1197.0
631.0,1.7109944690793423e+18,1.3120104438642297,0.2146118721461187,0.1254054054054054,0.4600146735143067,-0.321978021978022,0.04205214465937763,1188.0
632.0,1.7109944690893676e+18,-0.3433420365535248,0.6198630136986302,0.5502702702702703,0.5377842993396919,1.5615384615384615,0.7964676198486123,1197.0
633.0,1.7109944690993418e+18,1.3015665796344646,0.2408675799086758,0.14054054054054055,0.4600146735143067,-0.37032967032967035,0.051303616484440706,1186.0
634.0,1.7109944691093686e+18,-0.3537859007832898,0.6187214611872146,0.5372972972972972,0.5370506236243581,1.5527472527472528,0.8023549201009251,1197.0
635.0,1.7109944691193428e+18,1.2963446475195823,0.2089041095890411,0.10972972972972973,0.4602592320860846,-0.32967032967032966,0.03784693019343986,1186.0
636.0,1.7109944691293688e+18,-0.3629242819843342,0.6210045662100456,0.5183783783783784,0.5387625336268036,1.5637362637362637,0.7947855340622372,1198.0
637.0,1.710994469139342e+18,1.2963446475195823,0.23972602739726026,0.14216216216216215,0.4602592320860846,-0.35714285714285715,0.050462573591253154,1187.0
638.0,1.71099446914937e+18,-0.3577023498694517,0.6198630136986302,0.5594594594594594,0.5380288579114698,1.5197802197802197,0.8057190916736754,1195.0
639.0,1.7109944691593434e+18,1.3028720626631853,0.2100456621004566,0.12864864864864864,0.4612374663731964,-0.37032967032967035,0.040370058873002525,1187.0
640.0,1.7109944691693737e+18,-0.3224543080939948,0.613013698630137,0.5443243243243243,0.5380288579114698,1.5868131868131867,0.7964676198486123,1199.0
641.0,1.7109944691793428e+18,1.3120104438642297,0.19863013698630136,0.1227027027027027,0.462949376375642,-0.35494505494505496,0.04289318755256518,1188.0
642.0,1.7109944691893734e+18,-0.34986945169712796,0.6164383561643836,0.5378378378378378,0.5358278307654684,1.5527472527472528,0.80067283431455,1197.0
643.0,1.7109944691993467e+18,1.2976501305483028,0.2009132420091324,0.11027027027027027,0.46221570066030815,-0.33516483516483514,0.02607232968881413,1188.0
644.0,1.7109944692093745e+18,-0.34203655352480417,0.6232876712328768,0.5432432432432432,0.5387625336268036,1.5648351648351648,0.8124474348191758,1198.0
645.0,1.710994469219343e+18,1.3015665796344646,0.20319634703196346,0.12486486486486487,0.4595255563707508,-0.36043956043956044,0.034482758620689655,1188.0
646.0,1.710994469229376e+18,-0.31592689295039167,0.6404109589041096,0.5372972972972972,0.5421863536316948,1.5648351648351648,0.8023549201009251,1198.0
647.0,1.710994469239344e+18,1.293733681462141,0.2579908675799087,0.11513513513513514,0.4617265835167523,-0.3626373626373626,0.025231286795626577,1188.0
648.0,1.7109944692493778e+18,-0.3433420365535248,0.6118721461187214,0.5459459459459459,0.5377842993396919,1.565934065934066,0.8183347350714887,1199.0
649.0,1.7109944692593434e+18,1.2989556135770235,0.23401826484018265,0.1508108108108108,0.4602592320860846,-0.3956043956043956,0.020185029436501262,1186.0
650.0,1.710994469269362e+18,-0.3433420365535248,0.615296803652968,0.5545945945945946,0.5382734164832478,1.5648351648351648,0.8267451640033642,1196.0
651.0,1.7109944692793574e+18,1.314621409921671,0.228310502283105,0.14162162162162162,0.4612374663731964,-0.38461538461538464,0.0159798149705635,1188.0
652.0,1.7109944692893837e+18,-0.34464751958224543,0.6164383561643836,0.5351351351351351,0.5380288579114698,1.543956043956044,0.8292682926829268,1196.0
653.0,1.7109944692993487e+18,1.3028720626631853,0.228310502283105,0.12108108108108108,0.4614820249449743,-0.3659340659340659,0.014297729184188394,1186.0
654.0,1.7109944693093676e+18,-0.3524804177545692,0.6472602739726028,0.5567567567567567,0.5377842993396919,1.565934065934066,0.8225399495374264,1197.0
655.0,1.710994469319349e+18,1.314621409921671,0.2009132420091324,0.1281081081081081,0.4602592320860846,-0.4054945054945055,0.010933557611438183,1188.0
656.0,1.7109944693293686e+18,-0.33550913838120106,0.6164383561643836,0.5502702702702703,0.5385179750550256,1.5813186813186813,0.832632464255677,1198.0
657.0,1.71099446933935e+18,1.328981723237598,0.1997716894977169,0.09405405405405405,0.4561017363658596,-0.4164835164835165,0.01934398654331371,1188.0
658.0,1.710994469349369e+18,-0.3563968668407311,0.632420091324201,0.567027027027027,0.5458547322083639,1.5879120879120878,0.8200168208578638,1198.0
659.0,1.7109944693593508e+18,1.3120104438642297,0.21575342465753425,0.1281081081081081,0.4612374663731964,-0.3813186813186813,0.01345668629100084,1188.0
660.0,1.7109944693693686e+18,-0.3472584856396867,0.5787671232876712,0.5654054054054054,0.5387625336268036,1.5879120879120878,0.8275862068965517,1200.0
661.0,1.7109944693793503e+18,1.3315926892950392,0.20205479452054795,0.10918918918918918,0.4631939349474199,-0.3912087912087912,0.007569386038687973,1188.0
662.0,1.7109944693893724e+18,-0.3472584856396867,0.6312785388127854,0.5443243243243243,0.5380288579114698,1.5967032967032968,0.8267451640033642,1196.0
663.0,1.7109944693993495e+18,1.318537859007833,0.18036529680365296,0.10972972972972973,0.458791880655417,-0.43626373626373627,-0.0008410428931875525,1188.0
664.0,1.7109944694093688e+18,-0.35900783289817234,0.6244292237442922,0.5556756756756757,0.5380288579114698,1.6131868131868132,0.8267451640033642,1197.0
665.0,1.7109944694193487e+18,1.328981723237598,0.2054794520547945,0.12108108108108108,0.462949376375642,-0.4054945054945055,-0.00672834314550042,1189.0
666.0,1.710994469429369e+18,-0.34856396866840733,0.6141552511415526,0.5578378378378378,0.5387625336268036,1.6120879120879121,0.8343145500420521,1197.0
667.0,1.71099446943935e+18,1.3080939947780679,0.18493150684931506,0.10432432432432433,0.462704817803864,-0.36813186813186816,0.005046257359125316,1187.0
668.0,1.7109944694493722e+18,-0.34203655352480417,0.636986301369863,0.5524324324324325,0.5397407679139153,1.623076923076923,0.8410428931875525,1198.0
669.0,1.7109944694593492e+18,1.343342036553525,0.2009132420091324,0.10054054054054054,0.46392761066275373,-0.3879120879120879,-0.012615643397813289,1185.0
670.0,1.7109944694693686e+18,-0.34986945169712796,0.6438356164383562,0.5567567567567567,0.5392516507703595,1.598901098901099,0.832632464255677,1197.0
671.0,1.7109944694793528e+18,1.3328981723237598,0.19863013698630136,0.09783783783783784,0.46246025923208606,-0.4142857142857143,-0.00336417157275021,1187.0
672.0,1.7109944694893706e+18,-0.33159268929503916,0.6643835616438356,0.5616216216216217,0.5390070921985816,1.5956043956043957,0.832632464255677,1199.0
673.0,1.7109944694993487e+18,1.3328981723237598,0.1860730593607306,0.11675675675675676,0.4602592320860846,-0.4461538461538462,0.0,1187.0
674.0,1.7109944695093696e+18,-0.36945169712793735,0.6461187214611872,0.5556756756756757,0.5387625336268036,1.5824175824175823,0.8225399495374264,1198.0
675.0,1.7109944695193508e+18,1.318537859007833,0.1872146118721461,0.08378378378378379,0.4644167278063096,-0.4175824175824176,-0.00336417157275021,1186.0
676.0,1.710994469529368e+18,-0.3537859007832898,0.632420091324201,0.532972972972973,0.5370506236243581,1.5868131868131867,0.8334735071488646,1197.0
677.0,1.7109944695393513e+18,1.3472584856396868,0.1917808219178082,0.10702702702702703,0.4612374663731964,-0.4736263736263736,-0.005887300252312868,1188.0
678.0,1.7109944695493696e+18,-0.3537859007832898,0.6415525114155252,0.5178378378378379,0.5377842993396919,1.598901098901099,0.8200168208578638,1197.0
679.0,1.7109944695593498e+18,1.3276762402088773,0.1552511415525114,0.10054054054054054,0.46050379065786257,-0.44285714285714284,0.005887300252312868,1186.0
680.0,1.7109944695693688e+18,-0.370757180156658,0.6187214611872146,0.5567567567567567,0.5375397407679139,1.6120879120879121,0.8284272497897393,1200.0
681.0,1.710994469579351e+18,1.3563968668407311,0.1815068493150685,0.12972972972972974,0.45365615064808024,-0.4604395604395604,-0.002523128679562658,1186.0
682.0,1.7109944695893693e+18,-0.370757180156658,0.636986301369863,0.5540540540540541,0.5363169479090242,1.6175824175824176,0.8216989066442388,1197.0
683.0,1.710994469599352e+18,1.3276762402088773,0.1689497716894977,0.12486486486486487,0.46050379065786257,-0.46593406593406594,0.0008410428931875525,1189.0
684.0,1.7109944696093683e+18,-0.3433420365535248,0.6666666666666666,0.5421621621621622,0.5382734164832478,1.6417582417582417,0.830950378469302,1198.0
685.0,1.7109944696193536e+18,1.343342036553525,0.1643835616438356,0.10324324324324324,0.462949376375642,-0.4340659340659341,0.004205214465937763,1188.0
686.0,1.7109944696293693e+18,-0.3563968668407311,0.6541095890410958,0.5854054054054054,0.5434091464905845,1.6186813186813187,0.8343145500420521,1196.0
687.0,1.710994469639355e+18,1.3550913838120104,0.18036529680365296,0.10378378378378378,0.467106872095867,-0.4208791208791209,0.015138772077375946,1189.0
688.0,1.710994469649368e+18,-0.3577023498694517,0.6438356164383562,0.5308108108108108,0.5426754707752507,1.6296703296703297,0.8250630782169891,1200.0
689.0,1.7109944696593564e+18,1.3577023498694516,0.16666666666666666,0.14054054054054055,0.4619711420885302,-0.44175824175824174,0.030277544154751892,1186.0
690.0,1.7109944696693806e+18,-0.3642297650130548,0.636986301369863,0.5724324324324325,0.5387625336268036,1.6054945054945056,0.8242220353238016,1197.0
691.0,1.7109944696793587e+18,1.3381201044386424,0.18036529680365296,0.09621621621621622,0.4614820249449743,-0.4054945054945055,-0.004205214465937763,1189.0
692.0,1.7109944696893711e+18,-0.3877284595300261,0.6415525114155252,0.5372972972972972,0.5343604793348007,1.5769230769230769,0.815811606391926,1198.0
693.0,1.7109944696993585e+18,1.3537859007832898,0.16666666666666666,0.08972972972972973,0.4590364392271949,-0.4351648351648352,0.009251471825063078,1187.0
694.0,1.710994469709367e+18,-0.3877284595300261,0.6461187214611872,0.5286486486486487,0.5370506236243581,1.60989010989011,0.8233809924306139,1196.0
695.0,1.7109944697193597e+18,1.3537859007832898,0.1997716894977169,0.11459459459459459,0.4614820249449743,-0.42527472527472526,0.001682085786375105,1187.0
696.0,1.7109944697293683e+18,-0.3668407310704961,0.636986301369863,0.5535135135135135,0.5368060650525801,1.6032967032967034,0.8132884777123633,1197.0
697.0,1.7109944697393457e+18,1.3224543080939948,0.1872146118721461,0.09243243243243243,0.4612374663731964,-0.44505494505494503,0.007569386038687973,1187.0
698.0,1.7109944697493668e+18,-0.34856396866840733,0.6381278538812786,0.5227027027027027,0.5387625336268036,1.5868131868131867,0.8132884777123633,1195.0
699.0,1.710994469759348e+18,1.3342036553524803,0.17009132420091325,0.11189189189189189,0.46099290780141844,-0.44065934065934065,0.011774600504625737,1186.0
700.0,1.7109944697693678e+18,-0.34986945169712796,0.6472602739726028,0.538918918918919,0.5348495964783566,1.5857142857142856,0.8225399495374264,1199.0
701.0,1.7109944697793462e+18,1.3328981723237598,0.14383561643835616,0.11729729729729729,0.462704817803864,-0.4142857142857143,0.007569386038687973,1187.0
702.0,1.7109944697893683e+18,-0.35117493472584854,0.6506849315068494,0.572972972972973,0.5394962093421375,1.5714285714285714,0.8208578637510513,1198.0
703.0,1.7109944697993472e+18,1.3420365535248042,0.1963470319634703,0.11513513513513514,0.4600146735143067,-0.4351648351648352,0.007569386038687973,1187.0
704.0,1.7109944698093658e+18,-0.3433420365535248,0.6449771689497716,0.5681081081081081,0.5350941550501345,1.5857142857142856,0.8107653490328006,1198.0
705.0,1.7109944698193467e+18,1.3446475195822454,0.1723744292237443,0.13027027027027027,0.4600146735143067,-0.43956043956043955,0.010933557611438183,1189.0
706.0,1.7109944698293676e+18,-0.34073107049608353,0.6415525114155252,0.5524324324324325,0.5385179750550256,1.589010989010989,0.7939444911690496,1199.0
707.0,1.7109944698393457e+18,1.3368146214099217,0.17123287671232876,0.14864864864864866,0.4607483492296405,-0.3989010989010989,0.03616484440706476,1190.0
708.0,1.7109944698493706e+18,-0.3381201044386423,0.6495433789954338,0.5367567567567567,0.5431645879188065,1.5956043956043957,0.8090832632464255,1198.0
709.0,1.710994469859347e+18,1.325065274151436,0.182648401826484,0.08540540540540541,0.4619711420885302,-0.3956043956043956,0.021026072329688814,1186.0
710.0,1.7109944698693706e+18,-0.3394255874673629,0.660958904109589,0.5372972972972972,0.5353387136219124,1.5736263736263736,0.7981497056349874,1197.0
711.0,1.7109944698793464e+18,1.3381201044386424,0.1541095890410959,0.0918918918918919,0.462704817803864,-0.432967032967033,0.023549201009251473,1192.0
712.0,1.710994469889372e+18,-0.34464751958224543,0.634703196347032,0.5643243243243243,0.5348495964783566,1.6032967032967034,0.8048780487804879,1200.0
713.0,1.7109944698993475e+18,1.3368146214099217,0.15296803652968036,0.1227027027027027,0.4619711420885302,-0.4461538461538462,0.024390243902439025,1188.0
714.0,1.710994469909374e+18,-0.32506527415143605,0.6598173515981736,0.5324324324324324,0.5350941550501345,1.5736263736263736,0.8065601345668629,1198.0
715.0,1.7109944699193444e+18,1.3276762402088773,0.16552511415525115,0.11567567567567567,0.46246025923208606,-0.4175824175824176,0.018502943650126155,1187.0
716.0,1.7109944699293755e+18,-0.3328981723237598,0.632420091324201,0.5659459459459459,0.5341159207630227,1.554945054945055,0.80067283431455,1197.0
717.0,1.7109944699393464e+18,1.345953002610966,0.16666666666666666,0.08162162162162162,0.4644167278063096,-0.42747252747252745,0.03700588730025231,1188.0
718.0,1.7109944699493763e+18,-0.3276762402088773,0.639269406392694,0.514054054054054,0.5375397407679139,1.5813186813186813,0.7998317914213625,1199.0
719.0,1.7109944699593495e+18,1.3237597911227155,0.16210045662100456,0.13405405405405404,0.46392761066275373,-0.4098901098901099,0.023549201009251473,1186.0
720.0,1.710994469969378e+18,-0.32114882506527415,0.6449771689497716,0.5405405405405406,0.5341159207630227,1.5483516483516484,0.8015138772077376,1197.0
721.0,1.710994469979346e+18,1.3276762402088773,0.1735159817351598,0.11459459459459459,0.46881878209831257,-0.3923076923076923,0.02607232968881413,1187.0
722.0,1.710994469989379e+18,-0.31723237597911225,0.6689497716894978,0.518918918918919,0.5341159207630227,1.5835164835164834,0.7998317914213625,1199.0
723.0,1.7109944699993452e+18,1.335509138381201,0.1598173515981735,0.0891891891891892,0.4644167278063096,-0.3978021978021978,0.024390243902439025,1188.0
724.0,1.7109944700093806e+18,-0.31723237597911225,0.6929223744292238,0.534054054054054,0.5355832721936904,1.5681318681318681,0.8031959629941127,1198.0
725.0,1.710994470019345e+18,1.328981723237598,0.16095890410958905,0.13135135135135134,0.4644167278063096,-0.4021978021978022,0.034482758620689655,1189.0
726.0,1.7109944700293665e+18,-0.3276762402088773,0.6381278538812786,0.5540540540540541,0.5360723893372463,1.5725274725274725,0.7863751051303617,1200.0
727.0,1.7109944700393446e+18,1.3381201044386424,0.1917808219178082,0.11621621621621622,0.46515040352164344,-0.4098901098901099,0.02607232968881413,1190.0
728.0,1.710994470049366e+18,-0.30548302872062666,0.656392694063927,0.5437837837837838,0.5353387136219124,1.5879120879120878,0.7846930193439865,1197.0
729.0,1.710994470059346e+18,1.3328981723237598,0.18036529680365296,0.1545945945945946,0.4641721692345317,-0.4461538461538462,0.031959629941127,1187.0
730.0,1.7109944700693668e+18,-0.3289817232375979,0.6552511415525114,0.5227027027027027,0.5375397407679139,1.5813186813186813,0.7931034482758621,1199.0
731.0,1.7109944700793462e+18,1.3394255874673628,0.1552511415525114,0.11513513513513514,0.467106872095867,-0.4098901098901099,0.028595458368376788,1188.0
732.0,1.7109944700893665e+18,-0.304177545691906,0.639269406392694,0.5427027027027027,0.5380288579114698,1.5769230769230769,0.7956265769554247,1199.0
733.0,1.710994470099348e+18,1.3120104438642297,0.1541095890410959,0.08432432432432432,0.4617265835167523,-0.4153846153846154,0.021867115222876366,1188.0
734.0,1.710994470109321e+18,-0.27676240208877284,0.656392694063927,0.5205405405405406,0.5341159207630227,1.5637362637362637,0.8023549201009251,1201.0
735.0,1.7109944701193526e+18,1.3224543080939948,0.17009132420091325,0.1362162162162162,0.4619711420885302,-0.45054945054945056,0.02691337258200168,1187.0
736.0,1.7109944701293883e+18,-0.2898172323759791,0.639269406392694,0.5286486486486487,0.5333822450476889,1.567032967032967,0.7888982338099243,1197.0
737.0,1.7109944701393482e+18,1.3198433420365536,0.1689497716894977,0.10540540540540541,0.4614820249449743,-0.4076923076923077,0.021867115222876366,1189.0
738.0,1.7109944701493706e+18,-0.3133159268929504,0.6232876712328768,0.5481081081081081,0.5338713621912448,1.543956043956044,0.7981497056349874,1196.0
739.0,1.7109944701593475e+18,1.318537859007833,0.1495433789954338,0.11783783783783784,0.4644167278063096,-0.4340659340659341,0.03784693019343986,1189.0
740.0,1.710994470169367e+18,-0.3133159268929504,0.660958904109589,0.5416216216216216,0.5368060650525801,1.567032967032967,0.8048780487804879,1200.0
741.0,1.710994470179348e+18,1.3224543080939948,0.15753424657534246,0.07351351351351351,0.46246025923208606,-0.4340659340659341,0.030277544154751892,1189.0
742.0,1.7109944701893686e+18,-0.3093994778067885,0.6472602739726028,0.5178378378378379,0.5319148936170213,1.542857142857143,0.7914213624894869,1198.0
743.0,1.7109944701993546e+18,1.3342036553524803,0.1815068493150685,0.12432432432432433,0.46539496209342135,-0.43626373626373627,0.017661900756938603,1190.0
744.0,1.7109944702093716e+18,-0.3276762402088773,0.5878995433789954,0.5437837837837838,0.5338713621912448,1.5681318681318681,0.8200168208578638,1197.0
745.0,1.710994470219347e+18,1.3524804177545693,0.1872146118721461,0.12486486486486487,0.4656395206651993,-0.44505494505494503,0.022708158116063918,1189.0
746.0,1.7109944702293673e+18,-0.30156657963446476,0.658675799086758,0.5167567567567568,0.5353387136219124,1.5615384615384615,0.8099243061396131,1199.0
747.0,1.7109944702393482e+18,1.3485639686684072,0.17123287671232876,0.1491891891891892,0.46368305209097577,-0.4186813186813187,0.00672834314550042,1188.0
748.0,1.710994470249366e+18,-0.3198433420365535,0.6495433789954338,0.5264864864864864,0.5294693078992418,1.578021978021978,0.8216989066442388,1197.0
749.0,1.710994470259348e+18,1.3590078328981723,0.1917808219178082,0.1681081081081081,0.4641721692345317,-0.4747252747252747,0.010933557611438183,1185.0
750.0,1.7109944702693683e+18,-0.30156657963446476,0.6506849315068494,0.5497297297297298,0.5341159207630227,1.5593406593406594,0.8132884777123633,1197.0
751.0,1.7109944702793457e+18,1.3315926892950392,0.13013698630136986,0.0772972972972973,0.46392761066275373,-0.45604395604395603,0.005046257359125316,1188.0
752.0,1.710994470289366e+18,-0.29765013054830286,0.6655251141552512,0.5578378378378378,0.533137686475911,1.5857142857142856,0.808242220353238,1197.0
753.0,1.7109944702993482e+18,1.3328981723237598,0.12899543378995434,0.07945945945945945,0.4641721692345317,-0.43956043956043955,0.011774600504625737,1189.0
754.0,1.710994470309367e+18,-0.30548302872062666,0.6518264840182648,0.5205405405405406,0.5338713621912448,1.591208791208791,0.8015138772077376,1198.0
755.0,1.710994470319352e+18,1.3342036553524803,0.1598173515981735,0.10108108108108108,0.46050379065786257,-0.45714285714285713,0.0008410428931875525,1189.0
756.0,1.7109944703293676e+18,-0.3002610966057441,0.6404109589041096,0.5178378378378379,0.5358278307654684,1.5945054945054946,0.8099243061396131,1198.0
757.0,1.7109944703393477e+18,1.321148825065274,0.14840182648401826,0.11891891891891893,0.4619711420885302,-0.45604395604395603,0.021026072329688814,1188.0
758.0,1.7109944703493745e+18,-0.2924281984334204,0.656392694063927,0.5589189189189189,0.532893127904133,1.59010989010989,0.8099243061396131,1197.0
759.0,1.7109944703593467e+18,1.3381201044386424,0.2009132420091324,0.08378378378378379,0.46515040352164344,-0.46813186813186813,0.008410428931875526,1190.0
760.0,1.710994470369367e+18,-0.3002610966057441,0.6518264840182648,0.5632432432432433,0.5336268036194669,1.6087912087912088,0.830950378469302,1200.0
761.0,1.7109944703793487e+18,1.318537859007833,0.15639269406392695,0.06378378378378378,0.458791880655417,-0.5010989010989011,0.005046257359125316,1187.0
762.0,1.710994470389369e+18,-0.31070496083550914,0.6518264840182648,0.5562162162162162,0.5353387136219124,1.567032967032967,0.8166526492851135,1198.0
763.0,1.7109944703993475e+18,1.321148825065274,0.14269406392694065,0.12864864864864864,0.46368305209097577,-0.46153846153846156,0.004205214465937763,1187.0
764.0,1.7109944704093704e+18,-0.32114882506527415,0.6643835616438356,0.5767567567567567,0.532893127904133,1.5725274725274725,0.8216989066442388,1198.0
765.0,1.710994470419349e+18,1.345953002610966,0.1461187214611872,0.11675675675675676,0.4619711420885302,-0.47692307692307695,0.00336417157275021,1188.0
766.0,1.710994470429369e+18,-0.31723237597911225,0.6335616438356164,0.5443243243243243,0.5355832721936904,1.598901098901099,0.8124474348191758,1197.0
767.0,1.7109944704393487e+18,1.3328981723237598,0.14383561643835616,0.07405405405405406,0.4614820249449743,-0.4901098901098901,0.007569386038687973,1185.0
768.0,1.7109944704493678e+18,-0.31462140992167104,0.6746575342465754,0.5567567567567567,0.5343604793348007,1.6043956043956045,0.8267451640033642,1197.0
769.0,1.7109944704593467e+18,1.3394255874673628,0.15639269406392695,0.12486486486486487,0.462704817803864,-0.4868131868131868,-0.002523128679562658,1184.0
770.0,1.7109944704693663e+18,-0.30678851174934724,0.6438356164383562,0.5491891891891892,0.533137686475911,1.6307692307692307,0.8301093355761143,1197.0
771.0,1.7109944704793452e+18,1.3302872062663185,0.136986301369863,0.07081081081081081,0.46392761066275373,-0.46703296703296704,0.008410428931875526,1189.0
772.0,1.7109944704893683e+18,-0.34073107049608353,0.6518264840182648,0.5778378378378378,0.533137686475911,1.6384615384615384,0.8149705634987384,1198.0
773.0,1.7109944704993472e+18,1.3511749347258486,0.14383561643835616,0.12108108108108108,0.4602592320860846,-0.5142857142857142,0.005887300252312868,1190.0
774.0,1.7109944705093673e+18,-0.31201044386422977,0.6575342465753424,0.5308108108108108,0.5375397407679139,1.6153846153846154,0.8250630782169891,1198.0
775.0,1.7109944705193482e+18,1.3550913838120104,0.13812785388127855,0.08810810810810811,0.46246025923208606,-0.4912087912087912,0.002523128679562658,1189.0
776.0,1.710994470529368e+18,-0.3368146214099217,0.6700913242009132,0.5767567567567567,0.5348495964783566,1.6263736263736264,0.8317914213624895,1198.0
777.0,1.7109944705393467e+18,1.335509138381201,0.11187214611872145,0.12702702702702703,0.46343849351919786,-0.5065934065934066,-0.005887300252312868,1189.0
778.0,1.7109944705493673e+18,-0.2963446475195822,0.6974885844748858,0.5594594594594594,0.5346050379065787,1.6472527472527472,0.832632464255677,1195.0
779.0,1.710994470559348e+18,1.3694516971279374,0.10844748858447488,0.0654054054054054,0.4644167278063096,-0.46923076923076923,0.004205214465937763,1188.0
780.0,1.7109944705693663e+18,-0.31723237597911225,0.6518264840182648,0.534054054054054,0.5336268036194669,1.6142857142857143,0.8368376787216149,1198.0
781.0,1.7109944705793487e+18,1.3642297650130548,0.18493150684931506,0.057297297297297295,0.46246025923208606,-0.4582417582417582,0.010933557611438183,1187.0
782.0,1.710994470589368e+18,-0.32506527415143605,0.6735159817351598,0.532972972972973,0.5368060650525801,1.6538461538461537,0.8317914213624895,1197.0
783.0,1.710994470599351e+18,1.343342036553525,0.11986301369863013,0.05837837837837838,0.4600146735143067,-0.4868131868131868,-0.012615643397813289,1188.0
784.0,1.7109944706093696e+18,-0.3433420365535248,0.6917808219178082,0.5535135135135135,0.5399853264856933,1.6472527472527472,0.8275862068965517,1197.0
785.0,1.7109944706193533e+18,1.3694516971279374,0.12214611872146118,0.09945945945945946,0.4614820249449743,-0.4989010989010989,0.007569386038687973,1188.0
786.0,1.710994470629367e+18,-0.32506527415143605,0.6689497716894978,0.5610810810810811,0.5377842993396919,1.6142857142857143,0.808242220353238,1196.0
787.0,1.7109944706393539e+18,1.3642297650130548,0.11986301369863013,0.11189189189189189,0.46539496209342135,-0.46263736263736266,0.005046257359125316,1188.0
788.0,1.7109944706493722e+18,-0.31723237597911225,0.6746575342465754,0.5756756756756757,0.5375397407679139,1.6604395604395605,0.8141295206055509,1199.0
789.0,1.710994470659356e+18,1.3563968668407311,0.1278538812785388,0.08216216216216216,0.4607483492296405,-0.4835164835164835,0.005887300252312868,1186.0
790.0,1.71099447066937e+18,-0.3093994778067885,0.7009132420091324,0.5524324324324325,0.5368060650525801,1.6164835164835165,0.8048780487804879,1197.0
791.0,1.710994470679357e+18,1.377284595300261,0.11643835616438356,0.07783783783783783,0.4614820249449743,-0.4967032967032967,0.002523128679562658,1185.0
792.0,1.7109944706893686e+18,-0.3276762402088773,0.6792237442922374,0.5772972972972973,0.5363169479090242,1.6362637362637362,0.8074011774600505,1196.0
793.0,1.7109944706993582e+18,1.3759791122715406,0.1278538812785388,0.13027027027027027,0.4602592320860846,-0.47912087912087914,0.01934398654331371,1187.0
794.0,1.7109944707093673e+18,-0.3368146214099217,0.6700913242009132,0.5502702702702703,0.5358278307654684,1.6142857142857143,0.8191757779646762,1197.0
795.0,1.71099447071936e+18,1.385117493472585,0.12100456621004566,0.09891891891891892,0.46637319638053315,-0.4593406593406593,0.01345668629100084,1189.0
796.0,1.7109944707293711e+18,-0.3381201044386423,0.636986301369863,0.5697297297297297,0.5368060650525801,1.60989010989011,0.8183347350714887,1198.0
797.0,1.7109944707393615e+18,1.3903394255874673,0.1004566210045662,0.08594594594594594,0.46050379065786257,-0.4901098901098901,0.010933557611438183,1187.0
798.0,1.7109944707493706e+18,-0.34595300261096606,0.6666666666666666,0.5243243243243243,0.5363169479090242,1.623076923076923,0.8200168208578638,1197.0
799.0,1.710994470759346e+18,1.3537859007832898,0.1187214611872146,0.10756756756756757,0.46099290780141844,-0.4879120879120879,0.028595458368376788,1188.0
800.0,1.7109944707693686e+18,-0.33550913838120106,0.6769406392694064,0.5486486486486486,0.5365615064808021,1.6296703296703297,0.8301093355761143,1197.0
801.0,1.7109944707793462e+18,1.3485639686684072,0.1187214611872146,0.08972972972972973,0.46099290780141844,-0.47802197802197804,0.010933557611438183,1188.0
802.0,1.7109944707893678e+18,-0.33159268929503916,0.6746575342465754,0.5675675675675675,0.5314257764734654,1.6076923076923078,0.8116063919259883,1196.0
803.0,1.7109944707993487e+18,1.3537859007832898,0.1141552511415525,0.08972972972972973,0.462704817803864,-0.4703296703296703,0.01682085786375105,1188.0
804.0,1.710994470809367e+18,-0.3237597911227154,0.6643835616438356,0.5643243243243243,0.5348495964783566,1.6032967032967034,0.8074011774600505,1196.0
805.0,1.7109944708193472e+18,1.3629242819843341,0.10844748858447488,0.10216216216216216,0.46221570066030815,-0.45604395604395603,0.02943650126156434,1188.0
806.0,1.7109944708293676e+18,-0.32114882506527415,0.6735159817351598,0.5643243243243243,0.5341159207630227,1.6263736263736264,0.8031959629941127,1200.0
807.0,1.7109944708393475e+18,1.3394255874673628,0.1232876712328767,0.11567567567567567,0.462949376375642,-0.45714285714285713,0.03532380151387721,1188.0
808.0,1.710994470849368e+18,-0.31462140992167104,0.6872146118721462,0.5427027027027027,0.5353387136219124,1.6087912087912088,0.8065601345668629,1197.0
809.0,1.7109944708593462e+18,1.3537859007832898,0.11529680365296803,0.11891891891891893,0.458791880655417,-0.47912087912087914,0.030277544154751892,1185.0
810.0,1.710994470869371e+18,-0.31070496083550914,0.6575342465753424,0.5567567567567567,0.5348495964783566,1.6120879120879121,0.7964676198486123,1197.0
811.0,1.7109944708793485e+18,1.3407310704960835,0.11757990867579908,0.07945945945945945,0.46246025923208606,-0.4340659340659341,0.03532380151387721,1188.0
812.0,1.7109944708893714e+18,-0.3302872062663185,0.684931506849315,0.5286486486486487,0.5365615064808021,1.6175824175824176,0.8149705634987384,1196.0
813.0,1.710994470899348e+18,1.328981723237598,0.12557077625570776,0.09405405405405405,0.46539496209342135,-0.44175824175824174,0.04373423044575273,1188.0
814.0,1.7109944709093783e+18,-0.3276762402088773,0.6872146118721462,0.5816216216216217,0.5319148936170213,1.5835164835164834,0.7888982338099243,1200.0
815.0,1.7109944709193492e+18,1.349869451697128,0.1267123287671233,0.08432432432432432,0.4617265835167523,-0.44395604395604393,0.04205214465937763,1187.0
816.0,1.7109944709293747e+18,-0.3276762402088773,0.6712328767123288,0.5356756756756756,0.5321594521887992,1.5857142857142856,0.7905803195962994,1197.0
817.0,1.7109944709393472e+18,1.3590078328981723,0.136986301369863,0.12324324324324325,0.4631939349474199,-0.4340659340659341,0.03952901597981497,1188.0
818.0,1.7109944709493755e+18,-0.31723237597911225,0.6643835616438356,0.5335135135135135,0.5372951821961359,1.6252747252747253,0.8048780487804879,1196.0
819.0,1.7109944709593487e+18,1.3237597911227155,0.1552511415525114,0.07027027027027027,0.462949376375642,-0.45494505494505494,0.022708158116063918,1190.0
820.0,1.7109944709693775e+18,-0.32114882506527415,0.6952054794520548,0.5372972972972972,0.5341159207630227,1.6043956043956045,0.8031959629941127,1197.0
821.0,1.710994470979349e+18,1.3381201044386424,0.13470319634703196,0.06648648648648649,0.4673514306676449,-0.4461538461538462,0.01682085786375105,1186.0
822.0,1.7109944709893783e+18,-0.31462140992167104,0.6757990867579908,0.5178378378378379,0.5348495964783566,1.598901098901099,0.7922624053826746,1199.0
823.0,1.7109944709993503e+18,1.3342036553524803,0.12557077625570776,0.10540540540540541,0.4631939349474199,-0.44505494505494503,0.034482758620689655,1188.0
824.0,1.7109944710093809e+18,-0.2898172323759791,0.6837899543378996,0.534054054054054,0.5353387136219124,1.5703296703296703,0.8023549201009251,1198.0
825.0,1.7109944710193516e+18,1.314621409921671,0.1095890410958904,0.14594594594594595,0.46221570066030815,-0.45274725274725275,0.02691337258200168,1189.0
826.0,1.7109944710293655e+18,-0.2819843342036554,0.6872146118721462,0.5637837837837838,0.5348495964783566,1.579120879120879,0.7998317914213625,1197.0
827.0,1.7109944710393487e+18,1.3120104438642297,0.10273972602739725,0.09243243243243243,0.4631939349474199,-0.44505494505494503,0.017661900756938603,1188.0
828.0,1.7109944710493665e+18,-0.3198433420365535,0.6815068493150684,0.5118918918918919,0.5355832721936904,1.5945054945054946,0.8166526492851135,1196.0
829.0,1.7109944710593482e+18,1.3472584856396868,0.1267123287671233,0.053513513513513515,0.46246025923208606,-0.4230769230769231,0.024390243902439025,1187.0
830.0,1.7109944710693652e+18,-0.2989556135770235,0.6792237442922374,0.5227027027027027,0.5324040107605772,1.6131868131868132,0.8124474348191758,1196.0
831.0,1.7109944710793487e+18,1.3093994778067886,0.12557077625570776,0.09405405405405405,0.46784054781120077,-0.4582417582417582,0.028595458368376788,1189.0
832.0,1.7109944710893688e+18,-0.29765013054830286,0.678082191780822,0.5135135135135135,0.5299584250427978,1.6032967032967034,0.8065601345668629,1199.0
833.0,1.7109944710993556e+18,1.3394255874673628,0.13013698630136986,0.12216216216216216,0.4658840792369773,-0.45164835164835165,0.028595458368376788,1187.0
834.0,1.7109944711093683e+18,-0.2963446475195822,0.6700913242009132,0.5437837837837838,0.5341159207630227,1.5868131868131867,0.8048780487804879,1199.0
835.0,1.7109944711193485e+18,1.3485639686684072,0.10388127853881278,0.07675675675675675,0.46343849351919786,-0.46703296703296704,0.0336417157275021,1188.0
836.0,1.7109944711293696e+18,-0.2898172323759791,0.6860730593607306,0.5718918918918919,0.5336268036194669,1.6164835164835165,0.8057190916736754,1198.0
837.0,1.7109944711393503e+18,1.3224543080939948,0.12214611872146118,0.09135135135135135,0.4644167278063096,-0.46483516483516485,0.022708158116063918,1189.0
838.0,1.710994471149368e+18,-0.3002610966057441,0.6689497716894978,0.5610810810810811,0.5338713621912448,1.5967032967032968,0.7981497056349874,1198.0
839.0,1.710994471159349e+18,1.3224543080939948,0.1278538812785388,0.08864864864864865,0.46246025923208606,-0.4879120879120879,0.03280067283431455,1188.0
840.0,1.7109944711693673e+18,-0.31723237597911225,0.6940639269406392,0.5697297297297297,0.5341159207630227,1.60989010989011,0.7956265769554247,1200.0
841.0,1.7109944711793485e+18,1.3381201044386424,0.11757990867579908,0.0745945945945946,0.46466128637808757,-0.43956043956043955,0.022708158116063918,1186.0
842.0,1.7109944711893686e+18,-0.31070496083550914,0.6438356164383562,0.5589189189189189,0.5333822450476889,1.6120879120879121,0.8233809924306139,1198.0
843.0,1.7109944711993477e+18,1.314621409921671,0.11643835616438356,0.08,0.4600146735143067,-0.4758241758241758,0.02607232968881413,1190.0
844.0,1.7109944712093734e+18,-0.31592689295039167,0.7009132420091324,0.5902702702702702,0.5309366593299095,1.5945054945054946,0.8149705634987384,1197.0
845.0,1.7109944712193475e+18,1.3237597911227155,0.11073059360730593,0.09891891891891892,0.46539496209342135,-0.44395604395604393,0.005887300252312868,1188.0
846.0,1.710994471229356e+18,-0.2819843342036554,0.678082191780822,0.5243243243243243,0.5336268036194669,1.6076923076923078,0.8149705634987384,1198.0
847.0,1.7109944712393546e+18,1.3159268929503916,0.10273972602739725,0.12216216216216216,0.46466128637808757,-0.4472527472527473,0.0159798149705635,1189.0
848.0,1.7109944712493645e+18,-0.2885117493472585,0.684931506849315,0.5281081081081082,0.5338713621912448,1.632967032967033,0.8284272497897393,1200.0
849.0,1.7109944712593475e+18,1.3328981723237598,0.10844748858447488,0.12216216216216216,0.4631939349474199,-0.46263736263736266,0.011774600504625737,1188.0
850.0,1.7109944712693647e+18,-0.30678851174934724,0.7363013698630136,0.5178378378378379,0.5358278307654684,1.6296703296703297,0.8216989066442388,1198.0
851.0,1.7109944712793452e+18,1.3381201044386424,0.12557077625570776,0.1464864864864865,0.46343849351919786,-0.4824175824175824,0.011774600504625737,1190.0
852.0,1.7109944712893652e+18,-0.31070496083550914,0.6883561643835616,0.5454054054054054,0.5343604793348007,1.6131868131868132,0.8250630782169891,1198.0
853.0,1.7109944712993554e+18,1.325065274151436,0.10388127853881278,0.07135135135135136,0.46343849351919786,-0.4582417582417582,0.018502943650126155,1188.0
854.0,1.710994471309367e+18,-0.3002610966057441,0.7100456621004566,0.5897297297297297,0.5348495964783566,1.6384615384615384,0.8317914213624895,1198.0
855.0,1.7109944713193503e+18,1.3394255874673628,0.1278538812785388,0.0745945945945946,0.46832966495475664,-0.4824175824175824,0.023549201009251473,1188.0
856.0,1.7109944713293693e+18,-0.2950391644908616,0.7077625570776256,0.5108108108108108,0.5348495964783566,1.6296703296703297,0.8250630782169891,1200.0
857.0,1.7109944713393523e+18,1.2976501305483028,0.10159817351598173,0.05081081081081081,0.4631939349474199,-0.4758241758241758,0.005887300252312868,1188.0
858.0,1.7109944713493676e+18,-0.3198433420365535,0.6757990867579908,0.5724324324324325,0.5368060650525801,1.6087912087912088,0.8250630782169891,1197.0
859.0,1.710994471359353e+18,1.3746736292428199,0.1312785388127854,0.10864864864864865,0.46343849351919786,-0.4703296703296703,0.005887300252312868,1189.0
860.0,1.7109944713693668e+18,-0.30678851174934724,0.6917808219178082,0.5291891891891892,0.5358278307654684,1.632967032967033,0.8200168208578638,1198.0
861.0,1.710994471379354e+18,1.345953002610966,0.13013698630136986,0.08594594594594594,0.46466128637808757,-0.46153846153846156,0.015138772077375946,1188.0
862.0,1.7109944713893668e+18,-0.30548302872062666,0.6963470319634704,0.581081081081081,0.5360723893372463,1.6296703296703297,0.8132884777123633,1198.0
863.0,1.710994471399355e+18,1.3420365535248042,0.12557077625570776,0.10324324324324324,0.4641721692345317,-0.4758241758241758,0.007569386038687973,1188.0
864.0,1.7109944714093663e+18,-0.3328981723237598,0.6894977168949772,0.5718918918918919,0.5353387136219124,1.645054945054945,0.8259041211101766,1198.0
865.0,1.7109944714193574e+18,1.3511749347258486,0.16210045662100456,0.08702702702702703,0.46343849351919786,-0.47912087912087914,0.030277544154751892,1188.0
866.0,1.7109944714293678e+18,-0.32114882506527415,0.684931506849315,0.5794594594594594,0.5363169479090242,1.634065934065934,0.8292682926829268,1198.0
867.0,1.710994471439356e+18,1.328981723237598,0.11187214611872145,0.08810810810810811,0.462704817803864,-0.5010989010989011,0.00336417157275021,1186.0
868.0,1.7109944714493668e+18,-0.3198433420365535,0.704337899543379,0.5172972972972973,0.5346050379065787,1.6538461538461537,0.8376787216148024,1200.0
869.0,1.7109944714593452e+18,1.343342036553525,0.11073059360730593,0.11891891891891893,0.46246025923208606,-0.47912087912087914,0.01934398654331371,1188.0
870.0,1.7109944714693665e+18,-0.3276762402088773,0.70662100456621,0.5843243243243244,0.5353387136219124,1.6351648351648351,0.8225399495374264,1197.0
871.0,1.710994471479346e+18,1.3472584856396868,0.10159817351598173,0.05459459459459459,0.45977011494252873,-0.49340659340659343,0.021867115222876366,1189.0
872.0,1.710994471489366e+18,-0.3289817232375979,0.7168949771689498,0.587027027027027,0.5360723893372463,1.6406593406593406,0.8301093355761143,1198.0
873.0,1.7109944714993482e+18,1.335509138381201,0.11529680365296803,0.05027027027027027,0.4607483492296405,-0.49340659340659343,0.021026072329688814,1186.0
874.0,1.7109944715093693e+18,-0.3524804177545692,0.70662100456621,0.5318918918918919,0.5348495964783566,1.6626373626373627,0.8183347350714887,1197.0
875.0,1.7109944715193482e+18,1.345953002610966,0.10844748858447488,0.08108108108108109,0.46050379065786257,-0.5021978021978022,0.021026072329688814,1188.0
876.0,1.710994471529366e+18,-0.33159268929503916,0.702054794520548,0.5291891891891892,0.5372951821961359,1.6516483516483516,0.8317914213624895,1197.0
877.0,1.7109944715393649e+18,1.3485639686684072,0.08561643835616438,0.08648648648648649,0.462704817803864,-0.4736263736263736,0.02691337258200168,1187.0
878.0,1.710994471549369e+18,-0.3289817232375979,0.702054794520548,0.5183783783783784,0.5350941550501345,1.6516483516483516,0.8225399495374264,1200.0
879.0,1.7109944715593487e+18,1.343342036553525,0.1004566210045662,0.10918918918918918,0.4619711420885302,-0.4835164835164835,0.010092514718250631,1189.0
880.0,1.7109944715693696e+18,-0.3276762402088773,0.70662100456621,0.5913513513513513,0.5350941550501345,1.6703296703296704,0.8452481076534903,1201.0
881.0,1.710994471579348e+18,1.3315926892950392,0.09931506849315068,0.0972972972972973,0.46343849351919786,-0.489010989010989,0.015138772077375946,1187.0
882.0,1.7109944715893699e+18,-0.3237597911227154,0.7100456621004566,0.5372972972972972,0.5348495964783566,1.632967032967033,0.8233809924306139,1197.0
883.0,1.7109944715993697e+18,1.3537859007832898,0.10730593607305935,0.09243243243243243,0.46343849351919786,-0.4835164835164835,0.024390243902439025,1189.0
884.0,1.7109944716093686e+18,-0.35117493472584854,0.70662100456621,0.5956756756756757,0.5360723893372463,1.634065934065934,0.8225399495374264,1199.0
885.0,1.710994471619348e+18,1.3485639686684072,0.08105022831050228,0.057297297297297295,0.4614820249449743,-0.4857142857142857,0.014297729184188394,1188.0
886.0,1.7109944716293727e+18,-0.31070496083550914,0.7180365296803652,0.5745945945945946,0.5348495964783566,1.6384615384615384,0.8216989066442388,1200.0
887.0,1.7109944716393482e+18,1.3485639686684072,0.07990867579908675,0.05027027027027027,0.46343849351919786,-0.5098901098901099,0.03616484440706476,1192.0
888.0,1.7109944716495514e+18,-0.32506527415143605,0.70662100456621,0.5594594594594594,0.5365615064808021,1.6263736263736264,0.8191757779646762,1200.0
889.0,1.7109944716593592e+18,1.3420365535248042,0.10273972602739725,0.07891891891891892,0.4619711420885302,-0.4989010989010989,0.031959629941127,1186.0
890.0,1.7109944716693757e+18,-0.33159268929503916,0.7077625570776256,0.5816216216216217,0.5348495964783566,1.6615384615384616,0.8124474348191758,1198.0
891.0,1.7109944716793457e+18,1.314621409921671,0.09703196347031963,0.04972972972972973,0.4612374663731964,-0.4868131868131868,0.034482758620689655,1189.0
892.0,1.710994471689377e+18,-0.34595300261096606,0.728310502283105,0.5291891891891892,0.5363169479090242,1.6417582417582417,0.808242220353238,1197.0
893.0,1.7109944716993539e+18,1.335509138381201,0.09360730593607305,0.13243243243243244,0.462704817803864,-0.510989010989011,0.027754415475189236,1188.0
894.0,1.7109944717093804e+18,-0.33159268929503916,0.7111872146118722,0.5935135135135136,0.5336268036194669,1.6549450549450548,0.8267451640033642,1196.0
895.0,1.710994471719353e+18,1.3328981723237598,0.09931506849315068,0.05621621621621622,0.462704817803864,-0.46373626373626375,0.034482758620689655,1189.0
896.0,1.710994471729352e+18,-0.32506527415143605,0.7214611872146118,0.5659459459459459,0.5360723893372463,1.645054945054945,0.8200168208578638,1198.0
897.0,1.7109944717393485e+18,1.3485639686684072,0.08561643835616438,0.08324324324324324,0.46808510638297873,-0.45604395604395603,0.034482758620689655,1188.0
898.0,1.7109944717493686e+18,-0.31201044386422977,0.726027397260274,0.6113513513513513,0.5363169479090242,1.645054945054945,0.8191757779646762,1199.0
899.0,1.7109944717593487e+18,1.3263707571801566,0.0821917808219178,0.09081081081081081,0.46368305209097577,-0.4901098901098901,0.04373423044575273,1189.0
900.0,1.710994471769367e+18,-0.31592689295039167,0.7111872146118722,0.5745945945945946,0.5346050379065787,1.6197802197802198,0.8149705634987384,1200.0
901.0,1.7109944717793472e+18,1.314621409921671,0.08447488584474885,0.07297297297297298,0.46539496209342135,-0.44175824175824174,0.03868797308662742,1190.0
902.0,1.7109944717893668e+18,-0.3394255874673629,0.7157534246575342,0.5978378378378378,0.5338713621912448,1.6428571428571428,0.808242220353238,1198.0
903.0,1.7109944717993546e+18,1.3120104438642297,0.09360730593607305,0.08810810810810811,0.46246025923208606,-0.4846153846153846,0.03280067283431455,1187.0
904.0,1.7109944718093686e+18,-0.32506527415143605,0.7317351598173516,0.614054054054054,0.532893127904133,1.6065934065934067,0.8057190916736754,1197.0
905.0,1.7109944718193472e+18,1.321148825065274,0.10844748858447488,0.12,0.46466128637808757,-0.45274725274725275,0.031118587047939444,1190.0
906.0,1.7109944718293356e+18,-0.3133159268929504,0.70662100456621,0.5875675675675676,0.5336268036194669,1.6252747252747253,0.8048780487804879,1197.0
907.0,1.7109944718393477e+18,1.3446475195822454,0.09018264840182648,0.10162162162162162,0.46539496209342135,-0.4472527472527473,0.040370058873002525,1186.0
908.0,1.710994471849368e+18,-0.3198433420365535,0.7168949771689498,0.5551351351351351,0.5377842993396919,1.6010989010989012,0.8065601345668629,1197.0
909.0,1.7109944718593464e+18,1.3224543080939948,0.1050228310502283,0.09567567567567567,0.46368305209097577,-0.43956043956043955,0.03868797308662742,1186.0
910.0,1.7109944718693673e+18,-0.29765013054830286,0.7271689497716894,0.6086486486486486,0.5358278307654684,1.60989010989011,0.8124474348191758,1197.0
911.0,1.7109944718793485e+18,1.3002610966057442,0.1004566210045662,0.042702702702702704,0.46343849351919786,-0.46483516483516485,0.05382674516400336,1188.0
912.0,1.7109944718893686e+18,-0.32114882506527415,0.7077625570776256,0.5302702702702703,0.5368060650525801,1.6494505494505494,0.8200168208578638,1197.0
913.0,1.7109944718993475e+18,1.325065274151436,0.11757990867579908,0.08540540540540541,0.46221570066030815,-0.45714285714285713,0.03532380151387721,1189.0
914.0,1.7109944719093686e+18,-0.32506527415143605,0.7100456621004566,0.5691891891891891,0.5343604793348007,1.6186813186813187,0.8090832632464255,1196.0
915.0,1.710994471919349e+18,1.3080939947780679,0.0867579908675799,0.10594594594594595,0.4607483492296405,-0.44505494505494503,0.04625735912531539,1190.0
916.0,1.7109944719293688e+18,-0.293733681462141,0.7146118721461188,0.5264864864864864,0.5350941550501345,1.6142857142857143,0.7964676198486123,1199.0
917.0,1.7109944719393477e+18,1.318537859007833,0.1050228310502283,0.11189189189189189,0.4649058449498655,-0.42637362637362636,0.05214465937762826,1189.0
918.0,1.7109944719493683e+18,-0.3185378590078329,0.6917808219178082,0.5437837837837838,0.5360723893372463,1.6142857142857143,0.80067283431455,1197.0
919.0,1.7109944719593495e+18,1.304177545691906,0.06621004566210045,0.09567567567567567,0.4649058449498655,-0.44505494505494503,0.051303616484440706,1187.0
920.0,1.710994471969367e+18,-0.293733681462141,0.7111872146118722,0.5978378378378378,0.5338713621912448,1.598901098901099,0.8065601345668629,1200.0
921.0,1.7109944719793485e+18,1.2924281984334203,0.13356164383561644,0.08864864864864865,0.46515040352164344,-0.4351648351648352,0.050462573591253154,1188.0
922.0,1.7109944719893699e+18,-0.3133159268929504,0.7168949771689498,0.5648648648648649,0.5336268036194669,1.6351648351648351,0.8023549201009251,1197.0
923.0,1.710994471999347e+18,1.3015665796344646,0.08789954337899543,0.08054054054054054,0.4661286378087552,-0.42747252747252745,0.06223717409587889,1189.0
924.0,1.710994472009368e+18,-0.31723237597911225,0.6986301369863014,0.567027027027027,0.533137686475911,1.623076923076923,0.798990748528175,1199.0
925.0,1.7109944720193495e+18,1.293733681462141,0.08561643835616438,0.06108108108108108,0.46661775495231106,-0.41208791208791207,0.0496215306980656,1189.0
926.0,1.7109944720293722e+18,-0.30678851174934724,0.7111872146118722,0.5545945945945946,0.5338713621912448,1.6164835164835165,0.798990748528175,1195.0
927.0,1.710994472039353e+18,1.293733681462141,0.0821917808219178,0.10378378378378378,0.4641721692345317,-0.4593406593406593,0.054667788057190914,1190.0
928.0,1.7109944720493665e+18,-0.2950391644908616,0.7488584474885844,0.6016216216216216,0.5338713621912448,1.6186813186813187,0.7931034482758621,1200.0
929.0,1.7109944720593492e+18,1.3080939947780679,0.10616438356164383,0.09351351351351352,0.4644167278063096,-0.43846153846153846,0.04878048780487805,1188.0
930.0,1.7109944720693693e+18,-0.31723237597911225,0.7100456621004566,0.5724324324324325,0.5370506236243581,1.6505494505494505,0.8141295206055509,1198.0
931.0,1.710994472079348e+18,1.2911227154046998,0.08561643835616438,0.0945945945945946,0.462949376375642,-0.421978021978022,0.04878048780487805,1188.0
932.0,1.7109944720893686e+18,-0.2963446475195822,0.726027397260274,0.5962162162162162,0.5341159207630227,1.6032967032967034,0.7981497056349874,1200.0
933.0,1.7109944720993536e+18,1.2911227154046998,0.08904109589041095,0.07243243243243243,0.4641721692345317,-0.4318681318681319,0.061396131202691336,1189.0
934.0,1.7109944721093678e+18,-0.3093994778067885,0.7123287671232876,0.518918918918919,0.5336268036194669,1.6373626373626373,0.8015138772077376,1197.0
935.0,1.7109944721193533e+18,1.2859007832898173,0.08447488584474885,0.08540540540540541,0.46539496209342135,-0.44065934065934065,0.051303616484440706,1190.0
936.0,1.7109944721293686e+18,-0.2963446475195822,0.7442922374429224,0.5589189189189189,0.5350941550501345,1.6417582417582417,0.8149705634987384,1200.0
937.0,1.7109944721393505e+18,1.287206266318538,0.09360730593607305,0.08,0.46515040352164344,-0.42527472527472526,0.0479394449116905,1187.0
938.0,1.7109944721493578e+18,-0.30678851174934724,0.730593607305936,0.5783783783783784,0.5341159207630227,1.6032967032967034,0.8074011774600505,1198.0
939.0,1.7109944721593564e+18,1.2911227154046998,0.0867579908675799,0.13243243243243244,0.4661286378087552,-0.42637362637362636,0.0479394449116905,1189.0
940.0,1.7109944721693668e+18,-0.304177545691906,0.7248858447488584,0.5243243243243243,0.532893127904133,1.6186813186813187,0.7947855340622372,1201.0
941.0,1.7109944721793505e+18,1.2859007832898173,0.08904109589041095,0.09027027027027026,0.4656395206651993,-0.44505494505494503,0.0479394449116905,1190.0
942.0,1.710994472189368e+18,-0.2950391644908616,0.7317351598173516,0.5464864864864865,0.5370506236243581,1.634065934065934,0.8065601345668629,1200.0
943.0,1.7109944721993518e+18,1.293733681462141,0.08561643835616438,0.12162162162162163,0.46661775495231106,-0.4582417582417582,0.050462573591253154,1190.0
944.0,1.7109944722093704e+18,-0.30678851174934724,0.7671232876712328,0.5827027027027027,0.5341159207630227,1.6142857142857143,0.7981497056349874,1198.0
945.0,1.710994472219349e+18,1.293733681462141,0.08904109589041095,0.10270270270270271,0.46515040352164344,-0.44395604395604393,0.05550883095037847,1191.0
946.0,1.710994472229371e+18,-0.29112271540469975,0.7157534246575342,0.5394594594594595,0.5341159207630227,1.6120879120879121,0.8015138772077376,1199.0
947.0,1.7109944722393526e+18,1.2950391644908616,0.091324200913242,0.09891891891891892,0.466862313524089,-0.4582417582417582,0.060555088309503784,1190.0
948.0,1.71099447224937e+18,-0.3289817232375979,0.7123287671232876,0.5259459459459459,0.5353387136219124,1.6296703296703297,0.8048780487804879,1197.0
949.0,1.7109944722593572e+18,1.2845953002610966,0.11529680365296803,0.13027027027027027,0.4685742235265346,-0.4318681318681319,0.05298570227081581,1188.0
950.0,1.710994472269382e+18,-0.2963446475195822,0.7111872146118722,0.5416216216216216,0.5360723893372463,1.6164835164835165,0.8141295206055509,1199.0
951.0,1.7109944722793475e+18,1.3224543080939948,0.06621004566210045,0.11567567567567567,0.46539496209342135,-0.432967032967033,0.04709840201850295,1188.0
952.0,1.710994472289368e+18,-0.3133159268929504,0.7054794520547946,0.5410810810810811,0.5324040107605772,1.6307692307692307,0.8116063919259883,1198.0
953.0,1.7109944722993485e+18,1.293733681462141,0.08447488584474885,0.11189189189189189,0.46392761066275373,-0.4340659340659341,0.05214465937762826,1190.0
954.0,1.7109944723093683e+18,-0.31592689295039167,0.7168949771689498,0.5908108108108108,0.5333822450476889,1.6428571428571428,0.8208578637510513,1198.0
955.0,1.710994472319351e+18,1.3054830287206267,0.07420091324200913,0.12216216216216216,0.46343849351919786,-0.4461538461538462,0.04121110176619008,1188.0
956.0,1.7109944723293678e+18,-0.3093994778067885,0.7226027397260274,0.5962162162162162,0.5365615064808021,1.6384615384615384,0.808242220353238,1196.0
957.0,1.710994472339351e+18,1.314621409921671,0.09817351598173515,0.10648648648648648,0.46637319638053315,-0.45714285714285713,0.056349873843566024,1189.0
958.0,1.7109944723493668e+18,-0.31070496083550914,0.7226027397260274,0.5394594594594595,0.5368060650525801,1.6384615384615384,0.8116063919259883,1196.0
959.0,1.7109944723593523e+18,1.2924281984334203,0.12557077625570776,0.0945945945945946,0.46246025923208606,-0.42417582417582417,0.05803195962994113,1188.0
960.0,1.7109944723693686e+18,-0.3093994778067885,0.7054794520547946,0.5637837837837838,0.5355832721936904,1.6274725274725275,0.7796467619848613,1198.0
961.0,1.7109944723793577e+18,1.287206266318538,0.0867579908675799,0.11513513513513514,0.4656395206651993,-0.46153846153846156,0.06223717409587889,1189.0
962.0,1.710994472389368e+18,-0.30548302872062666,0.7226027397260274,0.6,0.532893127904133,1.6384615384615384,0.7998317914213625,1198.0
963.0,1.7109944723993556e+18,1.3224543080939948,0.09817351598173515,0.09297297297297297,0.46515040352164344,-0.4736263736263736,0.057190916736753576,1187.0
964.0,1.710994472409367e+18,-0.34986945169712796,0.7317351598173516,0.5437837837837838,0.5346050379065787,1.6439560439560439,0.7931034482758621,1196.0
965.0,1.7109944724193572e+18,1.3120104438642297,0.0821917808219178,0.05891891891891892,0.466862313524089,-0.4021978021978022,0.060555088309503784,1189.0
966.0,1.7109944724293686e+18,-0.3198433420365535,0.7420091324200914,0.5421621621621622,0.5368060650525801,1.6428571428571428,0.7973086627417998,1196.0
967.0,1.710994472439358e+18,1.293733681462141,0.045662100456621,0.12432432432432433,0.46539496209342135,-0.45714285714285713,0.06476030277544155,1188.0
968.0,1.7109944724493665e+18,-0.293733681462141,0.728310502283105,0.5410810810810811,0.5358278307654684,1.620879120879121,0.7846930193439865,1198.0
969.0,1.71099447245936e+18,1.3381201044386424,0.0684931506849315,0.06972972972972973,0.4656395206651993,-0.4340659340659341,0.06307821698906645,1187.0
970.0,1.710994472469368e+18,-0.31462140992167104,0.7294520547945206,0.587027027027027,0.5358278307654684,1.6131868131868132,0.7922624053826746,1198.0
971.0,1.7109944724793623e+18,1.304177545691906,0.06735159817351598,0.10108108108108108,0.467106872095867,-0.4230769230769231,0.06980656013456686,1189.0
972.0,1.7109944724893696e+18,-0.3224543080939948,0.7317351598173516,0.5956756756756757,0.5324040107605772,1.6032967032967034,0.798990748528175,1198.0
973.0,1.710994472499363e+18,1.3093994778067886,0.0776255707762557,0.10324324324324324,0.46343849351919786,-0.432967032967033,0.06812447434819176,1188.0
974.0,1.7109944725093696e+18,-0.31592689295039167,0.747716894977169,0.5945945945945946,0.5338713621912448,1.589010989010989,0.7888982338099243,1198.0
975.0,1.7109944725193472e+18,1.3120104438642297,0.09360730593607305,0.05243243243243243,0.46637319638053315,-0.4230769230769231,0.07737594617325484,1189.0
976.0,1.710994472529368e+18,-0.33159268929503916,0.7602739726027398,0.5832432432432433,0.5370506236243581,1.623076923076923,0.7931034482758621,1197.0
977.0,1.7109944725393475e+18,1.3133159268929504,0.08904109589041095,0.0972972972972973,0.466862313524089,-0.4307692307692308,0.07317073170731707,1191.0
978.0,1.7109944725493655e+18,-0.3263707571801567,0.7465753424657534,0.5335135135135135,0.532893127904133,1.6175824175824176,0.7846930193439865,1199.0
979.0,1.7109944725593464e+18,1.3080939947780679,0.07077625570776255,0.08648648648648649,0.4661286378087552,-0.41098901098901097,0.061396131202691336,1189.0
980.0,1.7109944725693668e+18,-0.3198433420365535,0.7431506849315068,0.5978378378378378,0.5368060650525801,1.634065934065934,0.7821698906644239,1200.0
981.0,1.7109944725793457e+18,1.3015665796344646,0.07077625570776255,0.09891891891891892,0.46539496209342135,-0.4461538461538462,0.07737594617325484,1188.0
982.0,1.7109944725893686e+18,-0.3133159268929504,0.7294520547945206,0.5556756756756757,0.532893127904133,1.6164835164835165,0.7754415475189235,1197.0
983.0,1.7109944725993464e+18,1.2989556135770235,0.07077625570776255,0.11459459459459459,0.46808510638297873,-0.3978021978021978,0.0798990748528175,1187.0
984.0,1.7109944726093699e+18,-0.3276762402088773,0.7317351598173516,0.5945945945945946,0.5372951821961359,1.6186813186813187,0.7931034482758621,1197.0
985.0,1.7109944726193454e+18,1.2845953002610966,0.0821917808219178,0.11567567567567567,0.46515040352164344,-0.38351648351648354,0.07148864592094197,1190.0
986.0,1.710994472629371e+18,-0.3224543080939948,0.7671232876712328,0.5983783783783784,0.5355832721936904,1.6,0.7746005046257359,1198.0
987.0,1.7109944726393495e+18,1.2898172323759791,0.1004566210045662,0.10972972972972973,0.4673514306676449,-0.3769230769230769,0.08074011774600505,1188.0
988.0,1.7109944726493737e+18,-0.30548302872062666,0.730593607305936,0.5513513513513514,0.5348495964783566,1.598901098901099,0.767031118587048,1196.0
989.0,1.7109944726593477e+18,1.314621409921671,0.07648401826484018,0.08594594594594594,0.4656395206651993,-0.4087912087912088,0.07317073170731707,1187.0
990.0,1.7109944726693757e+18,-0.3368146214099217,0.7191780821917808,0.6086486486486486,0.5348495964783566,1.598901098901099,0.767031118587048,1196.0
991.0,1.7109944726793485e+18,1.2950391644908616,0.07876712328767123,0.043243243243243246,0.46637319638053315,-0.34175824175824177,0.10092514718250631,1189.0
992.0,1.7109944726893765e+18,-0.2859007832898172,0.7168949771689498,0.5410810810810811,0.5353387136219124,1.5967032967032968,0.7661900756938604,1196.0
993.0,1.7109944726993487e+18,1.2702349869451697,0.14726027397260275,0.13567567567567568,0.46808510638297873,-0.3813186813186813,0.08999158957106812,1190.0
994.0,1.71099447270938e+18,-0.31070496083550914,0.7351598173515982,0.5221621621621622,0.5350941550501345,1.589010989010989,0.7846930193439865,1196.0
