202.0,1.710923711964489e+18,0.5130548302872062,0.410958904109589,0.34540540540540543,0.5015896307165566,0.5857142857142857,0.43650126156433977,1195.0
203.0,1.7109237119744886e+18,0.4360313315926893,0.4143835616438356,0.3210810810810811,0.5018341892883346,0.6615384615384615,0.4482758620689655,1197.0
204.0,1.7109237119844915e+18,0.5130548302872062,0.4075342465753425,0.327027027027027,0.49474199070677427,0.5736263736263736,0.4280908326324643,1193.0
205.0,1.7109237119944955e+18,0.4321148825065274,0.410958904109589,0.3237837837837838,0.4991440449987772,0.6450549450549451,0.4415475189234651,1194.0
206.0,1.7109237120044933e+18,0.5182767624020888,0.4200913242009132,0.33405405405405403,0.5006113964294449,0.5835164835164836,0.4280908326324643,1193.0
207.0,1.7109237120144983e+18,0.4347258485639687,0.4178082191780822,0.3227027027027027,0.5008559550012228,0.6571428571428571,0.4482758620689655,1196.0
208.0,1.7109237120244928e+18,0.52088772845953,0.4315068493150685,0.3708108108108108,0.5077035950110051,0.5956043956043956,0.42977291841883936,1193.0
209.0,1.7109237120344937e+18,0.4360313315926893,0.4223744292237443,0.34054054054054056,0.5035460992907801,0.6593406593406593,0.4432296047098402,1197.0
210.0,1.7109237120444938e+18,0.5287206266318538,0.4200913242009132,0.37567567567567567,0.5025678650036683,0.5978021978021978,0.4415475189234651,1197.0
211.0,1.7109237120544945e+18,0.43733681462140994,0.4223744292237443,0.3389189189189189,0.5047688921496698,0.667032967032967,0.4499579478553406,1195.0
212.0,1.710923712064495e+18,0.5104438642297651,0.3984018264840183,0.34162162162162163,0.4988994864269993,0.5747252747252747,0.42640874684608915,1193.0
213.0,1.7109237120744947e+18,0.4347258485639687,0.4155251141552511,0.3162162162162162,0.5020787478601125,0.6714285714285714,0.4449116904962153,1197.0
214.0,1.7109237120844987e+18,0.5104438642297651,0.4018264840182648,0.34378378378378377,0.49938860357055515,0.5923076923076923,0.432296047098402,1192.0
215.0,1.7109237120944952e+18,0.4425587467362924,0.4212328767123288,0.32756756756756755,0.5047688921496698,0.6714285714285714,0.4499579478553406,1196.0
216.0,1.7109237121044964e+18,0.5182767624020888,0.3995433789954338,0.3264864864864865,0.4988994864269993,0.5637362637362637,0.4222035323801514,1193.0
217.0,1.7109237121144957e+18,0.4425587467362924,0.410958904109589,0.32756756756756755,0.5015896307165566,0.6637362637362637,0.4482758620689655,1194.0
218.0,1.710923712124497e+18,0.5117493472584856,0.4063926940639269,0.34486486486486484,0.49816581071166544,0.5758241758241758,0.42640874684608915,1195.0
219.0,1.7109237121344968e+18,0.44778067885117495,0.4280821917808219,0.3302702702702703,0.5069699192956714,0.6626373626373626,0.4482758620689655,1193.0
220.0,1.710923712144498e+18,0.5313315926892951,0.4223744292237443,0.33945945945945943,0.5050134507214478,0.5978021978021978,0.4272497897392767,1192.0
221.0,1.7109237121544975e+18,0.42950391644908614,0.4132420091324201,0.3145945945945946,0.4996331621423331,0.667032967032967,0.4507989907485282,1198.0
222.0,1.7109237121644987e+18,0.5234986945169713,0.4052511415525114,0.33513513513513515,0.49767669356810956,0.5934065934065934,0.4213624894869638,1195.0
223.0,1.7109237121744975e+18,0.4451697127937337,0.4212328767123288,0.34162162162162163,0.5003668378576669,0.6472527472527473,0.4432296047098402,1195.0
224.0,1.7109237121845018e+18,0.5117493472584856,0.408675799086758,0.34,0.5015896307165566,0.5835164835164836,0.4280908326324643,1191.0
225.0,1.7109237121945042e+18,0.42689295039164493,0.4189497716894977,0.33405405405405403,0.504524333577892,0.6758241758241759,0.44911690496215306,1196.0
226.0,1.7109237122044995e+18,0.5182767624020888,0.4189497716894977,0.37189189189189187,0.5033015407190022,0.5978021978021978,0.4280908326324643,1192.0
227.0,1.710923712214502e+18,0.4308093994778068,0.4166666666666667,0.3362162162162162,0.49229640498899485,0.6472527472527473,0.4381833473507149,1195.0
228.0,1.710923712224501e+18,0.5195822454308094,0.4143835616438356,0.3535135135135135,0.5094155050134507,0.5791208791208792,0.432296047098402,1192.0
229.0,1.7109237122345085e+18,0.4412532637075718,0.4235159817351598,0.33675675675675676,0.5079481535827831,0.6692307692307692,0.4659377628259041,1197.0
230.0,1.7109237122444874e+18,0.5143603133159269,0.4029680365296804,0.3302702702702703,0.5006113964294449,0.5912087912087912,0.4247266610597141,1192.0
231.0,1.7109237122545004e+18,0.4347258485639687,0.4223744292237443,0.34324324324324323,0.504524333577892,0.6527472527472528,0.4449116904962153,1194.0
232.0,1.710923712264502e+18,0.5443864229765013,0.4372146118721461,0.37783783783783786,0.5064808021521154,0.6021978021978022,0.44575273338940286,1193.0
233.0,1.7109237122744735e+18,0.42950391644908614,0.4075342465753425,0.31135135135135134,0.5023233064318905,0.6604395604395604,0.4465937762825904,1195.0
234.0,1.7109237122844797e+18,0.5117493472584856,0.4063926940639269,0.3372972972972973,0.504279775006114,0.5868131868131868,0.4280908326324643,1194.0
235.0,1.710923712294408e+18,0.4347258485639687,0.4269406392694064,0.3589189189189189,0.5145512350207875,0.6802197802197802,0.4482758620689655,1195.0
236.0,1.71092371230444e+18,0.5287206266318538,0.4246575342465753,0.34594594594594597,0.5035460992907801,0.5791208791208792,0.43566021867115223,1194.0
237.0,1.7109237123144878e+18,0.42428198433420367,0.4246575342465753,0.3518918918918919,0.5064808021521154,0.6538461538461539,0.44238856181665265,1194.0
238.0,1.7109237123245048e+18,0.5104438642297651,0.4029680365296804,0.33837837837837836,0.49767669356810956,0.5758241758241758,0.4222035323801514,1193.0
239.0,1.7109237123344904e+18,0.4347258485639687,0.4189497716894977,0.3362162162162162,0.5074590364392272,0.6692307692307692,0.44575273338940286,1195.0
240.0,1.7109237123444882e+18,0.5248041775456919,0.4143835616438356,0.3497297297297297,0.504524333577892,0.5901098901098901,0.4381833473507149,1197.0
241.0,1.7109237123544914e+18,0.4660574412532637,0.4611872146118721,0.3372972972972973,0.5147957935925654,0.667032967032967,0.45164003364171573,1196.0
242.0,1.710923712364487e+18,0.5130548302872062,0.4029680365296804,0.3372972972972973,0.4969430178527757,0.5857142857142857,0.42977291841883936,1193.0
243.0,1.710923712374496e+18,0.4255874673629243,0.4143835616438356,0.3308108108108108,0.5015896307165566,0.6538461538461539,0.4415475189234651,1196.0
244.0,1.7109237123845018e+18,0.5326370757180157,0.4155251141552511,0.36324324324324325,0.49816581071166544,0.5802197802197803,0.4415475189234651,1196.0
245.0,1.7109237123944876e+18,0.43994778067885115,0.4235159817351598,0.3410810810810811,0.5025678650036683,0.676923076923077,0.4499579478553406,1197.0
246.0,1.7109237124044897e+18,0.5261096605744126,0.4098173515981735,0.3410810810810811,0.49938860357055515,0.5747252747252747,0.4238856181665265,1192.0
247.0,1.710923712414489e+18,0.4347258485639687,0.4235159817351598,0.33405405405405403,0.499877720714111,0.676923076923077,0.44911690496215306,1195.0
248.0,1.7109237124244992e+18,0.5234986945169713,0.4189497716894977,0.3637837837837838,0.5064808021521154,0.5813186813186814,0.4280908326324643,1194.0
249.0,1.710923712434492e+18,0.4347258485639687,0.4098173515981735,0.31945945945945947,0.4966984592809978,0.6538461538461539,0.43566021867115223,1196.0
250.0,1.7109237124444936e+18,0.52088772845953,0.4292237442922374,0.3643243243243243,0.5069699192956714,0.6043956043956044,0.4440706476030278,1194.0
251.0,1.7109237124544904e+18,0.4556135770234987,0.4063926940639269,0.31567567567567567,0.4996331621423331,0.6582417582417582,0.4482758620689655,1196.0
252.0,1.7109237124644946e+18,0.5143603133159269,0.4121004566210046,0.33837837837837836,0.49816581071166544,0.5769230769230769,0.4255677039529016,1195.0
253.0,1.710923712474435e+18,0.4412532637075718,0.4200913242009132,0.3362162162162162,0.5035460992907801,0.6626373626373626,0.45500420521446594,1196.0
254.0,1.710923712484491e+18,0.5652741514360313,0.4474885844748858,0.4016216216216216,0.5074590364392272,0.5802197802197803,0.4381833473507149,1195.0
255.0,1.7109237124944863e+18,0.41906005221932113,0.4098173515981735,0.32432432432432434,0.5006113964294449,0.6538461538461539,0.4381833473507149,1195.0
256.0,1.7109237125044882e+18,0.5052219321148825,0.4041095890410959,0.34486486486486484,0.49938860357055515,0.5802197802197803,0.4306139613120269,1192.0
257.0,1.7109237125144776e+18,0.4608355091383812,0.4315068493150685,0.35945945945945945,0.5033015407190022,0.6626373626373626,0.4558452481076535,1194.0
258.0,1.7109237125245204e+18,0.5182767624020888,0.4029680365296804,0.34702702702702704,0.4984103692834434,0.5912087912087912,0.4339781328847771,1194.0
259.0,1.7109237125345004e+18,0.4425587467362924,0.4337899543378995,0.3464864864864865,0.5094155050134507,0.6758241758241759,0.45500420521446594,1197.0
260.0,1.7109237125444959e+18,0.5104438642297651,0.4132420091324201,0.3443243243243243,0.5077035950110051,0.5956043956043956,0.4306139613120269,1192.0
261.0,1.7109237125544878e+18,0.4281984334203655,0.408675799086758,0.307027027027027,0.5050134507214478,0.6813186813186813,0.44575273338940286,1197.0
262.0,1.710923712564486e+18,0.5234986945169713,0.4132420091324201,0.31189189189189187,0.5067253607238934,0.5923076923076923,0.43313708999158956,1193.0
263.0,1.7109237125744837e+18,0.43733681462140994,0.4006849315068493,0.31189189189189187,0.4937637564196625,0.6472527472527473,0.4432296047098402,1194.0
264.0,1.710923712584516e+18,0.5248041775456919,0.410958904109589,0.34594594594594597,0.495964783565664,0.5681318681318681,0.4255677039529016,1193.0
265.0,1.710923712594487e+18,0.4451697127937337,0.4280821917808219,0.3254054054054054,0.5028124235754463,0.667032967032967,0.4541631623212784,1196.0
266.0,1.7109237126044856e+18,0.5117493472584856,0.4132420091324201,0.34486486486486484,0.5023233064318905,0.578021978021978,0.4306139613120269,1191.0
267.0,1.710923712614501e+18,0.43342036553524804,0.4132420091324201,0.32216216216216215,0.4986549278552213,0.6450549450549451,0.44238856181665265,1197.0
268.0,1.7109237126244918e+18,0.5091383812010444,0.3961187214611872,0.3281081081081081,0.495720224993886,0.5802197802197803,0.43650126156433977,1195.0
269.0,1.7109237126344466e+18,0.4412532637075718,0.430365296803653,0.34486486486486484,0.504524333577892,0.6648351648351648,0.4449116904962153,1196.0
270.0,1.7109237126445005e+18,0.5104438642297651,0.4189497716894977,0.35621621621621624,0.5008559550012228,0.5681318681318681,0.41968040370058873,1194.0
271.0,1.7109237126545006e+18,0.42428198433420367,0.4075342465753425,0.31351351351351353,0.495720224993886,0.6483516483516484,0.4280908326324643,1194.0
272.0,1.7109237126644849e+18,0.5182767624020888,0.4178082191780822,0.3302702702702703,0.4986549278552213,0.578021978021978,0.4432296047098402,1196.0
273.0,1.710923712674487e+18,0.42036553524804177,0.4063926940639269,0.3172972972972973,0.49767669356810956,0.6626373626373626,0.4415475189234651,1194.0
274.0,1.7109237126845148e+18,0.5156657963446475,0.4041095890410959,0.32972972972972975,0.4986549278552213,0.5593406593406594,0.4222035323801514,1193.0
275.0,1.710923712694486e+18,0.4151436031331593,0.4075342465753425,0.3232432432432432,0.499877720714111,0.6516483516483517,0.4381833473507149,1193.0
276.0,1.7109237127044864e+18,0.5130548302872062,0.4006849315068493,0.3232432432432432,0.49327463927610665,0.5659340659340659,0.4247266610597141,1194.0
277.0,1.710923712714484e+18,0.4360313315926893,0.4075342465753425,0.31513513513513514,0.4988994864269993,0.6571428571428571,0.4381833473507149,1192.0
278.0,1.7109237127244849e+18,0.4464751958224543,0.4155251141552511,0.36108108108108106,0.5015896307165566,0.5637362637362637,0.4247266610597141,1192.0
279.0,1.710923712734503e+18,0.5065274151436031,0.4052511415525114,0.32594594594594595,0.4986549278552213,0.6461538461538462,0.4449116904962153,1195.0
280.0,1.710923712744489e+18,0.52088772845953,0.4132420091324201,0.3708108108108108,0.504279775006114,0.5934065934065934,0.4415475189234651,1194.0
281.0,1.710923712754491e+18,0.412532637075718,0.4075342465753425,0.3254054054054054,0.4986549278552213,0.6648351648351648,0.4381833473507149,1194.0
282.0,1.7109237127644918e+18,0.5469973890339426,0.4406392694063927,0.3605405405405405,0.5047688921496698,0.5857142857142857,0.4348191757779647,1196.0
283.0,1.71092371277449e+18,0.4321148825065274,0.4246575342465753,0.33297297297297296,0.5050134507214478,0.656043956043956,0.4432296047098402,1197.0
284.0,1.710923712784487e+18,0.5469973890339426,0.4257990867579909,0.3708108108108108,0.5025678650036683,0.5846153846153846,0.4381833473507149,1195.0
285.0,1.7109237127944873e+18,0.4725848563968668,0.4406392694063927,0.3567567567567568,0.5133284421618978,0.6758241758241759,0.4507989907485282,1196.0
286.0,1.7109237128044897e+18,0.5600522193211488,0.4315068493150685,0.3881081081081081,0.5037906578625581,0.5846153846153846,0.4373423044575273,1195.0
287.0,1.7109237128144893e+18,0.4464751958224543,0.4200913242009132,0.33405405405405403,0.504524333577892,0.6197802197802198,0.4339781328847771,1193.0
288.0,1.710923712824487e+18,0.5078328981723238,0.4235159817351598,0.34,0.5018341892883346,0.5087912087912088,0.41042893187552565,1195.0
289.0,1.7109237128344911e+18,0.5182767624020888,0.4223744292237443,0.31891891891891894,0.4986549278552213,0.7131868131868132,0.5021026072329688,1196.0
290.0,1.7109237128445005e+18,0.48172323759791125,0.4063926940639269,0.3545945945945946,0.4954756664221081,0.5659340659340659,0.42052144659377627,1193.0
291.0,1.710923712854451e+18,0.4281984334203655,0.4269406392694064,0.32972972972972975,0.5028124235754463,0.6857142857142857,0.44911690496215306,1196.0
292.0,1.710923712864487e+18,0.5391644908616188,0.4406392694063927,0.36648648648648646,0.5008559550012228,0.5703296703296703,0.43313708999158956,1192.0
293.0,1.7109237128744886e+18,0.44386422976501305,0.4360730593607306,0.3443243243243243,0.5116165321594522,0.6802197802197802,0.45836837678721615,1196.0
294.0,1.7109237128844987e+18,0.5117493472584856,0.4634703196347032,0.4189189189189189,0.5226216678894595,0.6681318681318681,0.43902439024390244,1195.0
295.0,1.7109237128944878e+18,0.4360313315926893,0.4429223744292237,0.3324324324324324,0.5133284421618978,0.6527472527472528,0.4726661059714045,1193.0
296.0,1.7109237129044861e+18,0.5,0.3812785388127854,0.3254054054054054,0.49205184641721694,0.5648351648351648,0.4146341463414634,1193.0
297.0,1.7109237129144868e+18,0.48172323759791125,0.4223744292237443,0.32,0.5006113964294449,0.6802197802197802,0.42640874684608915,1192.0
298.0,1.710923712924512e+18,0.5026109660574413,0.4006849315068493,0.3356756756756757,0.49767669356810956,0.5835164835164836,0.4314550042052145,1193.0
299.0,1.7109237129344643e+18,0.4308093994778068,0.4143835616438356,0.34378378378378377,0.499877720714111,0.6329670329670329,0.4272497897392767,1193.0
300.0,1.7109237129444923e+18,0.6292428198433421,0.4337899543378995,0.3827027027027027,0.5099046221570066,0.6714285714285714,0.4726661059714045,1196.0
301.0,1.710923712954498e+18,0.4412532637075718,0.430365296803653,0.3145945945945946,0.5047688921496698,0.6296703296703297,0.4373423044575273,1194.0
302.0,1.7109237129644582e+18,0.47911227154047,0.3926940639269406,0.32432432432432434,0.49767669356810956,0.554945054945055,0.42640874684608915,1192.0
303.0,1.7109237129744878e+18,0.49477806788511747,0.4189497716894977,0.32594594594594595,0.4942528735632184,0.6274725274725275,0.46846089150546677,1194.0
304.0,1.710923712984515e+18,0.4908616187989556,0.3995433789954338,0.33135135135135135,0.4988994864269993,0.5747252747252747,0.4255677039529016,1191.0
305.0,1.7109237129944817e+18,0.4164490861618799,0.4189497716894977,0.32594594594594595,0.5035460992907801,0.6626373626373626,0.4373423044575273,1196.0
306.0,1.7109237130044833e+18,0.5822454308093995,0.4280821917808219,0.38054054054054054,0.5103937393005625,0.5978021978021978,0.46846089150546677,1196.0
307.0,1.7109237130144835e+18,0.3720626631853786,0.410958904109589,0.3302702702702703,0.5059916850085595,0.6637362637362637,0.4415475189234651,1195.0
308.0,1.7109237130244815e+18,0.5039164490861618,0.4600456621004566,0.41405405405405404,0.512594766446564,0.5945054945054945,0.43313708999158956,1192.0
309.0,1.7109237130345564e+18,0.4281984334203655,0.3949771689497717,0.292972972972973,0.4969430178527757,0.6824175824175824,0.4575273338940286,1194.0
310.0,1.710923713044486e+18,0.5483028720626631,0.410958904109589,0.3518918918918919,0.49523110785033014,0.5714285714285714,0.4339781328847771,1194.0
311.0,1.710923713054487e+18,0.4308093994778068,0.408675799086758,0.33135135135135135,0.49938860357055515,0.6571428571428571,0.4482758620689655,1195.0
312.0,1.7109237130644895e+18,0.5143603133159269,0.4223744292237443,0.30324324324324325,0.5172413793103449,0.5835164835164836,0.4289318755256518,1192.0
313.0,1.7109237130744842e+18,0.4869451697127937,0.4132420091324201,0.31945945945945947,0.49620934213744194,0.6604395604395604,0.4306139613120269,1193.0
314.0,1.7109237130845105e+18,0.5052219321148825,0.4143835616438356,0.36,0.5028124235754463,0.5934065934065934,0.4482758620689655,1198.0
315.0,1.710923713094504e+18,0.40339425587467365,0.4235159817351598,0.33297297297297296,0.5035460992907801,0.6252747252747253,0.4415475189234651,1195.0
316.0,1.710923713104486e+18,0.5574412532637075,0.4235159817351598,0.3372972972972973,0.5091709464416728,0.5604395604395604,0.43313708999158956,1196.0
317.0,1.7109237131144893e+18,0.3642297650130548,0.3961187214611872,0.3037837837837838,0.49474199070677427,0.6626373626373626,0.4449116904962153,1195.0
318.0,1.7109237131244923e+18,0.5652741514360313,0.4212328767123288,0.3286486486486486,0.5001222792858889,0.5648351648351648,0.43650126156433977,1194.0
319.0,1.710923713134518e+18,0.40992167101827676,0.4223744292237443,0.31189189189189187,0.5074590364392272,0.7120879120879121,0.43566021867115223,1195.0
320.0,1.7109237131444928e+18,0.5234986945169713,0.4029680365296804,0.33837837837837836,0.49620934213744194,0.5747252747252747,0.4280908326324643,1192.0
321.0,1.7109237131545052e+18,0.42297650130548303,0.4509132420091324,0.3583783783783784,0.5162631450232331,0.6648351648351648,0.4415475189234651,1195.0
322.0,1.710923713164494e+18,0.5404699738903395,0.4052511415525114,0.3291891891891892,0.4937637564196625,0.4835164835164835,0.42052144659377627,1192.0
323.0,1.7109237131744996e+18,0.4308093994778068,0.4063926940639269,0.3005405405405405,0.5006113964294449,0.6384615384615384,0.4499579478553406,1197.0
324.0,1.7109237131845135e+18,0.5600522193211488,0.3926940639269406,0.33405405405405403,0.5008559550012228,0.5868131868131868,0.4289318755256518,1194.0
325.0,1.7109237131944906e+18,0.45691906005221933,0.4280821917808219,0.34054054054054056,0.5113719735876743,0.7153846153846154,0.4735071488645921,1195.0
326.0,1.710923713204493e+18,0.48433420365535246,0.4212328767123288,0.3248648648648649,0.5067253607238934,0.589010989010989,0.4213624894869638,1192.0
327.0,1.710923713214487e+18,0.4451697127937337,0.4132420091324201,0.29945945945945945,0.5094155050134507,0.7329670329670329,0.45836837678721615,1197.0
328.0,1.7109237132244908e+18,0.4725848563968668,0.3824200913242009,0.29783783783783785,0.5015896307165566,0.5615384615384615,0.4339781328847771,1193.0
329.0,1.7109237132345073e+18,0.3289817232375979,0.3995433789954338,0.2875675675675676,0.4944974321349963,0.6472527472527473,0.4314550042052145,1192.0
330.0,1.7109237132445084e+18,0.556135770234987,0.384703196347032,0.3237837837837838,0.49816581071166544,0.5395604395604395,0.4348191757779647,1196.0
331.0,1.71092371325449e+18,0.4112271540469974,0.408675799086758,0.3172972972972973,0.5011005135730008,0.6406593406593407,0.432296047098402,1194.0
332.0,1.710923713264492e+18,0.5248041775456919,0.4143835616438356,0.36,0.4988994864269993,0.567032967032967,0.4592094196804037,1195.0
333.0,1.710923713274489e+18,0.36945169712793735,0.4143835616438356,0.31567567567567567,0.49938860357055515,0.6285714285714286,0.4280908326324643,1194.0
334.0,1.7109237132844762e+18,0.5456919060052219,0.4292237442922374,0.36864864864864866,0.5069699192956714,0.578021978021978,0.4533221194280908,1198.0
335.0,1.7109237132944932e+18,0.402088772845953,0.408675799086758,0.3497297297297297,0.4954756664221081,0.6615384615384615,0.4482758620689655,1196.0
336.0,1.7109237133044918e+18,0.5221932114882507,0.4052511415525114,0.3410810810810811,0.49523110785033014,0.5582417582417583,0.40706476030277544,1193.0
337.0,1.7109237133144878e+18,0.45039164490861616,0.4200913242009132,0.33837837837837836,0.5015896307165566,0.7329670329670329,0.4667788057190917,1195.0
338.0,1.7109237133244864e+18,0.5117493472584856,0.4200913242009132,0.37189189189189187,0.5062362435803375,0.6065934065934065,0.39781328847771236,1193.0
339.0,1.710923713334514e+18,0.46866840731070497,0.4029680365296804,0.3027027027027027,0.49767669356810956,0.6626373626373626,0.4499579478553406,1196.0
340.0,1.7109237133444892e+18,0.5248041775456919,0.3949771689497717,0.3308108108108108,0.4988994864269993,0.5626373626373626,0.4146341463414634,1193.0
341.0,1.7109237133544865e+18,0.4112271540469974,0.3995433789954338,0.2789189189189189,0.49523110785033014,0.6835164835164835,0.44911690496215306,1194.0
342.0,1.7109237133645084e+18,0.49738903394255873,0.3892694063926941,0.30648648648648646,0.4971875764245537,0.545054945054945,0.41715727502102606,1190.0
343.0,1.7109237133744876e+18,0.4360313315926893,0.4063926940639269,0.312972972972973,0.5028124235754463,0.7329670329670329,0.44911690496215306,1196.0
344.0,1.710923713384492e+18,0.5130548302872062,0.4223744292237443,0.3308108108108108,0.5108828564441183,0.5868131868131868,0.4608915054667788,1194.0
345.0,1.7109237133944927e+18,0.48172323759791125,0.3961187214611872,0.3237837837837838,0.4966984592809978,0.6648351648351648,0.4272497897392767,1193.0
346.0,1.71092371340449e+18,0.5522193211488251,0.4052511415525114,0.3227027027027027,0.4996331621423331,0.5879120879120879,0.4381833473507149,1195.0
347.0,1.710923713414487e+18,0.42950391644908614,0.410958904109589,0.3308108108108108,0.49620934213744194,0.6857142857142857,0.4348191757779647,1196.0
348.0,1.7109237134244872e+18,0.5652741514360313,0.4315068493150685,0.3708108108108108,0.504279775006114,0.6021978021978022,0.4482758620689655,1196.0
349.0,1.710923713434488e+18,0.4360313315926893,0.4029680365296804,0.30864864864864866,0.4930300807043287,0.654945054945055,0.43313708999158956,1194.0
350.0,1.7109237134444877e+18,0.5248041775456919,0.4178082191780822,0.31405405405405407,0.4937637564196625,0.567032967032967,0.4465937762825904,1195.0
351.0,1.7109237134545057e+18,0.3838120104438642,0.3812785388127854,0.27297297297297296,0.49816581071166544,0.6846153846153846,0.42640874684608915,1194.0
352.0,1.71092371346449e+18,0.5430809399477807,0.4075342465753425,0.31405405405405407,0.49327463927610665,0.5439560439560439,0.4028595458368377,1193.0
353.0,1.7109237134744893e+18,0.42950391644908614,0.3904109589041096,0.2864864864864865,0.49767669356810956,0.7186813186813187,0.4247266610597141,1193.0
354.0,1.7109237134844938e+18,0.5339425587467362,0.4292237442922374,0.34378378378378377,0.5106382978723404,0.6065934065934065,0.4482758620689655,1195.0
355.0,1.7109237134944753e+18,0.45300261096605743,0.4212328767123288,0.3216216216216216,0.5028124235754463,0.689010989010989,0.44575273338940286,1197.0
356.0,1.7109237135044803e+18,0.5587467362924282,0.4600456621004566,0.4448648648648649,0.5201760821716801,0.6032967032967033,0.4701429772918419,1197.0
357.0,1.7109237135144893e+18,0.4386422976501306,0.4121004566210046,0.3124324324324324,0.5015896307165566,0.6758241758241759,0.4053826745164003,1192.0
358.0,1.7109237135244872e+18,0.4830287206266319,0.3984018264840183,0.33783783783783783,0.49058449498654927,0.5703296703296703,0.42304457527333894,1192.0
359.0,1.710923713534487e+18,0.47911227154047,0.4178082191780822,0.33783783783783783,0.49498654927855223,0.667032967032967,0.4499579478553406,1195.0
360.0,1.7109237135444897e+18,0.5352480417754569,0.432648401826484,0.37405405405405406,0.5113719735876743,0.6098901098901099,0.4449116904962153,1195.0
361.0,1.710923713554508e+18,0.39947780678851175,0.3961187214611872,0.32054054054054054,0.4859378821227684,0.6659340659340659,0.4280908326324643,1193.0
362.0,1.71092371356446e+18,0.5626631853785901,0.4075342465753425,0.3108108108108108,0.49620934213744194,0.5615384615384615,0.45500420521446594,1196.0
363.0,1.7109237135744893e+18,0.42036553524804177,0.410958904109589,0.3081081081081081,0.504035216434336,0.6571428571428571,0.4415475189234651,1196.0
364.0,1.7109237135844915e+18,0.4490861618798956,0.4075342465753425,0.3491891891891892,0.4986549278552213,0.567032967032967,0.3725820016820858,1192.0
365.0,1.7109237135945083e+18,0.43994778067885115,0.3984018264840183,0.3172972972972973,0.49498654927855223,0.6967032967032967,0.4693019343986543,1195.0
366.0,1.7109237136044925e+18,0.5182767624020888,0.4269406392694064,0.37027027027027026,0.4979212521398875,0.5945054945054945,0.4415475189234651,1193.0
367.0,1.7109237136144916e+18,0.40992167101827676,0.3904109589041096,0.28486486486486484,0.49229640498899485,0.6516483516483517,0.4255677039529016,1193.0
368.0,1.7109237136244887e+18,0.5104438642297651,0.4041095890410959,0.3281081081081081,0.5020787478601125,0.5648351648351648,0.43650126156433977,1195.0
369.0,1.71092371363449e+18,0.43994778067885115,0.408675799086758,0.3162162162162162,0.495720224993886,0.6582417582417582,0.43902439024390244,1195.0
370.0,1.7109237136444884e+18,0.5130548302872062,0.4235159817351598,0.3675675675675676,0.5001222792858889,0.5989010989010989,0.4600504625735913,1194.0
371.0,1.7109237136544858e+18,0.49216710182767626,0.430365296803653,0.32972972972972975,0.5084372707263389,0.6901098901098901,0.4415475189234651,1196.0
372.0,1.7109237136644861e+18,0.5026109660574413,0.3995433789954338,0.3427027027027027,0.4927855221325507,0.5505494505494506,0.432296047098402,1191.0
373.0,1.7109237136744975e+18,0.3629242819843342,0.4600456621004566,0.3848648648648649,0.5069699192956714,0.6450549450549451,0.4499579478553406,1197.0
374.0,1.7109237136844836e+18,0.5339425587467362,0.4166666666666667,0.3281081081081081,0.4971875764245537,0.5230769230769231,0.4188393608074012,1192.0
375.0,1.7109237136944796e+18,0.3302872062663185,0.4121004566210046,0.31189189189189187,0.504524333577892,0.667032967032967,0.48444070647603027,1197.0
376.0,1.7109237137045125e+18,0.48825065274151436,0.3949771689497717,0.3410810810810811,0.4984103692834434,0.5681318681318681,0.4289318755256518,1194.0
377.0,1.7109237137144883e+18,0.34073107049608353,0.3881278538812785,0.29783783783783785,0.5001222792858889,0.6912087912087912,0.43986543313709,1195.0
378.0,1.7109237137244877e+18,0.6096605744125326,0.4417808219178082,0.3675675675675676,0.5101491807287846,0.5725274725274725,0.4146341463414634,1192.0
379.0,1.7109237137344893e+18,0.4177545691906005,0.4223744292237443,0.312972972972973,0.49400831499144043,0.7120879120879121,0.4634146341463415,1196.0
380.0,1.7109237137444877e+18,0.608355091383812,0.4178082191780822,0.3681081081081081,0.4991440449987772,0.5802197802197803,0.4440706476030278,1194.0
381.0,1.7109237137544878e+18,0.3681462140992167,0.4269406392694064,0.3372972972972973,0.5059916850085595,0.710989010989011,0.4558452481076535,1196.0
382.0,1.7109237137644867e+18,0.5522193211488251,0.4132420091324201,0.35405405405405405,0.5015896307165566,0.5802197802197803,0.4306139613120269,1193.0
383.0,1.7109237137744896e+18,0.4255874673629243,0.4166666666666667,0.3264864864864865,0.5020787478601125,0.6934065934065934,0.43986543313709,1196.0
384.0,1.710923713784498e+18,0.5691906005221932,0.410958904109589,0.327027027027027,0.49400831499144043,0.5428571428571428,0.4415475189234651,1197.0
385.0,1.7109237137944904e+18,0.5117493472584856,0.4417808219178082,0.36702702702702705,0.5064808021521154,0.6582417582417582,0.5121951219512195,1194.0
386.0,1.7109237138044887e+18,0.5078328981723238,0.4098173515981735,0.3535135135135135,0.5033015407190022,0.5989010989010989,0.4289318755256518,1193.0
387.0,1.710923713814491e+18,0.3785900783289817,0.4178082191780822,0.34756756756756757,0.5174859378821227,0.7285714285714285,0.4432296047098402,1195.0
388.0,1.710923713824485e+18,0.5326370757180157,0.4155251141552511,0.3345945945945946,0.4930300807043287,0.5241758241758242,0.4179983179142136,1194.0
389.0,1.7109237138344893e+18,0.41383812010443866,0.410958904109589,0.30864864864864866,0.4979212521398875,0.6450549450549451,0.42052144659377627,1196.0
390.0,1.7109237138444872e+18,0.6540469973890339,0.4497716894977169,0.3605405405405405,0.4996331621423331,0.5923076923076923,0.4634146341463415,1196.0
391.0,1.7109237138544896e+18,0.5248041775456919,0.4269406392694064,0.3281081081081081,0.5011005135730008,0.6835164835164835,0.45500420521446594,1194.0
392.0,1.7109237138644902e+18,0.48825065274151436,0.4075342465753425,0.3427027027027027,0.5003668378576669,0.5615384615384615,0.42304457527333894,1194.0
393.0,1.7109237138744904e+18,0.489556135770235,0.4577625570776256,0.4167567567567568,0.5096600635852286,0.6692307692307692,0.4634146341463415,1197.0
394.0,1.7109237138844936e+18,0.5039164490861618,0.3926940639269406,0.3345945945945946,0.5030569821472243,0.5758241758241758,0.4188393608074012,1193.0
395.0,1.7109237138944911e+18,0.40992167101827676,0.4509132420091324,0.41081081081081083,0.5094155050134507,0.6571428571428571,0.44575273338940286,1196.0
396.0,1.7109237139044918e+18,0.49216710182767626,0.4383561643835616,0.3924324324324324,0.4986549278552213,0.5901098901098901,0.4600504625735913,1196.0
397.0,1.7109237139144927e+18,0.45691906005221933,0.4178082191780822,0.2983783783783784,0.5069699192956714,0.6967032967032967,0.4348191757779647,1193.0
398.0,1.710923713924493e+18,0.5548302872062664,0.3995433789954338,0.312972972972973,0.5118610907312301,0.6241758241758242,0.43566021867115223,1195.0
399.0,1.710923713934494e+18,0.2584856396866841,0.4018264840182648,0.31513513513513514,0.4942528735632184,0.6395604395604395,0.4255677039529016,1192.0
400.0,1.71092371394451e+18,0.4308093994778068,0.432648401826484,0.3308108108108108,0.49938860357055515,0.5593406593406594,0.4087468460891506,1193.0
401.0,1.710923713954491e+18,0.3668407310704961,0.3984018264840183,0.3091891891891892,0.504524333577892,0.6571428571428571,0.4289318755256518,1195.0
402.0,1.7109237139644928e+18,0.4725848563968668,0.3835616438356164,0.32054054054054054,0.49229640498899485,0.5340659340659341,0.43313708999158956,1194.0
403.0,1.7109237139744924e+18,0.4516971279373368,0.4269406392694064,0.31675675675675674,0.5015896307165566,0.7065934065934066,0.4558452481076535,1197.0
404.0,1.7109237139845018e+18,0.577023498694517,0.4006849315068493,0.31189189189189187,0.504035216434336,0.5395604395604395,0.4255677039529016,1195.0
405.0,1.7109237139944942e+18,0.4321148825065274,0.4121004566210046,0.31567567567567567,0.4979212521398875,0.6362637362637362,0.4415475189234651,1197.0
406.0,1.7109237140044943e+18,0.4725848563968668,0.4121004566210046,0.3443243243243243,0.4974321349963316,0.5681318681318681,0.4289318755256518,1194.0
407.0,1.710923714014494e+18,0.40600522193211486,0.4280821917808219,0.3410810810810811,0.5079481535827831,0.7164835164835165,0.4768713204373423,1197.0
408.0,1.7109237140244946e+18,0.5130548302872062,0.4006849315068493,0.33783783783783783,0.5074590364392272,0.6153846153846154,0.432296047098402,1192.0
409.0,1.710923714034495e+18,0.46736292428198434,0.4292237442922374,0.3464864864864865,0.5077035950110051,0.7197802197802198,0.4659377628259041,1198.0
410.0,1.7109237140444956e+18,0.47389033942558745,0.4063926940639269,0.34162162162162163,0.4900953778429934,0.5153846153846153,0.4255677039529016,1195.0
411.0,1.7109237140544955e+18,0.52088772845953,0.5091324200913242,0.45297297297297295,0.516507703595011,0.7307692307692307,0.46173254835996635,1195.0
412.0,1.710923714064496e+18,0.4856396866840731,0.3995433789954338,0.3481081081081081,0.5023233064318905,0.5813186813186814,0.44238856181665265,1196.0
413.0,1.7109237140744975e+18,0.42950391644908614,0.4429223744292237,0.3518918918918919,0.5079481535827831,0.6835164835164835,0.4802354920100925,1197.0
414.0,1.710923714084507e+18,0.49869451697127937,0.4041095890410959,0.3308108108108108,0.4986549278552213,0.5593406593406594,0.4432296047098402,1196.0
415.0,1.7109237140944978e+18,0.41383812010443866,0.4200913242009132,0.3254054054054054,0.5099046221570066,0.701098901098901,0.4348191757779647,1195.0
416.0,1.710923714104478e+18,0.5430809399477807,0.3824200913242009,0.3054054054054054,0.48667155783810223,0.5538461538461539,0.4314550042052145,1195.0
417.0,1.7109237141144786e+18,0.43733681462140994,0.4235159817351598,0.36972972972972973,0.5001222792858889,0.667032967032967,0.4255677039529016,1192.0
418.0,1.7109237141244782e+18,0.5456919060052219,0.3995433789954338,0.31405405405405407,0.5067253607238934,0.5593406593406594,0.415475189234651,1193.0
419.0,1.710923714134479e+18,0.48172323759791125,0.4315068493150685,0.32216216216216215,0.49474199070677427,0.7,0.45500420521446594,1197.0
420.0,1.7109237141445e+18,0.5391644908616188,0.4132420091324201,0.3589189189189189,0.4988994864269993,0.5857142857142857,0.432296047098402,1193.0
421.0,1.7109237141544996e+18,0.32506527415143605,0.4189497716894977,0.31351351351351353,0.5099046221570066,0.667032967032967,0.4314550042052145,1194.0
422.0,1.7109237141645002e+18,0.5365535248041775,0.4200913242009132,0.3372972972972973,0.5037906578625581,0.5560439560439561,0.43986543313709,1195.0
423.0,1.7109237141745009e+18,0.381201044386423,0.4029680365296804,0.3016216216216216,0.4991440449987772,0.6725274725274726,0.43566021867115223,1194.0
424.0,1.7109237141845005e+18,0.47911227154047,0.4315068493150685,0.36,0.5106382978723404,0.5791208791208792,0.4894869638351556,1197.0
425.0,1.7109237141945016e+18,0.46344647519582244,0.4132420091324201,0.31027027027027027,0.49767669356810956,0.6362637362637362,0.4482758620689655,1196.0
426.0,1.7109237142044795e+18,0.7180156657963447,0.3710045662100457,0.2627027027027027,0.495720224993886,0.5868131868131868,0.4053826745164003,1193.0
427.0,1.7109237142144788e+18,0.4856396866840731,0.4691780821917808,0.3621621621621622,0.5216434336023478,0.7351648351648352,0.4768713204373423,1197.0
428.0,1.7109237142244777e+18,0.48172323759791125,0.3995433789954338,0.35567567567567565,0.4969430178527757,0.5945054945054945,0.415475189234651,1193.0
429.0,1.7109237142344799e+18,0.40339425587467365,0.4166666666666667,0.33135135135135135,0.5101491807287846,0.7043956043956044,0.4348191757779647,1196.0
430.0,1.710923714244504e+18,0.5339425587467362,0.430365296803653,0.35135135135135137,0.5035460992907801,0.545054945054945,0.46509671993271656,1197.0
431.0,1.7109237142545037e+18,0.39425587467362927,0.4063926940639269,0.3172972972972973,0.49400831499144043,0.6538461538461539,0.43566021867115223,1197.0
432.0,1.7109237142644874e+18,0.5234986945169713,0.430365296803653,0.3643243243243243,0.5108828564441183,0.5725274725274725,0.4558452481076535,1196.0
433.0,1.7109237142744873e+18,0.4556135770234987,0.4075342465753425,0.2810810810810811,0.4944974321349963,0.710989010989011,0.44238856181665265,1194.0
434.0,1.7109237142844877e+18,0.5091383812010444,0.3949771689497717,0.3356756756756757,0.49400831499144043,0.5230769230769231,0.4095878889823381,1193.0
435.0,1.7109237142945405e+18,0.3381201044386423,0.3812785388127854,0.3172972972972973,0.49620934213744194,0.6516483516483517,0.3994953742640875,1193.0
436.0,1.710923714304487e+18,0.5548302872062664,0.4178082191780822,0.3745945945945946,0.5086818292981169,0.5802197802197803,0.4558452481076535,1196.0
437.0,1.7109237143144876e+18,0.4360313315926893,0.4029680365296804,0.29567567567567565,0.5077035950110051,0.6956043956043956,0.4213624894869638,1193.0
438.0,1.710923714324489e+18,0.6266318537859008,0.4931506849315068,0.47243243243243244,0.5116165321594522,0.634065934065934,0.4592094196804037,1197.0
439.0,1.7109237143344896e+18,0.45822454308093996,0.4075342465753425,0.3237837837837838,0.5057471264367817,0.7032967032967034,0.45248107653490327,1197.0
440.0,1.7109237143445317e+18,0.5261096605744126,0.4052511415525114,0.34324324324324323,0.48691611640988014,0.5362637362637362,0.4163162321278385,1192.0
441.0,1.7109237143544906e+18,0.5221932114882507,0.4440639269406393,0.35567567567567565,0.512350207874786,0.7186813186813187,0.47098402018502944,1195.0
442.0,1.710923714364489e+18,0.5509138381201044,0.4246575342465753,0.37351351351351353,0.495720224993886,0.5252747252747253,0.4121110176619008,1192.0
443.0,1.710923714374487e+18,0.5104438642297651,0.45662100456621,0.3681081081081081,0.5152849107361213,0.7153846153846154,0.4482758620689655,1196.0
444.0,1.7109237143844897e+18,0.5195822454308094,0.4212328767123288,0.3481081081081081,0.5072144778674492,0.4912087912087912,0.43986543313709,1194.0
445.0,1.710923714394489e+18,0.42689295039164493,0.4132420091324201,0.2972972972972973,0.5055025678650037,0.6736263736263737,0.43313708999158956,1191.0
446.0,1.7109237144044915e+18,0.4765013054830287,0.4052511415525114,0.32432432432432434,0.49400831499144043,0.5164835164835165,0.4129520605550883,1191.0
447.0,1.7109237144144845e+18,0.4595300261096606,0.4383561643835616,0.34486486486486484,0.5037906578625581,0.6725274725274726,0.4592094196804037,1196.0
448.0,1.710923714424484e+18,0.5026109660574413,0.3812785388127854,0.3281081081081081,0.504524333577892,0.6175824175824176,0.4272497897392767,1195.0
449.0,1.7109237144344855e+18,0.42950391644908614,0.4063926940639269,0.292972972972973,0.49620934213744194,0.689010989010989,0.44911690496215306,1196.0
450.0,1.7109237144445202e+18,0.4869451697127937,0.3938356164383562,0.31513513513513514,0.49474199070677427,0.5274725274725275,0.4213624894869638,1193.0
451.0,1.7109237144544945e+18,0.4556135770234987,0.4029680365296804,0.29945945945945945,0.4988994864269993,0.7021978021978021,0.4726661059714045,1196.0
452.0,1.7109237144644895e+18,0.5300261096605744,0.4041095890410959,0.3491891891891892,0.4944974321349963,0.5483516483516484,0.4213624894869638,1193.0
453.0,1.7109237144744896e+18,0.3733681462140992,0.4383561643835616,0.3945945945945946,0.5096600635852286,0.7164835164835165,0.45836837678721615,1196.0
454.0,1.7109237144844948e+18,0.48825065274151436,0.4063926940639269,0.31945945945945947,0.4966984592809978,0.5593406593406594,0.41968040370058873,1193.0
455.0,1.7109237144944947e+18,0.4960835509138381,0.4212328767123288,0.3410810810810811,0.5055025678650037,0.654945054945055,0.4449116904962153,1196.0
456.0,1.7109237145044856e+18,0.5391644908616188,0.3744292237442922,0.32756756756756755,0.49767669356810956,0.5263736263736264,0.43566021867115223,1197.0
457.0,1.7109237145144878e+18,0.4425587467362924,0.4474885844748858,0.3621621621621622,0.5067253607238934,0.6934065934065934,0.4726661059714045,1196.0
458.0,1.7109237145244884e+18,0.5966057441253264,0.4349315068493151,0.35405405405405405,0.5086818292981169,0.5725274725274725,0.45248107653490327,1196.0
459.0,1.7109237145344858e+18,0.4255874673629243,0.4257990867579909,0.372972972972973,0.4927855221325507,0.6483516483516484,0.44575273338940286,1195.0
460.0,1.710923714544492e+18,0.5443864229765013,0.4212328767123288,0.3583783783783784,0.4971875764245537,0.5912087912087912,0.4575273338940286,1196.0
461.0,1.7109237145544863e+18,0.3629242819843342,0.3949771689497717,0.31567567567567567,0.5015896307165566,0.7098901098901099,0.45836837678721615,1195.0
462.0,1.7109237145644928e+18,0.46344647519582244,0.4132420091324201,0.33513513513513515,0.4996331621423331,0.5505494505494506,0.4440706476030278,1194.0
463.0,1.7109237145744878e+18,0.41383812010443866,0.4212328767123288,0.36486486486486486,0.5055025678650037,0.6813186813186813,0.4600504625735913,1196.0
464.0,1.7109237145844897e+18,0.5522193211488251,0.430365296803653,0.33513513513513515,0.5143066764490095,0.6054945054945055,0.45836837678721615,1197.0
465.0,1.710923714594495e+18,0.4151436031331593,0.4052511415525114,0.307027027027027,0.49620934213744194,0.6483516483516484,0.4339781328847771,1193.0
466.0,1.71092371460448e+18,0.49477806788511747,0.4223744292237443,0.3410810810810811,0.5133284421618978,0.5428571428571428,0.4272497897392767,1192.0
467.0,1.7109237146144899e+18,0.4608355091383812,0.4132420091324201,0.3372972972972973,0.5062362435803375,0.7164835164835165,0.4760302775441548,1195.0
468.0,1.710923714624491e+18,0.46475195822454307,0.4143835616438356,0.3389189189189189,0.5028124235754463,0.5571428571428572,0.4238856181665265,1194.0
469.0,1.710923714634485e+18,0.39295039164490864,0.4292237442922374,0.37945945945945947,0.5001222792858889,0.6582417582417582,0.43986543313709,1196.0
470.0,1.7109237146444915e+18,0.5522193211488251,0.4417808219178082,0.387027027027027,0.4984103692834434,0.5076923076923077,0.4440706476030278,1197.0
471.0,1.710923714654511e+18,0.42036553524804177,0.4406392694063927,0.34162162162162163,0.5067253607238934,0.6824175824175824,0.45164003364171573,1196.0
472.0,1.71092371466449e+18,0.4830287206266319,0.4075342465753425,0.34594594594594597,0.5059916850085595,0.5747252747252747,0.4121110176619008,1194.0
473.0,1.7109237146744888e+18,0.35900783289817234,0.3881278538812785,0.29783783783783785,0.4944974321349963,0.7,0.46173254835996635,1195.0
474.0,1.7109237146844908e+18,0.5522193211488251,0.4280821917808219,0.36162162162162165,0.49082905355832723,0.46263736263736266,0.4222035323801514,1192.0
475.0,1.7109237146944945e+18,0.4869451697127937,0.4235159817351598,0.35621621621621624,0.5079481535827831,0.6802197802197802,0.4507989907485282,1195.0
476.0,1.7109237147044956e+18,0.46736292428198434,0.4223744292237443,0.3837837837837838,0.4913181707018831,0.5307692307692308,0.432296047098402,1195.0
477.0,1.7109237147144899e+18,0.48172323759791125,0.4280821917808219,0.32972972972972975,0.4986549278552213,0.6527472527472528,0.4507989907485282,1196.0
478.0,1.7109237147244887e+18,0.5287206266318538,0.3926940639269406,0.33783783783783783,0.5015896307165566,0.5428571428571428,0.44575273338940286,1197.0
479.0,1.710923714734487e+18,0.47389033942558745,0.4497716894977169,0.34324324324324323,0.5064808021521154,0.6912087912087912,0.45248107653490327,1197.0
480.0,1.7109237147444897e+18,0.5339425587467362,0.3972602739726027,0.30108108108108106,0.5006113964294449,0.5527472527472528,0.43566021867115223,1196.0
481.0,1.7109237147544822e+18,0.4086161879895561,0.4052511415525114,0.3054054054054054,0.5008559550012228,0.6835164835164835,0.4482758620689655,1196.0
482.0,1.7109237147644846e+18,0.5391644908616188,0.4315068493150685,0.387027027027027,0.5003668378576669,0.5637362637362637,0.4339781328847771,1194.0
483.0,1.710923714774489e+18,0.40992167101827676,0.4189497716894977,0.33513513513513515,0.504279775006114,0.7505494505494505,0.45164003364171573,1197.0
484.0,1.7109237147844948e+18,0.4412532637075718,0.4646118721461187,0.4091891891891892,0.5108828564441183,0.6054945054945055,0.4507989907485282,1197.0
485.0,1.7109237147944927e+18,0.43994778067885115,0.4337899543378995,0.3545945945945946,0.49523110785033014,0.6384615384615384,0.4415475189234651,1194.0
486.0,1.710923714804477e+18,0.5065274151436031,0.408675799086758,0.372972972972973,0.5074590364392272,0.5747252747252747,0.4592094196804037,1195.0
487.0,1.7109237148144837e+18,0.46866840731070497,0.4052511415525114,0.33405405405405403,0.4984103692834434,0.676923076923077,0.4373423044575273,1197.0
488.0,1.7109237148245125e+18,0.5783289817232375,0.4212328767123288,0.33405405405405403,0.49205184641721694,0.5307692307692308,0.4289318755256518,1193.0
489.0,1.7109237148344906e+18,0.41906005221932113,0.3938356164383562,0.3037837837837838,0.4969430178527757,0.7076923076923077,0.45248107653490327,1196.0
490.0,1.7109237148444882e+18,0.5365535248041775,0.4223744292237443,0.36648648648648646,0.5018341892883346,0.5461538461538461,0.432296047098402,1194.0
491.0,1.7109237148544924e+18,0.4086161879895561,0.4680365296803653,0.3816216216216216,0.5118610907312301,0.6934065934065934,0.4533221194280908,1196.0
492.0,1.710923714864488e+18,0.5744125326370757,0.4098173515981735,0.36648648648648646,0.4988994864269993,0.5604395604395604,0.432296047098402,1193.0
493.0,1.7109237148744896e+18,0.4556135770234987,0.4200913242009132,0.3227027027027027,0.49938860357055515,0.7164835164835165,0.4482758620689655,1196.0
494.0,1.710923714884491e+18,0.5195822454308094,0.3904109589041096,0.31567567567567567,0.5025678650036683,0.5758241758241758,0.4465937762825904,1196.0
495.0,1.710923714894495e+18,0.4347258485639687,0.4178082191780822,0.29081081081081084,0.4969430178527757,0.6978021978021978,0.4499579478553406,1196.0
496.0,1.7109237149044905e+18,0.5352480417754569,0.410958904109589,0.32594594594594595,0.4888725849841037,0.5527472527472528,0.4112699747687132,1192.0
497.0,1.710923714914488e+18,0.4347258485639687,0.4063926940639269,0.3210810810810811,0.4979212521398875,0.6505494505494506,0.4465937762825904,1195.0
498.0,1.710923714924489e+18,0.4830287206266319,0.4098173515981735,0.34324324324324323,0.49229640498899485,0.5340659340659341,0.4280908326324643,1191.0
499.0,1.7109237149344868e+18,0.43733681462140994,0.4223744292237443,0.31405405405405407,0.5064808021521154,0.6637362637362637,0.40454163162321277,1192.0
500.0,1.710923714944485e+18,0.5117493472584856,0.4292237442922374,0.36162162162162165,0.5015896307165566,0.5483516483516484,0.4146341463414634,1193.0
501.0,1.7109237149545032e+18,0.41383812010443866,0.3995433789954338,0.29243243243243244,0.4937637564196625,0.656043956043956,0.4465937762825904,1196.0
502.0,1.7109237149644908e+18,0.5835509138381201,0.4006849315068493,0.32756756756756755,0.4974321349963316,0.5197802197802198,0.43313708999158956,1193.0
503.0,1.7109237149744914e+18,0.40339425587467365,0.4143835616438356,0.34756756756756757,0.5025678650036683,0.6593406593406593,0.4415475189234651,1194.0
504.0,1.710923714984495e+18,0.4830287206266319,0.4223744292237443,0.3345945945945946,0.4996331621423331,0.5681318681318681,0.4381833473507149,1194.0
505.0,1.7109237149944863e+18,0.4556135770234987,0.3926940639269406,0.3,0.5006113964294449,0.6978021978021978,0.4415475189234651,1194.0
506.0,1.7109237150044908e+18,0.5391644908616188,0.4200913242009132,0.3237837837837838,0.5037906578625581,0.5703296703296703,0.4306139613120269,1195.0
507.0,1.7109237150144788e+18,0.4699738903394256,0.4372146118721461,0.3091891891891892,0.5033015407190022,0.6362637362637362,0.4339781328847771,1194.0
508.0,1.7109237150244877e+18,0.5130548302872062,0.4052511415525114,0.33297297297297296,0.4984103692834434,0.6153846153846154,0.42977291841883936,1192.0
509.0,1.710923715034485e+18,0.41383812010443866,0.4063926940639269,0.31189189189189187,0.5006113964294449,0.6813186813186813,0.4541631623212784,1197.0
510.0,1.7109237150444905e+18,0.46866840731070497,0.3767123287671233,0.3037837837837838,0.4996331621423331,0.521978021978022,0.40706476030277544,1193.0
511.0,1.7109237150544893e+18,0.4046997389033943,0.4132420091324201,0.33405405405405403,0.49498654927855223,0.6846153846153846,0.45836837678721615,1196.0
512.0,1.710923715064485e+18,0.5339425587467362,0.4121004566210046,0.3410810810810811,0.4986549278552213,0.5648351648351648,0.4247266610597141,1193.0
513.0,1.710923715074487e+18,0.4164490861618799,0.4269406392694064,0.31891891891891894,0.4969430178527757,0.654945054945055,0.3793103448275862,1195.0
514.0,1.7109237150845002e+18,0.4490861618798956,0.4178082191780822,0.31675675675675674,0.5243335778919052,0.5582417582417583,0.4432296047098402,1197.0
515.0,1.7109237150945016e+18,0.31592689295039167,0.3949771689497717,0.292972972972973,0.4925409635607728,0.6307692307692307,0.4306139613120269,1193.0
516.0,1.7109237151044915e+18,0.5130548302872062,0.4143835616438356,0.3583783783783784,0.49474199070677427,0.5824175824175825,0.4179983179142136,1194.0
517.0,1.7109237151144858e+18,0.52088772845953,0.410958904109589,0.29783783783783785,0.5018341892883346,0.6813186813186813,0.4625735912531539,1194.0
518.0,1.7109237151244836e+18,0.5522193211488251,0.4486301369863014,0.38756756756756755,0.5064808021521154,0.6010989010989011,0.432296047098402,1192.0
519.0,1.7109237151344855e+18,0.26762402088772846,0.3881278538812785,0.33135135135135135,0.49938860357055515,0.6472527472527473,0.4222035323801514,1193.0
520.0,1.710923715144498e+18,0.5535248041775457,0.4520547945205479,0.4243243243243243,0.5015896307165566,0.5637362637362637,0.45164003364171573,1196.0
521.0,1.7109237151544835e+18,0.47127937336814624,0.4235159817351598,0.2891891891891892,0.5037906578625581,0.7021978021978021,0.43566021867115223,1195.0
522.0,1.7109237151644908e+18,0.37597911227154046,0.3835616438356164,0.3145945945945946,0.4966984592809978,0.5648351648351648,0.4112699747687132,1193.0
523.0,1.7109237151744899e+18,0.4425587467362924,0.3938356164383562,0.30864864864864866,0.5015896307165566,0.7087912087912088,0.44238856181665265,1197.0
524.0,1.7109237151844928e+18,0.39425587467362927,0.4223744292237443,0.34324324324324323,0.4996331621423331,0.5516483516483517,0.4222035323801514,1193.0
525.0,1.710923715194485e+18,0.39425587467362927,0.4098173515981735,0.3491891891891892,0.49767669356810956,0.6450549450549451,0.44911690496215306,1196.0
526.0,1.7109237152044864e+18,0.48433420365535246,0.408675799086758,0.3783783783783784,0.49474199070677427,0.5395604395604395,0.4314550042052145,1192.0
527.0,1.7109237152144904e+18,0.42428198433420367,0.4315068493150685,0.3497297297297297,0.5094155050134507,0.7164835164835165,0.44575273338940286,1197.0
528.0,1.7109237152244882e+18,0.6031331592689295,0.4063926940639269,0.3210810810810811,0.4996331621423331,0.5263736263736264,0.4415475189234651,1198.0
529.0,1.7109237152344556e+18,0.35900783289817234,0.3995433789954338,0.31135135135135134,0.48911714355588165,0.6802197802197802,0.4449116904962153,1196.0
530.0,1.710923715244491e+18,0.4595300261096606,0.4440639269406393,0.3848648648648649,0.5011005135730008,0.5439560439560439,0.43313708999158956,1195.0
531.0,1.7109237152544932e+18,0.4412532637075718,0.4041095890410959,0.3291891891891892,0.4988994864269993,0.6538461538461539,0.41715727502102606,1193.0
532.0,1.7109237152644995e+18,0.5652741514360313,0.410958904109589,0.3654054054054054,0.5030569821472243,0.5802197802197803,0.4314550042052145,1194.0
533.0,1.7109237152744916e+18,0.46344647519582244,0.4189497716894977,0.3427027027027027,0.5025678650036683,0.7098901098901099,0.4482758620689655,1194.0
534.0,1.7109237152845007e+18,0.5143603133159269,0.4531963470319635,0.40540540540540543,0.5099046221570066,0.6197802197802198,0.4465937762825904,1196.0
535.0,1.710923715294513e+18,0.4347258485639687,0.3744292237442922,0.3016216216216216,0.4937637564196625,0.6846153846153846,0.4289318755256518,1193.0
536.0,1.710923715304488e+18,0.5548302872062664,0.4360730593607306,0.3443243243243243,0.5006113964294449,0.5967032967032967,0.4558452481076535,1197.0
537.0,1.7109237153144878e+18,0.4412532637075718,0.410958904109589,0.31027027027027027,0.5006113964294449,0.6725274725274726,0.46509671993271656,1197.0
538.0,1.7109237153244877e+18,0.4869451697127937,0.4063926940639269,0.3108108108108108,0.5069699192956714,0.5747252747252747,0.4314550042052145,1194.0
539.0,1.7109237153344865e+18,0.391644908616188,0.3995433789954338,0.3108108108108108,0.4969430178527757,0.6879120879120879,0.4415475189234651,1196.0
540.0,1.7109237153444948e+18,0.4869451697127937,0.4143835616438356,0.35081081081081084,0.5072144778674492,0.5714285714285714,0.4600504625735913,1197.0
541.0,1.7109237153544945e+18,0.360313315926893,0.3972602739726027,0.3,0.48740523355343607,0.667032967032967,0.4432296047098402,1196.0
542.0,1.7109237153644938e+18,0.5287206266318538,0.4372146118721461,0.35783783783783785,0.49938860357055515,0.5681318681318681,0.45500420521446594,1197.0
543.0,1.7109237153744934e+18,0.4360313315926893,0.3961187214611872,0.30486486486486486,0.5015896307165566,0.6692307692307692,0.45248107653490327,1197.0
544.0,1.7109237153844972e+18,0.48172323759791125,0.4132420091324201,0.33675675675675676,0.49645390070921985,0.5527472527472528,0.42977291841883936,1194.0
545.0,1.7109237153944947e+18,0.3825065274151436,0.4121004566210046,0.3362162162162162,0.5015896307165566,0.6824175824175824,0.456686291000841,1194.0
546.0,1.710923715404499e+18,0.5065274151436031,0.4063926940639269,0.31945945945945947,0.49205184641721694,0.5593406593406594,0.4247266610597141,1194.0
547.0,1.710923715414495e+18,0.43994778067885115,0.4143835616438356,0.3248648648648649,0.5086818292981169,0.6494505494505495,0.44575273338940286,1196.0
548.0,1.710923715424495e+18,0.5926892950391645,0.4235159817351598,0.31189189189189187,0.5001222792858889,0.5857142857142857,0.42977291841883936,1194.0
549.0,1.7109237154344934e+18,0.3733681462140992,0.4132420091324201,0.31027027027027027,0.4954756664221081,0.676923076923077,0.4449116904962153,1199.0
550.0,1.710923715444496e+18,0.5091383812010444,0.384703196347032,0.31567567567567567,0.5001222792858889,0.5758241758241758,0.4188393608074012,1193.0
551.0,1.7109237154545231e+18,0.46344647519582244,0.4360730593607306,0.34486486486486484,0.5055025678650037,0.6538461538461539,0.45248107653490327,1197.0
552.0,1.7109237154644918e+18,0.49477806788511747,0.4452054794520548,0.36648648648648646,0.5118610907312301,0.589010989010989,0.4432296047098402,1197.0
553.0,1.7109237154744986e+18,0.4556135770234987,0.386986301369863,0.3043243243243243,0.4974321349963316,0.7,0.4348191757779647,1198.0
554.0,1.7109237154844984e+18,0.5078328981723238,0.4200913242009132,0.3567567567567568,0.4937637564196625,0.545054945054945,0.4280908326324643,1193.0
555.0,1.710923715494501e+18,0.3733681462140992,0.4223744292237443,0.36,0.5037906578625581,0.6714285714285714,0.4381833473507149,1196.0
556.0,1.710923715504498e+18,0.5339425587467362,0.4178082191780822,0.3345945945945946,0.5025678650036683,0.5714285714285714,0.4381833473507149,1196.0
557.0,1.7109237155145024e+18,0.42036553524804177,0.4452054794520548,0.4010810810810811,0.5064808021521154,0.7,0.45164003364171573,1193.0
558.0,1.7109237155244992e+18,0.4556135770234987,0.3755707762557078,0.34378378378378377,0.487649792125214,0.5659340659340659,0.4188393608074012,1192.0
559.0,1.7109237155344993e+18,0.4425587467362924,0.4166666666666667,0.3324324324324324,0.49474199070677427,0.6406593406593407,0.44911690496215306,1198.0
560.0,1.7109237155444997e+18,0.5182767624020888,0.3995433789954338,0.32432432432432434,0.49229640498899485,0.5461538461538461,0.4222035323801514,1196.0
561.0,1.7109237155544988e+18,0.3733681462140992,0.3812785388127854,0.31135135135135134,0.4927855221325507,0.6637362637362637,0.43313708999158956,1192.0
562.0,1.7109237155644964e+18,0.5156657963446475,0.4143835616438356,0.3583783783783784,0.5003668378576669,0.5791208791208792,0.4339781328847771,1194.0
563.0,1.710923715574502e+18,0.3877284595300261,0.4132420091324201,0.28864864864864864,0.5028124235754463,0.6802197802197802,0.4381833473507149,1196.0
564.0,1.7109237155845023e+18,0.4934725848563969,0.410958904109589,0.3308108108108108,0.5077035950110051,0.5681318681318681,0.4272497897392767,1192.0
565.0,1.7109237155945147e+18,0.37467362924281983,0.432648401826484,0.33513513513513515,0.5008559550012228,0.7164835164835165,0.4306139613120269,1194.0
566.0,1.7109237156045094e+18,0.5652741514360313,0.3995433789954338,0.3335135135135135,0.4969430178527757,0.6010989010989011,0.43986543313709,1197.0
567.0,1.7109237156145021e+18,0.39947780678851175,0.4063926940639269,0.327027027027027,0.5062362435803375,0.6428571428571429,0.43313708999158956,1194.0
568.0,1.7109237156244874e+18,0.52088772845953,0.408675799086758,0.34486486486486484,0.5064808021521154,0.5769230769230769,0.43650126156433977,1196.0
569.0,1.7109237156344932e+18,0.43733681462140994,0.3995433789954338,0.3172972972972973,0.49498654927855223,0.6516483516483517,0.4415475189234651,1201.0
570.0,1.7109237156445204e+18,0.5195822454308094,0.4200913242009132,0.34702702702702704,0.5006113964294449,0.5714285714285714,0.4415475189234651,1196.0
571.0,1.7109237156545037e+18,0.4308093994778068,0.4063926940639269,0.33675675675675676,0.4954756664221081,0.6582417582417582,0.4432296047098402,1196.0
572.0,1.7109237156644928e+18,0.5274151436031331,0.4063926940639269,0.34324324324324323,0.504035216434336,0.5582417582417583,0.42977291841883936,1195.0
573.0,1.7109237156745042e+18,0.4347258485639687,0.430365296803653,0.3248648648648649,0.532648569332355,0.676923076923077,0.43650126156433977,1197.0
574.0,1.7109237156844915e+18,0.5052219321148825,0.4417808219178082,0.36108108108108106,0.5077035950110051,0.5681318681318681,0.42977291841883936,1193.0
575.0,1.710923715694519e+18,0.49869451697127937,0.363013698630137,0.32,0.4896062606994375,0.7197802197802198,0.46173254835996635,1196.0
576.0,1.7109237157044908e+18,0.4908616187989556,0.4098173515981735,0.3216216216216216,0.5079481535827831,0.5461538461538461,0.40117746005046256,1193.0
577.0,1.7109237157144922e+18,0.46866840731070497,0.4029680365296804,0.31027027027027027,0.5182196135974566,0.6934065934065934,0.4482758620689655,1193.0
578.0,1.7109237157244874e+18,0.4869451697127937,0.3915525114155251,0.3124324324324324,0.5094155050134507,0.545054945054945,0.4121110176619008,1193.0
579.0,1.7109237157344876e+18,0.4412532637075718,0.4143835616438356,0.31891891891891894,0.5377842993396919,0.6857142857142857,0.4415475189234651,1196.0
580.0,1.7109237157445174e+18,0.5391644908616188,0.4817351598173516,0.43945945945945947,0.5001222792858889,0.5945054945054945,0.4314550042052145,1193.0
581.0,1.7109237157544883e+18,0.43733681462140994,0.3926940639269406,0.31567567567567567,0.5135730007336757,0.6736263736263737,0.44238856181665265,1198.0
582.0,1.710923715764494e+18,0.52088772845953,0.4337899543378995,0.37945945945945947,0.46368305209097577,0.5527472527472528,0.42640874684608915,1196.0
583.0,1.71092371577449e+18,0.4086161879895561,0.3378995433789954,0.31891891891891894,0.5030569821472243,0.7043956043956044,0.4373423044575273,1198.0
584.0,1.710923715784493e+18,0.5130548302872062,0.4383561643835616,0.3708108108108108,0.48495964783565665,0.578021978021978,0.4289318755256518,1192.0
585.0,1.710923715794539e+18,0.4451697127937337,0.4280821917808219,0.3281081081081081,0.5079481535827831,0.5758241758241758,0.4432296047098402,1197.0
586.0,1.7109237158044964e+18,0.5130548302872062,0.365296803652968,0.31945945945945947,0.4937637564196625,0.5571428571428572,0.4314550042052145,1194.0
587.0,1.7109237158144855e+18,0.42689295039164493,0.3995433789954338,0.2789189189189189,0.45805820494008315,0.6505494505494506,0.4289318755256518,1196.0
588.0,1.710923715824488e+18,0.5039164490861618,0.3949771689497717,0.3081081081081081,0.47957935925654194,0.5318681318681319,0.42640874684608915,1195.0
589.0,1.7109237158344876e+18,0.4451697127937337,0.4246575342465753,0.32756756756756755,0.5167522621667889,0.6681318681318681,0.45164003364171573,1197.0
590.0,1.7109237158444902e+18,0.49869451697127937,0.4041095890410959,0.33405405405405403,0.49107361213010514,0.5747252747252747,0.4339781328847771,1195.0
591.0,1.710923715854451e+18,0.4360313315926893,0.4394977168949772,0.32972972972972975,0.4942528735632184,0.6824175824175824,0.4625735912531539,1197.0
592.0,1.710923715864491e+18,0.5026109660574413,0.3995433789954338,0.3145945945945946,0.4984103692834434,0.5527472527472528,0.4255677039529016,1195.0
593.0,1.7109237158744932e+18,0.44386422976501305,0.4178082191780822,0.3027027027027027,0.5108828564441183,0.7043956043956044,0.4667788057190917,1200.0
594.0,1.710923715884495e+18,0.5130548302872062,0.4041095890410959,0.34162162162162163,0.4974321349963316,0.5747252747252747,0.4213624894869638,1195.0
595.0,1.7109237158944914e+18,0.47780678851174935,0.4680365296803653,0.4243243243243243,0.5113719735876743,0.7417582417582418,0.4600504625735913,1197.0
596.0,1.7109237159044954e+18,0.5182767624020888,0.4269406392694064,0.3621621621621622,0.5101491807287846,0.6494505494505495,0.4280908326324643,1192.0
597.0,1.710923715914514e+18,0.4216710182767624,0.410958904109589,0.2935135135135135,0.4969430178527757,0.6857142857142857,0.45248107653490327,1193.0
598.0,1.7109237159244972e+18,0.5783289817232375,0.454337899543379,0.3810810810810811,0.5101491807287846,0.6164835164835165,0.479394449116905,1197.0
599.0,1.7109237159344899e+18,0.4216710182767624,0.4189497716894977,0.3281081081081081,0.4803130349718758,0.6846153846153846,0.4222035323801514,1194.0
600.0,1.7109237159444897e+18,0.5091383812010444,0.3995433789954338,0.34054054054054056,0.5018341892883346,0.5813186813186814,0.4465937762825904,1194.0
601.0,1.7109237159544893e+18,0.42950391644908614,0.4372146118721461,0.3535135135135135,0.5057471264367817,0.6725274725274726,0.4482758620689655,1197.0
602.0,1.7109237159644902e+18,0.44778067885117495,0.4178082191780822,0.34540540540540543,0.5008559550012228,0.5714285714285714,0.4247266610597141,1193.0
603.0,1.7109237159744899e+18,0.45300261096605743,0.4132420091324201,0.3075675675675676,0.49645390070921985,0.656043956043956,0.42640874684608915,1192.0
604.0,1.7109237159844946e+18,0.48825065274151436,0.4041095890410959,0.3264864864864865,0.49400831499144043,0.5879120879120879,0.4634146341463415,1197.0
605.0,1.71092371599449e+18,0.5,0.4269406392694064,0.3491891891891892,0.5035460992907801,0.6736263736263737,0.5046257359125316,1197.0
606.0,1.7109237160044915e+18,0.5182767624020888,0.4269406392694064,0.3643243243243243,0.5033015407190022,0.589010989010989,0.36248948696383515,1192.0
607.0,1.7109237160144886e+18,0.4765013054830287,0.4155251141552511,0.3254054054054054,0.5064808021521154,0.7824175824175824,0.5643397813288478,1198.0
608.0,1.7109237160244897e+18,0.5443864229765013,0.4372146118721461,0.36648648648648646,0.5035460992907801,0.5846153846153846,0.45500420521446594,1195.0
609.0,1.7109237160344924e+18,0.4347258485639687,0.4200913242009132,0.3372972972972973,0.5011005135730008,0.7472527472527473,0.3608074011774601,1195.0
610.0,1.7109237160444872e+18,0.4960835509138381,0.408675799086758,0.35135135135135137,0.4966984592809978,0.6010989010989011,0.4213624894869638,1195.0
611.0,1.7109237160544878e+18,0.4177545691906005,0.3984018264840183,0.30648648648648646,0.4913181707018831,0.6538461538461539,0.4314550042052145,1194.0
612.0,1.7109237160644908e+18,0.52088772845953,0.4143835616438356,0.3464864864864865,0.49229640498899485,0.5637362637362637,0.38519764507989906,1192.0
613.0,1.7109237160744916e+18,0.4308093994778068,0.4041095890410959,0.3145945945945946,0.49816581071166544,0.654945054945055,0.39781328847771236,1193.0
614.0,1.7109237160845092e+18,0.49477806788511747,0.4018264840182648,0.34216216216216216,0.5003668378576669,0.5714285714285714,0.43986543313709,1196.0
615.0,1.710923716094502e+18,0.4347258485639687,0.4178082191780822,0.3254054054054054,0.4991440449987772,0.643956043956044,0.4129520605550883,1195.0
616.0,1.7109237161045115e+18,0.5352480417754569,0.4006849315068493,0.33837837837837836,0.49107361213010514,0.5417582417582417,0.46173254835996635,1197.0
617.0,1.7109237161145116e+18,0.46736292428198434,0.4474885844748858,0.36864864864864866,0.504035216434336,0.6835164835164835,0.4693019343986543,1193.0
618.0,1.7109237161245463e+18,0.49216710182767626,0.386986301369863,0.3145945945945946,0.4944974321349963,0.5241758241758242,0.36585365853658536,1192.0
619.0,1.7109237161345106e+18,0.41906005221932113,0.4063926940639269,0.30594594594594593,0.5052580092932257,0.6263736263736264,0.4415475189234651,1194.0
620.0,1.7109237161444844e+18,0.5221932114882507,0.4257990867579909,0.35567567567567565,0.5057471264367817,0.5659340659340659,0.4146341463414634,1193.0
621.0,1.7109237161544663e+18,0.4464751958224543,0.4143835616438356,0.3248648648648649,0.4986549278552213,0.6406593406593407,0.4625735912531539,1197.0
622.0,1.7109237161645002e+18,0.5287206266318538,0.4429223744292237,0.37567567567567567,0.5057471264367817,0.5813186813186814,0.44911690496215306,1196.0
623.0,1.7109237161745062e+18,0.4007832898172324,0.4006849315068493,0.3232432432432432,0.49816581071166544,0.6571428571428571,0.4213624894869638,1193.0
624.0,1.710923716184513e+18,0.4725848563968668,0.3961187214611872,0.3464864864864865,0.4925409635607728,0.5362637362637362,0.3793103448275862,1193.0
625.0,1.7109237161945024e+18,0.41383812010443866,0.408675799086758,0.32594594594594595,0.5025678650036683,0.7021978021978021,0.5071488645920942,1196.0
626.0,1.7109237162045007e+18,0.4934725848563969,0.4018264840182648,0.3389189189189189,0.495720224993886,0.5703296703296703,0.4146341463414634,1192.0
627.0,1.7109237162144978e+18,0.4595300261096606,0.4052511415525114,0.31675675675675674,0.4988994864269993,0.7384615384615385,0.456686291000841,1197.0
628.0,1.710923716224507e+18,0.5130548302872062,0.4178082191780822,0.36324324324324325,0.48936170212765956,0.5758241758241758,0.44575273338940286,1195.0
629.0,1.7109237162345193e+18,0.4451697127937337,0.4509132420091324,0.3518918918918919,0.5116165321594522,0.7241758241758242,0.4449116904962153,1197.0
630.0,1.7109237162445087e+18,0.5078328981723238,0.4041095890410959,0.3427027027027027,0.4991440449987772,0.6032967032967033,0.4339781328847771,1193.0
631.0,1.7109237162545027e+18,0.4412532637075718,0.4132420091324201,0.3291891891891892,0.5069699192956714,0.7,0.4507989907485282,1195.0
632.0,1.7109237162644982e+18,0.38511749347258484,0.4178082191780822,0.3572972972972973,0.5001222792858889,0.5692307692307692,0.4760302775441548,1196.0
633.0,1.710923716274498e+18,0.52088772845953,0.4223744292237443,0.3145945945945946,0.5008559550012228,0.6483516483516484,0.4608915054667788,1198.0
634.0,1.7109237162844928e+18,0.4386422976501306,0.4063926940639269,0.31891891891891894,0.5113719735876743,0.5472527472527473,0.4112699747687132,1193.0
635.0,1.7109237162944835e+18,0.45039164490861616,0.410958904109589,0.3037837837837838,0.49400831499144043,0.6263736263736264,0.4432296047098402,1198.0
636.0,1.7109237163044936e+18,0.5391644908616188,0.4132420091324201,0.3264864864864865,0.504035216434336,0.5681318681318681,0.4255677039529016,1196.0
637.0,1.7109237163144876e+18,0.48825065274151436,0.4246575342465753,0.3864864864864865,0.4996331621423331,0.667032967032967,0.47098402018502944,1194.0
638.0,1.7109237163244823e+18,0.49869451697127937,0.3801369863013699,0.32054054054054054,0.49229640498899485,0.6373626373626373,0.42977291841883936,1195.0
639.0,1.710923716334492e+18,0.4086161879895561,0.3812785388127854,0.29945945945945945,0.49620934213744194,0.6285714285714286,0.4289318755256518,1194.0
640.0,1.710923716344495e+18,0.47127937336814624,0.3858447488584475,0.32756756756756755,0.5025678650036683,0.5868131868131868,0.4415475189234651,1195.0
641.0,1.710923716354483e+18,0.5039164490861618,0.4315068493150685,0.3178378378378378,0.5047688921496698,0.6428571428571429,0.44070647603027757,1195.0
642.0,1.7109237163644913e+18,0.49738903394255873,0.4121004566210046,0.3545945945945946,0.5006113964294449,0.5923076923076923,0.44238856181665265,1196.0
643.0,1.7109237163744937e+18,0.41906005221932113,0.4018264840182648,0.30594594594594593,0.5001222792858889,0.654945054945055,0.43650126156433977,1196.0
644.0,1.7109237163844928e+18,0.5130548302872062,0.4018264840182648,0.31891891891891894,0.49229640498899485,0.5296703296703297,0.4482758620689655,1195.0
645.0,1.7109237163944617e+18,0.4425587467362924,0.4360730593607306,0.3491891891891892,0.5023233064318905,0.6934065934065934,0.4432296047098402,1197.0
646.0,1.7109237164044984e+18,0.5104438642297651,0.4121004566210046,0.3248648648648649,0.5108828564441183,0.656043956043956,0.4306139613120269,1194.0
647.0,1.7109237164144878e+18,0.4086161879895561,0.4178082191780822,0.33675675675675676,0.4969430178527757,0.6824175824175824,0.4314550042052145,1192.0
648.0,1.7109237164244882e+18,0.5822454308093995,0.4269406392694064,0.3643243243243243,0.4984103692834434,0.5593406593406594,0.44238856181665265,1196.0
649.0,1.7109237164344916e+18,0.43733681462140994,0.4315068493150685,0.33783783783783783,0.5047688921496698,0.5989010989010989,0.4802354920100925,1197.0
650.0,1.7109237164444887e+18,0.5065274151436031,0.4098173515981735,0.33405405405405403,0.4966984592809978,0.5934065934065934,0.41968040370058873,1194.0
651.0,1.710923716454489e+18,0.4490861618798956,0.4075342465753425,0.31405405405405407,0.4944974321349963,0.6516483516483517,0.4146341463414634,1195.0
652.0,1.7109237164644864e+18,0.5391644908616188,0.4360730593607306,0.3772972972972973,0.5084372707263389,0.5989010989010989,0.4432296047098402,1197.0
653.0,1.7109237164744865e+18,0.4804177545691906,0.4257990867579909,0.3362162162162162,0.5008559550012228,0.6505494505494506,0.456686291000841,1199.0
654.0,1.7109237164844623e+18,0.5456919060052219,0.4577625570776256,0.38594594594594595,0.5172413793103449,0.6054945054945055,0.4449116904962153,1196.0
655.0,1.710923716494498e+18,0.46344647519582244,0.408675799086758,0.2935135135135135,0.499877720714111,0.6296703296703297,0.4213624894869638,1193.0
656.0,1.7109237165044823e+18,0.4046997389033943,0.3995433789954338,0.31945945945945947,0.4925409635607728,0.5901098901098901,0.4112699747687132,1193.0
657.0,1.7109237165144855e+18,0.4347258485639687,0.4315068493150685,0.4016216216216216,0.512350207874786,0.6901098901098901,0.47434819175777965,1194.0
658.0,1.7109237165244864e+18,0.4856396866840731,0.4212328767123288,0.33513513513513515,0.49620934213744194,0.567032967032967,0.4255677039529016,1194.0
659.0,1.7109237165345295e+18,0.47127937336814624,0.3904109589041096,0.31027027027027027,0.49400831499144043,0.6494505494505495,0.4280908326324643,1194.0
660.0,1.7109237165444928e+18,0.6566579634464752,0.430365296803653,0.35135135135135137,0.5015896307165566,0.5637362637362637,0.4163162321278385,1192.0
661.0,1.7109237165544906e+18,0.39947780678851175,0.4041095890410959,0.34540540540540543,0.5008559550012228,0.6648351648351648,0.45500420521446594,1196.0
662.0,1.710923716564488e+18,0.5026109660574413,0.4189497716894977,0.34756756756756757,0.5003668378576669,0.578021978021978,0.42977291841883936,1193.0
663.0,1.7109237165744883e+18,0.46475195822454307,0.3573059360730594,0.3075675675675676,0.48618244069454636,0.5802197802197803,0.4255677039529016,1194.0
664.0,1.7109237165844913e+18,0.5548302872062664,0.4257990867579909,0.35621621621621624,0.49767669356810956,0.5274725274725275,0.4348191757779647,1193.0
665.0,1.7109237165944914e+18,0.47127937336814624,0.4315068493150685,0.33405405405405403,0.5055025678650037,0.6648351648351648,0.3700588730025231,1193.0
666.0,1.7109237166044774e+18,0.5039164490861618,0.4178082191780822,0.34,0.4988994864269993,0.6164835164835165,0.45500420521446594,1197.0
667.0,1.7109237166144886e+18,0.4425587467362924,0.4292237442922374,0.3589189189189189,0.5047688921496698,0.6802197802197802,0.45836837678721615,1198.0
668.0,1.7109237166244887e+18,0.5182767624020888,0.4337899543378995,0.35621621621621624,0.5133284421618978,0.5527472527472528,0.4373423044575273,1195.0
669.0,1.7109237166344883e+18,0.4151436031331593,0.3892694063926941,0.31351351351351353,0.48985081927121543,0.6307692307692307,0.43566021867115223,1197.0
670.0,1.7109237166444943e+18,0.49216710182767626,0.3904109589041096,0.31567567567567567,0.49205184641721694,0.5615384615384615,0.4449116904962153,1195.0
671.0,1.7109237166545037e+18,0.41906005221932113,0.3915525114155251,0.31189189189189187,0.4888725849841037,0.6648351648351648,0.4533221194280908,1194.0
672.0,1.7109237166644887e+18,0.6018276762402088,0.4235159817351598,0.38594594594594595,0.5006113964294449,0.5714285714285714,0.432296047098402,1193.0
673.0,1.71092371667449e+18,0.4360313315926893,0.4189497716894977,0.312972972972973,0.5015896307165566,0.7065934065934066,0.4381833473507149,1196.0
674.0,1.7109237166844954e+18,0.45039164490861616,0.4143835616438356,0.3389189189189189,0.5020787478601125,0.5835164835164836,0.4449116904962153,1195.0
675.0,1.7109237166945037e+18,0.41906005221932113,0.3961187214611872,0.3178378378378378,0.49620934213744194,0.6329670329670329,0.4280908326324643,1194.0
676.0,1.710923716704486e+18,0.566579634464752,0.4018264840182648,0.3302702702702703,0.491807287845439,0.5956043956043956,0.43313708999158956,1193.0
677.0,1.7109237167144904e+18,0.4216710182767624,0.4383561643835616,0.40486486486486484,0.5079481535827831,0.6450549450549451,0.432296047098402,1192.0
678.0,1.710923716724488e+18,0.4960835509138381,0.4269406392694064,0.3389189189189189,0.49523110785033014,0.5923076923076923,0.43313708999158956,1194.0
679.0,1.710923716734487e+18,0.40992167101827676,0.4143835616438356,0.31513513513513514,0.49767669356810956,0.6626373626373626,0.4751892346509672,1196.0
680.0,1.7109237167445053e+18,0.5039164490861618,0.410958904109589,0.34540540540540543,0.495964783565664,0.545054945054945,0.432296047098402,1193.0
681.0,1.7109237167544937e+18,0.4412532637075718,0.4223744292237443,0.37189189189189187,0.5023233064318905,0.6681318681318681,0.4465937762825904,1197.0
682.0,1.7109237167644908e+18,0.46866840731070497,0.4132420091324201,0.3281081081081081,0.491562729273661,0.5230769230769231,0.42304457527333894,1192.0
683.0,1.7109237167744863e+18,0.44386422976501305,0.4063926940639269,0.312972972972973,0.4986549278552213,0.6494505494505495,0.4314550042052145,1193.0
684.0,1.7109237167845233e+18,0.5887728459530026,0.4178082191780822,0.34540540540540543,0.5055025678650037,0.5835164835164836,0.4878048780487805,1196.0
685.0,1.7109237167945142e+18,0.4255874673629243,0.4063926940639269,0.32054054054054054,0.49327463927610665,0.6626373626373626,0.42977291841883936,1191.0
686.0,1.7109237168044884e+18,0.47127937336814624,0.4121004566210046,0.3535135135135135,0.49523110785033014,0.6010989010989011,0.432296047098402,1193.0
687.0,1.7109237168144878e+18,0.4934725848563969,0.410958904109589,0.30648648648648646,0.5015896307165566,0.6604395604395604,0.432296047098402,1193.0
688.0,1.710923716824488e+18,0.6005221932114883,0.4315068493150685,0.3583783783783784,0.5023233064318905,0.5714285714285714,0.4381833473507149,1197.0
689.0,1.710923716834488e+18,0.304177545691906,0.4143835616438356,0.34324324324324323,0.49620934213744194,0.6208791208791209,0.41968040370058873,1195.0
690.0,1.7109237168444892e+18,0.5639686684073107,0.4189497716894977,0.42,0.5069699192956714,0.5747252747252747,0.4600504625735913,1196.0
691.0,1.7109237168544899e+18,0.4321148825065274,0.4200913242009132,0.3043243243243243,0.5028124235754463,0.689010989010989,0.43313708999158956,1194.0
692.0,1.7109237168644933e+18,0.5496083550913838,0.410958904109589,0.32216216216216215,0.5001222792858889,0.5472527472527473,0.4247266610597141,1192.0
693.0,1.7109237168744924e+18,0.4725848563968668,0.4337899543378995,0.3491891891891892,0.5089263878698949,0.6923076923076923,0.46509671993271656,1196.0
694.0,1.7109237168844964e+18,0.45039164490861616,0.4269406392694064,0.3551351351351351,0.5020787478601125,0.5417582417582417,0.42977291841883936,1192.0
695.0,1.7109237168944878e+18,0.3629242819843342,0.3904109589041096,0.33405405405405403,0.4996331621423331,0.6978021978021978,0.4465937762825904,1196.0
696.0,1.710923716904498e+18,0.566579634464752,0.4246575342465753,0.3254054054054054,0.49620934213744194,0.5835164835164836,0.4280908326324643,1192.0
697.0,1.710923716914495e+18,0.41906005221932113,0.4075342465753425,0.3232432432432432,0.5084372707263389,0.6230769230769231,0.4558452481076535,1194.0
698.0,1.7109237169244844e+18,0.48825065274151436,0.4018264840182648,0.32972972972972975,0.4986549278552213,0.6406593406593407,0.4179983179142136,1192.0
699.0,1.7109237169344868e+18,0.4595300261096606,0.4280821917808219,0.3637837837837838,0.5101491807287846,0.6538461538461539,0.46846089150546677,1195.0
700.0,1.710923716944485e+18,0.46866840731070497,0.4143835616438356,0.3091891891891892,0.5064808021521154,0.5835164835164836,0.4415475189234651,1196.0
701.0,1.7109237169545226e+18,0.39556135770234985,0.3949771689497717,0.31891891891891894,0.491807287845439,0.6406593406593407,0.4306139613120269,1192.0
702.0,1.7109237169644808e+18,0.49477806788511747,0.4155251141552511,0.35567567567567565,0.5025678650036683,0.5725274725274725,0.44575273338940286,1195.0
703.0,1.7109237169744852e+18,0.4556135770234987,0.4246575342465753,0.3318918918918919,0.4988994864269993,0.6681318681318681,0.4062237174095879,1192.0
704.0,1.7109237169844923e+18,0.5313315926892951,0.3995433789954338,0.32972972972972975,0.49645390070921985,0.5538461538461539,0.4179983179142136,1192.0
705.0,1.7109237169944937e+18,0.4216710182767624,0.3961187214611872,0.2718918918918919,0.49645390070921985,0.6626373626373626,0.4415475189234651,1196.0
706.0,1.7109237170044936e+18,0.5443864229765013,0.408675799086758,0.34702702702702704,0.49620934213744194,0.589010989010989,0.4432296047098402,1197.0
707.0,1.710923717014494e+18,0.391644908616188,0.4155251141552511,0.3286486486486486,0.49767669356810956,0.701098901098901,0.44070647603027757,1198.0
708.0,1.710923717024485e+18,0.5496083550913838,0.4417808219178082,0.33783783783783783,0.5067253607238934,0.610989010989011,0.471825063078217,1193.0
709.0,1.710923717034488e+18,0.4934725848563969,0.4041095890410959,0.3172972972972973,0.5015896307165566,0.6835164835164835,0.47098402018502944,1197.0
710.0,1.710923717044495e+18,0.5261096605744126,0.4098173515981735,0.33513513513513515,0.49645390070921985,0.5494505494505495,0.4247266610597141,1192.0
711.0,1.710923717054525e+18,0.43994778067885115,0.4075342465753425,0.3037837837837838,0.5020787478601125,0.6791208791208792,0.44238856181665265,1196.0
712.0,1.7109237170644895e+18,0.49869451697127937,0.3892694063926941,0.3172972972972973,0.5008559550012228,0.5978021978021978,0.4432296047098402,1198.0
713.0,1.7109237170744835e+18,0.304177545691906,0.4121004566210046,0.3232432432432432,0.49938860357055515,0.6450549450549451,0.4381833473507149,1197.0
714.0,1.710923717084484e+18,0.5587467362924282,0.4383561643835616,0.35621621621621624,0.5011005135730008,0.5747252747252747,0.4432296047098402,1197.0
715.0,1.7109237170945183e+18,0.39425587467362927,0.3938356164383562,0.3264864864864865,0.4937637564196625,0.654945054945055,0.4255677039529016,1194.0
716.0,1.71092371710449e+18,0.5652741514360313,0.4155251141552511,0.3372972972972973,0.4979212521398875,0.5802197802197803,0.4449116904962153,1197.0
717.0,1.7109237171144893e+18,0.40992167101827676,0.4257990867579909,0.33837837837837836,0.5055025678650037,0.6582417582417582,0.44911690496215306,1193.0
718.0,1.7109237171244861e+18,0.5039164490861618,0.4063926940639269,0.3335135135135135,0.5015896307165566,0.5813186813186814,0.43566021867115223,1196.0
719.0,1.710923717134485e+18,0.42297650130548303,0.4143835616438356,0.3362162162162162,0.5028124235754463,0.667032967032967,0.4432296047098402,1196.0
720.0,1.71092371714449e+18,0.5522193211488251,0.4280821917808219,0.3335135135135135,0.4988994864269993,0.6098901098901099,0.4289318755256518,1193.0
721.0,1.7109237171544934e+18,0.3577023498694517,0.3995433789954338,0.3162162162162162,0.5018341892883346,0.7,0.45500420521446594,1196.0
722.0,1.7109237171644964e+18,0.4765013054830287,0.3961187214611872,0.3016216216216216,0.49400831499144043,0.5615384615384615,0.432296047098402,1196.0
723.0,1.7109237171744886e+18,0.45691906005221933,0.4223744292237443,0.33135135135135135,0.5006113964294449,0.6604395604395604,0.46173254835996635,1196.0
724.0,1.7109237171844915e+18,0.5234986945169713,0.4178082191780822,0.31891891891891894,0.4991440449987772,0.5417582417582417,0.4289318755256518,1194.0
725.0,1.7109237171944952e+18,0.4908616187989556,0.3778538812785388,0.2967567567567568,0.4927855221325507,0.6516483516483517,0.4592094196804037,1195.0
726.0,1.7109237172044872e+18,0.4321148825065274,0.4052511415525114,0.3232432432432432,0.504279775006114,0.6164835164835165,0.4339781328847771,1192.0
727.0,1.7109237172144888e+18,0.5091383812010444,0.4143835616438356,0.31405405405405407,0.5011005135730008,0.6813186813186813,0.4482758620689655,1195.0
728.0,1.7109237172244882e+18,0.42036553524804177,0.3801369863013699,0.31513513513513514,0.4871606749816581,0.5989010989010989,0.4179983179142136,1193.0
729.0,1.7109237172344876e+18,0.577023498694517,0.408675799086758,0.34162162162162163,0.49767669356810956,0.6802197802197802,0.4533221194280908,1197.0
730.0,1.7109237172444895e+18,0.4308093994778068,0.3938356164383562,0.32216216216216215,0.4937637564196625,0.5769230769230769,0.42052144659377627,1194.0
731.0,1.7109237172544878e+18,0.4725848563968668,0.3892694063926941,0.3281081081081081,0.5145512350207875,0.7120879120879121,0.4465937762825904,1196.0
732.0,1.7109237172644977e+18,0.46736292428198434,0.4155251141552511,0.33135135135135135,0.5072144778674492,0.6395604395604395,0.45164003364171573,1193.0
733.0,1.71092371727449e+18,0.4321148825065274,0.4646118721461187,0.43783783783783786,0.5106382978723404,0.5791208791208792,0.43313708999158956,1193.0
734.0,1.7109237172844915e+18,0.4608355091383812,0.3904109589041096,0.3291891891891892,0.4954756664221081,0.5648351648351648,0.4179983179142136,1194.0
735.0,1.7109237172944906e+18,0.3368146214099217,0.4041095890410959,0.34054054054054056,0.4927855221325507,0.6285714285714286,0.45500420521446594,1195.0
736.0,1.7109237173044897e+18,0.5835509138381201,0.4200913242009132,0.3545945945945946,0.5072144778674492,0.6362637362637362,0.4289318755256518,1193.0
737.0,1.7109237173144927e+18,0.4699738903394256,0.4429223744292237,0.32972972972972975,0.5077035950110051,0.6703296703296703,0.4735071488645921,1194.0
738.0,1.7109237173244954e+18,0.49738903394255873,0.3732876712328767,0.3091891891891892,0.49523110785033014,0.554945054945055,0.4306139613120269,1192.0
739.0,1.7109237173344927e+18,0.48172323759791125,0.4292237442922374,0.31567567567567567,0.5094155050134507,0.6758241758241759,0.46509671993271656,1195.0
740.0,1.7109237173444925e+18,0.46475195822454307,0.3938356164383562,0.3172972972972973,0.4937637564196625,0.5714285714285714,0.4314550042052145,1192.0
741.0,1.710923717354494e+18,0.4386422976501306,0.4121004566210046,0.31891891891891894,0.5064808021521154,0.6857142857142857,0.4222035323801514,1194.0
742.0,1.7109237173644956e+18,0.489556135770235,0.3789954337899543,0.3172972972972973,0.5001222792858889,0.5868131868131868,0.4146341463414634,1194.0
743.0,1.7109237173744963e+18,0.4151436031331593,0.4029680365296804,0.312972972972973,0.5037906578625581,0.6791208791208792,0.4465937762825904,1196.0
744.0,1.7109237173845036e+18,0.4255874673629243,0.4006849315068493,0.34054054054054056,0.5028124235754463,0.5714285714285714,0.44575273338940286,1197.0
745.0,1.7109237173944975e+18,0.5039164490861618,0.4223744292237443,0.3264864864864865,0.5015896307165566,0.6736263736263737,0.4415475189234651,1196.0
746.0,1.7109237174044936e+18,0.5026109660574413,0.408675799086758,0.33675675675675676,0.5035460992907801,0.5824175824175825,0.43650126156433977,1197.0
747.0,1.7109237174145004e+18,0.5078328981723238,0.4029680365296804,0.28486486486486484,0.5084372707263389,0.6857142857142857,0.4415475189234651,1197.0
748.0,1.7109237174244972e+18,0.4347258485639687,0.4143835616438356,0.3708108108108108,0.5015896307165566,0.6164835164835165,0.42977291841883936,1193.0
749.0,1.7109237174344973e+18,0.42036553524804177,0.4360730593607306,0.387027027027027,0.5077035950110051,0.6989010989010989,0.45248107653490327,1198.0
750.0,1.7109237174444982e+18,0.5104438642297651,0.3961187214611872,0.30864864864864866,0.4991440449987772,0.5505494505494506,0.4247266610597141,1194.0
751.0,1.7109237174544983e+18,0.42689295039164493,0.4052511415525114,0.29405405405405405,0.5015896307165566,0.6307692307692307,0.447434819175778,1196.0
752.0,1.7109237174644992e+18,0.577023498694517,0.3812785388127854,0.3254054054054054,0.48936170212765956,0.5186813186813187,0.4272497897392767,1193.0
753.0,1.710923717474483e+18,0.48172323759791125,0.5091324200913242,0.43675675675675674,0.512350207874786,0.7208791208791209,0.49369217830109335,1197.0
754.0,1.7109237174845128e+18,0.4621409921671018,0.3721461187214612,0.3021621621621622,0.49620934213744194,0.5417582417582417,0.3902439024390244,1192.0
755.0,1.7109237174944998e+18,0.40992167101827676,0.4212328767123288,0.33513513513513515,0.5003668378576669,0.6846153846153846,0.4449116904962153,1193.0
756.0,1.7109237175045007e+18,0.5117493472584856,0.4075342465753425,0.33945945945945943,0.49938860357055515,0.5824175824175825,0.42977291841883936,1193.0
757.0,1.710923717514484e+18,0.42428198433420367,0.3926940639269406,0.31189189189189187,0.4979212521398875,0.6714285714285714,0.4558452481076535,1194.0
758.0,1.7109237175245012e+18,0.5182767624020888,0.3904109589041096,0.3,0.4937637564196625,0.567032967032967,0.4592094196804037,1196.0
759.0,1.7109237175345057e+18,0.4660574412532637,0.4098173515981735,0.3183783783783784,0.495964783565664,0.6857142857142857,0.4289318755256518,1193.0
760.0,1.7109237175444997e+18,0.37467362924281983,0.3732876712328767,0.31891891891891894,0.495720224993886,0.5263736263736264,0.432296047098402,1192.0
761.0,1.7109237175544824e+18,0.4765013054830287,0.4417808219178082,0.34594594594594597,0.5216434336023478,0.7505494505494505,0.46761984861227923,1198.0
762.0,1.710923717564503e+18,0.5052219321148825,0.408675799086758,0.34054054054054056,0.4988994864269993,0.5945054945054945,0.43313708999158956,1191.0
763.0,1.7109237175745044e+18,0.4516971279373368,0.410958904109589,0.30324324324324325,0.49474199070677427,0.6329670329670329,0.3894028595458368,1192.0
764.0,1.710923717584505e+18,0.5339425587467362,0.4406392694063927,0.35945945945945945,0.5037906578625581,0.6274725274725275,0.44911690496215306,1196.0
765.0,1.7109237175944847e+18,0.4164490861618799,0.4178082191780822,0.34324324324324323,0.5018341892883346,0.689010989010989,0.4659377628259041,1197.0
766.0,1.710923717604507e+18,0.4281984334203655,0.4075342465753425,0.3545945945945946,0.49474199070677427,0.5582417582417583,0.42304457527333894,1194.0
767.0,1.7109237176144896e+18,0.4556135770234987,0.4269406392694064,0.32432432432432434,0.4969430178527757,0.6681318681318681,0.46509671993271656,1197.0
768.0,1.7109237176244849e+18,0.5052219321148825,0.4098173515981735,0.34054054054054056,0.504524333577892,0.5483516483516484,0.43313708999158956,1193.0
769.0,1.710923717634483e+18,0.4046997389033943,0.4041095890410959,0.30486486486486486,0.4988994864269993,0.6758241758241759,0.4381833473507149,1198.0
770.0,1.7109237176444874e+18,0.5078328981723238,0.4189497716894977,0.3162162162162162,0.5006113964294449,0.5615384615384615,0.4348191757779647,1197.0
771.0,1.710923717654507e+18,0.4660574412532637,0.4200913242009132,0.37405405405405406,0.5035460992907801,0.6428571428571429,0.4558452481076535,1197.0
772.0,1.710923717664489e+18,0.4347258485639687,0.4132420091324201,0.3345945945945946,0.49767669356810956,0.5813186813186814,0.432296047098402,1193.0
773.0,1.7109237176744883e+18,0.44778067885117495,0.4372146118721461,0.3827027027027027,0.5028124235754463,0.5736263736263736,0.456686291000841,1199.0
774.0,1.7109237176844623e+18,0.4869451697127937,0.4063926940639269,0.34054054054054056,0.4974321349963316,0.5681318681318681,0.42640874684608915,1194.0
775.0,1.7109237176945183e+18,0.489556135770235,0.4189497716894977,0.32216216216216215,0.5018341892883346,0.6780219780219781,0.4432296047098402,1196.0
776.0,1.7109237177044895e+18,0.5652741514360313,0.5034246575342466,0.4610810810810811,0.5226216678894595,0.6538461538461539,0.4751892346509672,1197.0
777.0,1.710923717714485e+18,0.42428198433420367,0.3949771689497717,0.312972972972973,0.49327463927610665,0.6406593406593407,0.43650126156433977,1195.0
778.0,1.710923717724485e+18,0.49477806788511747,0.410958904109589,0.33675675675675676,0.5025678650036683,0.6065934065934065,0.4575273338940286,1197.0
779.0,1.7109237177344858e+18,0.54177545691906,0.4223744292237443,0.3248648648648649,0.5023233064318905,0.6593406593406593,0.43650126156433977,1195.0
780.0,1.7109237177445092e+18,0.5639686684073107,0.4200913242009132,0.2972972972972973,0.5047688921496698,0.5758241758241758,0.4087468460891506,1195.0
781.0,1.7109237177544522e+18,0.43733681462140994,0.4280821917808219,0.31189189189189187,0.5086818292981169,0.6714285714285714,0.4634146341463415,1196.0
782.0,1.710923717764489e+18,0.4751958224543081,0.4098173515981735,0.32972972972972975,0.4966984592809978,0.5417582417582417,0.4121110176619008,1193.0
783.0,1.710923717774495e+18,0.4386422976501306,0.4178082191780822,0.3254054054054054,0.5020787478601125,0.6725274725274726,0.4449116904962153,1196.0
784.0,1.7109237177845123e+18,0.49216710182767626,0.408675799086758,0.32432432432432434,0.4986549278552213,0.5714285714285714,0.4314550042052145,1193.0
785.0,1.7109237177944942e+18,0.4869451697127937,0.4383561643835616,0.35783783783783785,0.5035460992907801,0.654945054945055,0.471825063078217,1196.0
786.0,1.7109237178045092e+18,0.48825065274151436,0.4018264840182648,0.32,0.495964783565664,0.5703296703296703,0.4247266610597141,1193.0
787.0,1.7109237178144893e+18,0.391644908616188,0.4063926940639269,0.31891891891891894,0.4991440449987772,0.6538461538461539,0.43566021867115223,1196.0
788.0,1.71092371782449e+18,0.3433420365535248,0.3926940639269406,0.32,0.48520420640743456,0.5560439560439561,0.4121110176619008,1193.0
789.0,1.7109237178344873e+18,0.46344647519582244,0.4429223744292237,0.3956756756756757,0.5162631450232331,0.7164835164835165,0.4735071488645921,1198.0
790.0,1.7109237178445225e+18,0.47911227154047,0.3995433789954338,0.3248648648648649,0.49620934213744194,0.5868131868131868,0.44238856181665265,1195.0
791.0,1.7109237178544932e+18,0.4360313315926893,0.4063926940639269,0.32,0.5037906578625581,0.7032967032967034,0.4415475189234651,1196.0
792.0,1.710923717864485e+18,0.5404699738903395,0.4041095890410959,0.35081081081081084,0.5030569821472243,0.5703296703296703,0.4348191757779647,1196.0
793.0,1.7109237178744865e+18,0.4216710182767624,0.3812785388127854,0.29621621621621624,0.4927855221325507,0.6417582417582418,0.432296047098402,1195.0
794.0,1.7109237178844936e+18,0.4556135770234987,0.432648401826484,0.3567567567567568,0.5018341892883346,0.5758241758241758,0.4280908326324643,1194.0
795.0,1.7109237178945393e+18,0.43733681462140994,0.3881278538812785,0.33135135135135135,0.4859378821227684,0.6329670329670329,0.4339781328847771,1194.0
796.0,1.7109237179044966e+18,0.5234986945169713,0.4098173515981735,0.37675675675675674,0.49645390070921985,0.6395604395604395,0.4415475189234651,1197.0
797.0,1.7109237179144973e+18,0.4556135770234987,0.4006849315068493,0.3216216216216216,0.5020787478601125,0.6956043956043956,0.43650126156433977,1193.0
798.0,1.7109237179244895e+18,0.49869451697127937,0.4132420091324201,0.34054054054054056,0.4966984592809978,0.5505494505494506,0.4179983179142136,1192.0
799.0,1.7109237179344865e+18,0.44778067885117495,0.4178082191780822,0.3362162162162162,0.4996331621423331,0.6351648351648351,0.38772077375946173,1195.0
800.0,1.710923717944524e+18,0.489556135770235,0.4132420091324201,0.3281081081081081,0.4986549278552213,0.5505494505494506,0.42052144659377627,1193.0
801.0,1.7109237179545014e+18,0.4347258485639687,0.4063926940639269,0.33675675675675676,0.5015896307165566,0.6461538461538462,0.42977291841883936,1194.0
802.0,1.710923717964486e+18,0.5143603133159269,0.4098173515981735,0.3345945945945946,0.49474199070677427,0.6010989010989011,0.43902439024390244,1196.0
803.0,1.7109237179744888e+18,0.46866840731070497,0.3995433789954338,0.3043243243243243,0.495720224993886,0.6582417582417582,0.43566021867115223,1196.0
804.0,1.7109237179844905e+18,0.49216710182767626,0.3926940639269406,0.31405405405405407,0.499877720714111,0.6472527472527473,0.4289318755256518,1195.0
805.0,1.710923717994491e+18,0.4281984334203655,0.4166666666666667,0.2989189189189189,0.5147957935925654,0.6714285714285714,0.46846089150546677,1195.0
806.0,1.7109237180044815e+18,0.52088772845953,0.4052511415525114,0.3286486486486486,0.4900953778429934,0.545054945054945,0.4381833473507149,1197.0
807.0,1.7109237180144878e+18,0.40992167101827676,0.3915525114155251,0.3216216216216216,0.49498654927855223,0.6604395604395604,0.43566021867115223,1197.0
808.0,1.7109237180244882e+18,0.5156657963446475,0.4212328767123288,0.3643243243243243,0.4979212521398875,0.545054945054945,0.4112699747687132,1193.0
809.0,1.7109237180344842e+18,0.5182767624020888,0.3926940639269406,0.29081081081081084,0.5008559550012228,0.6681318681318681,0.42304457527333894,1194.0
810.0,1.7109237180444936e+18,0.45822454308093996,0.4121004566210046,0.35027027027027025,0.49498654927855223,0.5703296703296703,0.4339781328847771,1194.0
811.0,1.7109237180544963e+18,0.4360313315926893,0.3949771689497717,0.2843243243243243,0.5001222792858889,0.6472527472527473,0.44575273338940286,1197.0
812.0,1.71092371806449e+18,0.5496083550913838,0.4075342465753425,0.3254054054054054,0.491807287845439,0.6175824175824176,0.4465937762825904,1194.0
813.0,1.710923718074487e+18,0.4255874673629243,0.430365296803653,0.3902702702702703,0.4988994864269993,0.6472527472527473,0.4280908326324643,1193.0
814.0,1.7109237180845074e+18,0.4177545691906005,0.3938356164383562,0.3643243243243243,0.5074590364392272,0.5175824175824176,0.42640874684608915,1192.0
815.0,1.7109237180944968e+18,0.46736292428198434,0.4052511415525114,0.34378378378378377,0.4996331621423331,0.6582417582417582,0.4507989907485282,1197.0
816.0,1.7109237181044928e+18,0.45039164490861616,0.4269406392694064,0.35945945945945945,0.5106382978723404,0.5978021978021978,0.4381833473507149,1196.0
817.0,1.7109237181144963e+18,0.46736292428198434,0.4063926940639269,0.3227027027027027,0.5008559550012228,0.689010989010989,0.44911690496215306,1195.0
818.0,1.7109237181244923e+18,0.5261096605744126,0.4269406392694064,0.3281081081081081,0.4991440449987772,0.5956043956043956,0.3902439024390244,1193.0
819.0,1.710923718134491e+18,0.3002610966057441,0.3573059360730594,0.2891891891891892,0.49474199070677427,0.6010989010989011,0.41042893187552565,1195.0
820.0,1.7109237181444948e+18,0.5443864229765013,0.4280821917808219,0.32756756756756755,0.5106382978723404,0.6241758241758242,0.4381833473507149,1196.0
821.0,1.7109237181544893e+18,0.4164490861618799,0.4063926940639269,0.2789189189189189,0.4991440449987772,0.6978021978021978,0.4575273338940286,1197.0
822.0,1.710923718164493e+18,0.48433420365535246,0.4018264840182648,0.34162162162162163,0.49523110785033014,0.5857142857142857,0.42977291841883936,1195.0
823.0,1.7109237181744855e+18,0.4830287206266319,0.4075342465753425,0.3162162162162162,0.49938860357055515,0.6483516483516484,0.46509671993271656,1198.0
824.0,1.7109237181844918e+18,0.49477806788511747,0.4269406392694064,0.3708108108108108,0.5035460992907801,0.5857142857142857,0.45500420521446594,1196.0
825.0,1.710923718194488e+18,0.4360313315926893,0.4098173515981735,0.32054054054054054,0.5011005135730008,0.6934065934065934,0.4339781328847771,1195.0
826.0,1.7109237182044938e+18,0.4960835509138381,0.4223744292237443,0.33783783783783783,0.5118610907312301,0.5989010989010989,0.4373423044575273,1197.0
827.0,1.7109237182144952e+18,0.52088772845953,0.4520547945205479,0.3567567567567568,0.5172413793103449,0.6978021978021978,0.456686291000841,1198.0
828.0,1.7109237182244908e+18,0.5182767624020888,0.4269406392694064,0.34216216216216216,0.5008559550012228,0.5769230769230769,0.43566021867115223,1196.0
829.0,1.7109237182344911e+18,0.5404699738903395,0.4235159817351598,0.3567567567567568,0.504035216434336,0.676923076923077,0.4348191757779647,1198.0
830.0,1.7109237182445012e+18,0.4007832898172324,0.4189497716894977,0.3443243243243243,0.5057471264367817,0.6791208791208792,0.456686291000841,1197.0
831.0,1.7109237182544942e+18,0.4112271540469974,0.4041095890410959,0.3291891891891892,0.495964783565664,0.6472527472527473,0.4482758620689655,1196.0
832.0,1.7109237182644867e+18,0.4725848563968668,0.4360730593607306,0.3881081081081081,0.5094155050134507,0.5824175824175825,0.4280908326324643,1193.0
833.0,1.7109237182744906e+18,0.46344647519582244,0.3915525114155251,0.30972972972972973,0.5064808021521154,0.656043956043956,0.4415475189234651,1195.0
834.0,1.7109237182844992e+18,0.5234986945169713,0.4417808219178082,0.37405405405405406,0.5028124235754463,0.6065934065934065,0.45836837678721615,1197.0
835.0,1.7109237182944115e+18,0.4386422976501306,0.4292237442922374,0.3281081081081081,0.5094155050134507,0.6626373626373626,0.4440706476030278,1195.0
836.0,1.710923718304485e+18,0.4164490861618799,0.4052511415525114,0.34864864864864864,0.4942528735632184,0.5395604395604395,0.4188393608074012,1194.0
837.0,1.7109237183144911e+18,0.41383812010443866,0.3961187214611872,0.307027027027027,0.495720224993886,0.6978021978021978,0.44575273338940286,1197.0
838.0,1.710923718324489e+18,0.5156657963446475,0.3961187214611872,0.3318918918918919,0.4927855221325507,0.5582417582417583,0.4247266610597141,1192.0
839.0,1.7109237183344916e+18,0.39295039164490864,0.4098173515981735,0.31189189189189187,0.5052580092932257,0.6538461538461539,0.4507989907485282,1197.0
840.0,1.710923718344493e+18,0.48825065274151436,0.4052511415525114,0.3362162162162162,0.4996331621423331,0.5901098901098901,0.41968040370058873,1195.0
841.0,1.7109237183544916e+18,0.4151436031331593,0.4315068493150685,0.37189189189189187,0.5057471264367817,0.6472527472527473,0.4600504625735913,1197.0
842.0,1.7109237183644908e+18,0.49869451697127937,0.4121004566210046,0.34594594594594597,0.5015896307165566,0.5846153846153846,0.447434819175778,1197.0
843.0,1.710923718374488e+18,0.40600522193211486,0.4132420091324201,0.3145945945945946,0.5001222792858889,0.6615384615384615,0.4247266610597141,1193.0
844.0,1.7109237183844815e+18,0.6370757180156658,0.4235159817351598,0.3172972972972973,0.5008559550012228,0.6593406593406593,0.4575273338940286,1197.0
845.0,1.7109237183944914e+18,0.48825065274151436,0.454337899543379,0.3881081081081081,0.5143066764490095,0.6637362637362637,0.4432296047098402,1195.0
846.0,1.7109237184044884e+18,0.4960835509138381,0.4178082191780822,0.36162162162162165,0.5064808021521154,0.6274725274725275,0.4213624894869638,1194.0
847.0,1.710923718414488e+18,0.43733681462140994,0.3881278538812785,0.29621621621621624,0.49498654927855223,0.6604395604395604,0.4432296047098402,1197.0
848.0,1.7109237184244892e+18,0.5339425587467362,0.3881278538812785,0.2983783783783784,0.495720224993886,0.589010989010989,0.4129520605550883,1194.0
849.0,1.7109237184344975e+18,0.4164490861618799,0.3972602739726027,0.3302702702702703,0.4988994864269993,0.6274725274725275,0.44070647603027757,1197.0
850.0,1.7109237184445053e+18,0.4556135770234987,0.4235159817351598,0.33675675675675676,0.49523110785033014,0.5736263736263736,0.4146341463414634,1195.0
851.0,1.7109237184544922e+18,0.5078328981723238,0.4200913242009132,0.3043243243243243,0.5011005135730008,0.7593406593406593,0.49369217830109335,1198.0
852.0,1.7109237184644938e+18,0.5313315926892951,0.4178082191780822,0.34594594594594597,0.4974321349963316,0.5615384615384615,0.4222035323801514,1194.0
853.0,1.7109237184744888e+18,0.5339425587467362,0.4383561643835616,0.3621621621621622,0.5003668378576669,0.6527472527472528,0.42640874684608915,1194.0
854.0,1.710923718484491e+18,0.4660574412532637,0.4189497716894977,0.33405405405405403,0.5006113964294449,0.5879120879120879,0.4306139613120269,1196.0
855.0,1.7109237184945044e+18,0.3028720626631854,0.3915525114155251,0.3027027027027027,0.49523110785033014,0.667032967032967,0.44911690496215306,1194.0
856.0,1.7109237185044795e+18,0.42428198433420367,0.3949771689497717,0.31513513513513514,0.5033015407190022,0.6131868131868132,0.42977291841883936,1192.0
857.0,1.7109237185144924e+18,0.4699738903394256,0.3995433789954338,0.31027027027027027,0.499877720714111,0.6472527472527473,0.4163162321278385,1193.0
858.0,1.7109237185244923e+18,0.5469973890339426,0.4417808219178082,0.3956756756756757,0.5096600635852286,0.6186813186813187,0.456686291000841,1196.0
859.0,1.7109237185344911e+18,0.42428198433420367,0.4052511415525114,0.3232432432432432,0.4937637564196625,0.6593406593406593,0.4247266610597141,1196.0
860.0,1.7109237185445005e+18,0.5078328981723238,0.4178082191780822,0.35621621621621624,0.4991440449987772,0.5912087912087912,0.4381833473507149,1197.0
861.0,1.7109237185544814e+18,0.48172323759791125,0.4018264840182648,0.3016216216216216,0.4979212521398875,0.6758241758241759,0.44575273338940286,1197.0
862.0,1.7109237185644872e+18,0.49738903394255873,0.4315068493150685,0.35621621621621624,0.5055025678650037,0.589010989010989,0.4667788057190917,1199.0
863.0,1.7109237185744937e+18,0.5078328981723238,0.4235159817351598,0.32594594594594595,0.499877720714111,0.6087912087912087,0.44575273338940286,1197.0
864.0,1.710923718584492e+18,0.5130548302872062,0.4063926940639269,0.3372972972972973,0.4969430178527757,0.5472527472527473,0.44575273338940286,1198.0
865.0,1.7109237185944927e+18,0.2885117493472585,0.384703196347032,0.31945945945945947,0.49229640498899485,0.6505494505494506,0.43902439024390244,1197.0
866.0,1.7109237186044938e+18,0.4725848563968668,0.4143835616438356,0.34540540540540543,0.49620934213744194,0.5802197802197803,0.43313708999158956,1192.0
867.0,1.7109237186144876e+18,0.42689295039164493,0.4006849315068493,0.3075675675675676,0.5001222792858889,0.6747252747252748,0.44575273338940286,1198.0
868.0,1.7109237186244902e+18,0.49869451697127937,0.4098173515981735,0.3643243243243243,0.5015896307165566,0.6098901098901099,0.4449116904962153,1195.0
869.0,1.7109237186344904e+18,0.4516971279373368,0.3995433789954338,0.29621621621621624,0.49205184641721694,0.6395604395604395,0.432296047098402,1194.0
870.0,1.7109237186444918e+18,0.4856396866840731,0.4155251141552511,0.3410810810810811,0.495964783565664,0.6296703296703297,0.4541631623212784,1195.0
871.0,1.710923718654505e+18,0.5182767624020888,0.4143835616438356,0.3410810810810811,0.5006113964294449,0.6978021978021978,0.4213624894869638,1195.0
872.0,1.7109237186644913e+18,0.5783289817232375,0.4452054794520548,0.32756756756756755,0.512350207874786,0.6054945054945055,0.44238856181665265,1199.0
873.0,1.7109237186744978e+18,0.5639686684073107,0.4178082191780822,0.3172972972972973,0.495964783565664,0.6142857142857143,0.43650126156433977,1196.0
874.0,1.7109237186844928e+18,0.42297650130548303,0.4052511415525114,0.33837837837837836,0.5008559550012228,0.5989010989010989,0.4339781328847771,1194.0
875.0,1.7109237186944914e+18,0.4151436031331593,0.3778538812785388,0.31135135135135134,0.49938860357055515,0.6373626373626373,0.4600504625735913,1197.0
876.0,1.7109237187044856e+18,0.47127937336814624,0.3881278538812785,0.3264864864864865,0.48936170212765956,0.5626373626373626,0.432296047098402,1195.0
877.0,1.71092371871449e+18,0.45822454308093996,0.4292237442922374,0.3308108108108108,0.5140621178772316,0.6758241758241759,0.45500420521446594,1196.0
878.0,1.71092371872449e+18,0.5039164490861618,0.4406392694063927,0.40756756756756757,0.5069699192956714,0.5967032967032967,0.4348191757779647,1195.0
879.0,1.7109237187344927e+18,0.5352480417754569,0.4657534246575342,0.40216216216216216,0.5084372707263389,0.7252747252747253,0.44575273338940286,1198.0
880.0,1.7109237187444915e+18,0.5248041775456919,0.4497716894977169,0.3772972972972973,0.5096600635852286,0.6120879120879121,0.4449116904962153,1197.0
881.0,1.7109237187544955e+18,0.45691906005221933,0.4041095890410959,0.3145945945945946,0.504279775006114,0.6274725274725275,0.432296047098402,1193.0
882.0,1.710923718764496e+18,0.4608355091383812,0.3881278538812785,0.33297297297297296,0.4942528735632184,0.510989010989011,0.43986543313709,1194.0
883.0,1.710923718774495e+18,0.3968668407310705,0.4200913242009132,0.37513513513513513,0.5047688921496698,0.6604395604395604,0.45248107653490327,1197.0
884.0,1.7109237187844974e+18,0.4908616187989556,0.4349315068493151,0.3362162162162162,0.495964783565664,0.6428571428571429,0.456686291000841,1194.0
885.0,1.7109237187945183e+18,0.40992167101827676,0.3926940639269406,0.34,0.4937637564196625,0.6494505494505495,0.44575273338940286,1195.0
886.0,1.7109237188045059e+18,0.47389033942558745,0.4178082191780822,0.35081081081081084,0.5001222792858889,0.5923076923076923,0.42977291841883936,1193.0
887.0,1.7109237188144957e+18,0.46866840731070497,0.4406392694063927,0.35783783783783785,0.5116165321594522,0.6494505494505495,0.42304457527333894,1196.0
888.0,1.710923718824493e+18,0.45691906005221933,0.4075342465753425,0.33135135135135135,0.49938860357055515,0.6241758241758242,0.4348191757779647,1197.0
889.0,1.710923718834493e+18,0.41383812010443866,0.4132420091324201,0.33513513513513515,0.49400831499144043,0.6329670329670329,0.4381833473507149,1196.0
890.0,1.710923718844539e+18,0.5287206266318538,0.4223744292237443,0.3389189189189189,0.5062362435803375,0.5879120879120879,0.43313708999158956,1194.0
891.0,1.7109237188545096e+18,0.42036553524804177,0.3972602739726027,0.3254054054054054,0.4996331621423331,0.6802197802197802,0.4440706476030278,1198.0
892.0,1.7109237188644974e+18,0.4595300261096606,0.4223744292237443,0.3708108108108108,0.5089263878698949,0.545054945054945,0.44238856181665265,1195.0
893.0,1.7109237188744945e+18,0.46736292428198434,0.4246575342465753,0.3037837837837838,0.5037906578625581,0.6725274725274726,0.45164003364171573,1197.0
894.0,1.7109237188844977e+18,0.489556135770235,0.4257990867579909,0.3535135135135135,0.5059916850085595,0.6186813186813187,0.43566021867115223,1197.0
895.0,1.7109237188944993e+18,0.42036553524804177,0.4132420091324201,0.33405405405405403,0.499877720714111,0.6494505494505495,0.4306139613120269,1193.0
896.0,1.7109237189045038e+18,0.4516971279373368,0.4041095890410959,0.3291891891891892,0.49205184641721694,0.5835164835164836,0.4314550042052145,1194.0
897.0,1.7109237189144998e+18,0.4255874673629243,0.3835616438356164,0.31945945945945947,0.4925409635607728,0.643956043956044,0.4247266610597141,1192.0
898.0,1.7109237189245007e+18,0.45300261096605743,0.4212328767123288,0.34486486486486484,0.5018341892883346,0.6153846153846154,0.4381833473507149,1195.0
899.0,1.7109237189345e+18,0.45300261096605743,0.4246575342465753,0.3491891891891892,0.5057471264367817,0.6802197802197802,0.45500420521446594,1197.0
900.0,1.7109237189444882e+18,0.47389033942558745,0.4200913242009132,0.32756756756756755,0.5055025678650037,0.6527472527472528,0.4659377628259041,1195.0
901.0,1.7109237189545093e+18,0.49738903394255873,0.4280821917808219,0.3535135135135135,0.504035216434336,0.6472527472527473,0.44070647603027757,1199.0
902.0,1.7109237189644984e+18,0.4412532637075718,0.4337899543378995,0.37135135135135133,0.512350207874786,0.6021978021978022,0.432296047098402,1194.0
903.0,1.7109237189744996e+18,0.43733681462140994,0.4223744292237443,0.34702702702702704,0.5015896307165566,0.6747252747252748,0.4634146341463415,1196.0
904.0,1.7109237189845038e+18,0.41906005221932113,0.408675799086758,0.36,0.5035460992907801,0.6472527472527473,0.43566021867115223,1195.0
905.0,1.7109237189944896e+18,0.52088772845953,0.4098173515981735,0.2913513513513514,0.5020787478601125,0.6483516483516484,0.46173254835996635,1195.0
906.0,1.7109237190044877e+18,0.4621409921671018,0.4235159817351598,0.36648648648648646,0.5020787478601125,0.5978021978021978,0.4238856181665265,1192.0
907.0,1.7109237190144937e+18,0.46736292428198434,0.4143835616438356,0.3145945945945946,0.49938860357055515,0.6296703296703297,0.4667788057190917,1198.0
908.0,1.7109237190245053e+18,0.49477806788511747,0.4223744292237443,0.33837837837837836,0.508192712154561,0.6164835164835165,0.46846089150546677,1196.0
909.0,1.7109237190344878e+18,0.48172323759791125,0.4200913242009132,0.32594594594594595,0.5015896307165566,0.6450549450549451,0.4314550042052145,1195.0
910.0,1.7109237190444882e+18,0.4464751958224543,0.3972602739726027,0.3308108108108108,0.4969430178527757,0.5978021978021978,0.4339781328847771,1194.0
911.0,1.7109237190544878e+18,0.4516971279373368,0.3995433789954338,0.3037837837837838,0.5055025678650037,0.6450549450549451,0.4339781328847771,1193.0
912.0,1.7109237190644836e+18,0.47780678851174935,0.4178082191780822,0.33675675675675676,0.499877720714111,0.6,0.4482758620689655,1198.0
913.0,1.7109237190744965e+18,0.42297650130548303,0.4018264840182648,0.31891891891891894,0.5006113964294449,0.654945054945055,0.4415475189234651,1197.0
914.0,1.7109237190844948e+18,0.5378590078328982,0.4029680365296804,0.3005405405405405,0.49816581071166544,0.5923076923076923,0.432296047098402,1194.0
915.0,1.7109237190944868e+18,0.4308093994778068,0.3995433789954338,0.3291891891891892,0.49816581071166544,0.656043956043956,0.44238856181665265,1197.0
916.0,1.710923719104487e+18,0.48433420365535246,0.4257990867579909,0.33837837837837836,0.4979212521398875,0.621978021978022,0.4415475189234651,1195.0
917.0,1.7109237191144865e+18,0.5,0.4178082191780822,0.32432432432432434,0.5064808021521154,0.6637362637362637,0.43650126156433977,1193.0
918.0,1.7109237191244874e+18,0.5326370757180157,0.4246575342465753,0.3362162162162162,0.5011005135730008,0.6065934065934065,0.4415475189234651,1197.0
919.0,1.7109237191344906e+18,0.4516971279373368,0.4315068493150685,0.35783783783783785,0.5055025678650037,0.634065934065934,0.4415475189234651,1195.0
920.0,1.7109237191444872e+18,0.4490861618798956,0.3938356164383562,0.31675675675675674,0.49474199070677427,0.610989010989011,0.4306139613120269,1194.0
921.0,1.710923719154487e+18,0.5287206266318538,0.4394977168949772,0.3589189189189189,0.5077035950110051,0.6780219780219781,0.44575273338940286,1194.0
922.0,1.7109237191645138e+18,0.4451697127937337,0.4041095890410959,0.31027027027027027,0.5094155050134507,0.6142857142857143,0.4247266610597141,1194.0
923.0,1.710923719174491e+18,0.3720626631853786,0.4075342465753425,0.3232432432432432,0.4986549278552213,0.6626373626373626,0.4255677039529016,1193.0
924.0,1.7109237191844856e+18,0.5078328981723238,0.4166666666666667,0.33297297297297296,0.48936170212765956,0.5648351648351648,0.432296047098402,1192.0
925.0,1.7109237191944906e+18,0.4660574412532637,0.4497716894977169,0.41621621621621624,0.5113719735876743,0.6868131868131868,0.46509671993271656,1196.0
926.0,1.7109237192044864e+18,0.4595300261096606,0.4052511415525114,0.32594594594594595,0.5008559550012228,0.6505494505494506,0.4339781328847771,1194.0
927.0,1.7109237192145147e+18,0.49216710182767626,0.4486301369863014,0.3427027027027027,0.5072144778674492,0.6923076923076923,0.4735071488645921,1197.0
928.0,1.7109237192244928e+18,0.4908616187989556,0.4178082191780822,0.32432432432432434,0.5035460992907801,0.5846153846153846,0.4255677039529016,1193.0
929.0,1.7109237192344689e+18,0.5117493472584856,0.4155251141552511,0.34756756756756757,0.49474199070677427,0.6604395604395604,0.40454163162321277,1195.0
930.0,1.71092371924449e+18,0.49738903394255873,0.4235159817351598,0.3216216216216216,0.5035460992907801,0.6307692307692307,0.4465937762825904,1195.0
931.0,1.7109237192544911e+18,0.47911227154047,0.4063926940639269,0.2967567567567568,0.5086818292981169,0.7296703296703296,0.45500420521446594,1196.0
932.0,1.7109237192644938e+18,0.42036553524804177,0.4029680365296804,0.3372972972972973,0.49767669356810956,0.5934065934065934,0.4289318755256518,1194.0
933.0,1.710923719274492e+18,0.47389033942558745,0.4178082191780822,0.32972972972972975,0.5015896307165566,0.6956043956043956,0.456686291000841,1197.0
934.0,1.7109237192844838e+18,0.3877284595300261,0.3949771689497717,0.3291891891891892,0.49523110785033014,0.6010989010989011,0.4482758620689655,1197.0
935.0,1.710923719294495e+18,0.45822454308093996,0.4315068493150685,0.34702702702702704,0.5013450721447786,0.6362637362637362,0.4449116904962153,1194.0
936.0,1.7109237193044954e+18,0.5496083550913838,0.4315068493150685,0.3362162162162162,0.508192712154561,0.6043956043956044,0.43313708999158956,1194.0
937.0,1.7109237193144945e+18,0.5195822454308094,0.4189497716894977,0.3324324324324324,0.5015896307165566,0.5956043956043956,0.4659377628259041,1196.0
938.0,1.7109237193244966e+18,0.4164490861618799,0.4178082191780822,0.34756756756756757,0.5035460992907801,0.6098901098901099,0.4146341463414634,1194.0
939.0,1.7109237193344868e+18,0.42297650130548303,0.4063926940639269,0.33783783783783783,0.49816581071166544,0.6494505494505495,0.4289318755256518,1193.0
940.0,1.7109237193444785e+18,0.5287206266318538,0.3904109589041096,0.31027027027027027,0.5015896307165566,0.5835164835164836,0.4415475189234651,1193.0
941.0,1.7109237193544837e+18,0.42036553524804177,0.3995433789954338,0.3043243243243243,0.49498654927855223,0.6406593406593407,0.4415475189234651,1197.0
942.0,1.7109237193644815e+18,0.5169712793733682,0.4143835616438356,0.34594594594594597,0.5015896307165566,0.5791208791208792,0.432296047098402,1195.0
943.0,1.7109237193744911e+18,0.46475195822454307,0.3915525114155251,0.31675675675675674,0.49498654927855223,0.6362637362637362,0.4415475189234651,1198.0
944.0,1.7109237193844936e+18,0.4216710182767624,0.3984018264840183,0.3183783783783784,0.5055025678650037,0.6274725274725275,0.4289318755256518,1194.0
945.0,1.7109237193944724e+18,0.4360313315926893,0.4212328767123288,0.3248648648648649,0.5006113964294449,0.6956043956043956,0.4533221194280908,1196.0
946.0,1.7109237194044884e+18,0.4765013054830287,0.408675799086758,0.33837837837837836,0.4974321349963316,0.6,0.4348191757779647,1197.0
947.0,1.7109237194144786e+18,0.4464751958224543,0.4452054794520548,0.3881081081081081,0.5037906578625581,0.6406593406593407,0.4095878889823381,1195.0
948.0,1.7109237194244995e+18,0.49738903394255873,0.3949771689497717,0.30864864864864866,0.49327463927610665,0.5989010989010989,0.4432296047098402,1195.0
949.0,1.710923719434493e+18,0.42036553524804177,0.4052511415525114,0.30486486486486486,0.49938860357055515,0.6241758241758242,0.4247266610597141,1194.0
950.0,1.7109237194444874e+18,0.5248041775456919,0.4098173515981735,0.3335135135135135,0.5015896307165566,0.6703296703296703,0.447434819175778,1195.0
951.0,1.710923719454487e+18,0.4556135770234987,0.4018264840182648,0.3216216216216216,0.49938860357055515,0.6802197802197802,0.4440706476030278,1196.0
952.0,1.7109237194644846e+18,0.4869451697127937,0.4075342465753425,0.35783783783783785,0.491807287845439,0.554945054945055,0.4213624894869638,1194.0
953.0,1.710923719474501e+18,0.39425587467362927,0.454337899543379,0.42162162162162165,0.5064808021521154,0.6989010989010989,0.4482758620689655,1197.0
954.0,1.7109237194844795e+18,0.5026109660574413,0.432648401826484,0.372972972972973,0.5015896307165566,0.6197802197802198,0.4625735912531539,1195.0
955.0,1.7109237194944863e+18,0.566579634464752,0.4280821917808219,0.35567567567567565,0.5133284421618978,0.7076923076923077,0.4701429772918419,1196.0
956.0,1.710923719504489e+18,0.4412532637075718,0.4223744292237443,0.35243243243243244,0.504524333577892,0.6230769230769231,0.43902439024390244,1196.0
957.0,1.7109237195145137e+18,0.46344647519582244,0.4075342465753425,0.30864864864864866,0.5121056493030081,0.689010989010989,0.4482758620689655,1195.0
958.0,1.7109237195245066e+18,0.45822454308093996,0.3949771689497717,0.31513513513513514,0.4971875764245537,0.5956043956043956,0.432296047098402,1193.0
959.0,1.710923719534493e+18,0.49216710182767626,0.4189497716894977,0.33135135135135135,0.5047688921496698,0.6637362637362637,0.471825063078217,1194.0
960.0,1.7109237195444782e+18,0.4725848563968668,0.4063926940639269,0.33297297297297296,0.4937637564196625,0.6241758241758242,0.43566021867115223,1196.0
961.0,1.7109237195544904e+18,0.39295039164490864,0.4223744292237443,0.3302702702702703,0.5011005135730008,0.6516483516483517,0.4507989907485282,1196.0
962.0,1.7109237195644872e+18,0.4934725848563969,0.4280821917808219,0.39675675675675676,0.5015896307165566,0.5989010989010989,0.4625735912531539,1197.0
963.0,1.7109237195745108e+18,0.45300261096605743,0.4372146118721461,0.3535135135135135,0.5020787478601125,0.6648351648351648,0.45248107653490327,1196.0
964.0,1.7109237195844884e+18,0.5130548302872062,0.4360730593607306,0.36486486486486486,0.504524333577892,0.689010989010989,0.4415475189234651,1197.0
965.0,1.710923719594462e+18,0.4621409921671018,0.4143835616438356,0.3216216216216216,0.49620934213744194,0.6142857142857143,0.43902439024390244,1197.0
966.0,1.7109237196044864e+18,0.54177545691906,0.4121004566210046,0.3583783783783784,0.5091709464416728,0.6032967032967033,0.4592094196804037,1196.0
967.0,1.7109237196144855e+18,0.5104438642297651,0.4155251141552511,0.2945945945945946,0.5037906578625581,0.6934065934065934,0.3919259882253995,1194.0
968.0,1.7109237196244877e+18,0.46344647519582244,0.4029680365296804,0.3210810810810811,0.5050134507214478,0.5934065934065934,0.4188393608074012,1197.0
969.0,1.7109237196344876e+18,0.4451697127937337,0.408675799086758,0.32432432432432434,0.495964783565664,0.6428571428571429,0.4306139613120269,1193.0
970.0,1.710923719644491e+18,0.47389033942558745,0.4269406392694064,0.33405405405405403,0.49816581071166544,0.5989010989010989,0.4381833473507149,1196.0
971.0,1.7109237196544865e+18,0.48825065274151436,0.4200913242009132,0.31405405405405407,0.5059916850085595,0.6098901098901099,0.4533221194280908,1195.0
972.0,1.710923719664487e+18,0.5039164490861618,0.4143835616438356,0.3232432432432432,0.49400831499144043,0.5769230769230769,0.42977291841883936,1194.0
973.0,1.710923719674505e+18,0.4556135770234987,0.4155251141552511,0.3216216216216216,0.5030569821472243,0.621978021978022,0.40454163162321277,1192.0
974.0,1.7109237196844936e+18,0.4869451697127937,0.4006849315068493,0.3016216216216216,0.5069699192956714,0.6197802197802198,0.4255677039529016,1194.0
975.0,1.7109237196944888e+18,0.45691906005221933,0.3812785388127854,0.3,0.5055025678650037,0.6186813186813187,0.4213624894869638,1194.0
976.0,1.7109237197044938e+18,0.46344647519582244,0.3938356164383562,0.29783783783783785,0.49498654927855223,0.5835164835164836,0.42640874684608915,1193.0
977.0,1.710923719714488e+18,0.42036553524804177,0.3926940639269406,0.30864864864864866,0.4979212521398875,0.6505494505494506,0.43313708999158956,1193.0
978.0,1.710923719724491e+18,0.5548302872062664,0.5102739726027398,0.49135135135135133,0.5213988750305698,0.6329670329670329,0.44575273338940286,1196.0
979.0,1.7109237197344906e+18,0.4086161879895561,0.3904109589041096,0.30594594594594593,0.5006113964294449,0.6538461538461539,0.44911690496215306,1195.0
980.0,1.710923719744484e+18,0.45430809399477806,0.408675799086758,0.34486486486486484,0.5103937393005625,0.6329670329670329,0.4558452481076535,1197.0
981.0,1.7109237197544596e+18,0.38511749347258484,0.4041095890410959,0.3372972972972973,0.4984103692834434,0.6274725274725275,0.4306139613120269,1193.0
982.0,1.7109237197644897e+18,0.42689295039164493,0.3904109589041096,0.3254054054054054,0.5077035950110051,0.6252747252747253,0.45164003364171573,1195.0
983.0,1.710923719774491e+18,0.39425587467362927,0.4223744292237443,0.3362162162162162,0.5086818292981169,0.6538461538461539,0.44575273338940286,1197.0
984.0,1.7109237197845023e+18,0.4869451697127937,0.4075342465753425,0.33405405405405403,0.49767669356810956,0.5923076923076923,0.4188393608074012,1192.0
985.0,1.7109237197945006e+18,0.5,0.4554794520547945,0.4097297297297297,0.5057471264367817,0.6692307692307692,0.45500420521446594,1195.0
986.0,1.7109237198044946e+18,0.45039164490861616,0.3995433789954338,0.34756756756756757,0.49474199070677427,0.5923076923076923,0.43313708999158956,1195.0
987.0,1.7109237198144942e+18,0.4934725848563969,0.4143835616438356,0.31135135135135134,0.4991440449987772,0.6098901098901099,0.456686291000841,1197.0
988.0,1.710923719824493e+18,0.47389033942558745,0.4223744292237443,0.3535135135135135,0.4986549278552213,0.5956043956043956,0.4280908326324643,1194.0
989.0,1.7109237198345116e+18,0.48825065274151436,0.4337899543378995,0.3481081081081081,0.5147957935925654,0.7131868131868132,0.456686291000841,1197.0
990.0,1.7109237198445e+18,0.4516971279373368,0.4166666666666667,0.33675675675675676,0.4969430178527757,0.6098901098901099,0.4415475189234651,1196.0
991.0,1.7109237198545016e+18,0.47127937336814624,0.4223744292237443,0.35027027027027025,0.49767669356810956,0.6384615384615384,0.432296047098402,1194.0
992.0,1.7109237198644995e+18,0.5,0.432648401826484,0.34756756756756757,0.5106382978723404,0.6450549450549451,0.43902439024390244,1197.0
993.0,1.7109237198744983e+18,0.4556135770234987,0.4006849315068493,0.31027027027027027,0.4988994864269993,0.6978021978021978,0.4432296047098402,1198.0
994.0,1.7109237198845169e+18,0.5861618798955613,0.4178082191780822,0.31891891891891894,0.4966984592809978,0.5802197802197803,0.44238856181665265,1197.0
995.0,1.7109237198945098e+18,0.42036553524804177,0.4200913242009132,0.3481081081081081,0.5025678650036683,0.6285714285714286,0.3885618166526493,1194.0
996.0,1.7109237199045053e+18,0.48172323759791125,0.3961187214611872,0.32756756756756755,0.4986549278552213,0.5835164835164836,0.4179983179142136,1196.0
997.0,1.710923719914513e+18,0.42950391644908614,0.4132420091324201,0.3281081081081081,0.495720224993886,0.6329670329670329,0.4314550042052145,1193.0
998.0,1.7109237199245015e+18,0.4725848563968668,0.408675799086758,0.3345945945945946,0.499877720714111,0.6131868131868132,0.4339781328847771,1194.0
999.0,1.7109237199344983e+18,0.5052219321148825,0.4178082191780822,0.31567567567567567,0.512350207874786,0.6450549450549451,0.45836837678721615,1195.0
1000.0,1.7109237199445476e+18,0.4804177545691906,0.3961187214611872,0.312972972972973,0.49474199070677427,0.5659340659340659,0.4255677039529016,1196.0
1001.0,1.7109237199545037e+18,0.4308093994778068,0.4143835616438356,0.3345945945945946,0.4996331621423331,0.6274725274725275,0.4415475189234651,1196.0
